0
-7.553157490176847e-09
-1.2366048805762202e-08
-1.3875516221730838e-08
-9.420256698938999e-09
2.2662079852968637e-09
1.962178782467953e-08
3.73838627149994e-08
4.703489646083e-08
3.911078172255351e-08
7.3155076581797585e-09
-4.653718826140814e-08
-1.0871051429026203e-07
-1.533938588036362e-07
-1.4841471707067902e-07
-6.740125577557363e-08
9.38542710313742e-08
3.0245714374501845e-07
4.830858815062082e-07
5.30486251699827e-07
3.439686026463988e-07
-1.2032099237606628e-07
-7.947994938957374e-07
-1.4690715972284848e-06
-1.8107237593056292e-06
-1.4583205647947373e-06
-1.8268158077269602e-07
1.923409400199956e-06
4.304051907370126e-06
5.945379531384638e-06
5.609394385947084e-06
2.313982476187238e-06
-4.034559423311329e-06
-1.2079683873995633e-05
-1.8841353803821985e-05
-2.024233575741894e-05
-1.24806883656666e-05
5.936783921246998e-06
3.211859095565917e-05
5.766853237585789e-05
6.962840010303826e-05
5.421609635811822e-05
3.139495984966568e-06
-7.91305018674213e-05
-0.00017015530330775005
-0.00023015788059857291
-0.0002115621221071665
-7.791292490913219e-05
0.00017170206014586708
0.000481570892615035
0.0007339437993534338
0.0007710494739672384
0.00044961266054694175
-0.0002801274728032588
-0.0012956128783842607
-0.0022623221806946808
-0.0026755227855323797
-0.002010028409971716
3.326054811202586e-05
0.003249540997768172
0.006740056022732859
0.008954786836218939
0.008082322343932014
0.002796368982393134
-0.0068029791246539155
-0.01840783661747108
-0.02736896765795221
-0.02767484934471959
-0.014253754677689969
0.013678394144388211
0.04910998715027593
0.07494604137467742
0.06440375739979466
-0.015004295734177086
0.005832101517260155
-0.09343968555844566
-0.11481315440115394
-0.03819835482558417
-0.023936059834604412
-0.02198229603099498
0.013809036690748176
0.10954531849912329
0.05749024215641654
0.20884489811917514
0.07635434387021962
-0.05216031936156929
-0.29115995836412045
0.2698469721230537
-0.20768044954429218
-0.29187663642412826
0.1285701383713309
0.44127078760590593
-0.3048189663173714
-0.22453962743616404
-0.23058973375654476
-0.2756211141885055
0.000607199035458567
0.8268973344937461
0.6721670775993419
0.6473554944427949
-0.05360720698167367
-0.6778216350832821
-1.2212775702413605
-0.5485286436178348
-0.1498333074824614
0.45232918690010726
0.6540602206149794
0.49920634784594314
0.21203555295829438
-0.04760254743449684
-0.1994147435575789
-0.23221242652185117
-0.17872660551377637
-0.08766664429035445
-0.0019248546578967917
0.05301384619438996
0.07083723503731532
0.05949471132439121
0.03358384918868731
0.007338344954269803
-0.009884384275578436
-0.01514687494291018
-0.01104248787328029
-0.003357926224681089
0.0017252133905200234
0.00012342221101265268
-0.008485041875234712
-0.02018348970292359
-0.027769651597256324
-0.02320937244772806
-0.001330616862286006
0.0360063209606671
0.07655836317387868
0.09673445197338651
0.06425095532541084
-0.055476009099449296
-0.09080009866052202
-0.2564016005358056
-0.15071537201293186
0.03927318936228844
0.12646674317933007
0.3096578321962277
0.3638138114427532
0.2407123608817334
-0.11823168918692051
-0.5618158239181518
-1.1127879163223091
-0.568563771528337
-0.12589073063492082
1.377719479519377
2.2294241505993426
1.2454251415214157
-0.36267540764091105
-0.46387547170774657
-2.2649555311827974
-3.4117930745915603
-1.7976585190497336
0.08789534274495772
1.888272854461038
4.8628892690660255
3.635011013729496
1.1074711470192047
-1.0052063728126113
-3.260993034431861
-5.095776409993808
-2.2849748261831833
0.6296226211757984
2.3085248140901964
2.419502229614394
1.572144834671624
0.4807272036453795
-0.37967390417175434
-0.8073805275189642
-0.8221971949411541
-0.5705091679601758
-0.22965745321599448
0.06019897576989961
0.2266167398949716
0.2626173925123057
0.20465431733359965
0.10506854385421757
0.009738987736820198
-0.05392992700483247
-0.07866781031703257
-0.07190610714333102
-0.047605673765508554
-0.019048856801033378
0.005278808208222773
0.022318963265300824
0.0325126815311746
0.036924984612930006
0.03505602786919703
0.02447256421119409
0.002558348883051478
-0.030273406158358388
-0.06740074028330685
-0.094795962390128
-0.09356441900466009
-0.04695412371363085
0.04921321556566733
0.17587560545022274
0.28469703270826335
0.3017201530020537
0.14355425366906102
-0.2557971814036375
-0.5154570370044991
-0.5883135818994144
-0.56483944631311
-0.10707383965108354
0.4917785805322168
0.8397987499162904
0.9976301472606128
1.0753412610521915
0.4902732862734647
-0.7195224575372258
-1.955932118903213
-1.5436464883506462
-1.6859398129216066
-1.325226300624708
1.09663889645614
4.0270069089048635
7.8220106413177914
-0.31966653983719434
-8.072140817150597
-3.5911128432005515
0.2751115940752586
-3.7341667934846394
3.0413008425167214
9.218208022458695
2.4123199590730424
-3.810827802854955
-4.041301413814234
-2.237740767411014
-0.3486324389595686
0.7752971969628797
1.3543131901181296
1.1707944907315435
0.635311029461845
0.07854052900648403
-0.303716318418046
-0.4511731570069428
-0.40219734056739714
-0.24280610729927318
-0.06153466812285532
0.07848866730041024
0.14826738824978136
0.1472288815762607
0.09074084593646145
-0.0020784685314383885
0.08413508593350177
-0.04063268445995347
-0.1689389964134273
-0.09155714220600716
0.005137277675602366
-0.06197477165376227
0.1224218067214992
0.165713039566289
0.06263510216551682
-0.005115921748341245
-0.06415253337412827
-0.1411588022242502
-0.05442062429157384
-0.008485230385537878
0.0060627205030218895
0.007730963316105508
0.01588180532068507
0.04177081218820999
0.08168932296043743
0.1146786424910351
0.10638407503118473
0.019036135670416975
-0.1746833579395788
-0.27845823235203043
-0.26567143864432413
-0.08402120122045861
0.12763530092675807
0.4146783329091015
0.3833333112943304
0.18844499175253945
-0.061327309203855006
-0.28176808830600386
-0.38300783748804973
-0.44328098516627795
-0.4974958127547421
0.25488534821732084
0.8278844434431079
1.0273539794317585
0.8472713707847934
0.09463694914886703
-1.5631162281541653
-2.353700055162683
-1.9942560143872017
-0.9500504308971672
2.84947972532967
9.08764990818511
1.6071591182290277
-6.917138695554675
-2.793178045793513
-1.5056204604955328
-5.805929713516433
1.0292307420315319
8.785080142074618
4.4364695768630265
-0.6532089906606445
-2.566726651679735
-1.8934265189387145
-1.4892067794783257
-1.6398629019121136
-0.30898042006068677
0.8957819675387492
1.2507636253338692
0.9829781806082288
0.5294956699258678
0.03276026326580576
-0.3078195209525253
-0.4309629680096317
-0.37357395695940404
-0.21874756941585624
-0.050715756534084076
0.07280636407748589
0.12924062729155517
0.12535678470484585
0.08433634378986771
0.032433733131242655
-0.010407220928934683
-0.03447321341896872
-0.03950075902883288
-0.0311646587366685
-0.01696424453019071
-0.00307561157548396
0.007116725898788381
0.012887368145689927
0.015034596437091964
0.014525432242863822
0.011601220911082346
0.005726272910475954
-0.003624523883955122
-0.015720690436942034
-0.02753141067628467
-0.03362485471416884
-0.027578378316080863
-0.005001229353176482
0.03241363517139889
0.07310146094124192
0.09381748555801173
0.06132575469501202
-0.06190030963288587
-0.1090539377624771
-0.10005518764319736
-0.03546082175874075
-0.09552701709869843
0.1552302911032112
0.15980887326668833
0.16004244558128078
-0.009565489686667298
-0.12462576570253135
-0.3723947484980641
-0.1562362108695186
-0.10659513905382118
-0.09839705843273006
0.3306874691805601
0.7717051110499625
0.7583080197326614
0.412503960917428
0.12165431599931276
-1.5690734711214946
-1.4791437957647715
-1.7658880907554177
-0.17398053495769794
1.0403919164944764
3.9464272447937394
4.796440667408386
-5.4403703368754845
-3.0513110598765962
0.705582816609111
0.48809164668590305
-3.083378620893332
5.780150565948054
1.8303043354739652
-2.001409366524986
-2.947716468018923
-0.7291455168940609
0.7036918200373836
0.9796396291739741
0.26833287445929505
0.016005236087674932
0.08163968847594508
0.08961748498212946
0.004031199504118587
-0.07706869069943265
-0.11258665356534142
-0.10097415761098436
-0.060976734789318886
-0.015567594129109791
0.018230341575841757
0.03330238060845868
0.03155663695106675
0.020327582228455935
0.008114478890161923
0.0011130453130563146
0.0012813592313044157
0.006090346598204986
0.009732645643149145
0.005350869906444191
-0.012304947658118183
-0.0445258402679057
-0.08740632082885902
0.0676533813809696
0.03165168477749592
0.01462624797717457
0.022468444885571096
0.055035340294030795
-0.09393620982267023
-0.03534899373863849
0.017579151869922264
0.05178845176923013
0.05676690945869381
0.027007814980828604
-0.035531625707156136
-0.11983901421670524
-0.2067790678929652
-0.07414999350007416
0.09402050073035907
0.2965225793657027
0.3075154445703861
0.2782491243867978
-0.04923810264315327
-0.5193895155871757
-0.7404306253975612
-0.27351987160910235
0.1579888189744553
0.6403242000942679
0.8337908004502461
0.14682827077541025
-0.26735238134689776
-0.2894698428672723
-0.3977700379058061
-0.2322158813922163
0.22638222664587776
-0.14572726317587903
-0.6411107803671172
-0.36596497071836664
0.3058855748947791
1.2857679124603614
2.151695650024118
0.37980445614176084
-0.36769445946540313
-1.7185166080360281
-3.278259794223301
-3.7890484846389727
0.00127590666325209
3.768959678617816
10.015138113947728
2.9482471344430365
-5.665117756146837
-3.884003849949716
-4.72017180503245
-7.766414497300851
1.1570791155746765
10.731393619165141
5.9578625331091635
1.8502391480311537
-2.0490609147231034
-3.492360453963914
-4.177416200568714
-2.3772594443788773
-0.286393876899578
1.447804811982073
2.0206559645754503
1.663304232593835
0.8224378968409453
-0.0027825495768717076
-0.534091081739163
-0.7033536315812398
-0.5877571521773203
-0.32791486046231305
-0.058682769355732876
0.1316060661247273
0.21187358633527517
0.19701232089330886
0.12633902906169633
0.04232676966992711
-0.023848211017717887
-0.057949394864857846
-0.06099326749156855
-0.043439158436520804
-0.018549720572353375
0.0027499293769499464
0.014507265934559746
0.01598958429299233
0.010310817750755279
0.0023623170210441357
-0.003207094470223264
-0.0035184922930759457
0.0016918731299919046
0.009967902932948436
0.016792582357542763
0.0170007383089757
0.006807638960821438
-0.013948848657003979
-0.04009528632569374
-0.060933613065673735
-0.0625119193387665
-0.032737012290383595
0.03136225977171073
0.11626351348213779
0.18761351606048127
0.1922075660191098
0.06814522247743744
-0.23803542917238066
-0.3522456315095324
-0.25942843399182175
-0.10305824608822745
-0.0005982366232633689
0.3284342460688285
0.3309382720537946
0.197042603990336
0.25540900978977793
0.19171598960590977
-0.11244820374175041
-0.3304898121023669
-0.44734533556574935
-0.7395137718341457
-0.9932180890240198
-0.16592581389558234
0.7185741642264635
1.4687115439798615
1.457158197332233
1.6258548707057154
0.5857372504871675
-0.9995066416246291
-3.3933481010913473
-2.004752601570897
-1.7217507141898478
-1.007311542344412
0.848872142127319
4.5868771308804055
2.8462959999222996
2.3604357218538663
0.15002286238889115
-1.8767848846031194
-3.7842855612471347
-2.642648705016969
-1.651729450995174
0.7685808533484056
2.1111742660476995
1.9892858858125644
1.1033154865588615
0.2466930183423123
-0.40216501421977774
-0.6954970573549164
-0.6640029813052337
-0.43438528846409624
-0.15089238930009005
0.07778302351036678
0.19997092609944686
0.21631486915129886
0.16025862504732588
0.07541872581315287
-0.0018448945469697285
-0.051055712528478715
-0.06795199531701818
-0.05949599401879075
-0.0371847740684273
-0.011560121851152275
0.010596058517015451
0.026339657542430034
0.03491199415119111
0.03578913286000597
0.027706355314195474
0.009317011144054753
-0.018714870594603743
-0.05124380521675553
-0.07742750585138508
-0.08244115232803845
-0.05311948493593866
0.012863052113434581
0.09647956468095481
0.14937235952544003
0.29302406591325136
0.22881068584049905
0.05972374348841984
-0.2802619336816845
-0.5985738177113784
-0.6309922412049348
-0.4545530011303878
-0.13004641532317968
0.6349469225019932
1.4248879359269602
1.4871733529788946
0.9614342457416175
-0.22476630106351272
-1.4149572311579715
-2.6876598012957493
-2.790092873843722
-2.195776222963541
-0.3006350531006465
3.2875845713373493
10.471516908988056
4.531894513248651
-1.3585043691162322
-8.375937409812167
-5.17125558206902
-7.487847023798804
-2.0552924590778403
4.57714318825777
12.558344817647997
4.612000147545475
-1.5039124228057417
-2.2256984384123086
-3.3215227146985056
-4.677253795554299
-2.1048809686597822
0.494323724580846
1.9623040970511987
2.145933257273987
1.4737092984402724
0.5407443347089872
-0.23332501868100683
-0.6520555602132597
-0.7111060781357409
-0.5236658075332199
-0.23940750083103987
0.016715571805120486
0.17475749625996115
0.22142068237068893
0.1832263806705615
0.10333965965975392
0.02169626995179944
-0.036468584589359206
-0.06306817956240227
-0.06304025429795723
-0.04734742630837669
-0.026492910340475895
-0.006710825646503232
0.010515884717224774
0.026254011951389808
0.040704397598716975
0.050307941066187016
0.04683147436922436
0.019138711667138663
-0.0427383051437742
-0.14276555715199968
-0.07560888410644398
-0.027007516928093493
0.02134537547223213
0.08358753477434205
0.1610952753708943
0.03716493863861377
0.07784313829258822
0.039760020965286566
-0.116754885069352
-0.21328440398322024
-0.04290789673773663
-0.16857211463583666
-0.1328349670313611
0.12187986492824868
0.22707870186151458
0.1634767350264492
0.04609029190711538
0.12578278030771872
0.21026832493533537
0.10332494411678461
-0.1431546793743946
0.02644622111847642
-0.08193378462094741
-0.5888250591795707
-1.2552767753236351
-0.7438967199994896
-0.12649674647524803
0.9790921149465172
2.680068162947109
3.9362538318706113
-1.8156634770100357
-5.734689413778533
0.41747426157781037
5.47275821001377
-2.1944359151414536
-4.789850975907629
2.8948879074302774
-1.4182607256750692
-5.489932914504519
2.5720801737072643
10.042599478024771
2.7951361276347946
-1.506582486072262
-4.011614183607331
-4.344059698793959
-3.0576564658635195
0.38707029861044745
2.0584353688926065
2.2218360684121894
1.5201081178208589
0.5590540664349716
-0.23520795978594963
-0.6640387418671994
-0.7243398525869944
-0.5325332502389671
-0.24200563607043432
0.019244033997333074
0.1795122629366773
0.22516628436339417
0.1836120155331535
0.09972380348466339
0.015465118248069792
-0.04217202274986705
-0.06425524107212303
-0.05637244396926886
-0.03194586202831382
-0.005503080800840286
0.012174977388984787
0.01639253150356788
0.00863930087501554
-0.004886263532208244
-0.015699630078954224
-0.015962342544976197
-0.0016047138322832803
0.024757122848839068
0.05171424100667354
0.058493246702978126
0.01641623981475285
-0.107809772970266
-0.14811319379979396
-0.13605310082067004
0.1001792980686882
0.33564948970515485
0.35049241412515675
0.13701793681338245
-0.28748111675845206
-0.4673613854932294
-0.7048237004404905
-0.4762866808064277
-0.07338893405071102
0.5386935884240467
1.0660297850004594
1.662539836049686
1.364776620905668
0.1948949835915031
-2.086626690798958
-2.6283346014284668
-3.0038196346489956
-2.2561864154275493
-0.08950535372222798
5.037555811608832
9.62182891361571
1.7604054871919197
-6.1787056946968875
-1.867498667547923
-2.6223027007428423
-3.0602932748784517
-4.738186081298413
4.572819947051676
3.2089523519715306
2.8365151693658013
-2.2921044658065215
5.0596831163025024
1.7047911394976836
-2.7903392896786863
-4.405095936983135
-2.941344201830505
-0.385661822171296
1.372365610123264
1.8625648528335736
1.4535697398100726
0.7495848432396331
0.03185497939306906
-0.42145258577209693
-0.5377078840379846
-0.3979710268545637
-0.16154034964723626
0.0068463443725344285
-0.009204219475653858
-0.24965066974605835
-0.07559956618018673
0.011501826593168429
0.1361529928113247
0.41037898021863667
0.501827331330723
0.01803690535386199
-0.288801785534898
-0.2999541443056275
-0.3009560530844802
-0.15681555735043878
0.10021068919370726
0.26858966728955375
0.16563917438146034
0.01320394097116071
0.027413818054365966
0.015678862942826378
-0.019588360655278608
-0.07353103792376706
-0.13183192088306925
-0.1682947153318685
-0.15010685774884816
-0.051517193510365177
0.1267733022833516
0.33891878318154217
0.4848752747205955
0.4195513913849652
-0.015769991794464287
-0.34392592057047233
-0.5978631108924364
-0.6820379519451135
-0.7687166704466456
-0.1402356763302035
0.32640426971357267
0.8528912617995702
1.0638970007402484
0.9384724241527453
0.8355964687630589
0.40103388752389973
-0.4632030304952213
-1.41090157377067
-2.5071657489113757
-3.991974996500622
-3.1961892453076635
1.5930492199424584
9.789380685882024
6.422262871766849
3.4592782645841558
-1.5837298467399588
-10.998717722642432
-11.393749021114107
-1.9887514613421198
3.141248778103866
8.48441775139557
10.750937397030278
1.6250764431924374
-3.797060463152884
-4.643790159502102
-5.090694275614955
-1.756090591956383
0.771982877529127
1.8083216659486716
1.8680281740337015
1.2710201036603084
0.543578665922419
-0.1203509752327093
-0.5150748874675166
-0.6069110891845443
-0.4750940692312327
-0.24216194008817324
-0.01811733102724025
0.13007728218436576
0.18390162146906827
0.16132827761321297
0.09771805056181254
0.0281996793820567
-0.02345497340695159
-0.04828433757574182
-0.049542365244021114
-0.036978915412519194
-0.020886352109106835
-0.007940607969849729
0.00028090850025921476
0.006248004264902533
0.013744870556725878
0.024665401742073413
0.03659435468366158
0.04220570281967739
0.03101139215687991
-0.006768773966955284
-0.07537463353960912
-0.16968707416743492
-0.07462948933234892
0.03084637642003189
0.16576280086123824
0.13789667849134726
0.1372775374117065
-0.06450211787365706
-0.10864685135206148
-0.23962863039190577
-0.09588165484342086
0.09579451088460443
0.12128828305385339
0.1779521867355536
0.27499449732548936
0.03842183127677711
-0.27986569753216334
-0.19356895393654
-0.38200448058160885
-0.5065057900109173
-0.24685036060817042
0.24648357473999918
0.6980463598499098
1.2729648574701729
0.9858372191037784
0.3679328392110681
-0.2113433460771327
-1.396991815098584
-2.5234272877785804
-2.36649650102464
-0.41165012012104074
0.9598621671970099
1.2136025948866986
3.6212169481308347
9.338798171191181
0.2818488214160419
-8.995621192596467
-4.5093389666357755
-3.7090846621944724
-6.9663318009830455
3.238357662866083
12.488096650834818
5.940029247393706
0.9896928196114961
-2.3636246925610207
-5.047975618565727
-5.479108579242628
-2.1389133987447146
0.8756073686134597
2.274247215286698
2.406328033145437
1.6041065965173464
0.5424869954591179
-0.3145041144100839
-0.7596468245629467
-0.8010583964839042
-0.5744390079104463
-0.2507666319798732
0.03165467260637265
0.19930682959896193
0.2431052887001342
0.19753462751634301
0.11314008829836478
0.03333737884758856
-0.01858546491970783
-0.04138221992624561
-0.04931230130628469
-0.06148847944744742
-0.09160115185476149
-0.14161008204611925
-0.001373103271521801
0.1459677414461463
0.1152919125701547
0.11145729854931148
0.12570778261041443
-0.06164461904253308
-0.2734176007483039
-0.12642360244160758
-0.025694946792009798
0.03474218006176575
0.06452653843944914
0.0660976825572653
0.024917766498789563
0.10526735652031455
0.25486672306870645
0.2196507645756326
-0.03273957942891061
-0.2860425804582391
-0.25453797697300934
-0.7802961380203518
-0.6590290118811656
-0.29819620232310956
0.4010147164446395
1.7607752394110223
1.0768405089783206
2.035924573894682
-0.18206908358498983
-1.1298203977714005
-3.293854943192675
-1.5418011211749303
-2.283140448709062
0.8222153458840801
1.825788312726267
0.9923714331973968
3.141105841233365
7.722340787189505
-0.9102850972464779
-9.041516865171536
-2.2412791965483985
-1.262169235999064
-5.718505946852133
2.6023956573224796
9.648432524845433
3.560770945913953
-0.7675854316405896
-2.135640840409784
-2.883790678851544
-2.037276252719825
-0.8587576764222377
-0.09542530276013714
1.0489200701814247
1.2370236627805475
0.8663421504323493
0.33650923474995426
-0.04464262865159615
-0.3009791406827172
-0.37977977600561763
-0.313684603941988
-0.17386250171115122
-0.030738607801493536
0.06929948526912746
0.11045026434519042
0.10170509439221578
0.06512407666166906
0.023976832362188966
-0.005536968365617875
-0.01764291369164852
-0.0159296525404015
-0.009392639801435705
-0.007378843010911375
-0.015043557381783283
-0.03057212586577316
-0.04502334456485389
-0.04518685110214974
-0.019197380694855392
0.03624366137797838
0.10918541490915276
0.16913598205858815
0.1698634992326773
0.05949135090214923
-0.20379654387591786
-0.43558809126244935
-0.41604828077701583
-0.09417490142211372
0.19315048523001735
0.6937239689361667
0.8170698393106809
0.3296708288292346
-0.4249932811819883
-0.8878490457034102
-0.8456103663018428
-0.6148552895300015
0.13604188823212598
0.5284161937504106
0.7973068595990774
0.6280371813963599
0.9352561785223128
0.7031190036958549
0.08658518948436303
-1.2479736333048363
-2.384138029964224
-1.269455853794033
-0.724081530629252
0.24247413088349448
1.6322005562004185
2.836778414160741
0.8671917207704481
0.696546268380628
3.3422178920520906
-5.533624013719847
-2.969778358675933
-0.687295382504948
0.014042650524527777
-2.3910687085995894
5.572643235356873
1.748155619035678
-0.061962460075482305
-0.6131555847030764
-0.42233950426721517
-0.2761311690536972
-0.0853836851236883
-0.32909308690838296
-0.7223851404362874
-1.1333766740152864
-0.16300782569995428
0.8119991245399354
0.949620074107147
0.6364458377570598
0.19757596826498583
-0.15519256370184753
-0.33160666174913866
-0.33747843820949425
-0.23297463041992703
-0.09172180240387381
0.027996174960519208
0.09607772556727491
0.1096978911373568
0.08416757315029993
0.041510711226977005
0.0011773972948181989
-0.025016605090191157
-0.03374291917711348
-0.028136327442874465
-0.014614942530663389
4.834696797119162e-05
0.010653121505754735
0.014396548537004247
0.010907405920944696
0.001900540081421859
-0.009285521510846908
-0.018257523570525933
-0.020423250101059137
-0.012317499624379854
0.006641754760485012
0.03238545954083705
0.055189472839623825
0.06031059137691989
0.030776000797227792
-0.04804119872352111
-0.18359732225529796
-0.17351028952572106
-0.007220689460735184
0.12765332312493247
0.23673510331001693
0.31279749527824663
0.1367876843882013
-0.31250295952123974
-0.4436083088969232
-0.24005651567201178
-0.058551075311654634
0.15870986710860482
0.4608238160969399
0.2627819930295486
-0.0723700960214986
-0.23773131927348168
-0.1729570803423343
-0.04518628590466111
0.17454210589770836
0.3367322374485046
0.14052973210953904
0.16218784977286801
-0.3186955263488735
-0.7036883900735352
-1.0825921006432382
-0.4728031293127339
0.3091838610532534
1.560549596198555
2.621194682232481
1.455071375741515
-1.696284712561394
-2.4023350211639967
-2.5241841369115594
-1.9509019882499488
0.7661245573723937
3.6864140489548496
2.5165109766064067
1.287901018488408
-0.4617154082618731
-1.9913004468742943
-2.1840594741863146
-0.9698954138683772
-0.20792411822474463
0.5375580347650605
0.9339414426148941
0.9656738887617077
0.6139671511052266
0.1687486758004524
-0.20813028080063292
-0.4704483901084049
-0.643664314802754
-0.37351957239624517
-0.08793230836561014
0.2171389376220594
0.3691748296875707
0.3982196072462132
0.1168420276453935
-0.08921282897465871
-0.25684647277925865
-0.23194115834121418
-0.053765861571539585
0.05580933799314954
0.09529318322754132
0.0797738777437596
0.03361227103139063
-0.017110426456416538
-0.0505444634241582
-0.05316292881833438
-0.022609718411096543
0.030169992441775293
0.07974995648537918
0.08701931960241302
0.003161851751751078
-0.022701127222965127
-0.0330784933479608
-0.05105327248283325
-0.0713731772983496
-0.05618277518664446
0.06309725445639891
-0.022390607001350548
-0.012209133885360263
-0.01297765999689895
0.04456938809272248
0.1902829832623232
0.4033284785630688
-0.9938168035230284
-0.33679478002904784
0.382109567790298
0.5193571557355735
0.396042101462643
1.5340588385779113
0.11785335628413088
-1.326045874548591
-2.656883358722898
-1.0917551886716734
-0.25280280791173665
1.1068971753795454
2.132620123789304
3.313989058420263
0.6110608501013196
-1.504162403079295
-1.9028609933934117
-1.607273245306207
-1.425425473731623
0.1284510408716392
1.2061718632335983
0.5085100638561163
-0.07721507409839598
0.9654127200651293
0.8707766571200135
0.3523998856329481
0.4452430251101046
0.019378233188184466
-1.6631956693596266
-1.7905883857759954
-0.4867066579830089
0.2273777443750936
0.7905003737709169
0.9993087917647389
0.6863810235404807
0.21754225445286426
-0.16694717978413376
-0.3622537659724219
-0.37116601963500445
-0.25804016223677556
-0.10337352037881223
0.028444396764810424
0.10379351161469166
0.11921489510011127
0.09152701064631982
0.04521080744073997
0.0019767968025115094
-0.025088435334158842
-0.03269289614274321
-0.025165725453571517
-0.01074513872426257
0.0021334585917653407
0.007615435899205128
0.0039224550642023145
-0.00642050927844662
-0.01749142603318327
-0.021874991735470126
-0.013379989143425511
0.009824847801315198
0.042410502261718046
0.07051430199512755
0.07292519017204993
0.025445300846293352
-0.09207922908150916
-0.08798502373205333
-0.1532331745778875
-0.060934021977482745
0.027673722903037642
0.15188572024956332
0.1383228039066234
0.19044433047411477
-0.11551896751281962
-0.22713543850057785
-0.006741653674675603
0.07971830609967329
-0.02691621457979058
0.2294269161637423
0.026530439846333676
-0.23200941136203154
-0.31693372921671503
-0.18069450207427473
0.026061216841349277
0.13085160297598056
0.3155700252221503
0.5030655275544413
0.5643967486505895
0.1521904473447092
-0.24357404310949685
-1.2321220338914192
-1.2740171214074953
-0.2721553086651637
0.5868537167006972
1.3497059394700028
0.599322783403131
0.3774896324043012
-0.24831052821526836
0.2318903429289724
-0.775064628341385
-0.6967341212685266
-0.5374156641129637
-0.05094576127408892
-0.5509900836972044
1.0493260183251443
1.5896434582424794
0.833494899837262
-0.3204409634311271
-0.9837378770759305
-1.5996510764775005
-0.4740575384997034
0.2539436054322496
0.5902470913193839
0.6238434179035617
0.450267547155288
0.1067896813545178
-0.06379916617902132
-0.21711182829145115
-0.18588877506106868
-0.24604462527111473
-0.08259682410783123
0.03562604724509406
0.06874049534033383
0.006892547932728856
0.06333255904871703
0.06390181560075661
0.03672539171180201
0.004656369356796743
-0.01842099165636637
-0.027664453692286817
-0.02489599516351706
-0.015276649799469163
-0.004314202248138814
0.004054238750535674
0.008142830348206611
0.00822557194720423
0.005732443019132209
0.0023775003845976097
-0.00048186188706051173
-0.002138780506307631
-0.0025195202596211912
-0.001974620591889864
-0.0010141552606321503
-9.029216011158288e-05
0.0005223374753802067
0.000747029389444389
0.0006562168692507174
0.0003941072198553297
0.00010535467455307488
-0.0001102090256554994
-0.0002122415485432008
-0.00021062038117111137
-0.0001439182001547662
-5.683583259205057e-05
1.5987487444141753e-05
5.7080411151414166e-05
6.528244922759095e-05
5.0115522316664275e-05
2.4891558958893158e-05
1.1695774765973978e-06
-1.4204934083842428e-05
-1.9503519375589716e-05
-1.677444429466407e-05
-9.816953041892716e-06
-2.3535015761275803e-06
3.1027968982966535e-06
5.587679513878819e-06
5.417582627704356e-06
3.620617757945832e-06
1.354609643516403e-06
-5.015815128687904e-07
-1.5196580935063234e-06
-1.6899649654478435e-06
-1.2707490502956007e-06
-6.09241351468327e-07
-7.011188954008395e-10
3.8456626496252145e-07
5.084241146787387e-07
4.2825599249942875e-07
2.439911768595617e-07
5.131878789218203e-08
-8.65932614381355e-08
-1.468518448629969e-07
-1.39185913419823e-07
-9.093193828324588e-08
-3.204314664457671e-08
1.5211687174860215e-08
4.0370008901731496e-08
4.370200745855524e-08
3.218464298320465e-08
1.4862916815329631e-08
-7.301006294266549e-10
-1.0366998693042101e-08
-1.3230199741264283e-08
-1.0914601213059383e-08
-6.044237641723407e-09
-1.0760780049128644e-09
2.4047628187668925e-09
3.859104881853791e-09
3.57770182499025e-09
2.2857741062657626e-09
7.573040614687674e-10
-4.44219764068e-10
-1.0642064315629106e-09
-1.1229044125928937e-09
-8.081497485016948e-10
-3.5524559562886366e-10
4.384409656267512e-11
2.8443700409858406e-10
3.497198769324307e-10
2.8372043457010467e-10
1.5523387857414414e-10
2.727466857078715e-11
-6.04499421768203e-11
-9.536180265066339e-11
-8.59705837346845e-11
-5.1475508083203905e-11
-1.1852687878648856e-11
1.865925496828717e-11
3.38919946482592e-11
3.470703519415542e-11
2.6145287880450945e-11
1.432025309133359e-11
4.117755478743643e-12
-1.87670240733704e-12
-3.3393463157373517e-12
-1.4784462520092232e-12
1.905113176604208e-12
5.197038609831931e-12
7.404477819322031e-12
8.23738499396607e-12
7.940850846798845e-12
7.022142228839316e-12
5.996236334694875e-12
5.222406042303682e-12
4.849373672984075e-12
4.846262651325079e-12
5.078185312102563e-12
5.3865035337240725e-12
5.6470187492072e-12
5.796051896898349e-12
5.828073700347843e-12
5.776072676633348e-12
5.6871223887318685e-12
5.602529823741459e-12
5.547072666291741e-12
5.5273435596404425e-12
5.536373012548256e-12
5.560783509294387e-12
5.58731437716602e-12
5.606913888624079e-12
5.616016037235233e-12
5.615637816363907e-12
5.609378936810271e-12
5.6013508137635614e-12
5.594706594100472e-12
5.591009859995893e-12
5.5903308497962734e-12
5.591773003178882e-12
5.5941075990453355e-12
5.596278891690402e-12
5.597669791937096e-12
5.598133189666643e-12
5.597865221408296e-12
5.597218048816794e-12
5.596532743760937e-12
5.5960370063127835e-12
5.595815799153159e-12
5.595837275959549e-12
5.59600561131272e-12
5.596214378533055e-12
5.5963836296501446e-12
5.5964751006049005e-12
5.596488834070046e-12
5.596449097567112e-12
5.596387919390535e-12
5.59633225114232e-12
5.596297428011182e-12
5.5962866531297355e-12
5.596294454390079e-12
5.596311576865123e-12
5.596329258012325e-12
5.596341779222946e-12
5.596347131110488e-12
5.596346277834929e-12
5.596341764384919e-12
5.5963363424087295e-12
5.59633203628247e-12
5.596329778957128e-12
5.5963295218788985e-12
5.596330610598123e-12
5.596332211365338e-12
5.596333636965365e-12
5.596334507192071e-12
5.596334754653776e-12
5.596334530903069e-12
5.596334078769135e-12
5.596333623115101e-12
5.596333307318248e-12
5.596333178487926e-12
5.596333208131144e-12
5.596333328803211e-12
5.596333469444151e-12
5.596333578864759e-12
5.596333634410932e-12
5.596333638547954e-12
5.596333608866381e-12
5.59633356704194e-12
5.596333530576157e-12
5.596333508871961e-12
5.5963335032759125e-12
5.596333509617107e-12
5.5963335215341135e-12
5.596333533263128e-12
5.5963335412157865e-12
5.596333544299154e-12
5.596333543340055e-12
5.596333540122197e-12
5.5963335364785425e-12
5.5963335337016576e-12
5.596333532339124e-12
5.596333532296395e-12
5.596333533102099e-12
5.59633353419341e-12
5.596333535125134e-12
5.5963335356653165e-12
5.596333535789265e-12
5.596333535611135e-12
5.596333535297367e-12
5.5963335349956144e-12
5.596333534795625e-12
5.5963335347225325e-12
