0
-1.1409131422921155e-09
-1.5110842902762806e-08
-2.97332359336056e-08
-3.8180616819274056e-08
-3.270579181598817e-08
-7.92597597340501e-09
3.5152094888404994e-08
8.591962628478644e-08
1.2382064243941838e-07
1.227086984248008e-07
6.048744950311475e-08
-6.764905844698598e-08
-2.3681204736164498e-07
-3.8744791351094636e-07
-4.34566803978177e-07
-2.948631983274386e-07
7.125195363698709e-08
6.14766622360817e-07
1.1707949186961862e-06
1.4725791250850432e-06
1.2238232578950259e-06
2.2756827444550948e-07
-1.4590846336353691e-06
-3.4056501252467768e-06
-4.803686095417696e-06
-4.64583103692632e-06
-2.1067913714378585e-06
2.94426083635403e-06
9.476124202024669e-06
1.512928549254329e-05
1.660773829215957e-05
1.0759746620524926e-05
-3.78518186207221e-06
-2.4907002756731957e-05
-4.601391734479674e-05
-5.669539230436536e-05
-4.563616267163734e-05
-5.667496107718038e-06
6.029309157898384e-05
0.0001348251647703914
0.0001861723482689536
0.0001755711250727362
7.228659987508443e-05
-0.00012658127820654725
-0.0003785127772984767
-0.0005901595966063996
-0.0006338437105249673
-0.00039054559087273925
0.0001864345794799625
0.001006528265576633
0.0018069423446397577
0.0021823604290750853
0.0017022334301488062
0.00010873701817402558
-0.0024553283762179484
-0.005283728010270389
-0.007127478910577166
-0.006496386360759907
-0.0022582204625726204
0.005582093243563056
0.015193463908473995
0.02269525461534859
0.022753095439727047
0.010136453482467729
-0.01802008995408358
-0.05999749642194191
-0.10840909719207756
0.04874674173749446
0.02462400041033163
0.028525294407396987
0.06117508150010574
0.11229813637110375
-0.0381007401583537
-0.014610020474679984
-0.038772379599663544
-0.12143022155621995
-0.057882494499769364
-0.02798924155192091
-0.001834103582242743
0.050340979336386725
0.14684962436158525
0.08563402702156839
0.04099405525313246
-0.03234186021660298
0.011588294518674228
-0.07519928289598968
-0.119755070554116
-0.11735503634530528
-0.027855854059797354
0.019495989295509497
0.11397468412303492
0.1472807227957157
-0.002412481942201477
-0.0828567960426646
-0.07498103934042258
0.004874957327853078
0.10701812969310714
0.1545144237001338
0.05362804634238209
-0.09171204269000521
-0.1634892053856595
-0.2151756793619654
-0.0637450978417414
0.10915812781878469
0.14746975621878533
0.10611316460799786
0.03662149655563951
-0.022979261361713958
-0.05240211482362919
-0.04817664283963856
-0.01958086314021175
0.016529450900431786
0.04069698257143921
0.03519532281483483
-0.012315649925272029
-0.10600990980008247
-0.04062737822363828
-0.0024805271206456403
0.027086540548147308
0.06670720645278114
0.13032443736346186
0.024828400076583136
-0.04892392280655166
-0.09226984684075128
-0.10422748833282727
-0.07905877944664097
-0.007846415755856335
0.11588983712904138
0.08864066626462339
0.09085287996211841
0.08567060953360708
0.02418550786367435
-0.14348500189393473
-0.0542952832193377
-0.11994852074711415
-0.12046050085690277
-0.006321811126023136
0.0905680837960345
0.03967163679272048
0.09265402147661023
0.06717258982290637
-0.06236226756939197
0.03532885858120538
0.058580998675702156
0.2925180386501073
0.236740991956029
0.03751075888616946
-0.682462583778351
-1.0075063522469965
-0.5377738415317123
0.17035104379030647
1.3390149264957765
1.1003913441847477
0.853432000651151
-0.33311900659746263
-1.0704715058685477
-1.5736552347025845
-0.5930224202791006
0.6183094934293346
0.8924535769773168
0.7038713753215702
0.12122924883832131
-0.02383736490031882
-0.5424116571365305
-0.2736773365736311
-0.06250042161021441
0.0590153309738565
0.07992875831721018
0.008923916010260699
0.06657847086059013
0.07593421526169211
0.05494127979847864
0.012821352943262511
-0.049300675654129385
-0.13474956512805147
-0.04692432621578953
0.013549686064013439
0.04903118710285949
0.0629547190580852
0.05748542748344657
0.03252201263590391
-0.013052957264166916
-0.07833878819824024
-0.15726133643437284
-0.03738736778561664
0.09793626843577481
0.06447617441151723
0.07116110687644786
0.11611812382448265
-0.013246419247104194
-0.1358784136939863
-0.07014672655152553
-0.027263606862707478
-0.007764322655972401
-0.0023736675396497753
0.00310872982915255
0.020525414153347306
0.05191825288347046
0.08426454208629341
0.08836508638580005
0.02293158355390974
-0.15657799163057565
-0.08652354084993447
0.01571909886055478
-0.04108986097755872
-0.020173127264256074
0.13995258384338616
0.11823047821317649
0.0013773225287289227
-0.12760684622815344
-0.40368549093589456
-0.3987490284347252
-0.14584503435078966
0.23563787849181664
0.9253360612374749
2.2150339577972042
0.3652200599718979
-0.4929225174812013
-2.4327084013920657
-2.4313729974495826
-2.1482196291950744
0.5845506855329202
2.5688511066167434
3.605139393783737
1.9015236684436596
0.0032970552060884177
-1.329090851390541
-2.7260139357563244
-1.9742986725572103
-0.42587943067839695
0.4943543083286281
1.070546125902476
0.9972941218982535
0.6501090092681711
0.17133391437398837
-0.20035964685221241
-0.35083150882187064
-0.2724856885255875
-0.22592732600012244
-0.09896454607947897
0.02519922073300268
0.0858730542560428
0.0499446576927116
0.10837942121942325
0.0691092408837988
-0.049838438378802315
-0.025055501096835076
-0.03027618125717296
-0.037820901453868995
-0.02023855861622051
0.047141831896825845
-0.017143214492898934
-0.004080101277721642
0.08346877142218723
0.030459098764017707
0.012056886598236206
-0.0013031036369033418
-0.03715463786793122
-0.11434334093505173
-0.03863054393966787
-0.002278184621697078
0.011844878228725611
0.02259839336449085
0.0415187708807053
0.06506334904326468
0.07062497312703091
0.017985035406942726
0.056597566658596374
-0.06245008035170411
-0.17242800905379901
-0.07844755509835402
0.050193580340731236
0.08085742490356317
0.1116428745928368
0.060025275938968364
-0.15283759265285382
-0.42241057004257554
-0.4869888076191125
-0.1596834249928149
0.4391126772770839
1.0618581781012815
1.5456427633265943
1.2726072330094498
-0.11858908179758561
-2.79375745550301
-3.2075305375991614
-3.073796534417939
-0.4655420666992928
3.164669882088486
7.91751697327218
2.649712548000052
-0.24931604113915828
-3.076680240665851
-4.700744368441729
-6.651180512309674
-0.5567026000474068
2.994209581216197
5.198400124840659
3.506758698423359
1.1624015357350717
-0.6892667179143811
-1.90060905297313
-3.2930119936727476
-2.0009873854126496
0.11605554776458471
1.1423025940678375
1.2571146716881147
0.8138475772768353
0.40322460333978827
-0.05366662236710151
-0.16155654643984121
-0.2572469696873391
-0.1803036789377822
-0.22689129761864113
-0.10338749318127849
-0.09121043071832252
-0.028338576241328794
0.09234050723374097
0.11172345440506473
0.0863644627795763
0.07002963020606481
0.10011587926579708
-0.008236609226856182
-0.06013918564920172
-0.07314305500229931
-0.06714058616070874
-0.05572076896266462
-0.04176536003117698
-0.01839273312167172
0.025489154612648966
0.09734317035691069
0.19418220943737843
0.10007140857970123
-0.010077924495801392
-0.1610342464916329
-0.1656145784235481
-0.2161801693015511
-0.08400529200570844
0.0716304681377008
0.286937182941321
0.1756254904399468
0.11664845029652102
0.05305789589985152
-0.09677519106392538
-0.21886153051677498
-0.18058831805786135
-0.011942966756894033
0.10410525608353086
0.030581425419386604
-0.13357583717850802
0.1304299597901452
-0.05753039363710183
0.00501387259510424
0.18789101857297927
0.31894183835654255
-0.017751021875797038
-0.2767152788857376
-0.5430747595950259
-0.5280863707488789
0.02697368222331492
0.5405302417436897
1.1852562334885295
1.304569345526187
0.664544659366643
-1.4610294342993393
-2.997855629829404
-1.413813043387944
-0.13784800647708859
1.5322233625867603
2.2612827946894156
1.9066834114754343
-0.19249968425797492
-1.0318004056259078
-0.8678597702427736
-0.8911030933877976
0.10949906810199239
0.2539198739085984
0.03392861577285691
-0.869820971974148
0.19067709009964384
0.5814200742014802
0.5232945927265915
0.2318701094936647
-0.1253464073451907
-0.24734268107082388
-0.09618558828415047
-0.08014586312341238
-0.03255682326518733
0.007002503822636842
0.005970178437585343
-0.05419453254603491
0.023447736952796856
0.048631878685146256
0.038808541112302516
0.013492603053740213
-0.010472646508632256
-0.021956234766015107
-0.016843495097189135
0.0020310033925329336
0.025972967473019967
0.0424429767958395
0.03806483584996934
0.002514510881982112
-0.06740357822517296
-0.16490957137302284
-0.07337371620932563
0.029493717681777665
0.16403988586375062
0.14038434768628805
0.15325990817879212
-0.017097748283168804
-0.19776097251838634
-0.21252579947940953
-0.0727095436480935
0.02650390913585892
0.10284325259068305
0.17892821440893766
0.07358966030970183
-0.0035235797337669693
-0.052186797210300805
-0.0775290991598615
-0.08445550676453473
-0.07384959354994683
-0.04290122416985346
0.009935949106637046
0.07694572850665742
0.13342035983914924
0.13429033287543435
0.21860456783046855
0.12321964115230241
-0.19641414488967407
-0.5445366282995092
-0.47154954136551275
-0.07725693164339135
-0.03400534678415987
0.5760954416491779
1.0240685505088534
0.714432702373876
-0.2048340174612617
-0.6038933986840556
-1.3215256520440755
-1.1321211247454805
-0.7541217142789992
0.4920729219765886
1.7940740653450569
1.765472792907816
1.619970605530862
1.0357667551436673
-1.0896248081347994
-2.836047157812493
-4.083872824270321
-1.8452176685541184
0.24565801678604637
3.2925999184283907
3.8243360011139513
3.3215524155273872
0.08638259439692575
-1.701120537478104
-3.370931186448438
-2.68477370311089
-0.19519078189413797
0.8857755050577519
1.0914323534030825
1.0112384523187086
0.5627296454480052
0.07461451493866467
-0.18984327717985222
-0.26293153849179907
-0.2660054974377372
-0.18308694345022913
-0.03024640720542765
-0.03128431301918694
-0.004158067840969739
0.0422525769164267
0.10437349822326983
0.17766158004059313
0.052065557050311864
-0.08810133068818134
-0.0596748037548226
-0.07373428366392056
-0.1296574087618606
-0.013033779058125673
0.10138807661786466
0.042676702197755836
0.03519316427812318
0.0915843509044699
0.009541725070523584
-0.026889457380700605
-0.04223030332134365
-0.06270953919578132
-0.11010515637297455
0.001663996533457162
0.0663821438456848
0.08259719662138626
0.049914569888406875
-0.033238925826494924
0.0309984493958981
0.043429675413788435
0.013092303402027036
-0.037553671198093844
-0.07003978687312758
-0.2328008154057255
-0.2722069752396666
-0.15269523576274335
0.11650304478610694
0.45541713044023735
0.6999368670090084
0.6136589726358479
0.3326631595476786
-0.3603280043386703
-1.150350948058761
-1.5227248917054332
-0.7452074174119832
-0.11930478245280932
0.70361213963836
1.5725301143176862
1.9024724196365288
0.8051036178255825
0.9142187838737971
-2.2978067841203824
-1.95250501416932
-1.8092293963421142
-0.7801328504068247
-0.34641676634239976
3.3379173523754386
3.3077853312310954
1.0828876375392489
-1.7522188387005668
-2.8803299608620603
-1.3407585130836213
0.7597222889652472
-2.5334838794482937
2.7184140550261975
2.6381722577538738
0.020141744306150344
-2.7406425886638477
2.7434871559438814
-0.6978332326016916
-0.7070093991926707
-0.5003366084752248
-0.3821436810061792
-0.4924220547008594
0.00035081672880510394
0.46310826465068256
0.5332393616225856
0.4464813445064526
0.17915322857295035
0.018906634324578855
-0.23287208972631004
-0.23406793373342422
-0.26334606524648485
-0.1840904465076293
-0.021208976963777132
0.04460205944837056
0.06653054037855485
0.11104286210373518
0.23474632779303867
0.06606602942072859
-0.003170949264366059
-0.01454867157822079
-0.030094734382684396
-0.11390251170142567
-0.1137478073258613
-0.047708267669098296
-0.09926702413711021
-0.02207802843184422
0.04702374668421036
0.17051756485723318
0.19345216888208638
0.13276223565332657
-0.023889300861017433
-0.1096771191465671
-0.16423043200422138
-0.21934301577590865
-0.09081893927260667
0.019941307157734522
0.1149354673702592
0.18332014826368137
0.18637759423694725
0.04989832099872605
0.06762388127048245
-0.08447830920950836
-0.12712303693098878
-0.35630398955387355
-0.22845240376895387
0.04319697890217928
0.0809927359051823
0.3294871367519382
0.44578874046556755
0.7034957692906657
-0.584250719162159
0.37462359562582037
0.0943608459273073
-0.36178147308028524
-2.395279825335209
-2.3497505850134233
-2.4637318386104603
1.7181905635159787
8.537809547652719
5.521378690892896
2.4844561563494643
-2.3233652937681804
-11.319047725813316
-10.924460977386918
-0.7595710723309942
3.9844810237980646
8.040436575493992
11.036866241893676
2.212805911465878
-4.334932183184051
-5.2440337837057465
-4.84895954341421
-2.3179916305306416
0.4612028057641405
1.970928846047235
2.15362799737593
1.592496034519346
0.684062597040089
-0.12375895799827419
-0.5990397960398158
-0.7090108477186372
-0.552249889148364
-0.2774754257035982
-0.01757071617983852
0.14723028152773948
0.196740070349298
0.1572694476116312
0.07851398228108625
0.010704079499930602
-0.011858288555821939
0.021476196403467193
0.09839937393356929
-0.00904845686607951
-0.13326176140130824
-0.0993894041170894
-0.11698236700971004
-0.17802018779853093
0.13775098457148827
0.25222292271322666
0.1777821299104013
0.11114362443711787
0.03576130501648454
-0.26761486997771555
-0.20685882142250267
-0.16777617432542008
-0.11291907179589697
0.00759053072538352
0.23565424656366085
0.18191427427261322
0.20835195483153018
0.22456063960456019
0.10174282699243539
-0.09695261869044305
-0.07683799095383742
-0.2744539562062582
-0.6363995501812699
-0.8265792040190345
-0.4684788697884838
0.18179126253175187
1.150800225262564
2.084440689394184
2.0436360852492177
0.5846924762916536
-1.6808456785306718
-2.892392936750676
-4.189353439383621
-1.8813315986394998
0.8198168292765241
4.132313191714371
4.59450470083077
5.437817803113595
0.3412399252993966
-7.814861499143713
-8.877081146099528
-1.7713292220945018
6.204199592477046
5.131538110052949
7.566134458440284
2.300421625896137
-10.138593903742578
-11.5150454491546
-1.979798928870194
4.633038979519327
7.099138795893211
9.420869547075736
1.165430607052216
-4.537919952367423
-6.542295816562008
-3.8993883638601283
-0.32404747645837195
1.5663200474017562
2.21167445259289
1.7299984325992173
1.0967137542820715
0.1676376095149833
-0.41002137092951374
-0.7969045147815064
-0.6989010457341011
-0.4817401575858705
-0.09675878473076893
0.16268102970947615
0.2708883014365062
0.25443195980187167
0.16552072926172762
0.056859047411592534
-0.03431907117330443
-0.09114690069898444
-0.11353394740081478
-0.11080624157222872
-0.09510569048807357
0.12181586427176339
0.12840050608317594
0.11187246780869564
0.058472287114814975
-0.04302475986190533
-0.1952911469851678
-0.18693699549780207
0.008806831226165934
0.028958581769174773
0.10984894471156847
0.07379980905504381
0.11810749779792908
0.010416539984530793
0.09264671257885769
0.09318240462072871
-0.05539946908649098
-0.19795741863223432
-0.34425554473197395
-0.2689303656082006
-0.12826479322510298
-0.09292117655045416
0.011081865285287665
0.4674759307308978
1.0596586396257304
1.7041792832256186
1.5390384304264169
-0.9403243838082024
-3.1327624225701367
-3.833942817483038
-4.0603642197172825
0.5639473021187339
7.082841092315316
4.245700638492416
1.8481260597055764
0.8903288093927989
-2.615787922331973
-5.456207764991667
-0.16833389839084523
1.5289059599882246
-0.4621306906578567
-5.415422808827655
0.6309942968230129
1.7380956889907682
2.853716663601871
3.231342711793167
5.792343225553172
-2.292808519567931
-4.002299315923047
-4.119475784648685
-1.6782376914707526
0.2816725891332209
1.3895640117813433
1.4635675154188141
1.1403189945735959
0.6914302121719808
0.08516351100226027
-0.27985500922311196
-0.5718083596606124
-0.4761155881898613
-0.3281751217482546
-0.05339916297630981
0.07077823555379156
0.2275278108630625
0.052809768087523024
0.015708027628153848
-0.004834252315671111
0.059049411228012175
0.04911713308135626
0.17386558726637366
0.009988466296134934
-0.08838123889640095
-0.17545072350150792
-0.09900572626930323
-0.08973552293467084
0.042414651592243044
0.10479553175820532
0.1141576329964776
0.08833640472053658
0.041114333045883425
-0.018058444127698654
-0.0803008097667435
-0.13239519324400623
-0.1545633320393739
-0.12412121191686273
-0.02604698277653949
0.1317417091758445
0.3039471188919511
0.4019017633280915
0.3030023634020527
0.07835414889720854
-0.1658211234114964
-0.6456216936479935
-1.0741639677525647
-1.071865138321077
-0.021931778136131175
0.43663652408779174
1.7073994334687645
2.570866530670561
1.7998997115229007
-0.12026137245061942
-1.9841282333292842
-2.2324749871597622
-3.3849893121722348
-3.4276308420013533
-2.40319314203579
3.415394862957424
7.669111555365157
4.334096975487336
3.1838300407135525
2.186660262861729
-3.188138469629145
-10.308034723877917
-10.191089347904587
-2.0243226702627597
5.089779708587603
6.607564867759326
5.64621569187804
7.382691032034696
0.3617583670116723
-6.213686317458175
-6.491941860946284
-2.868760556156818
-0.17049722683718016
1.1504675523531913
1.9921870824639154
1.8210705186296592
1.2341013634116405
0.3551069176121683
-0.28352195322250384
-0.7648751291850658
-0.7406294641916801
-0.551207476470879
-0.14887043888653995
0.15350624923143946
0.30163104399801877
0.29363220237729454
0.16126795599175092
-0.049577497899609
-0.09227665725870751
-0.1256957981269747
-0.11608530156195518
-0.03825372253356886
0.12190205243235477
0.163947964170585
0.07088709175839784
0.011084116751561445
-0.05497808278750641
-0.16469395504382978
-0.14350004747201392
0.0011954418271015877
0.08033280907094575
0.11836996179838598
0.1460412237395894
-0.0060544180905155445
-0.11114470290112541
-0.14765953752717131
-0.10046313910244846
0.0358116445516132
0.05078912213667887
0.11162733067058803
0.1591548529549437
0.11057612893816311
0.0708239032818844
-0.0482491119133339
-0.30493731174556793
-0.3076014845121614
-0.004387163631840856
0.11286290927476182
0.19073772033240524
0.18696884528016045
0.03990223539031676
-0.3606340839986275
-0.5995229089184934
-0.35975326385680745
0.359324042700994
1.038163465750122
1.4643100982354713
1.408248684591988
0.7532699437461416
-1.1405192852482364
-3.889488813711668
-4.831690878244121
-3.7343769758930256
0.9114327648919103
8.466784564562694
6.334210568665762
4.541917586853746
2.2570692773898453
-3.160918199144693
-11.503863017193382
-10.897255306243196
-1.0726307727442201
4.326234685070261
6.842685988795321
6.119310264230164
7.6970988937651805
-0.8809248117177625
-5.38559354696116
-6.518742120235515
-3.019108527436432
-0.25582285711404873
1.3668728660786367
1.9791242654207484
1.8597149350085334
1.1985719853726307
0.2971090355559002
-0.34338870493809426
-0.6381481388437532
-0.6645976824405728
-0.5760855984171002
-0.32033105876266144
0.013114494787937692
0.2081697769953907
0.3061586794445248
0.3728624250531017
0.2651147679140232
0.009542604836813129
-0.20121225478813046
-0.19717689107832273
-0.21234019108297877
-0.06750774479419519
0.03885351465820672
0.12978176931169816
0.04107470712737743
0.008893858404488156
0.058010432741184004
-0.006317836240679424
-0.0014082160523691642
0.035048494012372436
0.0518183839015538
-0.005649639176719449
0.016584113966195684
-0.10814898522306822
-0.18020011339143696
-0.1736900341868477
-0.04540903742727872
0.048355839726542685
0.33148974249028906
0.3915324714560029
0.37470219133147964
-0.003159756260475904
-0.43217928980693476
-0.9808881301072825
-1.0803665374110525
0.06826068609608243
1.063753834405085
1.870007271193288
1.8059318285337302
0.3843015129583295
-2.2004422607426655
-2.3695574740523324
-2.7013435751952355
-2.1722339983779166
-0.11717197093377218
5.529523770900849
8.207622546100012
1.2349278208660877
-5.4815478840143035
-0.34306885353841465
-1.0771981286834953
-12.432972380683198
-1.4861266560394844
9.391760486964317
4.156714506126047
0.06054563983630212
5.539545008156216
0.13785746058382442
-4.323418145122446
-4.413610465415615
-3.131892617748676
0.14899053548329821
1.7604319946831837
2.04458551773569
1.5601434704815655
0.6766415303546055
-0.17416640647542658
-0.5611670627657239
-0.6394207521977875
-0.4885660855575509
-0.2385207876761064
-0.008583979879972836
0.1273794141216034
0.1492730606514956
0.07995798407795987
0.165264431750834
0.05365477477907449
-0.018673266079150555
-0.034905817309011995
0.0024707896496640185
-0.12341258066398408
-0.03694804061288169
0.0363771529763067
0.07475606356655184
0.06320243696287141
-0.004293900035005924
-0.12329491320340388
-0.0787685015779563
-0.04751311046185878
-0.003911545589038762
0.07173884577047562
0.18480784451409862
0.1212794460171982
0.049011026074935446
-0.07383351360153279
-0.08528040578566282
-0.2056300939232416
-0.22872680815900323
-0.1227739945312116
0.15821371654359873
0.25563493753659305
0.38730024385590867
0.33635453452431957
0.0532948322259959
-0.5302396675097109
-1.0846381488284522
-0.8751722647537227
0.026646920780638073
1.5174178070571946
2.242873146135099
2.215488797573197
-0.11181156570382578
-3.5282957120346135
-4.956894811655156
-2.8287328590750636
-0.19406922393282772
4.842238955544519
11.252348448847581
3.119836135890547
-7.320267632737725
-4.839792614766935
-5.296267884505297
-7.402229782959442
4.70194554571227
16.884823830069664
3.8020215919078963
-7.222032506788745
-4.934505296056329
-5.1862613884045325
-6.810643936574521
3.528647215889582
11.715528162004476
4.701850806372894
-0.4641751249419038
-3.39213983405845
-4.900933216569359
-3.8892144560376765
-0.27401878320270645
1.7053039412077742
2.208365313416746
1.8039209925034736
0.8611216396563469
-0.0026015872739694186
-0.5825596090169032
-0.8637990661653113
-0.7475135651391643
-0.36712233459205657
-0.025267365774931827
0.23398620988716087
0.4202500208375817
0.37259048174960585
0.1321911147320885
-0.07596785133959813
-0.2479616152318903
-0.1951449899834096
-0.1344199739728092
0.11930277315368029
0.1557876103294615
0.16849467153175632
-0.04695582957916074
-0.09254862650602085
-0.16592921092651072
-0.05879719003144485
0.0421826410270114
0.15144513865388284
0.07922436917721686
0.027657536991715616
-0.009575293189852282
-0.043806093633610835
-0.08577384517580708
-0.14053637772667416
-0.005372903999417206
0.1281776564896058
0.06890445178978606
0.019398320733981157
-0.02910855000216858
-0.09906004064387261
-0.025827579975793893
0.1458108566996156
0.1680357478690832
0.19965926455245922
0.018758532576775663
-0.3646332541480071
-0.5019931480891234
-0.3138461349842815
-0.31693242625301277
-0.26946966062407635
0.17717341388778426
1.8422584811245284
3.822779116214754
-0.8334052923444303
-0.9890415188218245
-2.6525420564547297
-4.259577667608335
-4.879099345039788
1.815454432742505
5.041998870207856
10.785489151107269
3.2073368567730367
-5.496923114729774
-4.9922376761946605
-3.17907086117571
-8.038921171637682
0.09612730324124696
8.004405620296122
6.644573066141721
-0.6077864709670807
-1.2053658421807874
-1.2858982310768199
-0.9658420795588015
-1.9501633386060284
-0.13949951349734035
0.9116210384337392
0.4662343057420601
-0.386392526942416
-0.36531283715801877
0.343265859686796
0.4175161926767672
0.33476016411734644
0.12150673049710109
-0.07306563795438425
-0.1790831847028983
-0.18929769482431374
-0.13344122444866602
-0.05309045909058993
0.016573649768546875
0.055798573989727214
0.061179114386109124
0.041416527055559496
0.011128092683387436
-0.014921223596237584
-0.026010614149022043
-0.01791150847830478
0.006131490636232779
0.0356834634073912
0.054765996860011705
0.045113744153985724
-0.009020749393518766
-0.11535297513556261
-0.06906617130719507
-0.05141009937815258
-0.03284841556965333
0.01933541527692271
0.13088292124055467
0.11111488800288644
0.14773456919742578
0.008296651225554647
-0.15161617868870952
-0.1762561755375416
-0.09823111548852202
-0.13213763422085462
0.12454136628021445
0.2845057175838911
0.16166817937484004
-0.035276540716123156
-0.10428789467345562
-0.2475934789656932
-0.06946549464418346
0.021593910170179795
-0.19572938740790286
-0.5690494727409656
0.21459000954043791
1.6253994512741405
2.7101075503834755
-1.856700753999254
-1.6955970565511675
-2.05000825950464
-2.9627473904628348
0.66776110410237
8.560130769300809
1.1029351639867107
-6.547971623555103
-1.2964771062445115
-1.0763198050669014
2.7994886148820286
4.902271268674397
6.193174718080398
-6.403501916670783
-6.187666234716605
-8.929818697814802
-0.09631270029833094
5.693058285564093
11.048710666845167
4.215291918367413
-1.1168026635114787
-5.105902533825915
-4.818478194825341
-2.8139020049130408
-0.42351456618873795
1.1764440209532705
2.093840533490693
1.9202651129995718
1.0976495911803654
0.13385330034398224
-0.48959001950941594
-0.7164822052062177
-0.6503838231380509
-0.4642108336151417
-0.11970263824352789
0.08262967714134675
0.1180883875191747
0.2238442635283983
0.2694624120391479
0.12548018410093909
0.0403511358530933
0.030835333804480888
-0.11449175257540085
-0.22305789632282458
-0.12386382510223728
-0.036808424841293166
0.030724012925994467
0.08003035444590921
0.1130718543530696
0.12478449286698423
0.09979604102045464
0.0156768975238464
-0.14795553480029036
-0.19791232787543467
-0.11851729682422713
-0.06987177881892306
0.004678594451480563
0.16347725253555964
0.24866278013567072
0.0716287218256851
0.00701653585213601
-0.0026332006717314916
-0.03319385185083898
-0.16075656016691464
-0.04473955154647831
-0.11781091533942177
-0.18653819571806746
-0.2441193077037178
-0.09320214691274548
0.22733907027403488
0.62228303883615
0.9402255455115147
0.8061576177178629
0.489845927267101
-0.8027309208731683
-2.447019509537726
-4.172326537708354
-1.7301035816966333
2.1336130289273765
8.849366335459692
4.037633754076342
-0.13334151990785592
-7.806933912944805
-4.3770731628170605
-5.637798334953903
6.740194894264842
5.378040712764955
3.072022983552528
0.09912756825365243
-2.5920396736968327
-9.728492279473503
-2.2849288729959865
6.639085043894937
4.230013500331316
1.1395385478786377
1.346138406449336
-0.42695623959293094
-1.9404141649243578
-3.381530122494199
-1.5158842392531906
-0.3306283955855599
1.1903868916449278
1.5726578883253102
1.2914064309277764
0.6115064050826834
-0.12302936575289292
-0.5297916792863697
-0.567759540569319
-0.48252991937723544
-0.34659969133136437
-0.016475194416808336
0.28444096740986535
0.36041194592655207
0.22622985555936348
0.09062693110048514
-0.0514995666789113
-0.21624496051633987
-0.22104691743384808
-0.07459373474343414
0.02832324785670752
0.10503734916832497
0.1781199432399623
0.06741582646439279
-0.015115751592987565
-0.06592550018353607
-0.08655169896913767
-0.07901804216968597
-0.04274024152466103
0.025440222311012527
0.12830864762787322
0.06422793275481814
0.024399311911849388
-0.006849586556619445
-0.04860555441623708
-0.11816590998979132
-0.02630414725779491
0.025088540349980773
0.042268545005826254
0.0365010695681269
0.02006970903293511
0.0029704787303362697
-0.00882632934764006
-0.013460479624215498
-0.012098548433570968
-0.007385704997436969
-0.002047052244218621
0.002002216223532837
0.003958704868174328
0.003972072000964122
0.0027467228685659427
0.0011170017911475468
-0.00026170780041798603
-0.0010522604855038651
-0.0012243724771326106
-0.0009515653285035837
-0.0004823067518576952
-3.505223474693383e-05
0.00025883477110134277
0.00036405440538686323
0.0003170970036953768
0.00018849994882797538
4.8349548450214566e-05
-5.540690188903119e-05
-0.0001037807687716621
-0.00010202737958917498
-6.910316151929277e-05
-2.672253376083935e-05
8.42616533211115e-06
2.8038668028620036e-05
3.170512449621705e-05
2.4138593248379385e-05
1.18239439726679e-05
3.4499197898957477e-07
-7.025755828540018e-06
-9.498698500544814e-06
-8.101484129169248e-06
-4.691158340401973e-06
-1.0704849973435486e-06
1.5542656238215315e-06
2.730393505610225e-06
2.6231750973121904e-06
1.7373671380579e-06
6.351327621780251e-07
-2.6033836487564356e-07
-7.457517521863031e-07
-8.203414935029747e-07
-6.11728203159398e-07
-2.8897228290740024e-07
5.362625629373205e-09
1.8993336812339853e-07
2.474982260824338e-07
2.0675135128216467e-07
1.1650473834411873e-07
2.3078903593931284e-08
-4.3226003386684097e-08
-7.169489564598697e-08
-6.734615098847396e-08
-4.3588463241189884e-08
-1.4958233856192618e-08
7.827409998749384e-09
1.980981621546112e-08
2.1220176732752983e-08
1.5501407636927704e-08
7.055018919264926e-09
-4.834423253254301e-10
-5.09673922955598e-09
-6.420628202593048e-09
-5.250359013584841e-09
-2.86685881343488e-09
-4.5893610069927974e-10
1.2135883114438904e-09
1.8992621601999085e-09
1.7467068785727801e-09
1.1113421147541803e-09
3.6860790950179183e-10
-2.1045974404467163e-10
-5.054012405012929e-10
-5.285948563729299e-10
-3.72610688647305e-10
-1.518936059940736e-10
4.0957318897934045e-11
1.5604043528656947e-10
1.860310079618948e-10
1.5282840606147718e-10
8.999444452054122e-11
2.8004795056648158e-11
-1.4120680514384552e-11
-3.054153100265218e-11
-2.557763039554913e-11
-8.630638298277927e-12
1.0614018696857453e-11
2.5311525270581098e-11
3.254881806677631e-11
3.2808972756161925e-11
2.8573298671840173e-11
2.28137299211605e-11
1.7885913509829027e-11
1.5020997206333713e-11
1.4354711390539341e-11
1.528734919128306e-11
1.6940867871177637e-11
1.853490678731944e-11
1.959424878737023e-11
1.9984937603456712e-11
1.9830716929531483e-11
1.937980080014928e-11
1.8881761031732622e-11
1.850920573994666e-11
1.833222153318055e-11
1.8334170903027943e-11
1.8448730625189946e-11
1.8598820658900552e-11
1.8724590219946977e-11
1.87957531355673e-11
1.8810173906348228e-11
1.8784194958827725e-11
1.874075443703294e-11
1.8699811156246958e-11
1.8673215130077683e-11
1.8663990483965546e-11
1.866863386251536e-11
1.8680604155051978e-11
1.8693477829495913e-11
1.87029087705228e-11
1.870722055396283e-11
1.8706948724378427e-11
1.8703861428380464e-11
1.8699955374754946e-11
1.869674926800253e-11
1.869498579018858e-11
1.869468501677556e-11
1.8695403541957955e-11
1.8696542962528045e-11
1.8697593399705864e-11
1.8698259980686167e-11
1.8698475824103884e-11
1.8698339162928465e-11
1.86980220728428e-11
1.8697689695117035e-11
1.869745128811301e-11
1.8697346681380375e-11
1.8697359354302224e-11
1.8697442282872645e-11
1.869754380568583e-11
1.8697625436409763e-11
1.86976690261071e-11
1.8697674953398027e-11
1.8697655201943743e-11
1.8697625361555595e-11
1.8697598442497455e-11
1.8697581765923206e-11
1.869757677034467e-11
1.8697580723533366e-11
1.8697589106249745e-11
1.869759767775654e-11
1.8697603695905107e-11
1.8697606221833457e-11
1.8697605750450012e-11
1.86976035295404e-11
1.869760089417368e-11
1.869759881833816e-11
1.8697597743838078e-11
1.8697597637978373e-11
1.8697598178024913e-11
1.869759895836118e-11
1.869759964740917e-11
1.869760006383234e-11
1.8697600177903174e-11
1.8697600065093128e-11
1.8697599843903582e-11
1.8697599623111224e-11
1.8697599471420417e-11
1.8697599410756218e-11
1.8697599426607112e-11
1.8697599485930664e-11
1.8697599554261398e-11
1.8697599606979787e-11
1.8697599633373446e-11
1.8697599634871832e-11
1.8697599620144738e-11
1.8697599599744086e-11
1.8697599582125904e-11
