0
-0.001144869667113274
0.24201596361015879
0.4591084706720032
0.37257080701286216
0.2080499799197753
0.08162242670352424
0.018666792594905418
-0.20147511466408333
-0.3875675607462533
-0.2807787401931159
-0.11557543538815028
-0.006740735806568768
-0.1650904406812098
0.06229812543462718
0.13654594660396205
0.2683023410640778
0.16911069246330396
0.4246196687361634
0.2974789073773161
0.16142258954329222
-0.43993514659912414
-0.7241499553465607
-0.4106654868636055
-0.2901831011650572
-0.2336895270259348
0.16034548535389145
0.6945851429595924
0.6998140174384561
0.5847799277184239
0.22720192620068078
-0.1888825307693837
-0.5001051575648974
-0.8786119198867847
-0.7634867173349188
-0.23293756804347135
0.17172142042241703
0.37660909671022513
0.6818368139716636
0.6732038264262514
0.36612423609862754
0.19858472720940865
-0.12505784680941154
-0.5527553769393491
-0.7902051328210183
-0.6210417882444933
-0.26489149039724347
0.216005744692427
0.46674522757800707
0.5648637781309941
0.5453385177094546
0.1473887425666036
-0.2049123908235335
-0.3888655579892786
-0.34725310999913606
-0.24577664290987192
0.16307178849566525
0.3633147409507772
0.08654301748102655
-0.0851243126401367
-0.12086475133979808
-0.34767309996042184
-0.2636897843189311
0.2405450195075609
0.45576251936697265
0.2299262703631413
0.1555151964349413
-0.025909788198913326
-0.20237411479024012
-0.2604027650376306
-0.254788768399276
-0.1894079218306426
-0.015300508322074361
0.1537341142098482
0.21368143122192323
0.24047293341730597
0.26774742821991515
0.07927880751750035
-0.182209944041473
-0.3941403347178035
-0.22979784289461255
-0.14016290527068045
0.05213935076324851
0.34684610048647857
0.35373122249403177
0.0820547927275353
-0.06211813332580832
-0.2699318115506881
-0.3198703482041464
-0.17152427798669886
0.031000117051822054
0.14486269577076025
0.2079302768586756
0.22006606539377765
0.3347466024433554
0.06637326900192268
-0.2868254160043968
-0.21055803447626273
-0.3437150450853107
-0.4607092385333418
-0.07480772967188211
0.3368784110232681
0.4944617610641091
0.6762662572897318
-0.30583541859624086
-0.10825034097917699
-0.03561820187124706
-0.2076740169679461
-0.5247797779556579
0.3577147423428221
0.04039270486667211
-0.2249042517567227
-0.1523630697046731
0.1527969244650541
0.36756106341697325
0.32962313038410485
0.027936274359188162
-0.191218847908938
-0.20489575746539607
-0.2882176364351332
-0.29214404173562913
0.7693023074596926
-0.27917902630288094
0.019231635398712588
-0.057895150183732105
-0.026276830895616762
-0.6109880852094355
0.836469816312933
0.1231718946016265
0.006849138292791414
-0.0005236091776168184
-0.016986680810164384
-0.3668033035397569
-0.15551835075746634
0.14950090248868114
0.129208564030417
0.013562559710737332
-0.12495648324176745
0.017526808795534907
-0.037935662181982244
0.030606442566498165
-0.07093541410160076
0.1318180313757125
0.07024315218055066
0.1278208703886732
0.04358621072152251
-0.07603860607267846
-0.1392725456231806
-0.04902853483022798
-0.08574721192205212
-0.09673610150714715
0.10640454965557478
0.14306628317885858
0.054187803027995946
-0.10891205752489946
-0.09540044234823511
-0.06495578772167035
0.00297969758867693
0.10147349944984596
0.19218375191802511
0.20844263547213096
0.06777480762370115
-0.10643320522290367
-0.15829984333041738
-0.27547756995101524
-0.37669935546383093
-0.11775569088343286
0.08213670995948677
0.19827918195509758
0.353553842364577
0.38049211307368136
0.20490058841008355
0.25806800721690826
-0.2836111286109101
-0.4413036958605393
-0.37462436634572427
-0.33814822717977167
-0.26670986784591844
0.20600273233693006
0.3010895568510178
0.23395536978670847
0.35700174937236073
0.3211267165416519
0.06569504958911115
-0.16157349040915564
-0.16161511574549206
-0.3308887803692281
-0.41333765607086215
-0.27054916392790573
0.12268144622218456
0.25826815716761253
0.2588616006505604
0.23910574744264337
0.276843914953804
0.002348179734124406
-0.19314424092121066
-0.13492777798930553
-0.23815419882289637
-0.28779659485754694
-0.23358027847210797
-0.0031466861885013526
0.26968071924238657
0.4107649880317129
0.3785117006579143
0.25572779704047555
0.06683516767796563
-0.3819515125505064
-0.45053570472635873
-0.41721349906611027
-0.2510666934366895
-0.013884851715052812
0.3087338446626908
0.35685765749491627
0.3416448614355919
0.20211676592425887
-0.016464453866680353
-0.16033414206334887
-0.3464611457368133
-0.3333171386734871
-0.09342762543274583
0.20607401103603082
0.4149657902428764
0.40890193205251335
0.10236526747133215
-0.3318703121276658
-0.44143537500497365
-0.48200233941982995
-0.42567559873476835
0.003506539135084169
0.4706723844198588
0.762153128140325
0.32920371659780556
0.2629276404212868
0.11106831583535712
-0.06543994637820402
-0.6101270827486246
-0.5844077068007049
-0.2999181020607007
-0.08790663477317018
-0.11356378021107968
-0.03128991795252026
0.3329124418288013
0.4917085790752662
0.4209360778547654
0.31713922601732414
0.399489703002338
-0.04336385385333244
-0.5726817717814555
-0.706145545942849
-0.4370433727656008
-0.38876957358585373
-0.016964641313962747
0.34255132343984585
0.39493953621497135
0.39938993085300756
0.29776993711827615
0.27710442944700264
0.17465610021997938
0.12377277084138047
-0.3710554359449305
-0.5490317558529806
-0.7207790860341884
-0.43032641224573753
-0.26452388708653474
0.2903679768113264
0.5599264215332534
0.9868019739772956
0.6594222609361463
0.28719122290038435
-0.36967045889223327
-0.6258405582538736
-0.7771904511496259
-0.6182281670660704
-0.19572051193348797
0.39038277538836075
0.5441245863862815
0.3069016717231996
0.08951516070213558
0.021405292431655926
0.12699458411939288
0.13065178724413568
0.08585646382801973
-0.179754184444013
-0.4147208559575454
-0.5024949558458892
-0.24052262218158454
0.05358211753326783
0.3106583781444512
0.46416397911099627
0.405836819969673
0.15796265633662657
-0.12914005719157629
-0.15514666645524058
-0.23235291057722143
-0.44642441502462926
-0.2283515119433634
0.053902954910188164
0.28269620569074794
0.16278675593907874
0.18854707683609112
0.016819254436176823
0.05251556178133074
0.04931842839514615
-0.07631712440419972
-0.02245722942637185
-0.0763816756255058
-0.2931484047476385
-0.28368873831696506
0.18418664008277566
0.17231115994174223
0.15099497071739532
0.17766552162140994
0.08234276533237811
-0.1362814762571056
-0.10463010670899689
-0.06172479203682707
-0.045522957573414874
-0.08247412075262525
0.01735004809885387
0.05937949921808108
0.059480638140111064
0.03720622774567374
0.009830029896863525
-0.011244693973350848
-0.021327653488935255
-0.021147820590655238
-0.014505245410943102
-0.00591124625791355
0.001096897271467551
0.00472567868757642
0.004896131281578264
0.0027197043091032116
-0.00019527028158396447
-0.0023669084657420795
-0.002872126748708938
-0.0015608214749981454
0.0009324105898382003
0.003362672143264983
0.004229787763048028
0.002295704912715638
-0.0028106075358420466
-0.01006787669163613
-0.01687129058673273
-0.019449521312096086
-0.014055836891705361
0.001162486812989872
0.024084287753685717
0.047148257134387285
0.05747337606063036
0.03928721570279783
-0.021359941916507277
-0.1307131194564163
-0.08238228748662046
-0.05575231950783368
-0.01923731712284412
0.06194897784643505
0.21582343990979566
0.0549754724371537
-0.027558780459420916
-0.05647204191723435
-0.06742239616963419
-0.09807500141401083
0.020044602992273577
0.06689881592203284
0.03600456751183062
-0.06615773285465774
-0.022520580365972997
-0.00905336398327359
0.0006771751457021122
0.030557514200880737
0.09758472143022547
0.009306970020264684
-0.03616824493656403
-0.04772303875776646
-0.03743035909030429
-0.016943072694704235
0.0047201106643155084
0.021596582338840705
0.02982082294327597
0.026131559777983773
0.006638679266666243
-0.03380755274613642
-0.10189723065658735
-0.006414410274969459
0.04050747780339191
0.021780529139566785
0.11466431826723503
0.09258930074512767
-0.06946981222770207
0.013530317948413612
-0.05373337905272598
-0.2396855859808549
-0.08438451481578485
0.0938278093781655
-0.016418266889203337
0.060373749425312095
0.16570433439542345
0.09041945148588248
-0.03386996536220629
-0.13348845889008154
-0.3819637145771385
0.01859242883479259
0.4636241034915517
1.5822403440939723
1.8864175013057267
-3.5707895537935275
-2.54854255728815
-1.0182641727833177
-0.4399288190904964
1.2893800330612213
7.863760437715162
-0.34955025490082636
-0.7105612995467285
-2.979347122896101
-3.9175606465421526
-3.7108612972876043
4.113051398287493
3.25583572119394
3.7587827095597386
1.128202941572515
-4.277460779973311
-4.8171895222680705
-4.165171726516841
-0.8085627229781122
6.143565176429722
7.117215326233727
4.533143810499168
1.4906194702049085
-3.8976342210982033
-12.620604549913025
-4.5282694290321865
1.271066004002165
3.6831476731042843
6.226537710701677
1.9250119201713036
0.07963537336329782
1.844118009313726
-2.166331332264232
-4.280316073467215
2.921613658022666
0.30439949551049883
-4.587222297563495
-0.7974610832564083
1.253343855397099
1.8747096833755894
1.548015102831083
0.7658825211119681
-0.07897429624652577
-0.7343697694483985
-1.0713878206588237
-1.0427293475170196
-0.6522737753303774
0.04272873143613745
0.8985011366252674
1.6446044494530296
1.8728794528048127
1.0864710682669165
-1.183650709355721
-5.2221963843364305
-0.7896105678151072
2.5425453350444145
0.5530224270050931
0.44507973524824285
2.075056653776248
-3.827491006791925
-4.431309190798998
3.6378344811568093
2.768237673240003
3.5115541150965566
4.277127756488643
1.0127188262351803
-6.157027924763782
-7.246879100672003
-2.447048623490812
-0.6274107126319554
0.02897055693816694
1.7184265086303734
6.38411727898722
6.147406838178546
0.1725414678128195
-1.9413927260221846
-1.8551369771869761
-1.580690652161112
-4.125817302419683
0.16225533398201328
0.4550549735261924
-2.735420938773183
2.245008828647403
-3.769643669271323
0.5899056896067679
8.003544986364943
7.372631406066046
-1.830836932648925
0.062436747029103484
-8.044123745921087
-8.330139568991086
-0.9210381171204703
3.775878498393332
3.058890928528024
5.558273544089188
0.0687190567008514
-0.4752823379737613
1.776760674626797
-0.6550985401385053
-5.528903094091183
-1.2319003684264778
-1.4304569445140085
-2.6754383304826352
3.642927656734494
7.661084820074953
1.8381980687936852
-1.5192460221138078
-3.7696738554622726
-3.3353357671257076
-0.8897742617629548
0.7733392109183334
1.3514059468850448
1.1452631942738902
0.7278245546331944
0.2249468924302441
-0.15651490906222623
-0.3449343333819269
-0.37620708512483114
-0.34366720767359793
-0.14718550778249265
-0.05663598926683874
0.10389977260736145
0.15282027521161995
0.1353873373744768
0.10430347606490986
0.10369038846516711
-0.03942469272928102
-0.11559966623842349
-0.12789189690812028
-0.08512351284623401
0.0029817397142799518
0.12720312802596773
0.07753355074163631
0.04144182415121557
0.003835223733047788
-0.05053122212660037
-0.13318777586847308
-0.04869325961077902
0.006056164184517262
0.039226432624513745
0.05911214079171935
0.06906826272629724
0.06471727573305955
0.035014863868900285
-0.032753688240297646
-0.1456756017365634
-0.09853335006837122
-0.07091916290786447
-0.030173615358615718
0.06004223750445466
0.22815161574237644
0.08422329339609266
0.014787819554370502
-0.014867085204698753
-0.05155956644890555
-0.14137638036500683
-0.11743448045845817
0.007893113582191622
0.044156941322300816
0.017612303164935048
-0.03825789296116203
0.10657919363726139
0.06986670073540112
0.05252926311554416
0.03991783380145629
0.008782924098406489
-0.06184485880306525
-0.17922202611176688
-0.12900251000805288
-0.07444649168770365
0.03572707971520721
0.052293709622174306
0.20758587871824855
0.10051602753329926
0.09002427010145847
0.10019390142584292
0.036926350929551766
-0.18747895645794652
-0.2283973740996786
-0.2895954602019787
-0.11766964735488941
-0.013679727722065896
0.13998974894419408
0.24488204592773424
0.35447976734361775
0.2555740657853022
0.06996263953036122
-0.12289606485440824
-0.4487648569752163
-0.1988362619390314
-0.2003310745449076
-0.20723374190177377
-0.11442692525290701
0.40883515425139727
0.2763419144807877
0.34683055774026517
0.20315946215575023
0.156334813763543
-0.12593461850312873
-0.3745177085262904
-0.6720975545236482
-0.21994801454519194
0.07020935137708346
0.1563911317089782
0.22548182059093422
0.4448616732829819
0.32134603069599244
-0.12157128335815964
-0.344249291807492
-0.27277645751880675
0.1296658108144619
0.8939138729835937
-1.1267142450430883
-0.03382688394688502
0.3292459772512548
-0.02201479309127677
-1.026092654713136
1.0014240713287834
0.3403184590849134
0.042127217074886675
-0.0813914435214925
-0.0537992414819332
-0.11597307571519924
-0.30131887089411424
0.1884164007546
1.6012168088807146
-2.3570717674344848
-0.729166798052755
0.46667444564596683
0.3874571019970272
-0.49553042253018886
2.953481230061594
0.9226201156340662
-0.705188740192722
-1.4602410410790398
-1.9758002901392544
-1.1060819829301356
0.08898958292540435
1.0825746867363433
2.368076226570325
-0.458207486564571
0.828079725575418
1.4740805771040317
-1.9869548737023002
-2.2296041887058493
0.9720717642944261
-0.3841578526329985
-1.3167744743315308
1.4926348420911388
0.6124299087584292
0.16199226113982476
0.12941878711099572
0.12625848949672183
0.18709121099937057
0.21065929851217305
0.031786760529764174
-0.6920468514862187
-0.7996237162914347
-0.37126822266746906
-0.11594963267783538
0.19610965994887922
0.665738065313039
0.5829479481068541
0.15456103933238588
-0.1405643226568096
-0.16134120338309962
-0.08260302840659281
0.04878870326137555
0.1690020985800732
0.05396183901772547
-0.43060617542011914
-0.2942626532295267
-0.21045998618488726
-0.33452375569779846
-0.15102827063933807
0.45729815738468205
0.734577851535655
0.5905806692694785
0.17153767398122596
-0.12767123167437058
-0.4138420499955552
-0.6241069587267519
-0.4543715233142813
0.0935635396425761
0.33625604893789085
0.3052493621990665
-0.07523785857730816
-0.2192550891786713
0.08859802234370309
0.6631396124174525
-0.9076241452837871
-0.08439391560481338
0.20563718693897792
0.3556255624387863
-0.32620946769062653
0.9914252910547539
0.0885501021457385
-0.26312355299067136
-0.8472750332863859
-0.554064332639903
0.849088549551905
-0.6831129280882756
-0.10493656202094001
0.2660897202547551
0.28343311751964684
-0.49151891336743725
1.3650794644493716
0.524928304324919
-0.06817095965280773
-0.3369016777425221
-0.7862383046342352
-0.8210279988383006
-0.291357557690759
0.11713528803271202
0.24611995444100535
0.39379175118760856
0.43281798540853467
0.3404793570905299
0.15881182969664687
-0.006982092899911169
0.0460253728197321
-0.12167182053440048
-0.5233900757173099
-0.6873802189595903
-0.22417924792275667
-0.02988118131759615
0.2757316813198105
0.4885494360427557
0.5566688702939501
0.33428466265257173
-0.03323584575833589
-0.2900198909165248
-0.22409046810868724
-0.2107852323804771
-0.3619496676087648
-0.09405282628805656
0.07808384606818583
0.12236676548436562
0.0516502221034362
0.07669312677184889
-0.04021280718473391
0.17745715305720286
0.09858608397251367
0.18231131002171416
0.1977266887541392
0.2642494102234425
-0.292739070385186
-0.4812019697873082
-0.39075690130435814
-0.16437753872681393
-0.20318866800666152
-0.005512504373682975
0.36793066307110556
0.21785226178702874
0.5376681243697665
0.16920347211498413
0.19396751797355538
-0.037626074648737545
-0.04599698591271209
-0.5454695196255749
-0.16909563073432068
-0.4134150904533618
-0.41677239439346747
0.023164214840390468
0.1967209869632038
0.40767339016388804
0.49642868808766594
0.3815404249971499
0.23516576779675719
0.09848987991397082
-0.4682104551510903
-0.5160601848338233
-0.2392337219788351
-0.3274191040229544
-0.3518736283613154
0.012394520662755842
0.5363469295251079
0.5750942068053876
0.6151993424301457
0.24914592512093733
-0.2145523618860936
-0.5104106865470964
-0.5606364140511789
-0.6269426791854261
-0.08760052943584734
0.3526558786455448
0.42533572383793417
0.44915632420212936
0.2880735117038139
-0.06930173438125606
-0.1038107450408508
-0.13788976937597466
-0.29672206201602314
-0.27130530485214455
-0.09421567629694991
0.0660318743988112
0.09216750105170621
0.09234056411628871
0.16969419001026637
0.19590037442840022
-0.0048693285989624
-0.058490477795208065
-0.030710851963851343
-0.008082917379222704
-0.07534710663611116
-0.09463170390433599
-0.09096807455200892
-0.04723422572650198
-0.10975911489295853
-0.0035322479968652315
0.14642413478238525
0.19298622169921922
0.15060497214061755
0.1903352826111407
0.048923619462790245
-0.14968125694875262
-0.2665182700812455
-0.3226941130152249
-0.2867332907642074
-0.08021272077279452
0.1985508428584816
0.44009077078780234
0.491133326571932
0.3367930979240801
-0.0942210003676347
-0.3023239494874145
-0.5782140945236104
-0.5687336817521532
-0.2627037656474117
0.1957690366699847
0.47066508735960844
0.5888999973122763
0.5063303964320753
0.30141961042482923
0.0029722447992765327
-0.5549341745442417
-1.0694456002570385
-0.5211594432459994
-0.16282852077547552
0.0472714208674119
0.37597673843225665
1.2328107930668477
0.9037426569925658
0.5261409202196087
-1.0845867081541476
-0.7664265722013269
-0.726860340016735
-0.27482378569326016
0.00974342629656532
1.0641905617577452
0.10029069661847054
-0.05155259814609439
-0.595203791475531
-0.6104071353557428
0.32029872163525097
1.5045739134178668
1.7639018931244836
1.2985573376346382
-1.6095247329540736
-3.086847460549013
-3.8084518150573965
-3.247999079753568
0.33734933402593237
8.430399904631361
5.9998344400700105
3.8114232714426275
0.6001765122468017
-5.3160872579057985
-14.531113336581976
-5.576601651680358
1.3271547555591678
8.544011189704957
6.84724477975533
7.646775207521388
0.6597865688159735
-4.057240839196573
-8.563754318723774
-3.3523284524245915
0.2673120493046689
1.9795176132942456
2.0433444690652
1.1070353132466368
-0.04647591295793632
-0.742217549945836
-0.5980073080138048
0.3673779825422925
1.7117499008710106
2.6433044828752403
2.1989276366171087
-0.4845323848766113
-5.857044452122614
-3.2941432039312466
-2.398035451403696
-1.938682226951998
-0.2354791616940474
6.7111979263706925
7.500337584350238
2.4056723209266853
0.5818446331749196
0.028767933804381668
-3.9855978266834486
-11.438598170776329
-2.626104486179425
1.029666652000319
1.979523038129122
1.6343443891632181
6.9199048802069205
5.105628376522376
-1.130349358647201
-3.129387905031423
-1.4108533875805036
-2.477857662966198
-4.209146748593498
1.656556046488039
4.2991492303739856
3.475610320467698
-0.4926784650661936
-6.770137385260449
-3.7080680746774544
-1.440536352650406
0.8063321015518351
8.747651864272816
9.146104604466883
1.3383284153746953
-4.342386885390356
-8.705910463936794
-9.592091836442197
0.4745215883962125
3.72199080952267
5.072033750846491
6.730990324265538
1.8234293495560139
-4.1920078928351145
-3.694540464858458
-1.5312847448870017
0.18367596698329933
0.8158252485207993
0.8736765009514658
0.4063746941743671
-0.030653946740953036
-0.21441440817753668
-0.08428687957866633
0.0384931385711728
0.03879108694496122
1.5269495380595965e-05
-0.0005218531052080741
-0.09420129807015296
-0.022561040784816827
0.06148862111752464
-0.007704570036888566
-0.009761513341740167
0.06135965165213393
-0.001486369948453567
-0.015665068755154884
-0.0041586933217790945
0.010032101273821332
0.009540566311072831
-0.012702611818199646
-0.050862518795897496
-0.08672045369175672
-0.09418318833627058
-0.04790405297313623
0.06528781508798018
0.23529109667413878
0.22253341707805047
0.161114643639758
-0.026676732145578985
-0.20676042594281865
-0.4074040490701778
-0.2004589096499632
-0.09791491394232275
0.03276808967098439
0.13763494515777774
0.33825783270114695
0.29830914598654845
0.20522315621895457
-0.026972416489816103
-0.13424171723818634
-0.26577514962046256
-0.34535235438788126
-0.2426973005242
0.03686866662615332
0.1424283583085093
0.1517656103344652
0.13922062688307288
0.14750962748905241
0.17190033755199713
0.1612760193739425
0.03603189326295625
-0.28196672059768324
-0.4362535056127034
-0.2104569295403997
-0.12034786838385444
-0.027454950918328058
0.2288344200417466
0.39018435302445154
0.3419658569713171
0.0913356986150134
-0.03272207818310789
-0.15827252671115377
-0.2359130232900716
-0.40227577160664996
-0.15260986953857467
0.07054626660348082
0.2719180521210034
0.28677900565089487
0.1618057536354617
-0.05862944324679978
-0.13727144165747188
-0.24165912803733597
-0.13971322888946305
0.001728375473600413
0.21321834377331073
0.11541289760035639
0.11225015184759005
-0.011431672224439433
-0.08618748053956726
-0.14951393835521495
-0.0360017750523674
0.030384854345582885
0.039774410787084824
-0.004640453461985314
-0.09108079635653152
-0.00567146675002414
0.06053669639619537
0.10575325320893365
0.11492187234521892
0.06227322918833181
-0.08064051894039075
-0.13320830099599862
-0.09406735643080077
-0.1338682833093496
0.004199261087450634
-0.004722526801182778
0.1170892762250866
0.031735905310069215
0.17011949488246444
0.12351342364949128
0.04497541523592685
-0.13943539247477277
-0.11267420195262473
-0.14720891395474192
-0.08965137933173574
0.04647262988336158
0.07870659409342905
0.0461266613426243
-0.004333118961394919
-0.03218266370506726
-0.015632924436002504
0.03998178398780367
0.09900862622346568
0.09879355449643706
0.16034331723345857
0.005811818870784833
-0.22001685885017674
-0.329651613974803
-0.08105942837896492
-0.17977279736946036
-0.09670113314466952
0.3020135705367769
0.5216845337476567
0.41341157328182343
-0.23444441600298777
-0.0842064575174448
-0.22090193389590668
-0.3190192865504815
-0.415910612983297
0.2996101985167997
0.281072225635416
0.00447853485002217
-0.05768696790688946
-0.061337322454918214
-0.00984269172852962
0.03543421069558039
0.3554311728067716
0.3869265098015322
0.15050039564702256
-0.5098140843531845
-0.4838367555334021
-0.36287218278196454
-0.2307202647629839
-0.0845994733052241
0.5176000262880406
0.39671698241306264
0.29638388587213116
0.24857576855027566
0.17068290956136928
-0.10544914309237582
-0.38129600898716454
-0.4315580550993098
-0.3537037926515654
-0.14165362871756773
0.10939509484260704
0.16936416928482637
0.021164085116231218
0.20444669747445884
0.3698586285577511
0.25578770365730263
0.29500539531129255
0.2521841085482175
-0.3146745942726925
-0.7839661520303981
-0.8120773958899378
-0.3073614130144925
-0.048791225118603676
0.25291721467435535
0.6691865105177178
0.9699103451909564
0.770710461095396
0.33083753536106775
-0.5952816597778229
-1.0695503376344337
-1.0765486231936445
-0.8598111029734774
0.08801915530854806
1.77875838313714
-0.3540624604928254
0.6583867383136853
0.8609518774980436
0.1605258932354667
-1.2406480354338845
0.6227024329544292
-0.6419488472045026
-0.9195021398716574
-0.5558780427622655
0.02884438087356163
0.6858599352172223
0.8591576974669367
0.7100855993362751
0.07078455109802614
-0.15944913530548832
-0.17752738093223716
-1.016477973361358
-0.685152745072718
0.07190319872673309
0.5849335769512877
0.4446347611510385
0.8785105305076036
-0.06521252411569559
-0.5174619490083086
-0.7760258950789979
-0.49482511376045535
-0.08939750349884507
0.4352635782707063
0.6412317487992999
0.6150647616515762
0.1441724320035457
-0.07718060060257331
-0.41394184036495485
-0.6415602264392831
-0.5011897784468989
-0.07507528546567421
0.21077939932787707
0.5615038939930236
0.5801052909792516
0.2430883668561625
-0.10308600769612258
-0.3230225749670619
-0.45974479633763055
-0.30322970688928497
-0.17423396759079748
0.06889954443539203
0.2016453844868927
0.39182271834283366
0.15809537416989652
0.14048687580223865
-0.10974904807442096
-0.11989697892070486
-0.06953005825632655
0.04473438832626883
0.04645688449530641
0.012918755874895514
-0.09951454451305265
-0.2423777637867503
-0.2784463792311612
-0.2041433001882769
0.009680959609574546
0.16457594029610778
0.3804869058998711
0.6560001493273967
0.4572684838771416
0.144133210423195
-0.16859890657249907
-0.729129074548848
-1.0699141907933054
-0.5585174769576687
0.003099719862127724
0.32779275944234254
0.7560885034914775
0.7607595062980218
0.6737408129513713
0.257597936285091
-0.6722632647534946
-0.7862519911423944
-0.5644612803482272
-0.4324690031761669
0.07289246494814716
0.9048294944746276
0.6860904459694188
0.2844810137322741
-0.4015488219069574
-0.6447140044564601
-0.6874696787769603
-0.3514039847670787
0.13389533921837363
0.8861900383721201
0.9262887950433956
0.5556349555557216
-0.028278650946349508
-0.6776788306967848
-0.8177504517664537
-0.7746457744034045
-0.33496648715374044
0.24835961570086737
0.606341905114301
0.37839089424411765
0.5365555318054019
0.1327526246673599
-0.11740425267858594
-0.012620032573155832
-0.014366111106069807
-0.38029562076569023
-0.09888463937622807
-0.2401543610002833
-0.3336688455830785
-0.1796065711798432
-0.0921320065482357
0.0328231101757879
0.440005839952903
0.8469689093020375
0.6060864474157935
0.3113286615660318
-0.14717158152071244
-0.6932520798228291
-1.1656122086389962
-0.6411885265579819
-0.2071244850106313
0.2083052370484819
0.5554141937861351
0.7593073811267197
0.625186342141623
0.3812733037927232
0.07521836012385727
-0.17681171202385407
-0.5047035383917522
-0.9891657485161497
-0.5855307585205493
-0.08893911480255556
0.2505882029816673
0.47133289974184966
0.6225256368079312
0.49237980583586816
0.16297370868513078
-0.1975980729839701
-0.3085751822822922
-0.3287752592069185
-0.4058363415538031
-0.23867713370248425
0.13741716730090445
0.3425881347360714
0.22842859831818094
0.049551521786367486
0.04099472318847977
0.007257432369514209
-0.0763120349640386
-0.05263648136301863
0.03298127586172399
-0.0508544342436508
-0.10888747649865663
-0.11299188331998607
-0.004318462015266672
-0.1040372298186619
0.06920496840488144
0.17915215330249518
0.25466311964294364
0.08086531574340482
0.0023307929602104024
-0.061871972179152884
-0.1955107331297941
-0.26192660708365045
-0.08750101717087169
0.14309603441214644
0.07877801998478384
-0.016220508385897003
-0.2859208442524561
-0.10642019470560975
0.2951696807782124
0.6329601309625237
0.7731450626970093
0.16872643721354127
-0.6846822866798908
-0.9868579873023157
-0.9893902400273175
-0.7952208832954255
0.18646962077860949
1.139000364444764
1.5206413627331075
1.1718091687236192
-0.11793889371777533
-0.7698605360655512
-0.9174592869956515
-1.084218718257036
-0.47638739670916597
0.882710192644684
0.9709217922257146
0.3498231656445815
-0.6708277874254801
-0.8759583932240316
-0.3955371845406763
0.23320179136248262
0.7935986064037424
0.9204014439877809
-0.14738715249471593
-0.5767758566759923
-0.11081455200441839
0.19421091103687346
0.4530714730662371
0.6475820926868732
0.3253231229838689
-0.512439741590588
-1.9564023615424646
-2.7986985877110384
-1.4322606501829958
0.9579653611663428
5.551501403911099
2.476169725169354
1.309497004324888
-0.24724671646743127
-2.3355201727873682
-6.02656428532167
-1.2418482607773487
1.3973098918323394
2.154046401734314
1.6265842972954543
0.5396030703120199
-0.4505992197316592
-0.8946139155087577
-0.6228207028484021
0.23867102970625217
1.300538801724487
1.991805907942617
1.6950894359972473
-0.0717486616579438
-3.463973917148606
-8.178384945667613
-3.064017400117384
2.078469643473427
8.949266890170257
7.192088374269468
7.007196192764832
-2.7438603852545502
-12.163691565094899
-12.250188898587735
-2.5787304664768516
7.088946045372004
7.2720546958533445
9.094831622577434
2.315780628716596
-3.162318761511718
-8.283133489087437
-3.656426164637558
-0.3957921471795015
1.2785445960965327
1.626244653865947
1.210537041486448
0.6516130666807861
0.39899511209451244
0.583960466284927
0.9810063634285737
1.0804292360055543
0.2514917454383566
-2.046483940289833
-6.068171842081265
-1.2717247452511393
2.258588281721717
5.663759338196597
-0.8970206513272249
3.5806902860156105
-0.5271825163450826
-3.842251861078361
-6.698273354855451
3.524873047944778
2.397111688418204
0.969911017573246
1.0991064925268017
1.4221177935052927
-0.1773049396402708
-1.8261287099024934
-1.4848243872916664
-1.3968413157620658
-0.8198279600777643
-0.46667416255477145
1.5530395635269618
1.9349384539045082
1.5883886800478062
0.5120787187149217
-0.42825268203457534
-0.8221945122413975
-1.1726508230056083
-1.1415446079698064
-0.43186969347082327
0.2642995312438413
0.6479993643159381
0.544575562984744
0.4146250019473786
0.07450470374836168
0.046199505341446345
-0.0564661772126166
0.09119025171708259
-0.033348698320883136
-0.3476831165841784
-0.31568441058300845
-0.11442102932421938
-0.22582835086478145
-0.2563227206168386
0.21941379411710552
0.400836585381666
0.40523524910813835
0.42897601071869607
0.13868229916565536
-0.10360362444149776
-0.38737497184140934
-0.38716045122570664
-0.30056657063989456
-0.006557981726772258
-0.052821281943097736
0.1272917056568348
-0.02544045187557467
-0.04943906187571792
0.2825223479980332
0.3172746126282361
0.29379045388484537
0.14058228274018827
-0.10129253094326315
-0.43582430317172083
-0.2623309083296079
-0.33266775253627134
-0.1268212165345791
0.1483930874235956
0.3408288556562715
0.32427825949852684
0.17126770086269413
-0.06349303963783601
-0.14587529740680724
-0.254542052364666
-0.16970785159074506
-0.06563063247389735
0.08911538454487439
0.12404832961832904
0.2560869275907264
0.08141821639960259
-0.025735507692096024
-0.10643844364151751
-0.205130478061915
-0.15742297227727242
0.01766848960168095
0.11878605247779085
0.15768321876281818
0.15260526919444162
-0.07665310974753838
-0.11022336741961844
-0.1271605897132964
-0.10476257402607703
-0.020789803585578866
0.14084425103009396
0.18291767723613522
0.0899509427338027
0.028865629400101567
-0.04356329547371318
-0.1683478867724742
-0.17130983144216483
-0.054391270057446
0.005294686705698057
0.04811467082580782
0.11874605788905568
0.051596964785413924
0.059486740071976414
0.12907116194384224
0.02445730240299458
-0.10189372338013897
-0.09411735853095085
-0.17846217857432448
-0.15426756613392845
0.00630010417026994
0.14948341254204328
0.1252487179475486
0.1720538180081431
0.10649625201806245
-0.07894550882225511
-0.21033566200209947
-0.12227537633756483
-0.04820507982320535
-0.014641335353014907
0.1598276074945788
0.26280044691715565
0.0868973904572854
-0.16852389948927948
-0.29339640658016997
-0.26435004801065154
-0.047819703443561234
0.18956405857848016
0.4665882090574067
0.3762991673275523
0.08537218345167912
-0.4533917285846779
-0.4801879811955281
-0.40931398801398
-0.02258573588618859
0.32087464020290435
0.6635140074972873
0.4285617074286421
0.01141185618713933
