0
2.76724693503819e-05
0.023027058645029897
0.018675702211866135
-0.0322667476907695
-0.13462082163492176
-0.07612549057858352
-0.029728015760955327
0.03915682147040663
0.16228572828241555
0.1585749360307516
0.02818042225485542
-0.04701606276097494
-0.09682750640234955
-0.15291912256949727
-0.03965612595671821
0.03114527520574485
0.06041155605997891
0.058021828763112376
0.03740948984774629
0.010913635390131146
-0.012740493279674157
-0.028705213127078525
-0.034851013921145924
-0.030406565054411624
-0.015423710994997309
0.008529581311161005
0.036833309401942245
0.06047731596877744
0.06620718043625942
0.039084444019424035
-0.03258148153485556
-0.15130615118390117
-0.10600598314137927
-0.07175252915493228
-0.01516522703339904
0.0954248674205143
0.27837525589383794
0.13043115080005238
0.025852161222579887
-0.07565775700543026
-0.21467979980667803
-0.21698276259092789
-0.08380197061043793
0.008372322088817236
0.09828775085193255
0.2245286350636018
0.21045724826707568
0.05554519583609966
-0.06357363010711892
-0.183119202196701
-0.13773504083582916
-0.14768393457195483
-0.01263760141773287
0.08605415404215498
0.17630877996290975
0.08370765259533391
0.02209359078531326
-0.010402431647574541
-0.029241896559571313
-0.05690314371458439
-0.11470853994773855
-0.01593210895893987
0.03788961979113277
0.05703576768847666
0.06108215793802367
0.07543616602755562
-0.07185421555611353
-0.15297239253867068
-0.14397187474578058
-0.030399183810799212
0.18528411894205332
0.2770582540590352
0.19381419134135744
0.06667880553835626
-0.17443957659726494
-0.379506838525614
-0.36028159613548766
-0.0837241375914439
0.11892311561424174
0.32989980118583817
0.41813528222889185
0.21880484139757822
-0.07261378614063771
-0.2901887328940871
-0.2768515466070436
-0.26298850687255765
-0.053544018133431286
0.17181339332533974
0.24713984002720332
0.20373232905783614
0.05646065584405064
-0.0017120755840157968
-0.19609297173420512
-0.1607498751476678
-0.1284298871518123
0.07548543367172686
0.0331571568488802
0.13003984916595315
0.1497755169040427
0.07195466522218348
-0.1251913922578912
-0.05773561042739275
-0.12757536939129022
-0.11641044322356153
0.014835736757274995
0.12039068010530891
0.059534232519275025
0.085386293458453
0.03600821155184393
-0.07009998273254361
-0.03394071949524397
-0.07276794398085507
-0.015565077346600184
0.10131144301047201
0.037910891028317774
-0.04572843248191743
0.014227128456175459
-0.01073601880942459
-0.13834522533984212
0.02597593000783056
0.08860427162066943
0.06567110597929032
-0.019326453946927096
0.06287914337925055
-0.05324242458841037
-0.1284769709524985
-0.12083996844177294
0.009513876041003724
0.09234071133029395
0.13819515694801082
0.13156616796989182
0.029668524823272407
-0.031457529680545424
-0.12459455751692342
-0.11617567083666679
-0.05269172975004698
0.047704298275421456
-0.0032220110686491483
0.03150604275895993
0.004986730353532924
-0.02472711005192899
-0.005764434845004887
0.09826478329881629
0.10240773105617544
-0.0007865052733548433
-0.03730269718607178
-0.04356296638702011
-0.05652554714862059
-0.10486043051129598
-0.003598220582986966
0.04663853732428262
0.05631758902027379
0.04138851311192528
0.017625224719750563
-0.0033416895191736634
-0.015594066594047615
-0.018374204182690174
-0.014270549404517193
-0.007107307981418418
-0.00026601212652253923
0.004218135376032206
0.005799325991684918
0.0050437540556790865
0.003042848529125809
0.0008778037700566487
-0.0007161213149995295
-0.0014538624061446995
-0.001425305300739019
-0.0009292772173210873
-0.00030141675633157006
0.00020803635177994004
0.00048574515167531434
0.0005440250957810653
0.00047089273869892233
0.00036905889308045173
0.00030642232056570526
0.0002915614527658038
0.00027828602869669594
0.00019523814745789133
-9.867537490232381e-06
-0.0003265655262748838
-0.0006563210749549876
-0.0008221488145469033
-0.0006226045031501437
7.462549186777775e-05
0.001224015941658534
0.0025224930534654085
0.0034131352832516763
0.0032171109581687713
0.001402049281162278
-0.002066757645788794
-0.0064175517021721655
-0.009983339690708335
-0.010507709677982176
-0.005931652171941486
0.004429483078758077
0.018637889091371464
0.03132578444734236
0.03387951402471651
0.015946312162144483
-0.03190918366472905
-0.11522271120468622
-0.033604517136992224
0.019203735180742473
0.05297515547898104
0.07737266240497315
0.09886055111879787
-0.08026409838331289
-0.06028635564493184
-0.04090062205348399
-0.018197828935040263
0.01670756819077498
0.07691220561051362
-0.02273305453603128
-0.06895294606642427
-0.053615120997664904
0.022879564417097924
0.1490551951110633
0.10195150473116381
0.05029680887477145
-0.038292773257365444
-0.18765977032313227
-0.20451117682184167
-0.07494253294583944
0.0314299930569262
0.15048092751132652
0.3098642584613777
0.11841215590966525
-0.03660670912611386
-0.1831636392140158
-0.15211757376456064
-0.1645333290321301
-0.024132401806430597
0.08241908747456154
0.1783775866878411
0.08678184804763683
0.02193422799973985
-0.014228544493159625
-0.030123214400559945
-0.03841646003531907
-0.048621525549114426
-0.061301435199625116
-0.0660992086616667
-0.044628012319473394
0.0222542671516288
0.14487737024955494
0.11628043503355398
0.10853638541928554
0.07648053380775656
-0.03099543326112456
-0.2549210924590187
-0.210747219544795
-0.07926413780910338
-0.008017736033816147
0.07648611851080635
0.2495988900512837
0.168766839084814
0.059627305142968635
-0.08805748056311238
-0.11449547676649947
-0.07728823372504653
-0.03702128280145855
-0.04524183217440408
0.06286583267556142
0.07083937879266247
-0.020565558330789848
0.002745316635147159
-0.03698925831142194
-0.11549550282380694
-0.01334226738824096
0.0770428639147755
0.14590419183170494
0.16484774025420776
0.09213631052054362
-0.11476466639062967
-0.08172260529628184
-0.20070689458258614
-0.21916080398437357
-0.041222439324767705
0.057162237164479955
0.0014075221755704183
0.08567944428073122
0.1426283217099009
0.32385622740867476
0.29804265649076966
0.07034687180318569
-0.1785205627813465
-0.24138583235509886
-0.4346846159877623
-0.3637456307908311
-0.11425320543383333
0.12629394817407733
0.2220627319456154
0.2295452224417144
0.3410193623533476
0.24514780984198628
0.11401874487860689
0.018774599736403084
-0.23155891847196622
-0.43953951815260034
-0.37154342234881743
-0.1258892829534661
0.07569906848590219
0.27398247291638234
0.3435032471182487
0.16094259480738163
-0.019086402827475004
-0.17538701209242932
-0.11908998929894352
-0.08447512139268179
0.08323141844129098
0.139767636325435
0.052414386376907124
0.009260241298176411
-0.17351254252205586
-0.24853575808815467
-0.1413823918274339
0.03626938048770519
0.16589908918244678
0.2992236981716767
0.2408779159843935
0.1437348994085182
-0.08007550500709588
-0.33515484143648155
-0.3136510999353287
-0.07080955029453626
-0.013128802118769814
0.09813677902899236
0.130980610504563
0.16063499116496927
0.048772392676654376
0.029459390250970992
-0.09556125285217373
0.047339234744530105
0.01440257876191251
-0.04148441266090073
-0.15669846227029635
0.05430447905768568
0.004925916573285478
-0.06413093202006243
-0.09190368778404817
-0.009666985111724343
0.04308910255179534
0.10228684167957702
0.1665762326223046
0.1925135165565111
0.10036314480097398
-0.20967058303243344
-0.23471147142197782
-0.24683919461914142
-0.07830119050470313
0.08130753487367166
0.27633002867667766
0.1695871296622985
0.026675988853202773
-0.09503503344904758
-0.15135422348119593
-0.1120540020194142
0.03945941881927862
0.10571248752660786
0.07429899366102777
0.11849887932976146
0.001243565089176952
-0.1172630493750438
-0.07004649861784891
-0.07522302296640426
-0.13250532628314443
-0.026237919189496826
0.06545278308228658
0.1582743622678341
0.25083727228146574
0.12009363914987933
-0.07385879558039429
-0.17427510067375693
-0.21007384437339907
-0.18051608653412451
0.3520431747453313
-0.34124438167007487
0.03117307606767312
0.1617615628230716
0.12256486734440063
-0.25294226489068994
0.6199394779820783
0.07826048208898609
-0.1751785188026031
-0.24879451276162964
-0.2360741582194112
-0.19473434961315048
0.062184516447226335
0.16143572244126536
0.15423819783188902
0.0970578013260677
0.03520044408671633
-0.00641444661804457
-0.024173314562426617
-0.029960551816363822
-0.04172111344965836
-0.0738642716185551
-0.13051491608264634
-0.0035332802668562547
0.1243934622550857
0.07313763965700479
0.057888420918250465
0.08423019861248443
-0.052815421034854385
-0.16610992638388714
-0.07205549221700838
0.012941888102515514
0.07370772857252986
0.09556448665159219
0.0633887094014119
-0.03766919743544131
-0.01908158921681391
-0.08430838090551415
-0.024538601757648548
-0.01678122786527615
-0.025478495839525855
-0.007633273379160764
0.07966106198479503
0.07115335510300594
-0.013083871399692965
0.02901072110848801
-0.01803200059952437
0.016607819816384612
-0.10406554223984038
-0.01846408921339365
0.03909905769261632
0.04228525130048903
-0.025006376968500253
0.03248642601263279
0.021748993072188683
-0.03896878224557472
-0.12190747964617507
0.006488934815522135
-0.020438596102716883
0.022725773140341247
0.14588081517810542
0.1385573529390825
-0.029771056398578976
-0.0032099581506730658
-0.027988694222263435
-0.13922988217836793
-0.15009711886590996
-0.04703081556016252
0.006972153622402448
0.06170567658545064
0.16500256172080055
0.14868199614032201
0.019775996171416264
-0.04031588669924147
-0.06896750005699549
-0.11055384150380018
-0.0037642595363526444
0.028393252079389936
-0.016305597648961622
-0.11978866618865261
-0.049392577462861714
0.03240261976988831
0.15643135358988267
0.13685150194952547
0.16643279602625283
0.01961637386730102
-0.13698475948660366
-0.3303462047299601
-0.16903130288494764
-0.0390914530694438
0.08970823629748345
0.24968467416070908
0.2592886658198232
0.11268630958526389
-0.02017566143946228
-0.18266514710968487
-0.2141103015257592
-0.13311238408116077
-0.12824440601618112
0.04027315728518262
0.2286947774209964
0.0922515848247045
0.06841197420760524
0.16652488556871828
-0.033231151226116404
-0.1720558259846197
-0.09926581561472503
-0.058475930469390626
-0.07774735358635741
0.03381224343971272
0.08315118159841306
0.08637731018430102
0.06115069069063051
0.02128572695664228
-0.02496175047703993
-0.07327084941677063
-0.12005890533950875
0.04007415579880592
0.014696269863232206
0.011473683854146996
0.03473701904054072
0.08231967881627862
-0.05587897535632413
0.0031651782315485913
0.03908635559728754
0.033293663017388314
-0.025336176602519182
-0.13569219125669746
-0.08229046022284117
-0.037253411198603405
0.03322671059121945
0.1594286543291183
0.15881510027829426
0.03053194490197769
-0.043979491801498356
-0.09447135013710325
-0.1521940129877599
-0.04088969931618424
0.02833523120238401
0.05708296047448332
0.05571562326983297
0.037750552417092985
0.015005226013297892
-0.005019424631721384
-0.019252462138839976
-0.027395881690414764
-0.02973985400470784
-0.02568136365372977
-0.013746115939226875
0.006769725887990579
0.03316057382731805
0.056879391687997584
0.06272554178237115
0.03073405075966628
-0.059043389767432376
-0.019885211074272654
-0.05193352101422422
-0.1383556850874387
-0.04608794241053323
0.0681764035726014
0.04790199494885109
0.12539037151617524
0.11287932836141631
-0.0008949508553397549
-0.04747104658529503
-0.0698885715592559
-0.11130900094544127
-0.004553428521569726
0.034694044685621664
0.009840636874475344
-0.05916081037316944
0.058369241834227516
-0.003751790364809128
-0.01639721880384971
0.038297098335564696
0.16297923751098556
-0.05524421986218845
-0.04124152816449388
-0.025282827985186215
-0.03541528729710066
-0.09108493961842243
0.0002300176006067692
0.04270380047169673
0.048745384277964744
0.034034171820693626
0.012851830394415486
-0.004930023231342495
-0.014743913828576755
-0.01646380149346849
-0.012599774328275798
-0.006405588918911353
-0.00050753646537328
0.003697005072523318
0.0059478288494234045
0.00661754524427583
0.006136702294346443
0.00463188816379726
0.0019246175641502254
-0.0021278659481503044
-0.007124094636478253
-0.01172195845411337
-0.01365456509721879
-0.010367046742389679
-0.00027465348149221635
0.015647568342385353
0.032517895984085304
0.04116580025751361
0.02930880219786592
-0.015592848084524031
-0.1024193401934513
-0.03270458208869019
0.0013596014657271335
0.016348919286229675
0.034640964086536497
0.08014814219270086
-0.025883748151477166
-0.06805969114318142
-0.0388160541250445
0.06044874730028279
0.018820819542317808
0.01612187433906229
0.02450838940035741
0.011750728782877183
-0.054052309622778676
0.0008441041908171287
-0.03941230083729645
0.022820167082631668
-0.0006051033429110311
-0.08547442185408127
0.0006124958968358958
0.09241207066096235
0.020707017018066768
0.006998756296354503
0.06059221157407129
-0.02129137412797556
-0.05070572847547044
-0.044610682159837205
-0.020442778910798213
0.007113828111558762
0.02763933966876233
0.035099813028256745
0.027403336249377103
0.0061664616451541825
-0.023040105335784183
-0.050372613674534286
-0.06221206642537238
-0.04335633923979554
0.01885139527457464
0.12931426694132436
0.08081342017339174
0.05274353026525574
0.01439219167041988
-0.06758077900281251
-0.21974341182457757
-0.05396999148515907
0.03598710452432005
0.07230065934474271
0.086555859048766
0.1118451219169499
-0.023621658147034662
-0.0998992010003385
-0.106068064492517
-0.03999061405521382
0.0914691430985658
0.07162316418632889
0.07385722713282918
0.0640519907698965
0.006468821250054987
-0.1276831562390018
-0.15150616651558144
-0.05685126661645155
-0.014649886057871686
0.01817337293921779
0.08705167304134233
0.22714191130512865
0.053975573606851256
-0.03946774414730704
-0.0785981219772689
-0.09806437527559934
-0.13141688658033776
-0.0032746887420332894
0.07398408465656504
0.09928820981852765
0.07976765852584625
0.027976254268153023
-0.03910029302791608
-0.09961457999771688
-0.12693123349279098
-0.09258572571784077
0.02647769068166373
0.03712259308902439
0.11882482945582998
0.21681397496334015
0.2443470693239193
0.09703207191434232
-0.12159262379106178
-0.26875102694127256
-0.3349488241053838
-0.43112225587074576
-0.19842557613106404
0.15792102022992133
0.4178642153751324
0.493453710421166
0.5911644888007412
0.2039290935113326
-0.26202303095289525
-0.432421916638744
-0.49938228838093623
-0.5662100461329675
-0.2202016623782133
0.2588111346882396
0.4587998675051682
0.37965902000728696
0.3802413991152943
0.1443405384318421
-0.12683500141460838
-0.498209769340262
-0.27072957077584403
-0.15070890827078168
-0.028849947495027697
0.22755452144787
0.5726479277987525
0.17753759116550175
-0.3703549238613454
-0.2629180444040519
-0.266673313935611
-0.32499274142339935
0.028445628326693635
0.6471488627450009
0.5490753253485716
0.3054177010100352
-0.15079930809633524
-0.49707215699188145
-0.5855365973419925
-0.41496354437985467
-0.12418863018950987
0.3887477492203093
0.6290339529112595
0.46473402351042825
0.10044150947391078
-0.124768305291455
-0.3154683144426261
-0.38396582099686927
-0.21450677002492083
-0.039910825156070494
0.16321255891926936
0.061792235953360315
0.1426730725694009
0.08655392277936758
0.14699567926376741
-0.06069168985923975
0.040899968765622775
0.0017058390281370812
-0.038856583280151256
-0.13313546969004517
-0.10970059338107188
-0.16538978402236895
-0.0676178923825735
0.033174479755325954
0.18439783180136107
0.21183405207968706
0.3072586377215146
0.22915692900990167
-0.0816503401364232
-0.4755994152303286
-0.36692015478117385
-0.31726701819420866
-0.23984664531682182
0.17400775042682642
0.6131787556840306
0.5048012521891302
0.38893313399043317
0.12206410650365718
-0.28862668779222866
-0.6300970539263095
-0.425516592699579
-0.29324530431188744
-0.13646519665351278
0.2334900736665677
0.44821150413820243
0.3234302689758516
0.20794820317911786
0.15383458137685416
-0.08637351318852882
-0.23816253000074958
-0.2682486013868436
-0.1441873165553237
-0.0007579320957564983
0.080759715567948
0.07932830261585323
0.02948998620959112
0.009197296554960549
-0.07651110029208932
-0.11385389977686693
0.0007148854868822388
0.14255120960941606
0.1445912890348079
0.19033594204290283
0.016895551606798332
-0.07150297312838523
-0.1825595520074702
-0.2133069377307365
-0.23242986525537643
0.12786424528568313
0.26973967418615785
0.22092256278521452
0.024880413459818094
-0.06553543380166048
-0.19023306104863277
-0.28275918852948884
-0.0742421422025153
0.0969909301647231
0.27138204811820427
0.2547950187431292
0.21239445608921642
-0.12581858621344705
-0.24820701725015878
-0.23891807267909296
-0.1576582236559583
-0.028786451671098296
0.15754193696656657
0.2344633910955307
0.0434216580381725
0.021293742325610893
-0.006342016629001051
-0.024974810025249646
-0.025748457156399552
0.002056805214476297
-0.12264446315221562
-0.1704567584329282
-0.10512847199999413
0.10683967676969866
0.28311173027180014
0.21388124282661217
0.05719015931033874
-0.05553400705165728
-0.2047152563501838
-0.2636725411717915
-0.08218982456109816
0.12212549236634011
0.16313661907942642
0.07837082394676562
-0.08181216242655934
-0.06467784026052226
-0.023685750424925545
0.0750314389534335
0.04842303896268416
0.09518387536750525
-0.0019376776942255393
-0.0702952588491643
-0.13942195569034907
-0.03347689395404634
0.03361370308311056
0.0592817296636935
0.05033201454450652
0.019477468565558747
-0.018079387672076137
-0.04736784509912245
-0.05595343375622848
-0.036505438311412
0.010039407522229938
0.07129814101318242
0.12181945386291614
0.1250268104961216
0.04010127972587909
-0.16662002619802319
-0.1085269185833959
-0.16845197964303757
-0.09576490242003327
-0.01334382940637452
0.1664035634123695
0.12057697163293882
0.09591532517233001
0.09587731237937797
0.07841089353695477
-0.03496151864495956
-0.14122520256477783
-0.133952285958637
-0.08314840483015118
-0.021784623747338753
0.058398678552597935
0.002008461895780138
0.07834078501774723
-0.03385190784052557
-0.062124793229543805
0.045791612265934194
0.11197767198306266
0.12395998467622776
0.03745341512404047
-0.013500469134017224
-0.1007235306117384
-0.08419374924228486
-0.19727305321244618
-0.03919545303570399
0.022874014202184694
0.04281107146448502
0.07894151832597773
0.1769984699496898
0.1578303809550852
0.013555067875649378
-0.08692413256186765
-0.18541043221255252
-0.11979652296737892
-0.11274933431428931
0.032638071508029574
0.12973440196715905
0.20042684109589606
0.06663748853284243
-0.05495204662769524
-0.15358851981181768
-0.021912788171577085
-0.053063105754186615
-0.03988490019497227
0.022932860817926403
0.1348062150827717
0.08555294326909761
0.054536459094874624
0.014172215087143966
-0.06261249615505594
-0.19342791043590982
-0.17966101712797125
-0.005230525575572349
0.15793130324262808
0.13956027456218426
0.1602331662291561
0.024646200774567615
-0.07843735267370552
-0.17019540572207034
-0.0729382547588911
-0.002465937632512359
0.035660007354746524
0.045424615233308575
0.03663598183806885
0.02031372511166798
0.005012647973382513
-0.004961659977602267
-0.009384039434549478
-0.010553907306540959
-0.01119705205749808
-0.012655283000291319
-0.013989254469813394
-0.01231137373630122
-0.004304240889541526
0.011501772099148997
0.03246789416505092
0.050595846835712076
0.05321894300587116
0.02610258022256529
-0.04146570035417914
-0.1511132257810657
-0.091673022186314
-0.03954774538512885
0.035982762326862726
0.16381573747161685
0.16167844071871443
0.030181569108587842
-0.047210497767207524
-0.09836994404114505
-0.1534782255216021
-0.03655912437007825
0.03937476162512196
0.0725577886340179
0.06925896562448056
0.039466410885546824
-0.006417026170455957
-0.05896663741257139
-0.10968119837993175
0.049300162306730275
0.02469776420647253
0.02070699460970074
0.037517508248304875
0.07077899824032337
-0.08739006615885
-0.04607172113390162
-0.012845133344510632
0.008145145693995328
0.016677681842617424
0.01559709548433146
0.00924321870813481
0.00187966419795618
-0.0034032068265370556
-0.005159976843108795
-0.003530383706285504
0.00015497723133344878
0.003925078172020349
0.005771174586053693
0.004256656565404383
-0.0009140464881720025
-0.008481700709881518
-0.01557352300846226
-0.018232005605110114
-0.012672389838788047
0.0028374715073951197
0.02594291155493439
0.04882941461638002
0.05846449252849993
0.039142623171763445
-0.022734656087931248
-0.1328110108612432
-0.08401353687067468
-0.0552588968577513
-0.01506184020581833
0.07041928468927866
0.2273956339226303
0.06618973978854711
-0.02202088494207764
-0.0621790733497684
-0.08741937905719961
-0.1295164956359862
-0.011248749203407108
0.057081215110748096
0.07677984433128669
0.05712636648596325
0.011192289904297268
-0.047264586051646365
-0.10547099726393859
0.04747433420790857
0.01967800947129165
0.015277845557846096
0.03352808950630702
0.06889411545326314
-0.08745841199065546
-0.04509520716257702
-0.011606065975154229
0.009170199018107143
0.017411452941273216
0.01625090013968331
0.010079759494796036
0.002957434882826372
-0.002392980100112096
-0.004876386045546742
-0.00474856267510602
-0.00304210746885996
-0.0009625761425685399
0.000563516630150899
0.0011145978036935145
0.0007858498085772124
4.581932315165347e-05
-0.000491806625812629
-0.00031837375862760924
0.0007511628410682751
0.002442360558535729
0.0040201937930622956
0.004465925758014818
0.002840877515320689
-0.0012207611000416858
-0.0070367198978653215
-0.012644373582041457
-0.01505735170611509
-0.011172416676359416
0.0007224787107461343
0.019192581224734516
0.038306671048008445
0.04748837002597233
0.03318689509377331
-0.017588994551623615
-0.11269631807507967
-0.05085755318338161
-0.02004947106151737
0.0006055180909837243
0.03568986145998488
0.10666899009328239
0.02568306182846981
-0.007975981195929672
-0.00762887569799351
0.004566786011763903
0.0037081185181464917
-0.031144551313243046
-0.1114145975571372
-0.036179448868674045
0.006978394010329042
0.03761373088933174
0.0760823229761689
0.13767965892031164
0.029655120266458546
-0.0476608032773588
-0.09627367587623492
-0.1149301600542709
-0.09567619903966049
-0.024912683472950125
0.11077392101860235
0.11614882969052709
0.18004143763246955
0.0730656439617541
-0.04764707331863751
-0.22770822024849544
-0.10255439042626127
-0.08733711244801617
0.02657250906983551
0.06750804276528935
0.07389429737226151
0.08293368864788765
0.1215754053904334
0.0024930859414561803
-0.07429716474636482
-0.11579412100485015
-0.1295448756606615
-0.1197253268957276
0.11234099886645227
0.16390835876025486
0.22588930991753892
0.08123783178416344
-0.0909776762792524
-0.30679270403546754
-0.1681162810074571
-0.05837814298678951
0.05365843318573325
0.20270156391508856
0.21293651367556385
0.08734337420864034
0.005044299274715437
-0.0721066646977156
-0.18637368804545032
-0.16967742620770634
-0.033343001432283755
0.034391911763955375
0.06280861251796108
0.08782842517895087
0.1402046464417685
0.037001913508667404
-0.021026704173745112
-0.04589385642797429
-0.054598564395423675
-0.06034599687377019
-0.06607470373609844
-0.06266580279327763
-0.03267540338723932
0.04135817454400551
0.16670537320628567
0.13218761190546188
0.10573264854135556
0.04003851428864406
-0.1142204348875008
-0.19135783475927456
-0.19564087781732506
-0.09413174200877142
-0.02097253757356714
0.10721658653628394
0.1691378236701392
0.21666212294189754
0.05973859210579668
0.06314984416189887
-0.04389766012017477
-0.14832919424676838
-0.12972198533949605
-0.039549116020982454
-0.08887017681089328
-0.04776396556898381
-0.05691308593868346
-0.04910096207661283
0.023850533823784537
0.16501989443155377
0.31476977185970795
0.3491347193828842
0.2995397339370306
-0.005887961334913548
-0.28648865185098715
-0.7532941839196838
-0.6723006102154613
-0.36403321314533693
-0.047592694848290505
0.2768118397129063
0.927201074100352
1.05046145726105
0.5735128550846894
0.013522343036500106
-0.4529543074811032
-0.8819496645639574
-1.048522982799839
-0.562384743306783
0.1635837274118331
0.48731084593589624
0.6689348797130897
0.5866771232868143
0.2649828408129682
-0.16647565798389358
-0.2782248804130323
-0.31862282091028515
-0.17822426467727057
-0.1553218234809939
0.06787047709399033
0.23556086367724427
0.11788708430477607
-0.09517302508439432
-0.0007363423191573221
0.011707623819849173
-0.04288284349938254
0.05340319505178517
0.12122449021141926
-0.015234916291303047
-0.12719785910199036
-0.1814591710832461
-0.14384421416847595
0.01278496228940723
0.29718158637271597
0.2892478563994949
0.13620690852879427
-0.04038097864877555
-0.12695444979793918
-0.3949250769540579
-0.28064599161754405
0.023905788057752137
0.16628435171617587
0.2170859536640941
0.2490003227508559
0.11966580316848316
-0.13610997679379613
-0.10399787201059676
-0.18136897849889727
-0.16797805587191486
-0.06121454418569006
0.14202687593371952
0.23864335815244578
0.21245285437159458
0.032242222574246145
-0.14261919256725508
-0.15044040246528864
-0.2142516653340489
-0.13350979259831477
0.1155902291580424
0.17102379373901216
0.07059141034928457
0.0376884919932542
0.07191774789972319
-0.0530063571037541
0.01588467055014917
0.02129712087426933
-0.09140545598574558
-0.16208409947583782
-0.00747432439327111
-0.018544606258778705
0.03630287496911538
0.20407693607941518
0.13924946955692477
-0.10204177636194706
-0.06447498607623152
-0.09401473565272311
-0.13936356477326392
-0.1572742568578778
0.07726615583462891
0.15785129792178934
0.23515768079075955
0.21322105394428187
0.15843869504744465
-0.07748457315112156
-0.22459219321662258
-0.36033583371484407
-0.28456933587022093
-0.11291300238669538
0.10777483927658787
0.16511243754088548
0.23742988116160588
0.2527200535930082
0.26147058399469353
0.03028680594274377
-0.14290044955420117
-0.1975185573229897
-0.27291889064652536
-0.2760422038377886
-0.06294953481554041
0.16223592770741788
0.23356560836142265
0.20201544810017036
0.1155626190039089
0.007246821058958149
-0.10655551598946249
-0.21995639875951167
-0.1286100903835842
-0.023305445107825406
0.11082895295691667
0.08978007136291745
0.12371323426755476
0.011353597750375739
-0.061779220192037604
-0.12088380647220373
0.0034757994958885584
0.0816630188606143
0.0909421352630953
0.020782942550377426
-0.12273922187975096
-0.1145022369138642
-0.11173783797342478
-0.06086809531934664
0.09039185346536167
0.178392415733573
0.21117002554403608
0.1634790668053523
-0.017591617247077633
-0.1970789961699263
-0.23150878548139492
-0.15051937764798412
-0.14766397595133215
0.01601042035172321
0.19678978205225608
0.24705977942524068
0.19581966964330752
0.037993260667341856
-0.06396913870253654
-0.1675172139886085
-0.1317332636456498
-0.2002104118529838
0.009250611986659432
0.10559215363351623
0.1172804459678568
0.08084417300564331
0.029821094736139215
-0.012492291660170069
-0.03530938765798215
-0.038452107905522614
-0.02817119994580582
-0.012676477226921523
0.0012123234788368475
0.009709041444532258
0.012134992956535931
0.009984670960315115
0.005646756144367053
0.0013072952445370271
-0.0016852116030951203
-0.0029552431544935887
-0.002864887878353212
-0.0021056263691305154
-0.001303691902013004
-0.0007665087996851864
-0.0004241193928354565
4.693219855962175e-05
0.000979786220043433
0.002448092435620253
0.004079632683427811
0.0050519119309105735
0.004329922510301153
0.001132399755888184
-0.004489532823971309
-0.011183185126124595
-0.016220858534292528
-0.016077801390152482
-0.007751229857958389
0.009389088300947552
0.03179077907552482
0.05080491766273658
0.05354234205993881
0.025970036582068236
-0.04213538852569931
-0.1518438008597374
-0.09160943831654267
-0.037849291356587496
0.03963629443948843
0.16877556795749712
0.16615299827813093
0.031541357388485604
-0.05155225593505764
-0.10961523164042634
-0.17003546884500623
-0.05321908581718136
0.030931266957630165
0.08137598147590808
0.10087639772309331
0.09072023126156964
0.048242872751217226
-0.03145926419719366
-0.1504487331097038
-0.10218329341273713
-0.06838105231546002
-0.02083828073246537
0.07169770470789735
0.23393570861615512
0.0755749992547142
-0.012402070996814502
-0.05503532161366581
-0.08543895146660892
-0.1348709012160513
-0.024568448060227465
0.0380489086780525
0.058255904485292
0.049364274315415464
0.02690862626957363
0.0038532153171341498
-0.011978840301454
-0.018160227579858867
-0.0162799183498196
-0.009898242522664158
-0.0026804794549847603
0.0027963381524282512
0.0054500920030320825
0.005481402894343584
0.0038385522775328425
0.001645896226980237
-0.00021232812798434252
-0.0012801135531057802
-0.0015149256268274715
-0.0011492992092770836
-0.0005174484306327455
8.6137829938116e-05
0.0004837570877289246
0.0006268465649872148
0.0005636121939796204
0.00038853570916825154
0.00019621507281814506
5.2321045464294767e-05
-1.568830391170993e-05
-1.2694279368193181e-05
3.742153439273492e-05
0.00010544283938727805
0.00016639798267977353
0.0002038770308214812
0.00021037065230867608
0.0001859521620047968
0.00013723625857930196
7.721907092560291e-05
2.5077616157037722e-05
4.050115676995208e-06
3.570388740598799e-05
0.00013041006366318117
0.00027634467847462596
0.00043192776812417443
0.0005279893287391583
0.00048477037818483494
0.0002443325667153378
-0.00018853661262899362
-0.000712213456173812
-0.0011218312709760146
-0.0011499763045530109
-0.0005618809060684339
0.0007101335091113089
0.0024364796092485653
0.004031124344720316
0.004633919731852662
0.00337615921371416
-0.00019504779536325733
-0.005650586207180329
-0.011377301478696833
-0.014685815844635913
-0.01251681388997339
-0.0027535029777813066
0.014137976935764983
0.03372737145683855
0.047276602632634494
0.04312213969337047
0.009988912052564353
-0.05840385544851446
-0.15902779250039628
-0.07763370777415775
0.009097881761011641
0.12727792878282754
0.0974154270301422
0.12727793500387882
0.009097891620394911
-0.07763369887027917
-0.15902778995496525
-0.05840386364616796
0.009988891947729407
0.04312211168609088
0.047276576617359206
0.03372736166938988
0.014137997531072448
-0.0027534447938849195
-0.012516725287763831
-0.014685723070776672
-0.011377247947812684
-0.005650621080098536
-0.00019520512802787934
0.0033758859724854614
0.00463359804334361
0.004030884668598358
0.0024364876749918924
0.0007105291231444545
-0.0005610677917348689
-0.0011489041034717683
-0.0011208780187189425
-0.0007119179807785191
-0.00018942632121680034
0.0002420082288870369
0.0004813241925768517
0.0005244684900860963
0.00043002408265663836
0.00027793496336062573
0.00013673860402056348
4.6402089636442604e-05
1.6381993273334003e-05
3.391402641179418e-05
7.617638867628076e-05
0.00012109420283416479
0.0001539016856869776
0.00016897306916674118
0.00016810845989595062
0.00015715304777223755
0.00014267268969915325
0.0001297539259074076
0.0001212206651954908
0.00011794918366809268
0.00011966116365897968
0.00012559105040711244
0.00013467577219490753
0.00014527225471748633
0.0001547331784271818
0.0001593444042102208
0.00015506790107262022
0.00013922151762618757
0.00011272259356198241
8.198054700367942e-05
5.917804695235876e-05
5.9789498536160955e-05
9.693242058491278e-05
0.00017351468405401205
0.00027480642563005545
0.000365383161101403
0.00039451154439238713
0.0003122357408968196
9.444577815187115e-05
-0.00023022269280080105
-0.0005638621656027044
-0.0007473135778470306
-0.0006030284450419121
-1.1863885546513592e-05
0.000994359998648918
0.002161039811077492
0.0030071886842638258
0.002931499156850914
0.0014395327191797907
-0.001549570538193953
-0.005421950631843317
-0.00876734478695521
-0.009612588972809371
-0.006073241875619098
0.0026477572657404853
0.015190774487806912
0.027359491936487134
0.032347777971389116
0.0222215097269665
-0.009434801764508002
-0.06442298445757713
-0.13766689177466918
-0.017153850366234454
0.11326319550553869
0.06896139879172578
0.059605825022328675
0.086477652542582
-0.05670219126290586
-0.18004449132783604
-0.09301632323665324
-0.0017760840743135063
