0
-0.003755018717642241
-0.0013620784641624523
0.002428706744978133
0.007631221171222921
0.013013390197622859
0.01601459826037293
0.013435053947060325
0.002911210693452757
-0.015142001775271694
-0.035785377537266835
-0.04887796864901436
-0.04024616135947892
0.005026654592825769
0.09776836627308812
0.03980404835140013
0.0208298303153156
0.018545851770407688
0.0024578934972919295
-0.05944620126249542
0.007181998059176509
-0.009900521815889423
-0.1052078655730634
-0.055325301171117766
-0.02340966071951385
0.032210441466389635
0.14736726680868925
0.14248517910616765
0.017357716540538786
-0.047834647272861006
-0.08572200026854387
-0.13181391088421593
-0.015017304068837615
0.048530706041922715
0.05721947037945865
0.02196411898975339
-0.03806324347495822
-0.10067460363046661
0.05384683067963586
0.0375685410027877
0.050995615388396434
0.08181214268478552
0.10746741918446859
-0.09825394376340846
-0.15615345350716966
-0.07298793263113257
-0.0366653210300511
-0.017501601783450258
0.024454877207582732
0.1282455647526655
0.12053119099937835
0.007479695715697298
-0.02752445060003854
-0.019901518805510696
-0.015119710807023238
-0.05774175221205371
0.01902593828279651
0.0010707883647599935
-0.1031232114303493
-0.06405317618082541
-0.03797062314023031
0.022084880611708085
0.15334470404137374
0.17208690191001189
0.06801608853306214
0.00679695311846628
-0.05942202491300741
-0.17666953480714234
-0.1741558536559962
-0.05485903581877666
0.004998956540948157
0.047505193724601366
0.11879266452850584
0.25412630652508084
0.0676243141034782
-0.049933819020537173
-0.12500500820273203
-0.19002836088382682
-0.07199964064590135
0.014699857537565388
0.06927398944268515
0.10030003559367565
0.11931762480532958
-0.06457684833969034
-0.047219355238782366
-0.028906257898627333
-0.012256090918936455
5.186734205413584e-05
0.006697247407444049
0.008080998257582826
0.005902601525368279
0.0023822534181294074
-0.0005035769921640212
-0.0015560557005698053
-0.0005840971565008149
0.0016539934388210898
0.0037498580326961
0.004132534241448103
0.0016755083000734399
-0.0036928301049133304
-0.010562928274963317
-0.016044252031173507
-0.016412999595199065
-0.008480963083263364
0.008522733399755589
0.031118969868383976
0.05064234052934959
0.0540773238096967
0.027151158824861316
-0.040678064642716845
-0.15078843032704295
-0.09179231898177807
-0.03995971605205731
0.03546400007774464
0.16333690845204302
0.16131305724896747
0.029933039043454398
-0.04738173378225925
-0.09851181981254388
-0.15361938197505942
-0.03669716570524563
0.0392665435585791
0.07250883079353912
0.06927365258994145
0.039502003723416106
-0.006454371070560138
-0.059198838058155324
-0.11020740729143695
0.048470871885914514
0.023705610349778767
0.019858977219122723
0.03723130900615629
0.07143935075375336
-0.08564164917140259
-0.043548382462827565
-0.010423534821747068
0.009131746427398016
0.014834688039189591
0.010124673103387688
0.0006808682531420712
-0.007378093378614203
-0.0092121656331384
-0.0026736192736588316
0.010753241091146356
0.02572256615502668
0.03381111607042288
0.0255282253193222
-0.0065943179143040055
-0.0645682428692722
-0.14248704951102686
-0.026495968503771703
0.10203931216459482
0.06085293626568359
0.0607175913103297
0.10158484839113698
-0.027365456675558984
-0.14378860755357462
-0.06609688558436988
-0.007845348700868521
0.025293526064631807
0.03531709531223762
0.029280718906610683
0.01583742000031871
0.0023255520379618995
-0.0068328085627405956
-0.010343815174116974
-0.009255946631573041
-0.005746430096310434
-0.001986727586647708
0.0006011420815607937
0.0016023694797139268
0.0014516020236874248
0.0010179892097039389
0.001111733822884014
0.0020701844351370207
0.0035435586687567622
0.00455516301940162
0.0038544498938788826
0.0005046186750377799
-0.005450053509969269
-0.01248758789983608
-0.017583836535705666
-0.016912847362549454
-0.007334805813730124
0.011591727791883501
0.035720201713902215
0.05548116385266741
0.05702140135830882
0.025761884496509194
-0.048132723793491074
-0.16406149494626324
-0.10761346737409762
-0.051887606641107496
0.035661436065788935
0.18249766897638747
0.20028527727833603
0.07878647371516764
-0.012465253186518956
-0.1147266874090953
-0.2662806810247019
-0.08976760935350962
0.014454361527094405
0.06671629799047672
0.09955691098835515
0.1462800596129943
0.03105863554047437
-0.03622653773275773
-0.05956554944769918
-0.05219431286613958
-0.03033242937361751
-0.007742270510604703
0.00741071097291284
0.013089262090823213
0.011878483296171909
0.00842645375368192
0.006826197758507492
0.008710909310941222
0.0125317850429675
0.014186646753471126
0.008873595477445116
-0.006267927223055457
-0.02949044999605473
-0.052761998779883974
-0.0621196274735608
-0.040708707712910075
0.025708840189123935
0.14219856765198613
0.09952464824639433
0.07314000291281025
0.02790617659864553
-0.07201860679766843
-0.25108512620366213
-0.11253940482727542
-0.03512926025666178
0.02165927112935034
0.10519748787751557
0.2544739579523792
0.08759936765974453
-0.003362141776522397
-0.04852072407930909
-0.0890440822130616
-0.16320812802241932
-0.09477957262288607
-0.08772942905860291
0.07127050799232754
0.20418299822559605
0.1308471085956045
0.06094046265408801
-0.00796689926107411
-0.08585260364965275
-0.181758350106927
-0.09563010297457095
-0.014426133616254128
0.08559705035624585
0.03126467113860071
0.04253322766834496
0.12395932646159862
0.060719953318898394
0.020825493528248
-0.0367830505084156
-0.15056792981700692
-0.14490550330136834
-0.02267568819068286
0.03557193876043041
0.06583640239951505
0.11058969042174446
0.007903199278840572
-0.017070822926346946
0.04352511852052969
-0.019731515412204918
-0.030001094157404252
-0.0185393813534149
-0.01852640155590209
-0.05973387125999416
0.03511136570293873
0.052101834049317564
-0.013453601991186049
0.04280055858177641
0.034173981688659066
-0.016998130154423186
-0.07973027789257642
-0.11639250521099985
-0.08761428139488386
0.03945457036791103
0.08078259962463732
0.22620097881467244
0.23550984744600365
0.04336639702229449
-0.22658130389482925
-0.24195068629853825
-0.2430822770098314
-0.032734834181379555
0.022117381761790785
0.17754730931945878
0.2946089813324807
0.2234975819249784
-0.0038426846498542003
-0.17055672137689762
-0.2642080595974344
-0.2653594114231086
-0.14250361185130242
0.14285684244879296
0.6225431164261539
-0.294366536614712
0.1674693618532128
0.14866970856099368
-0.03520607113113146
-0.47638778365641443
0.3447604756316434
-0.22392700165540014
-0.1978488473365711
-0.15693783878133852
0.14371476425560922
0.3574146332247379
0.3298536063226879
0.0904399735365365
-0.1451199212293579
-0.3628371926376199
-0.3362988665762866
-0.21943097876940607
0.04778902876151955
0.32111788082298076
0.4285862413964909
0.5527462498616681
-0.17201423420840553
-0.44439329320982135
-0.3692630019751304
-0.23064289766108162
-0.2758051362551823
0.4844985584432636
0.4630197589783124
0.27949728951128133
-0.04957013170011619
-0.3102516890574185
-0.48256915196804384
-0.13201021025833642
-0.008845505939059906
0.342406925923228
0.367779628954803
0.29139209998286164
-0.08675154705520627
-0.1805841188326304
-0.4001522676430774
-0.3354735150796663
-0.15129028594023888
0.20288875252517735
0.3703831089561753
0.36180512985986957
0.13778309154653326
0.008231738861014807
-0.15025056848177226
-0.2643216924991222
-0.23106690950852113
-0.09277321615971754
-0.026577385893822653
0.048823934407767375
0.05224068215375398
0.1111008580397344
0.13218753781953826
0.1790226256403831
0.06091850728738179
-0.06433878886976019
-0.07574585157410312
-0.06688696435191203
-0.12245780299389765
-0.09941742259347738
-0.01698735196191782
-0.05724668167120779
0.02458117648697208
0.08336788080634551
0.16561266337120173
0.09448806461531749
0.06271758157850628
0.035387511095946664
-0.03815852938185113
-0.2069720412484514
-0.10108985717383659
-0.11960120324346621
-0.028065214506901793
0.03385717209818656
0.13697930593880844
0.1442140481369937
0.0948589880468718
-0.0039541224484473045
0.02332739936511016
-0.07056947188133428
-0.14209615453511776
-0.042652926573865546
-0.007727338659194925
-0.051848138893635876
0.03020532908805257
0.05727610477251582
0.053238977757859504
0.03873481216065167
0.025576718204617436
0.015126380780238435
0.0006500138547390797
-0.0274956783222691
-0.07580695066210652
-0.1429866231683601
-0.018635498376294374
0.11397022622954976
0.07203334991501109
0.0668555069363899
0.09978020513801665
-0.03779793739604732
-0.16057361781601237
-0.08367341266075545
-0.018041671888101424
0.03102616316285396
0.061940500488713704
0.0730167681497612
0.05917891800375314
0.011094006983111245
-0.0826398738516429
-0.03114107833152079
-0.036638198296673016
-0.09161894056927976
0.02104366392219661
0.12504046724625126
0.04594073715814076
0.0067734187090435875
0.025358686298094187
-0.08636035744470467
-0.1220185866330797
-0.08116406759694893
0.02871735782437498
0.18900067252706365
0.16787191887478786
0.12254692100634645
0.007674570074252896
-0.21116501693360532
-0.3433638133284423
-0.16495482660112434
-0.021276814923867297
0.15826392130811154
0.23755223501808423
0.25132446406951925
0.19154516964410576
0.008208634749694386
-0.1751149418802244
-0.23617449034615925
-0.22814146885659922
-0.16193733173592043
-0.0026842058284782476
0.1189807808000987
0.28517192211235465
0.1663356870315414
0.002092755468766344
-0.00747319749848498
-0.09914936572400405
-0.13531556941219527
0.01142428939830693
0.07349154548843324
0.0007866284198921869
-0.030792497029354698
-0.015196059537135941
-0.11687961040930417
-0.07673939160096267
-0.023190587277109976
0.11310373188513571
0.18404233957152705
0.21274463987036837
-0.010108605511703162
-0.12085351458589115
-0.17046180976502387
-0.21012779306711635
-0.08024197501556754
0.19398556991726343
0.20063478473595844
0.1363836536188379
0.003169381677026861
-0.19170666667731054
-0.23326632868300246
-0.09783353284187775
0.04357452704088693
0.21716171269986395
0.2367635662081685
0.09775799176697879
-0.02164711229371277
-0.15141606334569507
-0.31665541793634877
-0.1265070889931254
0.029819028372096514
0.1781112519156495
0.14789471265567325
0.16025972242095268
0.020156051697807122
-0.08405064629516264
-0.17450887897300457
-0.07476877681670004
-0.0018182886373662892
0.03787453680408766
0.04779182794168598
0.03769134660386785
0.019002852316881553
0.0011144212125093688
-0.010538414948112279
-0.014573824846160764
-0.012535722126972564
-0.0073064375341078645
-0.0017042304451044558
0.002375437685074026
0.004212069066956418
0.004052279649650355
0.0026766590208129252
0.0009594443735189905
-0.00043901938347038817
-0.0011999610958902149
-0.0013203175622328919
-0.0009978343354305388
-0.0004956983134421628
-3.645370392980405e-05
0.00025246027185003004
0.00034351874753646254
0.0002809999659265774
0.00014080801919371004
-4.811328115413466e-06
-0.0001084561485470851
-0.00015322630439251202
-0.0001467913458566914
-0.00010997387937742222
-6.54222815599877e-05
-2.9872584097857227e-05
-1.1095924606815917e-05
-8.76516202809894e-06
-1.7533849207108052e-05
-3.055669912461472e-05
-4.219088546495969e-05
-4.933236623043308e-05
-5.146398176991643e-05
-4.986388723067868e-05
-4.652198500323616e-05
-4.320884111153842e-05
-4.094200258472655e-05
-3.989328657482414e-05
-3.963550752563076e-05
-3.955630598405465e-05
-3.925995707387725e-05
-3.881360264881542e-05
-3.875307954542389e-05
-3.983457876516807e-05
-4.2596678917376247e-05
-4.687559340178735e-05
-5.1477584872439835e-05
-5.42274749164867e-05
-5.254800221735102e-05
-4.456162059912661e-05
-3.045910803479172e-05
-1.361401828193384e-05
-7.544879665741908e-07
-5.72354003158717e-07
-2.0558317036896097e-05
-6.25993670889214e-05
-0.0001187913628992902
-0.00016965354623666123
-0.00018701574015061063
-0.00014286425365235507
-2.3243476595468864e-05
0.00015670412634257537
0.00034331047548985896
0.00044846946047128746
0.000373068687436134
4.9445084787868755e-05
-0.00050701611694114
-0.0011572585713213472
-0.001635292964567775
-0.0016055768930781573
-0.0007879333625785209
0.0008723953097438498
0.003047237440694408
0.004965540312042327
0.005537295660369924
0.0037071492650387512
-0.0010032161276050553
-0.00792202595843992
-0.014889755097818213
-0.018463800572067746
-0.014888287354194972
-0.001813457833796984
0.019612879090419866
0.04303530817940297
0.056526622850703534
0.044384140630097914
-0.008725130786609884
-0.1120957364136593
-0.06363260803803429
-0.04708845289393991
-0.03358459402147779
0.01234635829792045
0.1236854089907795
0.12160559150936039
0.009003864247489984
-0.030936154352397004
-0.030807196363348836
-0.031167152443275285
-0.07135541916529979
0.018610412348081747
0.023362579320411792
-0.05597611390780671
-0.0033327607263334
0.00801065393403488
0.009305332756517692
0.029689760127352912
0.09048007775070721
0.0017302421747237703
-0.038196417377425775
-0.04023694805207007
-0.02048375379587915
0.004317443365959964
0.020546633385139457
0.020304703951923405
0.0028185205687408133
-0.02528225393884815
-0.05096840252094883
-0.05743063137554111
-0.028477981126507762
0.04580639898100989
0.16369162779460664
0.10904494910785421
0.053379263778781036
-0.03662997568804638
-0.18795626074622276
-0.2104028461808272
-0.09090028221026346
0.003859388959946414
0.11656690698688087
0.28399811108498296
0.12326036672572925
0.0251654598139528
-0.04260597940587791
-0.123949483772679
-0.2591104721592108
-0.07169382087418345
0.03748234884925462
0.08821157758562644
0.11241428905705421
0.14355279815960295
0.008208450539624584
-0.07770347280024825
-0.10816142498088054
-0.08382391350104175
-0.009044026227462493
0.10925296155250798
0.060987047013782145
0.03213677842124665
0.005357207477696295
-0.03740508886721843
-0.11106223206961532
-0.023922297725016802
0.023840884067784434
0.039167843387228174
0.033132915984194135
0.017355362291023645
0.0011299850774748393
-0.009995212282008604
-0.014187025721388634
-0.01233056657613495
-0.006715204266236053
7.796815051950106e-05
0.005842660097470037
0.00899901204943011
0.008632541541939005
0.004544471670099321
-0.00257462012367568
-0.010920131073430034
-0.01753822733842754
-0.018782949168341497
-0.011461660900287721
0.005419214614536698
0.02878832213228825
0.05035351335141602
0.05709236612092133
0.03400447629896218
-0.031066541946507854
-0.14184494503650366
-0.08950082083813753
-0.05231997994799967
-0.0003614656821426356
0.0957616620652972
0.25491188365237955
0.07820339540277349
-0.05234094770060617
-0.16863312107610856
-0.10724588891214755
-0.10011449080502065
0.03126244406056617
0.07694485708705387
0.23647710656883614
0.11660826362629514
-0.0686973402822138
-0.29582130695530245
-0.12933715853527641
-0.12415002471754198
-0.03442153790404715
0.1719717656483377
0.49872372041106955
0.3135721007969403
-0.045917816721152374
-0.2522813176240425
-0.35981707867731927
-0.379152297030864
-0.26614599083526835
0.06841574206985754
0.33000177468518943
0.4019831534351246
0.3117298827247398
0.2140743733513745
-0.0010343438611775978
-0.27845803656386503
-0.35500676902806333
-0.3178129954417701
-0.17746527320128902
-0.06434226084501433
0.15106064575024086
0.22047544770919295
0.2744732576064764
0.18611234023899142
0.15180886468166357
0.09436766729076
-0.11315341938421787
-0.20975603659944914
-0.3058260793312464
-0.2512799058362585
-0.22196180462259185
0.07159826826751359
0.15578544384227594
0.35481567471083075
0.3534495778021177
0.17342100605398486
-0.029163775947427452
-0.14538309226461635
-0.28099398913294216
-0.3211827639891846
-0.10412579079399138
-0.011270512070181163
0.023696985643457773
0.09121955488537707
0.27572848777003833
0.22860265577664152
0.15258252135198688
0.0023522308717425955
-0.09919989338244596
-0.2347208009978184
-0.26518665050990475
-0.21117322240134875
-0.0492008044915422
0.07540891867004837
0.22352518864075255
0.23383420722390444
0.3013750242316738
0.17128474972276383
-0.04884224381244584
-0.26096465346075504
-0.341772512198937
-0.31283795421631355
-0.12628883664744353
0.12870305094646714
0.20053848317159367
0.23906474849077256
0.1597368388352265
0.017926349861790477
-0.0008457013019182618
0.026089554763940686
-0.020853702874337732
-0.07485618273691237
-0.052472847656449564
-0.22834011944014349
-0.22037822975033114
0.011023422343044952
0.14969792229770124
0.10009019798670883
0.1602110200742411
0.19874072275172916
0.04203168231270413
-0.12677726969861805
-0.15829946064143866
-0.12187827885216664
-0.09065039915647559
0.06921204332341951
0.10396170616330354
0.17411925288071461
0.055663200198307214
-0.057222557406256425
-0.14789288650248422
-0.1739203180670414
-0.06817378411127066
0.05332413284950968
0.07707042814073324
0.07445926653333829
0.08567990793019588
0.10982527533484258
0.10434924077368592
-0.005351450402048239
-0.1081398688860317
-0.0855192510664939
-0.19211615233764892
-0.24407766649962342
-0.01919235540277375
0.13103958810481794
0.2613961109456751
0.21224692503158182
0.1960289957353671
-0.003985875482215403
-0.22248066679477832
-0.29345331264755475
-0.2322582504007409
-0.02598234785835896
0.16408229717042994
0.18951654248118313
0.09727405241690106
0.11464458112488084
0.04182632781533831
-0.1462789746967541
-0.090902570609057
-0.036912339484697396
-0.021355671203287716
-0.06616269373278899
0.023798109947680054
0.05787273295553807
0.05375458110331234
0.030904531127749418
0.005318436570673438
-0.01319686716663977
-0.021181481152614888
-0.019885025650265033
-0.012927789385561578
-0.004216133679507551
0.0033380111382986075
0.008199698626645033
0.009945596221537213
0.008755130454633211
0.005027960378121523
-0.0006728293304218136
-0.007379901272952722
-0.013412888156809716
-0.01633475253959355
-0.013462281089466191
-0.0030157304486775993
0.014331937421576691
0.034091192674968976
0.04757719164198241
0.04323456976838738
0.0098971046099325
-0.05864190740237806
-0.15932722184527223
-0.07792338952463455
0.008852275837781578
0.12707114265311317
0.0972164730012811
0.12705320050834573
0.008834594990750542
-0.07791241183824496
-0.1592630737777345
-0.05852014762833335
0.010048362094471169
0.043352573153325066
0.047578423342629524
0.033902634471397027
0.013934071068825483
-0.003548399095836988
-0.013944142581268429
-0.016497008508539676
-0.01298846985314624
-0.0062364694127406105
0.0010437692613785752
0.006804284154655322
0.009750046540065161
0.009214714668932115
0.005100668226747864
-0.001978286417366974
-0.01042099903268888
-0.017488591412114406
-0.019619114056023533
-0.013454451580831731
0.002451226556136656
0.025673739688375947
0.0485262080299319
0.05820749214568729
0.03921561101577641
-0.021999452191828365
-0.13126692473037893
-0.08192455024129452
-0.05340436908061301
-0.014617009296347475
0.06827808991078413
0.22211056308653956
0.05848190285361195
-0.029756602322111133
-0.06610118026386942
-0.08335945830508518
-0.11500951844878024
0.011891870220820316
0.08040380820672317
0.08402012040745109
0.025015905758231618
-0.08758571030007896
-0.03970577710042074
-0.013876015574665902
0.008484638186245303
0.04407090689185853
0.10463989066274007
-0.005072716592557997
-0.08786039002036611
-0.15331789931254647
-0.016951435165044288
0.1001033766500941
0.17137959890715074
0.167447159015399
0.06244863354770083
-0.15504989611912337
-0.26990564617729723
-0.23251624177497698
-0.16091400547805626
0.04444382047064778
0.27558839086222814
0.3890528425906477
0.18480612534433982
0.00030082880047734993
-0.07739385721529803
-0.18485707344989177
-0.24927794297809738
-0.1588861239309481
0.05528651794504354
0.02259142682763551
0.021760467363749852
-0.040066509707543926
0.14740748129555317
0.07387170245622278
0.19121092338723647
0.10655509274443402
-0.013138870280519816
-0.22690126453988038
-0.20098652683081178
-0.19211193957968076
-0.03818911719206905
0.24152840530055072
0.2393985755174296
0.15098766008728565
-0.029212963909697454
-0.10556175191496008
-0.2743696826843555
-0.11706706509575708
0.0017683372210539445
0.12934944190952366
0.11411802576313139
0.19391979310032756
-0.012474193372598325
-0.10777828606786458
-0.1127475371583534
-0.05942731286549033
0.015784402235904087
0.07732807524192216
0.09382849818931958
0.04068278477704603
-0.09713919956109358
-0.12224558914138224
-0.02324583809814114
0.024067985216974126
0.052352553513893896
0.0962350093782169
-0.014303581298225388
-0.05892130985715801
-0.02949038573970333
0.06961800046297655
0.023101758422552614
0.007871624553902607
-0.0024663256246340265
-0.03240220017652324
-0.09972586952115316
-0.012486113319499285
0.03135143344276321
0.04154377299900115
0.03152548010503969
0.014216565935559578
-0.0009996122899093294
-0.009511979913087935
-0.011047811862798579
-0.008152474753068139
-0.004299215505933863
-0.002233205928231365
-0.0029334566266321187
-0.0053562248591191
-0.006950839717514342
-0.004803808458111388
0.002862933859678869
0.015252801555934042
0.028141671766787595
0.03414408772432346
0.02442740627714789
-0.00826463400515001
-0.06607998555860763
-0.14342607146442093
-0.02677680252695668
0.10226609721566068
0.06133241514178485
0.061206180438916374
0.10192061035107405
-0.027242135489215325
-0.14385135130517004
-0.06626787103207783
-0.00803168434927563
0.02517113973639385
0.03530610139722301
0.02938745267760635
0.016025052326651638
0.0025194707654639975
-0.006729702535953261
-0.01042347870459375
-0.009566652878233087
-0.006251980207539906
-0.002540122333819054
0.0002484374266279543
0.001738463968578332
0.002287994266601573
0.0025436431806989466
0.002971301566181328
0.0035402444754097273
0.0036757823342055468
0.002513297754673754
-0.0006079017829035028
-0.0055696216449665215
-0.011056941285994585
-0.014563668810442677
-0.013024160347083084
-0.004095049348309704
0.012171468826118356
0.031831846862321156
0.04650799039355995
0.0445118398008822
0.01390620731576467
-0.05304904843815315
-0.15556624134627345
-0.08219684336847367
-0.012612027920528516
0.07651681594368655
0.20348763615865972
0.1748958273225589
-0.01631023223184908
-0.18679371531622324
-0.15467476622802862
-0.13136555679449827
0.08259557203648972
0.0960567291814317
0.12147448562409507
-0.03195632790264577
0.036789756778516765
-0.08085916041419439
-0.0011922438835412043
0.05585198218067513
0.07169608914260843
-0.1659807366591191
-0.0595249240485836
7.63584303786968e-05
0.03151637040364725
0.05883083975292511
0.10598987566936924
-0.007608269920867928
-0.06944418155624676
-0.07397289240203088
-0.021559908112895158
0.08253368943017156
0.02863682540348196
0.00301738130863268
-0.01125147908737371
-0.03268984059167735
-0.07946351976604023
0.03230409741157538
0.08971259144012939
0.08416196709412935
0.013059202341448122
-0.11763406953475426
-0.09099928571382672
-0.07885868161949283
-0.04534340420380459
0.0453891986912514
0.21911240270049587
0.0826170610600379
0.01959563323194572
-0.006541312605794308
-0.0433867587476149
-0.13666820204975652
-0.117860258115345
0.003951070953562823
0.043777748666485525
0.03607807657240948
0.02571995761986796
0.05737572240859316
-0.03408636701888707
-0.03048888402879761
0.06633874015751658
0.03508817975278361
0.03932418748201403
0.03528490863762237
-0.01796658727314727
-0.14813185660455805
-0.16189924255235066
-0.04264965498634975
0.04486301097080056
0.14382356509035274
0.09207188878636899
0.11074346169857353
-0.0014592882159551004
-0.06691051738461522
-0.12174482112913801
-0.005486668153193545
0.04912981744417667
0.023816283276192604
-0.08121357360164823
-0.04708555395437228
-0.04003467017426309
-0.018764321148458874
0.0558111922701957
0.21075116085409043
0.05415762693649892
-0.026403108040724984
-0.05943978541226329
-0.0806765947373546
-0.12305797244476722
-0.00899822930237532
0.0530296458646594
0.06742349340305634
0.04741878361995497
0.010235824103311478
-0.026974578854766968
-0.04989434210517811
-0.04898218865514991
-0.021364348974504593
0.027021207117396955
0.07962749912807142
0.1092601110956341
0.08135015122829418
-0.03878323167899504
-0.07575022165504755
-0.23395575296588242
-0.09147394875686617
-0.001153305268136023
0.10028579126500271
0.07753122543256569
0.1809802272318514
0.03509196946033184
0.03430903059900101
-0.052592746240414795
-0.07161951185999751
-0.06994385692271234
-0.08393039976365549
-0.13242731475266442
-0.01722571884804056
0.06971370636826928
0.13507477577708893
0.17362509444467403
0.1631575646864095
0.06816190811918205
-0.14782964211127422
-0.30512531400011045
-0.19268599125899952
-0.16174177939963771
0.06791020761647462
0.5900717738564037
-0.31151750179163973
0.014768957867056365
0.17390926697644468
0.12023296236461055
-0.23527051828654402
0.5929081211554091
-0.10926900582859704
-0.4261953229544947
-0.3876293916116553
-0.3568068581512191
-0.03838185381109173
0.2936358324295094
0.5561905686798312
0.41993651001286403
0.288807368389393
-0.09544481524523996
-0.42570944731391724
-0.5905850083992714
-0.4405331585825205
-0.17335325871329818
0.25544358007857293
0.70319670625788
0.8064262188796718
-0.04019634180910804
-0.2818310060108203
-0.37992208801130467
-0.5794942790876073
-0.48368776299338
0.352361006588528
0.40601331899838944
0.358009518871759
0.26334071425531225
-0.06588159708760515
-0.26053676201359255
-0.18049919058750075
-0.09437616128945463
-0.06123106258495835
0.08049119864183385
0.1156987100661571
0.04894798690304121
-0.10271434701011489
-0.11797197843388958
0.020763484330908268
0.12051266355161
0.17366492313337853
0.15899770542964722
0.04941165124057163
-0.17446150704430985
-0.3089795266672345
-0.3171476075908933
-0.12946645435631787
0.14157187758153564
0.37689942991201075
0.4251829187512658
0.2868319813388352
-0.08476762171248335
-0.36455425899844174
-0.42731260274476957
-0.32167279246745095
-0.05762308863613132
0.1878443059643578
0.45073758259078833
0.35584361141696513
0.09976001871572836
-0.15143784334215307
-0.249809242186501
-0.24502987641076956
-0.16523845706525775
-0.007075622565583434
0.06200371291254611
0.2913903752917143
0.13087395345178343
0.016761506468937853
-0.03490197250375201
-0.0271531942498421
-0.17541316429518364
-0.0993234669843129
-0.016834087912597512
0.057567738901139046
0.11107806678477636
0.1298366058462073
0.09836675774691574
0.0031510264401475485
-0.16011974928549141
-0.17867307639264296
-0.21866878404674225
-0.028937581619102936
0.0466291641478518
0.2511975006637701
0.39820059493289534
0.26314902672184276
-0.21106465592675241
-0.2960822278406902
-0.25402042632081145
-0.3174256161146135
-0.08160035795073137
0.28795614949913384
0.4370937969576404
0.20248299636487768
-0.0016527321909829034
-0.18447231868688205
-0.16842326759352197
-0.17426241419229416
-0.008483939920308037
-0.0582139806122206
0.10515216926364164
0.11574068232959266
0.0005662854352167757
-0.031145998260097996
0.20660478039156258
0.07807690581383245
-0.06583455324960716
-0.07420646700316699
-0.18149990917456948
-0.1966945608877362
-0.1003681208234087
0.1487133727130604
0.1996921432673375
0.2938315688490859
0.05319999470367996
-0.12199135474290455
-0.24749552022167748
-0.14470167007834972
-0.03147203946132651
0.08195225773685978
0.19158121498829686
0.0954916520636661
-0.009597125963655712
-0.1287834808155028
-0.0667231530307589
-0.024708444629693193
0.000679584615986849
0.016312352928192147
0.029154016287594123
0.04233396385752537
0.05244719908395534
0.049490272177264594
0.019973997248017836
-0.04742337670874158
-0.15551577851425458
-0.0942174763717841
-0.04051347204400947
0.03628209966080603
0.1653492737453568
0.16464660347512874
0.0346324140544476
-0.04190018025355146
-0.09384786980412273
-0.15229527680317484
-0.04138015274489347
0.027181734973809695
0.054590605320563465
0.05135354377128966
0.03179801779853572
0.009021047647631359
-0.008246920061287306
-0.016488879971990878
-0.01644679645842728
-0.011258474503330035
-0.004555576129397519
0.0008954726082844955
0.003792910390473445
0.004222329611739399
0.0031527653283261584
0.0017920266191436718
0.0010334029057466494
0.0011349261560212951
0.0016833393756528901
0.0018244759040772264
0.0006876917626115575
-0.0021147598474827007
-0.006074377982462863
-0.009644346707767362
-0.010534388070473182
-0.006516972449392338
0.0033522614155916484
0.017418720628524294
0.030529636545830442
0.03411332299860857
0.0175972154066266
-0.0289617177554034
-0.11180830352446461
-0.03123648846649504
0.018696605131869357
0.04817798209496365
0.06822494058681346
0.08745841103982582
-0.08950759092212779
-0.061640637826158966
-0.02979089734162488
0.004966647863432722
0.042037247159145516
0.0810646546368551
-0.07860050276288645
-0.038101728735214606
0.0011952554591112311
0.03828431362844911
0.07343206708944482
0.10976825205540329
-0.04428530666748692
-0.17255485155668945
-0.2507014000392572
-0.05036405018250699
0.05107272286486912
0.25720458745282576
0.3412321447526355
0.24308342357031412
-0.12061632814314953
-0.23459571945724192
-0.3577255470715808
-0.3006409028034086
-0.01720877615370785
0.18633650203710644
0.22758238829809446
0.2176697918468911
0.03420895641910683
-0.09541280094304247
0.0024639153094461017
0.05626171131068454
-0.033721703291947694
0.026445106084022656
-0.053257729420250574
-0.12774590533170016
-0.2050145875239342
-0.044599677990229264
0.032625738045318875
0.12521010907848684
0.12721744161647158
0.10594138681871483
0.08696642212327405
0.05001468369883195
-0.06408652593955133
-0.13794962596976804
-0.05836332839843732
-0.09845600396377774
-0.10546290628037207
0.10393656486740145
0.14130453130529141
0.03977111224944056
0.04630849364076359
0.015336244075676474
-0.19586831628857196
-0.13122007239624037
0.05883354785584159
0.00986259088604396
0.13513435285000394
0.21945516983427038
0.01850764887843049
-0.13453551808855121
-0.11607786102711569
0.003725637890915023
-0.024581471307564256
-0.01998535327372612
0.03250830269449869
-0.02105351428895583
-0.11233084668378085
-0.164234622807497
0.09243326524554737
0.3022039582426263
0.27250859416396495
-0.029642517828063725
-0.0693663553155202
-0.1257919034284231
-0.2699273769962523
-0.14586962026028927
0.03878715347686091
0.11118873695421487
0.12216189618278712
0.13077723377939704
-0.010126204601552048
-0.06384821460032498
-0.01416309752965533
-0.06516103216693851
-0.03847278428477785
0.030638445478429987
0.09783482838774879
0.11535739680350465
0.039448757791100644
-0.16063397551142355
-0.09382833226844071
-0.1418601191339489
-0.06030447518898079
0.012626032409142455
0.1411412232415852
0.1749597502187345
0.13582241417942117
0.012020712446974145
-0.037121996003805696
-0.06829157953816627
-0.13698647773757783
-0.08148237383244034
-0.1127367174142989
-0.013009352371689353
0.056754594304648354
0.14342181876306495
0.08652480790530832
0.10628076395028586
-0.001734733761810221
-0.06420733637122837
-0.12152114821638688
-0.016260807004161108
0.017681514675238288
-0.03716131020273179
0.02166287708552603
0.015883550461275365
-0.01755424120894471
-0.033055220476818664
0.015493387381505293
-0.033992561810847796
0.0401005382445622
0.03708063660851096
0.13172163540357915
0.07725160167826124
0.014072104148773138
-0.11695708323744328
-0.15979626396386762
-0.13146541347365642
-0.01730227180470183
0.02480049790314898
0.052221875316426775
0.12114944514552649
0.0707240556614
0.11235453991819523
0.027143771954021654
-0.02800980009766731
-0.10756907371856744
-0.06163114095961214
-0.12191999011199968
-0.09343025503186332
0.04620078092801046
0.13996495168675216
0.040002181426749286
-0.004893268397663592
0.04059335620750028
-0.007490697367498737
0.046697025781878405
-0.01784624633018424
-0.03255874482555968
-0.03158603859367027
-0.0446886528144264
-0.0925319230810639
0.014606653739283548
0.07480266830332731
0.09045225695402319
0.06437031898641556
-0.0020444265556672464
-0.10786238662522075
-0.04976773964578012
-0.01918075733704339
-0.00112323712049746
0.024446285468258357
0.07931776443836544
-0.017047504632511718
-0.051139455494352976
-0.017866252520572733
0.078307803245721
0.023577738071094898
-0.0035181547412223998
