0
-6.551217063711999e-09
-9.334224381530625e-09
-9.131038343569277e-09
-4.308513600936117e-09
5.4379279550081954e-09
1.8163053870843817e-08
2.932460782414218e-08
3.251442427377823e-08
2.1533459235319357e-08
-6.431825731032704e-09
-4.745784746720623e-08
-8.890708126276862e-08
-1.1059822464654471e-07
-9.037327350495707e-08
-1.3870056803953038e-08
1.1387487714666305e-07
2.59648746743897e-07
3.620760500915017e-07
3.4551903001091096e-07
1.4907510257173147e-07
-2.3485647359259454e-07
-7.258907701114418e-07
-1.1442027563565632e-06
-1.24143027817048e-06
-7.832904437011885e-07
3.2678939978365314e-07
1.920147586529765e-06
3.4920574941112435e-06
4.255403623453688e-06
3.364679392638244e-06
2.9877639941670733e-07
-4.69391296846852e-06
-1.0271265748286248e-05
-1.4024016173024766e-05
-1.3043683380908465e-05
-5.066164183345294e-06
1.0038459055272152e-05
2.8963146500338218e-05
4.459875668170878e-05
4.7330708253489056e-05
2.83229922308483e-05
-1.5675368852171596e-05
-7.748645575065154e-05
-0.00013698762653261058
-0.0001635148641876735
-0.00012485616913635676
-2.2280340882407383e-06
0.00019267277928032358
0.000405740813406741
0.0005425088570404105
0.0004912729360739064
0.0001681332149742608
-0.0004255247779807435
-0.0011542128553357958
-0.0017372662032490557
-0.0018028605859251002
-0.001018246008017376
0.0007238127162242775
0.003121762607601669
0.005377505302011472
0.006303122847592423
0.004682716480898646
-0.0001406131149213838
-0.007611426326517114
-0.015527292326846189
-0.020168945731684543
-0.017271235568620327
-0.003871089177206474
0.019316138597237312
0.045758727139696184
0.0622344786514761
0.050124578417526516
-0.01086267849910129
-0.13735497475278607
-0.13726060504869714
-0.0072454398682904675
0.06592038386802244
0.1007387780514865
0.11551174985769883
0.1250107994439478
-0.0588497555400062
-0.22278109021589096
-0.14711095350856782
-0.0037533385768974844
0.04027966305707698
0.014039406202340092
0.13144208952176656
0.18206805537170462
0.12798159776729215
-0.09128500187744279
-0.1464010680589196
-0.10237919954387399
-0.20459165804742793
-0.07133956281189127
0.10509437744682006
0.35057869597957636
0.09896602729137004
-0.015349952934278004
-0.15946348723610385
-0.09966125168261743
-0.19867556675062817
-0.016573951215871185
0.08280561547118262
0.12119420140844132
0.09500026632749009
0.16910115491351224
0.07908578575064684
-0.056966442256988235
-0.11938157785846011
-0.16551886926544676
-0.21251014576404864
-0.029622003343928952
0.05714045636087019
0.14944395466299082
0.1546080581076896
-0.03691548348543912
-0.1695294221818926
0.1669303001634841
0.13503472605898187
0.056161869378334194
0.024945198797652016
-0.07020754262237368
-0.3245990465420752
-0.1982219815587203
0.6947813289815092
-0.8143612500362013
-0.0601618883669702
0.43797621910030243
0.35308474580934956
-0.6691530514421509
0.9793965165945167
0.2730306089927752
-0.42998528446137807
-0.5606089477970407
-0.3136229220924466
-0.23604233885348228
-0.03744135775697469
0.17873357363471518
0.47306103188036636
0.633117567099729
0.35749798232200697
0.07090607400704026
-0.23030393325091597
-0.5145472991396389
-0.8542082640784968
-0.5899213428897574
-0.13550489365700605
0.37436095091766697
0.8074163800450862
0.9535700580620656
0.4689940475224017
-0.13628454316114363
-0.46467861534843996
-0.7658409420788153
-0.6650543483350442
-0.10996994823520735
0.2495775430848511
0.44843531002387327
0.37164597154080103
0.11562199637045655
-0.04080144021802655
-0.048655668872185996
-0.0853212962006856
-0.14088561493641125
-0.001499176796717337
-0.035886795493610534
0.010912614922894066
-0.18533553314331516
-0.14024109365978485
0.019186010125644786
0.13017102960399562
0.17141267653877937
0.24958654458876262
0.40242298866966864
0.22258585145663637
-0.09906693483613498
-0.5194877728220635
-0.4939455857009678
-0.7489801707353486
-0.4919697819928516
0.13903733808288554
0.7962437041082986
1.2386123261516964
1.6753613563419925
-0.6382195395461767
-0.7463854436911024
-0.8985323851478352
-1.0512928913689297
-1.2053599893675169
0.9994853544549626
0.8314845728873262
0.7788912101273425
0.26067130761703844
-0.03466617525192646
-0.16779375532219906
-0.1267451418989992
-0.17689890769069969
0.001497360740645422
-0.026059117210911045
-0.2005856751334402
-0.34243009602121083
-0.1492590693665697
-0.020119638128883968
0.09854686160971314
0.2545218300895791
0.4325348487002863
0.312142446977296
0.05138083958612049
-0.09995800513907384
-0.16164440058539029
-0.1696725628201847
-0.321936982103655
-0.13557868312904775
-0.024660249133409105
0.09875268734669311
0.0025912863173102444
0.09834751188146205
-0.001642281723338705
0.07471888169754105
0.026545536282230303
0.2607928533116271
0.09021482604189225
0.14983123843306925
0.03015345712906424
-0.2784479664494696
-0.3394443030633391
-0.032901753130722286
-0.13698348417865555
-0.5336508492926668
0.16182532842188427
0.3541042668170576
0.6159212037782642
0.2463751745103391
0.25256851474073805
-0.03978825147211927
-0.5515116301840531
-0.6042747679188792
-0.28117973864205376
0.19264911469961335
0.044529859515799255
0.3289736310210573
0.2946658600498508
0.15679201010643284
0.08426167062822075
0.005219195733385625
-0.17230081319164878
-0.5327075464538649
-0.1283844089497083
0.03304170137495904
0.18622266698696532
0.19321204255497715
0.12331858667102076
0.035355279634489215
-0.03270726859820181
-0.0655110869407068
-0.06547287143059724
-0.044806363335190766
-0.017749090259833927
0.004818541121471723
0.01762864829415307
0.020610324285111028
0.016903211491837798
0.010498472684489288
0.004419863313551742
-9.62891301769006e-05
-0.003405546182343171
-0.006552508537281166
-0.010141551134984005
-0.01348958749876699
-0.014470868814545568
-0.01025538861697937
0.0011569230657189707
0.019050895495314944
0.03850987069066337
0.050207520840014334
0.04216140628796277
0.0035250973398391083
-0.07045442639239773
-0.1741719213875832
-0.0904134533601955
0.00620351759065917
0.1413126636646032
0.1310120092776251
0.17436355791988223
0.051966975290597676
-0.06794175543905985
-0.21774734076792135
-0.21774430285087562
-0.06794158653142236
0.051942264450376335
0.17429188350870195
0.1308880737638882
0.14116210355194583
0.006086785583359357
-0.09041370762747558
-0.17398179805050315
-0.07005244631875956
0.004066071274302057
0.04265549255373187
0.05038263188357472
0.03809272254508653
0.01790174907923566
-0.0005836369848146877
-0.01207297069637789
-0.015513971433912751
-0.012793805178922585
-0.00703952056064202
-0.0011753404308902347
0.0029182009418765404
0.004607397140254317
0.004244075179452735
0.0026928880123382915
0.0008725437410379425
-0.0005510603834797858
-0.0012799576781823386
-0.0013420793138188916
-0.0009629482785496646
-0.00042283215688124345
5.073806064962042e-05
0.0003345431106669563
0.0004097872791592688
0.0003296091584096779
0.00017609394556404711
2.4047069729754562e-05
-7.965786065782509e-05
-0.00012043678169028825
-0.00010868393542135347
-6.735699858352157e-05
-2.020417439305106e-05
1.5931456706821792e-05
3.3828063981441e-05
3.460350800702325e-05
2.4303918602247854e-05
1.0208395414202125e-05
-1.8936227601834971e-06
-8.960557827541712e-06
-1.0637951390300485e-05
-8.38211931561763e-06
-4.341008529380441e-06
-4.304035162573122e-07
2.17819957344667e-06
3.1495468945962753e-06
2.7820482129987312e-06
1.6820051338332359e-06
4.614741801728178e-07
-4.547015012027424e-07
-8.926128141273225e-07
-8.913556895951588e-07
-6.126115811638411e-07
-2.4521026811093567e-07
6.372253137392692e-08
2.3932643235519023e-07
2.758096357770882e-07
2.1288899684492694e-07
1.0669204200908372e-07
6.228216088053528e-09
-5.9279295952565254e-08
-8.223971696232358e-08
-7.111766989485066e-08
-4.1898169465009435e-08
-1.0341062535826086e-08
1.2850255230526597e-08
2.3510135397074838e-08
2.2910663405795748e-08
1.5371114129612994e-08
5.795335744590572e-09
-2.0701217743467714e-09
-6.3804522729666045e-09
-7.0750375802666876e-09
-5.250918884279029e-09
-2.407186132760927e-09
1.613764225883691e-10
1.69311571261862e-09
2.0152883933382293e-09
1.4108466229085277e-09
4.0156986708216984e-10
-4.676675504499815e-10
-7.960765797357514e-10
-4.3043118389145094e-10
4.947701358969684e-10
1.5806667789333978e-09
2.2577729992948123e-09
1.9559406241996944e-09
3.375337526923805e-10
-2.456484797271018e-09
-5.641223416657494e-09
-7.822738675053245e-09
-7.333107391331365e-09
-2.881719256232765e-09
5.606117418425275e-09
1.626093801422979e-08
2.5070507553339842e-08
2.661559212634908e-08
1.5921499478129463e-08
-8.83695789956815e-09
-4.3612515260737105e-08
-7.707459386768828e-08
-9.196696963441971e-08
-7.017215378237379e-08
-1.1388566630074868e-09
1.0852791710606508e-07
2.2836498305235615e-07
3.052163049983009e-07
2.762576535930264e-07
9.434551113600957e-08
-2.396485900461867e-07
-6.493985176982395e-07
-9.769424909904465e-07
-1.0131457514588559e-06
-5.710635823100475e-07
4.090492172157524e-07
1.7564643690587498e-06
3.0203442905100824e-06
3.529339084372161e-06
2.59444796987207e-06
-1.6167356230225656e-07
-4.437856476146736e-06
-9.0090095581085e-06
-1.1793593856514259e-05
-1.0382334527260666e-05
-3.0353275309110035e-06
1.007198065170677e-05
2.5823528668705415e-05
3.7991470765744905e-05
3.8499200802745754e-05
2.0328578345612045e-05
-1.8407033491161655e-05
-7.055451761036591e-05
-0.00011819925542524798
-0.00013524752598173374
-9.55386978839309e-05
1.4300888830089694e-05
0.00018084463768085635
0.00035492587890772787
0.00045512178982228863
0.0003891550092235568
9.306582027723714e-05
-0.0004208345240246042
-0.001025762077735485
-0.0014764897636251573
-0.0014614182541413992
-0.0007175231859479243
0.0008120333912965046
0.0028306409661266467
0.004630074322458278
0.005202040363946195
0.003563254762717525
-0.0007420195016088171
-0.007106885265391243
-0.013540560530138385
-0.016848109597682574
-0.013524723003130535
-0.0013628817833621454
0.0185581341719645
0.04017204441140627
0.051873952824880804
0.03783039521926806
-0.018717465223873086
-0.1309417453110545
-0.10433813600652857
0.06514356205270962
-0.010161912951567815
0.08664127544803209
0.1728071274821764
0.0634664046520735
-0.22804019911096043
-0.08789597775322378
-0.10016126028357651
-0.048353356120894496
0.07899246933516502
0.2807258978949682
0.13734990092211236
0.011033965661660988
-0.14705813868583253
-0.18409324073100267
-0.13224086238011884
0.0003072577044089658
0.03114193891985062
0.19871469916032347
0.15372536738588938
-0.04949679893628696
-0.1593942938146583
-0.1316545128848374
-0.13380966705444586
0.04831433046893313
0.2028801986974784
0.2864070269355451
0.22488720447879948
-0.07517216851792279
-0.3067541542413586
-0.33923047488899455
-0.20073403420887134
-0.07317797893727264
0.29809831331473574
0.38446910237025517
0.2526386870615634
-0.04970403040558556
-0.2971078989058146
-0.2805491996388643
-0.19880704297270763
0.14702938375917196
0.75401044729238
-0.3846281465615172
-0.07970560830177816
0.05704184237431001
-0.1825120988918031
-0.6005246751364637
0.8048100483160044
0.23385132298626052
-0.1194243211984252
-0.06787226442598857
-0.2264777055325055
-0.2058894912199444
-0.00887965376814666
0.16774356073030527
0.12704664483614958
0.2659938292117731
0.1743549098794908
-0.15913906937440978
-0.33529436972040944
-0.33354005305070517
-0.10888887265066717
-0.0013623578320293925
0.24333739446514602
0.4491714125525373
0.3916231773117156
-0.004787538116136692
-0.25000315482137125
-0.257477498504528
-0.30947858739822515
-0.23086360112279805
0.019918417679237018
0.14030906445611127
0.2579944672385697
0.09892655527844911
0.15861242557550057
-0.11622561559106238
0.0673295601508966
0.4556811774227825
-0.8355678696899126
-0.30326448021927005
0.15805592486680062
0.2635963831941088
-0.060091018919519554
1.1269226269162664
-0.21291621477241804
-0.4764880763076842
-0.5989353700350032
-0.6423967476094001
-0.20724857388737863
0.5297117877400768
0.5584511748038635
0.5790185689718045
0.56634114098818
-0.028890030120730985
-0.4416547551031273
-0.5285806136330127
-0.49975479865226957
-0.4685213536358119
-0.03410217929283578
0.5003323333233891
0.48385519420102546
0.2657642341234684
0.15330761417817837
-0.009255158140527466
-0.23805034964001773
-0.18933832142263393
-0.13176710324991084
-0.1212781009293901
0.014360335759673255
0.0788794527863953
0.10016872926847188
-0.08385724258204239
-0.04172124949418976
0.03670931167951118
0.1300981050479857
0.1832953574062219
0.3153584607106044
0.03881548355667155
-0.3124930333058148
-0.3542076299656229
-0.4313711467333634
-0.21741105508796643
0.0632084819896989
0.39248451839070064
0.3084314754728239
0.4628640908573913
0.40211666731103785
-0.021368193592695955
-0.4085574350909727
-0.3562723423171453
-0.40059448319694807
-0.5792923254247779
-0.025073052794620646
0.4088691611853102
0.5005400313853553
0.4052753168622499
0.21455373387087148
-0.06028902436482242
-0.07720714380117237
-0.332710709858761
-0.5242547329141984
-0.1194510127322302
0.2583015475098397
0.025351625837646788
0.019158685133333034
0.27413726625839635
0.20084315404396558
-0.024960635025425115
-0.06045100399307123
0.01770234249315812
-0.06621722700512371
-0.16583463649928978
-0.2971229170487291
-0.033236035225413275
0.0883226636902475
0.1482344775325808
0.22334643649748906
0.1674676725868349
0.0010443440748078975
-0.0878219161570555
-0.13282255895375705
-0.1743255879508662
-0.04551924419030022
0.03586345189054655
0.06881363471088987
0.06472233587993227
0.04047585430515964
0.011992091493463376
-0.009882333057061701
-0.020604644365550547
-0.020886143841856074
-0.014468950912025902
-0.005818152749257594
0.0015408966686681128
0.005771416721690001
0.006671133379126189
0.005133798086519926
0.0024767404827412336
-0.00010550540038911935
-0.001841396767292282
-0.0024429578144869904
-0.002009859563320758
-0.0008782298539194969
0.0005115759295292457
0.0017016505597560125
0.0022740946869677066
0.0019158815473524526
0.0005170401373929581
-0.0017076156296345656
-0.00412817040395794
-0.00572730342772452
-0.00532749392261172
-0.0020429284184372096
0.004122380383268842
0.01173107546177177
0.017712525362738606
0.017785237443326503
0.00762163030034787
-0.015433133235649404
-0.05065243480454133
-0.09305375651027759
0.06592140377633914
0.03605946988655964
0.025125311933101024
0.03607006480954116
0.0659373421610009
-0.09304149964052436
-0.05065376920706039
-0.015454875639559483
0.0075799931712555784
0.01773458650182096
0.01767407188500677
0.01173159884842555
0.004184298087602958
-0.001914900691043992
-0.005158646548649985
-0.005577648678426081
-0.004082893911260538
-0.001849688744480385
0.00014897913320267958
0.0013722163330468628
0.0017209963198687086
0.0014063473446936801
0.0007693062421606489
0.00012655976757297915
-0.00031953423950587207
-0.0005021583438245251
-0.00046114620339944497
-0.00029141975052952206
-9.31707870948853e-05
6.131176255178023e-05
0.00013993415301514803
0.00014604316666763854
0.00010436686412568297
4.5451589962452774e-05
-5.9996955018814615e-06
-3.668418221319771e-05
-4.4660411246940055e-05
-3.578101964012991e-05
-1.90052350364422e-05
-2.464213804758423e-06
8.770348841055027e-06
1.314408345428287e-05
1.1812861574819197e-05
7.286999203737688e-06
2.1510413969409503e-06
-1.7694261761129555e-06
-3.698305019402862e-06
-3.7655552169668934e-06
-2.633910495035886e-06
-1.0965539894478681e-06
2.181253593935226e-07
9.819578889783777e-07
1.1590659354971578e-06
9.097038776429647e-07
4.682550560201244e-07
4.292040291057181e-08
-2.395881072595034e-07
-3.4363172211571133e-07
-3.0231029348072864e-07
-1.8189584860487132e-07
-4.898440638562523e-08
5.038935440233906e-08
9.755547310887792e-08
9.698041084556773e-08
6.637708171613726e-08
2.631649563892803e-08
-7.236545541818199e-09
-2.62099715836667e-08
-3.0042657394254986e-08
-2.310060502331105e-08
-1.1505585321002113e-08
-5.810774682977881e-10
6.514585862416365e-09
8.977485157647071e-09
7.743197608142121e-09
4.554945631982197e-09
1.1222031029916702e-09
-1.4004648773666939e-09
-2.56877640454867e-09
-2.523847278825313e-09
-1.7291863883083567e-09
-7.034466405385381e-10
1.6422660981469423e-10
6.867361277049237e-10
8.563577463826658e-10
7.690132512037133e-10
5.414688202026553e-10
2.556933774150026e-10
-5.465639497344409e-11
-3.8022705597219763e-10
-6.938082505912456e-10
-9.163954116013706e-10
-9.157298541579654e-10
-5.503206517436048e-10
2.4676487529199717e-10
1.3721585803148231e-09
2.490840304939908e-09
3.0613506450254282e-09
2.4841386238218335e-09
3.6850832631464744e-10
-3.147592534598238e-09
-7.154049226360286e-09
-9.966558423992212e-09
-9.507164495701941e-09
-4.101108757165429e-09
6.461997661455209e-09
1.9972967851410164e-08
3.148644844489085e-08
3.416969242335702e-08
2.1574637088220205e-08
-8.960577184111823e-09
-5.280166239381954e-08
-9.6066796918576e-08
-1.1710015854291088e-07
-9.263208527637071e-08
-8.310210343568288e-09
1.290513959503327e-07
2.8254455140066075e-07
3.858883826858571e-07
3.590449421277438e-07
1.3967838879560986e-07
-2.7584985975285934e-07
-7.96618219025545e-07
-1.2270670989759392e-06
-1.3026391349773565e-06
-7.801095041964673e-07
4.3016630699426605e-07
2.130931244951546e-06
3.7687120346920363e-06
4.499822089862766e-06
3.437697043061404e-06
6.492245566653331e-08
-5.297508702900402e-06
-1.1161749605962188e-05
-1.4929059672839943e-05
-1.3525714460721793e-05
-4.642097929834449e-06
1.1685564878483594e-05
3.173146288530107e-05
4.77747996218491e-05
4.95859336638693e-05
2.8011525459761775e-05
-1.988981098086022e-05
-8.579234234723218e-05
-0.00014766654848761822
-0.00017268167775421183
-0.0001271162012301224
7.540189866891967e-06
0.00021663449398747443
0.00044032129255774103
0.0005768224875693468
0.0005082435320886149
0.000149316521181633
-0.0004916417457038341
-0.0012625024522460485
-0.00185879706444899
-0.0018852700504273592
-0.0009978064565143567
0.0008976421683679305
0.003454219413223708
0.005800350940784589
0.006666615491634703
0.004783231647320372
-0.0004908460136107352
-0.008484064743104548
-0.016782644909538073
-0.021423609876761677
-0.017996366775440486
-0.0036759149883316563
0.020203099309032076
0.04586691553107764
0.05822808893446726
0.03641306423753751
-0.04192758916076085
0.005857394349487093
-0.02555335876019152
-0.12408210543090682
-0.05870074805047196
0.016850397190269706
-0.0450355739727529
0.0012487337015698863
0.1808210582822456
0.08769322249453117
0.08098533286189576
0.09037613977037746
0.030776020787810124
-0.176659461877772
-0.18253386557987053
-0.1928188830129688
-0.1638667187865458
-0.011603333872242121
0.16683136960215703
0.2652310955704018
0.34326025963324586
0.21284665912369222
-0.15912083704080213
-0.23312108743036694
-0.2717276669289485
-0.31720418300178627
-0.18110873047587922
0.15012634199570302
0.29660764846562465
0.46233195243036845
0.4198107630962268
-0.28939220977605123
-0.13658785425422632
-0.17687245397467574
-0.4208511030085365
-0.619267302969353
0.33188054289235575
0.36588160468619135
0.4079998279847826
0.1398869516587767
0.17825546509174117
-0.12603687895166185
-0.2703535185969279
-0.3720260369076249
0.06042103827100036
0.14848494946724192
0.053897892449855545
-0.02123046102764549
-0.041498288596428415
-0.15005635713336588
-0.08360068684432191
0.2112451809252487
0.16318710093553393
0.16744441562357534
0.18685203046554477
-0.03571715849480464
-0.35638562644896893
-0.20755649926652453
-0.18208672667586487
-0.2313333632724732
0.12074486491666175
0.3513580607753592
0.309535911066314
0.1946318615759653
0.15136395751686096
-0.11577465251096841
-0.31293244622096666
-0.32179886639865746
-0.17051782100948318
-0.019753210803904794
0.23254633503271102
0.1303472832742318
0.029460825891207396
-0.13431347346552922
-0.07314544044603365
0.03230897845465465
0.3225600497210969
0.2621579954637256
0.2585106402926393
-0.10338278353992109
-0.4155233754354927
-0.4015940525798349
-0.2851126061935905
-0.1819805113860454
0.07873752181990158
0.3109206913318444
0.3169360317671531
0.4385590697169018
0.3274929900600111
-0.05662577565146228
-0.42190547592012456
-0.30351020280795066
-0.42165840998895
-0.25258662480258537
0.17949894921786164
0.49042409582436747
0.3128103508728928
0.07374688437648717
-0.01703742567983267
-0.16548275205223614
-0.18168841724391335
-0.2660473332094634
-0.00040277463931777505
0.051507055743062066
0.13451371957161015
0.08742942473257721
0.12916472726951567
0.05062058970331201
0.01507302894058874
-0.033158619289390776
-0.15457162182799133
-0.19927382375087774
0.004812122148278876
0.057482757506863415
0.1854199100311662
0.0373625945432232
0.07847988163697706
-0.014038670924493903
-0.1544699255205781
-0.25352318276718777
-0.22791689109967572
-0.01625793802920983
0.400715133878245
0.7818557118409681
-0.582068125018409
0.1409985012969027
0.35136315927462985
0.05662090629129525
-1.2865932132813218
0.260827190621587
0.1354980423974085
-0.1369025473999614
-0.3712591049858125
0.6344292708391224
0.4547594673173356
0.20259808740525403
-0.08615680169109234
-0.2459781487530912
-0.15833182871933096
-0.12169185753241675
-0.2255382955366318
-0.13565863037594764
0.10680899276905255
0.27512852812857297
0.14194742242806768
0.06744965819440353
0.19706429177289658
0.07126220230637965
-0.15458948735909347
-0.2863956815582746
-0.27220750194149346
-0.19651953556878382
-0.09348279599719482
0.021255143446998928
0.30680620384813556
0.4530760693280073
0.2499929984891893
0.18082148720271204
0.043983021557286214
-0.20061144893419788
-0.37228037042363143
-0.4132866530077924
-0.3513472772837286
-0.09184304047709368
0.1578038633274528
0.23850916205026793
0.3788124876021199
0.3399489565970082
0.18119385723494053
0.053511723508867196
-0.17885224714768536
-0.2969988298972738
-0.2793149164363285
-0.26054977021539993
-0.1083721129598367
0.17860049394176103
0.25433027000485525
0.19874426416558752
0.09098218477712484
-0.009614837485001625
-0.07136048457748792
-0.08800670363908857
-0.07034770290602034
-0.03617642079714606
-0.002090420023951338
0.021150548674030285
0.02971771033986967
0.025350032382642898
0.012961021553225217
-0.001628309305152045
-0.013245924607393563
-0.018193563694688615
-0.014654597153864315
-0.0030256583839000854
0.013718617637040851
0.029853531351768485
0.0373898111029259
0.027646579282787215
-0.006050290704101779
-0.06517635399247733
-0.14361960627095416
-0.027593285517728404
0.101317232196506
0.06059981803793962
0.06084260199438942
0.10191155168400998
-0.027007559410827477
-0.14350701955165068
-0.06592110500478515
-0.007746271107494062
0.02536580046693806
0.03539493925091227
0.029355139571319376
0.015857830279315595
0.0022246693972609124
-0.0070958880290227
-0.010737504336598635
-0.009648003835855809
-0.005915254998088387
-0.001685755032632114
0.001529985287808488
0.0030953609032366982
0.003124619655222403
0.0021706961240755443
0.0008910412160167953
-0.00019621082866619325
-0.0008229146971779668
-0.0009628710862894179
-0.0007512201116407569
-0.00038308706494128987
-3.072463483079408e-05
0.00020179303975992378
0.00028598225007694575
0.0002500703557920164
0.00014936665224135466
3.907002795987021e-05
-4.2902418672339395e-05
-8.139164631900313e-05
-8.03653052198547e-05
-5.4655928011851336e-05
-2.1345467183405856e-05
6.387440413634565e-06
2.1943380729731592e-05
2.4943737409349984e-05
1.906409692753888e-05
9.399155692453151e-06
3.528798736591736e-07
-5.481085028250582e-06
-7.4633184301744154e-06
-6.390301441894718e-06
-3.718702994924507e-06
-8.686922177843116e-07
1.2055013210642042e-06
2.1420190533679896e-06
2.066655195592643e-06
1.3745349697325332e-06
5.079897076509188e-07
-1.987102490623376e-07
-5.839029091562205e-07
-6.455525891830784e-07
-4.832601404784955e-07
-2.2987772102477832e-07
2.1297919170037304e-09
1.4826674559608375e-07
1.9450085676609062e-07
1.6310559549886203e-07
9.238105752924234e-08
1.8825065149146176e-08
-3.3585874323254064e-08
-5.627445836761486e-08
-5.308167918311773e-08
-3.450834699655536e-08
-1.1994778303575301e-08
5.9916291710078804e-09
1.550490809802055e-08
1.6690428250032238e-08
1.223697711667802e-08
5.604229111213144e-09
-3.391855181496358e-10
-3.993124760510583e-09
-5.0590331829418415e-09
-4.1550168286662355e-09
-2.2864478760872642e-09
-3.9023626696616323e-10
9.321790517199944e-10
1.4791685626835956e-09
1.3649508817942967e-09
8.679777301825541e-10
2.8378917699398934e-10
-1.73419136996553e-10
-4.07712979667041e-10
-4.2790142651729603e-10
-3.063218139174055e-10
-1.3295165723012905e-10
1.9127173925448444e-11
1.1031212087753204e-10
1.3453336594631225e-10
1.0883128060506336e-10
5.955532951074205e-11
1.0728770347307958e-11
-2.2588081618676666e-11
-3.570230074735547e-11
-3.194418423344177e-11
-1.8682162474515633e-11
-3.542085919866613e-12
8.065248905842385e-12
1.3817819609760158e-11
1.4072056488069168e-11
1.0768006752052998e-11
6.242777544165712e-12
2.3559419475308243e-12
8.505667107655366e-14
-4.552345268836967e-13
2.679647817817161e-13
1.5651116621610968e-12
2.8209341406193213e-12
3.659011767853579e-12
3.9714321626387315e-12
3.853828231971986e-12
3.500803116968026e-12
3.1089000702713637e-12
2.8146027574364802e-12
2.6738337449537248e-12
2.6741033921945905e-12
2.763529587890625e-12
2.8814832345829122e-12
2.9807063675958535e-12
3.0371376886161352e-12
3.0488962530618045e-12
3.02872201282195e-12
2.9946334880591322e-12
2.9623705222798484e-12
2.94132306947359e-12
2.933935236399349e-12
2.937494088348873e-12
2.9468695922687307e-12
2.9570019976305718e-12
2.964453782926592e-12
2.967885780270013e-12
2.9677041180224297e-12
2.9652926000634628e-12
2.9622221383540493e-12
2.9596921852056465e-12
2.9582931363481923e-12
2.958045913423185e-12
2.9586045858263892e-12
2.9594989712423526e-12
2.9603268832486063e-12
2.9608545709887323e-12
2.961027748768491e-12
2.9609226131199866e-12
2.9606741617305e-12
2.9604125023565452e-12
2.9602240778074627e-12
2.960140747326307e-12
2.9601498984962886e-12
2.9602147128276813e-12
2.9602945366482805e-12
2.9603589664632016e-12
2.960393565043187e-12
2.960398499528858e-12
2.9603831256935196e-12
2.960359695947431e-12
2.9603384749031555e-12
2.960325268650014e-12
2.960321251710807e-12
2.9603243017905295e-12
2.9603308723550644e-12
2.960337621598245e-12
2.960342379313138e-12
2.9603443933346566e-12
2.9603440432919528e-12
2.960342306566299e-12
2.9603402339876554e-12
2.960338595184382e-12
2.9603377418680373e-12
2.9603376516454215e-12
2.9603380723955108e-12
2.9603386852573033e-12
2.960339228569773e-12
2.9603395584570805e-12
2.9603396504347792e-12
2.96033956319686e-12
2.960339389765263e-12
2.960339215875953e-12
2.960339095920127e-12
2.9603390474953776e-12
2.96033905943118e-12
2.9603391058375596e-12
2.9603391595841243e-12
2.9603392012155668e-12
2.9603392221995617e-12
2.960339223575774e-12
2.9603392121162438e-12
2.960339196108413e-12
2.9603391822143444e-12
2.9603391739902574e-12
2.960339171918267e-12
2.960339174385046e-12
2.9603391789544757e-12
2.9603391834294707e-12
2.960339186449296e-12
2.9603391876067207e-12
2.960339187224818e-12
2.96033918598801e-12
2.9603391845959387e-12
2.960339183539709e-12
2.960339183025339e-12
2.9603391830142175e-12
2.9603391833249895e-12
2.960339183742529e-12
2.9603391840974255e-12
2.960339184302019e-12
2.960339184347713e-12
2.9603391842786164e-12
2.9603391841584333e-12
2.9603391840434023e-12
2.9603391839675004e-12
2.9603391839400253e-12
2.9603391839517593e-12
2.9603391839846434e-12
2.9603391840206556e-12
2.960339184047418e-12
2.9603391840599822e-12
2.960339184059645e-12
2.9603391840512496e-12
2.960339184040373e-12
2.960339184031319e-12
2.9603391840262407e-12
2.9603391840252617e-12
2.9603391840271818e-12
2.9603391840303374e-12
2.960339184033291e-12
2.960339184035196e-12
2.9603391840358425e-12
2.9603391840354924e-12
2.96033918403462e-12
2.9603391840336894e-12
2.960339184033012e-12
2.9603391840327063e-12
2.960339184032731e-12
2.960339184032957e-12
2.96033918403324e-12
2.960339184033471e-12
2.9603391840335965e-12
2.9603391840336167e-12
2.9603391840335638e-12
2.960339184033481e-12
2.960339184033405e-12
2.9603391840333574e-12
2.9603391840333424e-12
2.9603391840333525e-12
2.9603391840333755e-12
2.9603391840333998e-12
2.9603391840334167e-12
2.960339184033424e-12
2.960339184033423e-12
2.960339184033417e-12
2.96033918403341e-12
2.960339184033404e-12
2.9603391840334006e-12
2.9603391840334006e-12
2.9603391840334018e-12
2.960339184033404e-12
2.960339184033406e-12
2.960339184033407e-12
2.9603391840334074e-12
2.960339184033407e-12
2.9603391840334066e-12
2.960339184033406e-12
2.9603391840334054e-12
2.9603391840334054e-12
2.9603391840334054e-12
2.9603391840334054e-12
2.960339184033406e-12
2.960339184033406e-12
2.960339184033406e-12
2.960339184033406e-12
2.960339184033406e-12
2.960339184033406e-12
2.960339184033406e-12
2.960339184033406e-12
2.960339184033406e-12
2.960339184033406e-12
2.960339184033406e-12
2.960339184033406e-12
2.960339184033406e-12
2.960339184033406e-12
2.960339184033406e-12
2.960339184033406e-12
2.960339184033406e-12
2.960339184033406e-12
2.960339184033406e-12
2.960339184033406e-12
2.960339184033406e-12
2.960339184033406e-12
2.960339184033406e-12
2.960339184033406e-12
2.960339184033406e-12
2.960339184033406e-12
2.960339184033406e-12
2.960339184033406e-12
2.960339184033406e-12
2.960339184033406e-12
2.960339184033406e-12
2.960339184033406e-12
2.960339184033406e-12
2.960339184033406e-12
2.960339184033406e-12
2.960339184033406e-12
2.960339184033406e-12
2.960339184033406e-12
2.960339184033406e-12
2.960339184033406e-12
2.960339184033406e-12
2.960339184033406e-12
2.960339184033406e-12
2.960339184033406e-12
2.960339184033406e-12
2.960339184033406e-12
2.960339184033406e-12
2.960339184033406e-12
2.960339184033406e-12
2.960339184033406e-12
2.960339184033406e-12
2.960339184033406e-12
2.960339184033406e-12
2.960339184033406e-12
2.960339184033406e-12
2.960339184033406e-12
2.960339184033406e-12
2.960339184033406e-12
2.960339184033406e-12
2.960339184033406e-12
2.960339184033406e-12
2.960339184033406e-12
2.960339184033406e-12
2.960339184033406e-12
2.960339184033406e-12
2.960339184033406e-12
2.960339184033406e-12
2.960339184033406e-12
2.960339184033406e-12
2.960339184033406e-12
2.960339184033406e-12
2.960339184033406e-12
2.960339184033406e-12
2.960339184033406e-12
2.960339184033406e-12
2.960339184033406e-12
2.960339184033406e-12
2.960339184033406e-12
2.960339184033406e-12
2.960339184033406e-12
2.960339184033406e-12
2.960339184033406e-12
2.960339184033406e-12
2.960339184033406e-12
2.960339184033406e-12
2.960339184033406e-12
2.960339184033406e-12
2.960339184033406e-12
2.960339184033406e-12
2.960339184033406e-12
2.960339184033406e-12
2.960339184033406e-12
2.960339184033406e-12
2.960339184033406e-12
2.960339184033406e-12
2.960339184033406e-12
2.960339184033406e-12
2.960339184033406e-12
2.960339184033406e-12
2.960339184033406e-12
2.960339184033406e-12
2.960339184033406e-12
2.960339184033406e-12
2.960339184033406e-12
2.960339184033406e-12
2.960339184033406e-12
2.960339184033406e-12
2.960339184033406e-12
2.960339184033406e-12
2.960339184033406e-12
2.960339184033406e-12
2.960339184033406e-12
2.960339184033406e-12
2.960339184033406e-12
2.960339184033406e-12
2.960339184033406e-12
2.960339184033406e-12
2.960339184033406e-12
2.960339184033406e-12
2.960339184033406e-12
2.960339184033406e-12
2.960339184033406e-12
2.960339184033406e-12
2.960339184033406e-12
2.960339184033406e-12
2.960339184033406e-12
2.960339184033406e-12
2.960339184033406e-12
2.960339184033406e-12
2.960339184033406e-12
2.960339184033406e-12
2.960339184033406e-12
2.960339184033406e-12
2.960339184033406e-12
2.960339184033406e-12
2.960339184033406e-12
2.960339184033406e-12
2.960339184033406e-12
2.960339184033406e-12
2.960339184033406e-12
2.960339184033406e-12
2.960339184033406e-12
2.960339184033406e-12
2.960339184033406e-12
2.960339184033406e-12
2.960339184033406e-12
2.960339184033406e-12
2.960339184033406e-12
2.960339184033406e-12
2.960339184033406e-12
2.960339184033406e-12
2.960339184033406e-12
2.960339184033406e-12
2.960339184033406e-12
2.960339184033406e-12
2.960339184033406e-12
2.960339184033406e-12
2.960339184033406e-12
2.960339184033406e-12
2.960339184033406e-12
2.960339184033406e-12
2.960339184033406e-12
2.960339184033406e-12
2.960339184033406e-12
2.960339184033406e-12
2.960339184033406e-12
2.960339184033406e-12
2.960339184033406e-12
2.960339184033406e-12
2.960339184033406e-12
2.960339184033406e-12
2.960339184033406e-12
2.960339184033406e-12
2.960339184033406e-12
2.960339184033406e-12
2.960339184033406e-12
2.960339184033406e-12
2.960339184033406e-12
2.960339184033406e-12
2.960339184033406e-12
2.960339184033406e-12
2.960339184033406e-12
2.960339184033406e-12
2.960339184033406e-12
2.960339184033406e-12
2.960339184033406e-12
2.960339184033406e-12
2.960339184033406e-12
2.960339184033406e-12
2.960339184033406e-12
2.960339184033406e-12
2.960339184033406e-12
2.960339184033406e-12
2.960339184033406e-12
2.960339184033406e-12
2.960339184033406e-12
2.960339184033406e-12
2.960339184033406e-12
2.960339184033406e-12
2.960339184033406e-12
2.960339184033406e-12
2.960339184033406e-12
2.960339184033406e-12
2.960339184033406e-12
2.960339184033406e-12
