0
2.277104534657616e-06
2.277104534657616e-06
2.277104534657616e-06
2.277104534657616e-06
2.277104534657616e-06
2.277104534657616e-06
2.277104534657616e-06
2.277104534657616e-06
2.277104534657616e-06
2.277104534657616e-06
2.277104534657616e-06
2.277104534657616e-06
2.277104534657616e-06
2.277104534657616e-06
2.277104534657616e-06
2.277104534657616e-06
2.277104534657616e-06
2.277104534657616e-06
2.277104534657616e-06
2.277104534657616e-06
2.277104534657616e-06
2.277104534657616e-06
2.277104534657616e-06
2.277104534657616e-06
2.277104534657616e-06
2.277104534657616e-06
2.277104534657616e-06
2.277104534657616e-06
2.277104534657616e-06
2.277104534657616e-06
2.277104534657616e-06
2.277104534657616e-06
2.277104534657616e-06
2.277104534657616e-06
2.277104534657616e-06
2.277104534657616e-06
2.277104534657616e-06
2.277104534657616e-06
2.277104534657616e-06
2.277104534657616e-06
2.277104534657616e-06
2.277104534657616e-06
2.277104534657616e-06
2.277104534657616e-06
2.277104534657616e-06
2.277104534657616e-06
2.277104534657616e-06
2.277104534657616e-06
2.277104534657616e-06
2.277104534657616e-06
2.277104534657616e-06
2.277104534657616e-06
2.277104534657616e-06
2.277104534657616e-06
2.277104534657616e-06
2.277104534657616e-06
2.277104534657616e-06
2.277104534657616e-06
2.277104534657616e-06
2.277104534657616e-06
2.277104534657616e-06
2.277104534657616e-06
2.277104534657616e-06
2.277104534657616e-06
2.277104534657616e-06
2.277104534657616e-06
2.277104534657616e-06
2.277104534657616e-06
2.277104534657616e-06
2.277104534657616e-06
2.277104534657616e-06
2.277104534657616e-06
2.277104534657616e-06
2.277104534657616e-06
2.277104534657616e-06
2.277104534657616e-06
2.277104534657616e-06
2.277104534657616e-06
2.277104534657616e-06
2.277104534657616e-06
2.277104534657616e-06
2.277104534657616e-06
2.277104534657616e-06
2.277104534657616e-06
2.277104534657616e-06
2.277104534657616e-06
2.277104534657616e-06
2.277104534657616e-06
2.277104534657616e-06
2.277104534657616e-06
2.277104534657616e-06
2.277104534657616e-06
2.277104534657616e-06
2.277104534657616e-06
2.277104534657616e-06
2.277104534657616e-06
2.277104534657616e-06
2.277104534657616e-06
2.277104534657616e-06
2.277104534657616e-06
2.277104534657616e-06
2.277104534657616e-06
2.277104534657616e-06
2.277104534657616e-06
2.277104534657616e-06
2.277104534657616e-06
2.277104534657616e-06
2.277104534657616e-06
2.277104534657616e-06
2.277104534657616e-06
2.277104534657616e-06
2.277104534657616e-06
2.277104534657616e-06
2.277104534657616e-06
2.277104534657616e-06
2.277104534657616e-06
2.277104534657616e-06
2.277104534657616e-06
2.277104534657616e-06
2.277104534657616e-06
2.277104534657616e-06
2.277104534657616e-06
2.277104534657616e-06
2.277104534657616e-06
2.277104534657616e-06
2.277104534657616e-06
2.277104534657616e-06
2.277104534657616e-06
2.2771045346576164e-06
2.2771045346576164e-06
2.277104534657616e-06
2.277104534657616e-06
2.2771045346576155e-06
2.277104534657615e-06
2.2771045346576147e-06
2.277104534657615e-06
2.277104534657616e-06
2.2771045346576172e-06
2.2771045346576185e-06
2.2771045346576193e-06
2.2771045346576193e-06
2.2771045346576172e-06
2.2771045346576134e-06
2.2771045346576088e-06
2.277104534657605e-06
2.277104534657604e-06
2.277104534657609e-06
2.27710453465762e-06
2.2771045346576354e-06
2.2771045346576503e-06
2.277104534657657e-06
2.277104534657647e-06
2.277104534657616e-06
2.277104534657567e-06
2.2771045346575135e-06
2.27710453465748e-06
2.2771045346574936e-06
2.2771045346575757e-06
2.2771045346577252e-06
2.2771045346579073e-06
2.277104534658052e-06
2.2771045346580657e-06
2.2771045346578654e-06
2.2771045346574262e-06
2.2771045346568257e-06
2.2771045346562658e-06
2.2771045346560464e-06
2.2771045346564733e-06
2.2771045346577112e-06
2.2771045346596205e-06
2.2771045346616504e-06
2.27710453466287e-06
2.2771045346622086e-06
2.2771045346588996e-06
2.2771045346530377e-06
2.27710453464603e-06
2.277104534640664e-06
2.2771045346405377e-06
2.2771045346487547e-06
2.2771045346661083e-06
2.277104534689349e-06
2.277104534710441e-06
2.2771045347177417e-06
2.277104534699649e-06
2.2771045346503404e-06
2.2771045345759963e-06
2.277104534498725e-06
2.2771045344549066e-06
2.277104534485554e-06
2.2771045346187854e-06
2.277104534848485e-06
2.2771045351174456e-06
2.2771045353159067e-06
2.2771045353051426e-06
2.277104534969018e-06
2.2771045342843315e-06
2.2771045333861932e-06
2.2771045325933285e-06
2.277104532357579e-06
2.2771045331184944e-06
2.2771045350795756e-06
2.27710453797098e-06
2.277104540907758e-06
2.277104542468948e-06
2.2771045410867316e-06
2.2771045357338475e-06
2.2771045267435965e-06
2.2771045164353e-06
2.277104509124043e-06
2.2771045101525217e-06
2.2771045238545247e-06
2.2771045508335575e-06
2.2771045855002545e-06
2.277104615232386e-06
2.277104622513233e-06
2.277104590723239e-06
2.277104512851173e-06
2.2771044005263637e-06
2.2771042891071115e-06
2.277104234028495e-06
2.2771042951361256e-06
2.2771045097531325e-06
2.2771048612138914e-06
2.2771052557404053e-06
2.2771055238994215e-06
2.277105460189612e-06
2.2771049033813942e-06
2.277103841670542e-06
2.2771025052266307e-06
2.277101393210318e-06
2.2771011839085126e-06
2.2771025044324895e-06
2.2771055919619468e-06
2.277109950530099e-06
2.2771141699043256e-06
2.277116089906617e-06
2.277113429697648e-06
2.277104841780946e-06
2.2770911178151587e-06
2.2770760401019892e-06
2.2770662534599915e-06
2.277069652028778e-06
2.277092214035904e-06
2.2771339435611824e-06
2.277185400945559e-06
2.277226873390674e-06
2.2772321269414626e-06
2.277177549982207e-06
2.277055311563839e-06
2.2768863802283003e-06
2.276726906441067e-06
2.2766609712836994e-06
2.2767753615393887e-06
2.2771183700365818e-06
2.2776536529668303e-06
2.2782290150574025e-06
2.2785841704316264e-06
2.2784162771588777e-06
2.277504482497907e-06
2.2758663522730313e-06
2.27388759963675e-06
2.2723456826251363e-06
2.2722540393527135e-06
2.2744996171459537e-06
2.2793323493473693e-06
2.2858722408882204e-06
2.2918872006374645e-06
2.294108258668923e-06
2.289238738418989e-06
2.2755628379865275e-06
2.2547087976491565e-06
2.2327874587144592e-06
2.219982568649323e-06
2.227896083237373e-06
2.264653680577608e-06
2.3288825375438328e-06
2.4048746578576182e-06
2.462007483922992e-06
2.4611783850598286e-06
2.369153058763033e-06
2.1783501682806752e-06
1.925467341794386e-06
1.6990967871844824e-06
1.6261866383789047e-06
1.8317415387197026e-06
2.376089981730687e-06
3.1876132728347565e-06
4.021454306012183e-06
4.479634722549638e-06
4.118309672956014e-06
2.6398804210110965e-06
1.245422745234372e-07
-2.7899537630170085e-06
-4.89897383318068e-06
-4.695630594686093e-06
-9.379677120243695e-07
6.585207222085852e-06
1.6351956321406504e-05
2.485128879500686e-05
2.7158935401288382e-05
1.8543810477392178e-05
-3.0882898959636868e-06
-3.4632096568536035e-05
-6.629526910051467e-05
-8.254287318939454e-05
-6.64201450819827e-05
-7.084096212180638e-06
9.130519436600235e-05
0.00020292610456337733
0.00028044710410353956
0.00026586641759404866
0.00011290126599101288
-0.00018340334450293283
-0.0005602469289160612
-0.0008786952563831492
-0.0009479516250863606
-0.0005892555967996734
0.0002691033164170334
0.001494463978555414
0.002696859128597176
0.0032724331859494697
0.0025778999471105343
0.00022630005023508437
-0.003571202638868632
-0.007759491277075147
-0.010467787731148918
-0.00946088626122154
-0.0030449811222034782
0.008736563361258626
0.023003972163990496
0.03357425518643668
0.03162159176914537
0.007640030626078047
-0.04570128200540068
-0.13088310568605233
-0.044469472257788356
0.021310104833290006
0.07452195837796263
0.11876588382160776
0.15032234645017323
-0.04060944524741923
-0.0642078315548483
-0.12287476895723054
-0.2044019011487541
-0.08032202644888685
0.0885139908334082
0.14018309619419217
0.0977836719127318
0.15879834227022446
0.09229299325972788
0.04585214205394755
-0.23931885070885117
-0.20985848210552097
-0.08467956224816256
-0.04798698537461699
-0.053424444115686524
0.16211608835876296
0.25978626394635607
0.08144680389812287
0.03919272403297809
-0.08565510573492842
-0.13522920789899318
-0.16344293688875458
-0.02467718569526808
0.033902764534474134
0.1758190021258225
0.1764281291108452
0.02450708144113781
-0.07422052432783957
-0.29281770086902625
-0.18175628038804487
-0.07441505810996771
0.09897229092780957
0.19152703353557343
0.4204607779116154
0.15591316386730192
-0.0768821661301084
-0.38209880192645757
-0.2701216543796723
-0.23516397786789306
0.2595106033623025
0.3872336673759876
0.358289036041012
-0.3793257992565805
0.06409621641957958
-0.1752214823046535
-0.3151604681571143
-0.3402464636307313
0.17045455311309898
-0.19813169783521606
0.25566553346397447
0.7099352630033315
0.6003325653525159
0.23443755917418857
0.04273665784152909
-0.5427194720808652
-1.2028900961369144
-1.066454878076403
0.11261270429555859
0.5267043087256975
0.8477411512187872
2.349825024074635
-1.148290572472802
-0.903784110872872
-0.4378977082469366
-0.5126215331138578
-1.5182748316562256
2.518463897077043
1.1143795723612806
-0.08210031192329054
-0.47578911997272283
-0.4800477169506205
-0.8584305105047949
-0.2769456572922589
0.11390041550748747
0.2612429781093188
0.16380505062262313
0.41388874400258185
0.1452928712417602
0.20110133901365704
0.12843039063298176
-0.0003410425483291695
-0.34712200630204737
-0.2606145008031865
-0.4358759013853631
-0.29303679600501614
0.018702080602085478
0.3941837232280652
0.5332200563215721
0.5047671218282193
0.12836866958148627
-0.4207267962131646
-0.38696076224532533
-0.4030033759798636
-0.26623821245695284
0.06678565589824839
0.4667957294081336
0.40656868181353045
0.13582758121618932
-0.13361201597683792
-0.22861147348067945
-0.2044862175668374
-0.13060507140205527
0.12212067253982381
0.2894933977362351
0.11949457154306282
-0.022079642016322728
-0.14443949658999808
-0.22497035030455007
-0.2070569531684228
-0.006628733231724482
0.07148263266599152
0.11054401797732556
0.3589688070787166
0.21526246959513157
0.026867641824559158
-0.09555185509926899
-0.2524200238884014
-0.32656952931905675
-0.16120428428430086
0.048437210575472976
0.147932571494478
0.2049102939257014
0.08611602308755639
0.03802456986542136
0.07623298602099039
-0.014713839919229924
-0.07263655168400734
-0.1439296450848258
-0.06936296555710124
-0.07373618436059526
0.038085429098905825
0.07864465279453967
0.07092189990210535
0.040051757991635205
0.006598248876953161
-0.016982012434701425
-0.02655530104335382
-0.024172708686976307
-0.014975430490581403
-0.004373810204035398
0.0037711474658882146
0.007792306286336064
0.00793093757409209
0.005558190149830334
0.0023299221374605884
-0.00043626393358107924
-0.0020490343155295473
-0.002429730578320027
-0.0019123528798103387
-0.0009880995397360116
-9.458231176345222e-05
0.0005009018940009783
0.0007221530050565132
0.0006376424256659906
0.00038603078786360177
0.00010715460559076738
-0.00010200802628047121
-0.00020183588892061944
-0.0002013536020481579
-0.00013755121401471193
-5.3578837402422965e-05
1.6971160008730587e-05
5.702899072129287e-05
6.530216656852817e-05
5.0884148525560174e-05
2.6604419759635218e-05
3.655829726729746e-06
-1.1294550124996545e-05
-1.6522247274340335e-05
-1.3967898669706517e-05
-7.286059071921243e-06
-7.616305906191191e-08
5.219626253537923e-06
7.652924596685116e-06
7.516249749409339e-06
5.796071876078304e-06
3.6103453153070576e-06
1.8116130274441338e-06
8.18637382162406e-07
6.451302159353594e-07
1.0442364826672893e-06
1.6812060264514139e-06
2.270057634743401e-06
2.6448442927604143e-06
2.7673157672182976e-06
2.691947925119166e-06
2.5149010773034595e-06
2.3287256755525902e-06
2.194828495649935e-06
2.135762311328933e-06
2.1424629351306097e-06
2.1886873452711666e-06
2.2455060448411556e-06
2.2913106507502076e-06
2.3158631745085477e-06
2.3193125818479937e-06
2.3083336160832984e-06
2.2916487789097167e-06
2.276556370940346e-06
2.267177750284892e-06
2.2643389563043033e-06
2.2665233723287935e-06
2.2712050118792613e-06
2.276006887686242e-06
2.2793874949716394e-06
2.280814651422785e-06
2.280560760148363e-06
2.279322374473669e-06
2.2778472210394384e-06
2.276682245713323e-06
2.2760768009988892e-06
2.276014186101853e-06
2.276314565701775e-06
2.276750960113499e-06
2.27713733755539e-06
2.2773715849510226e-06
2.277436529267804e-06
2.277374097350369e-06
2.2772505370730623e-06
2.27712682756055e-06
2.2770415995337004e-06
2.2770072970896433e-06
2.2770159146132306e-06
2.277049003260252e-06
2.277087258686622e-06
2.27711685422531e-06
2.2771317401634724e-06
2.2771326739465517e-06
2.2771244845977627e-06
2.277113072978692e-06
2.2771031800670756e-06
2.2770973364526627e-06
2.2770958858354154e-06
2.277097679743396e-06
2.277100979745239e-06
2.277104210011426e-06
2.2771063822543723e-06
2.2771071838692266e-06
2.27710682901579e-06
2.2771058087617533e-06
2.2771046551604063e-06
2.277103783340726e-06
2.277103423247088e-06
2.2771036176085416e-06
2.277104252002461e-06
2.277105092664396e-06
2.2771058272642678e-06
2.2771061204542137e-06
2.2771056993297578e-06
2.2771044697902586e-06
2.27710263691258e-06
2.2771007726008378e-06
2.277099758984316e-06
2.2771005531558286e-06
2.2771037768419545e-06
2.2771092266249536e-06
2.2771154988646015e-06
2.277119982428827e-06
2.2771194392348023e-06
2.2771112304867852e-06
2.2770949609297166e-06
2.2770739740976993e-06
2.2770558748968465e-06
2.277051256616395e-06
2.277070216636978e-06
2.2771170937984753e-06
2.2771849884399834e-06
2.2772526396021727e-06
2.277286566739419e-06
2.2772504764162965e-06
2.2771215152374686e-06
2.2769093331567308e-06
2.2766701936693724e-06
2.276506302135139e-06
2.2765421033145077e-06
2.2768758612756827e-06
2.2775160370637814e-06
2.2783249945259944e-06
2.2790020305991353e-06
2.2791369182053634e-06
2.2783485025542863e-06
2.2764894156840748e-06
2.2738543992179134e-06
2.271291664353666e-06
2.2701061286266285e-06
2.271681414977057e-06
2.276843659881729e-06
2.2851307956260937e-06
2.2942725521685106e-06
2.300259751464586e-06
2.2983107883398845e-06
2.2847797531715003e-06
2.2596123963764964e-06
2.2284575744178625e-06
2.203193648537916e-06
2.199690406636188e-06
2.232304886469113e-06
2.305927915239825e-06
2.4080793376237913e-06
2.5049758101157728e-06
2.5458148258831734e-06
2.477932678410818e-06
2.2716778106367083e-06
1.9483806146436324e-06
1.5994329239580366e-06
1.3819142623161996e-06
1.4793073247558683e-06
2.026399535744344e-06
3.014593072323428e-06
4.212916787273691e-06
5.15278068463494e-06
5.220984376798567e-06
3.877977204814161e-06
9.665073534293378e-07
-2.9889834440906247e-06
-6.645138387466251e-06
-8.02639290011099e-06
-5.131616214052436e-06
3.0945341057440686e-06
1.569255554120737e-05
2.8991483545017545e-05
3.6844195342880674e-05
3.221958833715614e-05
1.0154549931260892e-05
-2.859980263395725e-05
-7.463157422696726e-05
-0.00010947947911152782
-0.00010947839932494006
-5.4401624995925276e-05
6.057508543408827e-05
0.00021355556564648425
0.0003512040214388949
0.00039678020538288405
0.00027437203861877956
-5.3215006904528474e-05
-0.0005436568293437183
-0.0010498131954815543
-0.0013313942382219223
-0.0011192848452377458
-0.00023136783378943212
0.0012873848135969827
0.0030555783549777575
0.004348665663813646
0.004257845818219854
0.0020325828111051303
-0.00245541198024508
-0.0082852182796599
-0.013330043932889276
-0.014608721146397831
-0.009275776677108575
0.0038491526580450405
0.022618659006432677
0.040442237602731725
0.04648472290564606
0.027693477286845642
-0.027472766211948215
-0.12462872912634157
-0.06010900763663124
-0.020464868053403442
0.014336053813417883
0.06474904808558914
0.1447347106319243
0.05686618999710674
-0.008412125797134087
-0.06895193874090175
-0.1440827496146056
-0.04768704308254331
0.016086248388444645
0.05317930268329263
0.07666411745882953
0.10234492059153032
-0.05516197189222286
-0.18502524770987822
-0.0819802653286913
0.0516811932536953
0.20383145439580014
0.151579244781078
0.06418882671738287
-0.08885025440600022
-0.12612885136451407
-0.2433185791173892
-0.20822436513145154
0.03426967736974271
0.14720022902920915
0.18069013016930352
0.15257218002870576
0.23806403362342132
0.1735044429334731
-0.12536241843841095
-0.33526502610725306
-0.2964668769735875
-0.19357148475414854
-0.15417223528120905
0.13235163661660374
0.18046500798315873
0.2685191770013025
0.2054194016043075
0.31462917407013924
0.04159794252321964
-0.015737201752519688
-0.2604050668495838
-0.4460534225020178
-0.43708722440356584
-0.19124080928443843
0.030167843411375964
0.6283151623942618
0.6216406517382354
0.2051418169718633
-0.2736079890823287
-0.31876714828529756
-0.6776186269564626
-0.3303813054079614
0.5132278592426462
2.0107177192776624
-1.5156464505205403
-0.37305444008267563
0.11553024014245672
-0.17486503710754248
-1.1648525529546248
2.0278468478422615
0.6866213395227426
-0.09495254488332106
-0.5868184981716851
-0.9853177061220139
-0.5837285345359065
-0.17067646751463006
0.13392028173485862
0.6121957399924958
0.8717834586259593
0.585744872053392
0.27055600003214836
-0.28956405163530985
-0.98036884571329
-0.6789463380442088
0.01568413812955655
1.223820398732441
-1.4082124860702865
-0.13183491955806803
0.4582969054461303
0.7681731618928004
0.15178970854781265
0.27679869565522053
0.11771500109100566
-0.4243018908622673
-0.8858261210049537
-1.2053261783906075
1.6999916000913153
0.7419913866480156
0.26305581914780707
-0.35649477014421116
-0.6812274221362963
-0.6028722769454276
-0.3378190235052514
-0.0512765540452244
0.4923607362166426
0.666220823624613
0.5257563649092818
0.38196357509116047
0.014429198433212973
-0.47795331084207826
-0.6037406871331584
-0.6058538799930702
-0.2106146362261731
0.1877452460967509
0.30655433978439994
0.32913968739876026
0.2511093148619033
0.03442400930806656
-0.02055360195654517
0.11793146590623507
-0.1760405663710142
-0.16377895785899643
-0.11626487064625626
-0.09229291355580735
-0.12539561429037036
0.17901242337534393
0.2383527138692868
0.08388924861021896
-0.04738146867962761
-0.11747676576257529
-0.0893970724548119
-0.12893567686408586
-0.00885198336138002
0.08393778542424399
0.1399719490635453
0.1212801950693523
0.1616654604510862
-0.024619056854288966
-0.1266444765257257
-0.21706073031179038
-0.13483366806263833
-0.076169862841692
0.0032924472039532787
0.17580414709576458
0.12257156323843205
0.1145159978303224
-0.001886980085705477
-0.010675420606336476
-0.12433479185911599
0.024160677020969832
-0.007940431752188098
-0.062481157549235444
0.028435635042389464
0.04851550191814865
0.00029919199179174024
-0.09484557500457716
0.00020135540803773282
-0.0679209426962817
-0.05218241083601308
0.0839899655136889
0.1564747943883708
0.1539694490914062
0.03812719750111585
-0.04858366462304382
-0.16903096369915027
-0.1758779665956201
-0.09955950685698282
0.05635183621559485
0.11151904028354387
0.09927369614189535
0.055264464914634846
0.00828795691002127
-0.024438582194601752
-0.037401934356337894
-0.03368800406296037
-0.02060386563561332
-0.005734537900002261
0.005568002991850444
0.011045542331204089
0.011101160721282503
0.007692178444081664
0.0031449571630139173
-0.0007091170634338233
-0.00292493613484394
-0.0034140887487249124
-0.00265846531518771
-0.0013508855296559662
-0.00010175537888714237
0.0007209373514438565
0.0010173166138967992
0.0008882904122850597
0.0005303471655820277
0.00013918633574721187
-0.00015101268153159167
-0.00028683490568285426
-0.0002826228601086201
-0.00019111868113159977
-7.291463921713025e-05
2.5324362249567572e-05
8.029723867890895e-05
9.075203929510785e-05
6.977856929255694e-05
3.545946284969423e-05
3.3978155124355044e-06
-1.7237726856147344e-05
-2.420897482189289e-05
-2.0360900217359093e-05
-1.086761759659851e-05
-7.633776590839623e-07
6.576196601744212e-06
9.877951118994e-06
9.596341667391342e-06
7.1372435570927115e-06
4.0696887516543725e-06
1.5757219258995255e-06
2.2265300193568562e-07
1.0764172613145146e-08
5.810735612214868e-07
1.460225341789278e-06
2.252826100506585e-06
2.740207624476525e-06
2.887961901987346e-06
2.7913950427461603e-06
2.596450301071962e-06
2.4282261770786363e-06
2.3469417024017335e-06
2.338170001937506e-06
2.333862669174353e-06
2.253946608331971e-06
2.0543471139552453e-06
1.765337879610669e-06
1.5043080063318194e-06
1.450742398387782e-06
1.7801744225423542e-06
2.5685940812285298e-06
3.6968769923683624e-06
4.800084318880162e-06
5.3099276596720345e-06
4.621363375512179e-06
2.3721108832312407e-06
-1.2372538438095962e-06
-5.216283707337061e-06
-7.81582122814146e-06
-6.9511090704060866e-06
-1.035390189294666e-06
9.948683825261216e-06
2.352970443219649e-05
3.4521322811328534e-05
3.600280296402715e-05
2.1723343226150133e-05
-1.0428395217539424e-05
-5.4981108689946184e-05
-9.717611931094318e-05
-0.00011485019970930222
-8.506035087707105e-05
5.061905857001707e-06
0.00014612093622596442
0.00029816422463649497
0.00039263498565120805
0.00034955449604664936
0.00011030614003384078
-0.0003210794813436769
-0.0008435492879421455
-0.001252511416126281
-0.0012805540834477135
-0.0006927383461330597
0.0005788418900726473
0.0023047914301556885
0.003899187066149055
0.004501904333169599
0.0032441982393952217
-0.00032688745119895373
-0.005782300049326242
-0.011508925895489056
-0.014817401745233544
-0.012648405495237979
-0.002885126486021256
0.014006314899832633
0.03359567871849056
0.04714489371742514
0.042990428832516456
0.009857208848374368
-0.058535547320337604
-0.1591594742596448
-0.077765383350932
0.00896620796053439
0.12714625344213026
0.09728374857062994
0.1271462534418953
0.008966207960153138
-0.07776538335129829
-0.15915947425979926
-0.05853554732010784
0.009857208849057959
0.04299042883354423
0.0471448937184681
0.033595678719037056
0.014006314899330696
-0.002885126487921479
-0.012648405498400137
-0.014817401748823693
-0.01150892589798299
-0.005782300048859312
-0.0003268874462857176
0.003244198248910639
0.004501904345266281
0.003899187076362352
0.002304791432359002
0.0005788418785316308
-0.0006927383737073659
-0.0012805541227714785
-0.0012525114546392238
-0.000843549306193604
-0.0003210794585787569
0.00011030621640304548
0.0003495546194972774
0.0003926351226718249
0.00029816431557717216
0.00014612090952325325
5.061706386701817e-06
-8.506072509188465e-05
-0.00011485066567572017
-9.717650064754949e-05
-5.4981168345251484e-05
-1.0427917078529746e-05
2.1724435676202943e-05
3.6004327910709006e-05
3.452277976718801e-05
2.353033591849615e-05
9.947699505777208e-06
-1.0384430874937497e-06
-6.9559266899032585e-06
-7.82105365601419e-06
-5.219593074137427e-06
-1.2358930282126184e-06
2.3801819647823454e-06
4.636061991320447e-06
5.327856886725789e-06
4.814283449882923e-06
3.6981833699811506e-06
2.548880544761041e-06
1.7369555571770094e-06
1.3916740376705874e-06
1.4493005908967026e-06
1.7438571781294694e-06
2.096439156745484e-06
2.3757672505936225e-06
2.5216533990289533e-06
2.537675163314641e-06
2.4666408866023824e-06
2.362807552859729e-06
2.2707052607832824e-06
2.2147552370851866e-06
2.1989789777121564e-06
2.213217661990718e-06
2.241565221137665e-06
2.2695882594881672e-06
2.2885067704855358e-06
2.2960808899483224e-06
2.2950284476310535e-06
2.2902535015658253e-06
2.2861074473193933e-06
2.2845490621761572e-06
2.2846230770469907e-06
2.283264675521018e-06
2.277100879105337e-06
2.264654326487379e-06
2.2481643053190302e-06
2.2341749744776717e-06
2.2321987398903546e-06
2.251239699954379e-06
2.294771649561361e-06
2.3557573334938173e-06
2.414121102000987e-06
2.4392512653776147e-06
2.39913716103536e-06
2.275440794315724e-06
2.080507752705036e-06
1.8690739391917742e-06
1.735846708428478e-06
1.7919796536850152e-06
2.119801605256319e-06
2.7154951225574057e-06
3.4409769203925734e-06
4.0140283474699055e-06
4.063733201146615e-06
3.261802334555726e-06
1.5091099095809536e-06
-8.824407072708428e-07
-3.1050572242147715e-06
-3.965328155816092e-06
-2.24853598080213e-06
2.6950732651322267e-06
1.0302158504884693e-05
1.8369794362039278e-05
2.3189452300020033e-05
2.0500734501106143e-05
7.270644803440849e-06
-1.6099310069883634e-05
-4.397759578995586e-05
-6.524252177829324e-05
-6.557699943462788e-05
-3.267038578938497e-05
3.654856346598743e-05
0.00012903299319501907
0.00021268894008302157
0.00024113240135893995
0.00016825117454439411
-2.8908736205476466e-05
-0.0003253671030848954
-0.000632631842073077
-0.0008052868651620166
-0.0006792767015045652
-0.00014127303074867162
0.0007872395552255036
0.0018843371331841688
0.0027238101507371703
0.002770832612155385
0.0015867997410880495
-0.0008975878366835729
-0.004144538519712381
-0.006963450193417725
-0.007829917324214893
-0.005696323398668411
-0.0013056326069879618
0.001146100996797929
-0.007671317049228826
-0.04344099406213754
0.07166407690650965
0.11069251045098759
0.04624831854216654
0.057713345822388754
-0.059651345175735004
-0.2864648776366492
-0.17585123853544316
-0.05861465815685217
-0.05814364026625065
0.2878732427120159
0.4057766095008034
0.27291503123664085
0.020007199594285326
-0.24982403163285688
-0.43097233403248775
-0.18480107665189482
-0.11953400049160401
0.01291465942457708
0.30341388886791804
0.261509666977784
-0.010478841878355957
-0.03756212335698956
0.017393570096339492
-0.04760310023457361
-0.06852574785267426
-0.10730712070389713
-0.043936830621701124
0.029610382499903627
0.013679617895293279
0.205264192027775
0.30506427729411517
0.02936219718380852
-0.27374033269325
-0.40800535168392243
-0.3199035945288571
-0.10331711717090036
-0.01982992441856046
0.6712056922686346
2.0850063229074065
-1.5009935021569871
-0.8391541748289686
-0.2916636929351322
-0.21585927832565627
-0.9686743715042269
2.0692600598781605
0.8634776419816074
0.10984690653971868
-0.5520844930046102
-0.8975448049686401
-0.4639432275220811
-0.11010847207804142
0.19679539765166384
0.3643499602193979
0.1373188239470628
0.05386041653557478
0.208475556816078
0.029713011644285404
-0.12470372279697949
0.04302701265462367
-0.007045909104465005
-0.22502761444017957
-0.14393584988205724
0.14252911958955278
0.1945900733475459
0.03304510074559395
-0.26121657330997305
-0.15466181117201522
-0.07646692261390446
-0.042249597742869315
0.1159586829020315
0.3189980125490984
0.21676057834326765
0.1784427534936544
-0.09935514529975074
-0.16825265727391367
-0.19416800287273955
-0.1233778012386463
-0.257545798133238
-0.043388886846283066
0.12213364582972049
0.2750942106996778
0.2638446005228995
0.1324743869153292
-0.08595285041824088
-0.1658280791692123
-0.2795135213015813
-0.18895508066475852
-0.044459289941784365
0.20719941225005936
0.20813140548898026
0.1745284059628078
0.0885866470347012
0.10134724439858753
-0.2538212085755237
-0.24167778587949013
-0.10655954458997824
-0.061501665056457155
-0.08858327441756224
0.25036246707123055
0.19737714954243557
0.18293087425947668
0.01721552575699652
-0.10923174316296617
-0.21725648430624955
-0.12809493329555743
-0.05528735818055943
-0.0031432699072176727
0.028061021855289473
0.23327612601499192
0.1952903897834831
0.08365961342191337
0.06258897564681488
-0.0934415093651983
-0.38158464656949337
-0.3579550370391164
-0.13795818038004692
-0.013296992054975875
0.317253946164893
0.5128627629323241
0.3645359110496263
0.18932225818357795
-0.150535477808971
-0.40829603560462824
-0.5061912920677071
-0.2978761815152616
-0.15296765817462254
0.23141044678947614
0.3970170963416241
0.28124634308205276
0.17896542919247288
0.12087065285315532
-0.12706151718145764
-0.24578255125056278
-0.1350361162193751
-0.08468940143092693
-0.15374686463962764
0.03850825602056308
0.10905515073693132
0.09862689633015745
0.05532349507221263
0.019552784480652497
0.014025383957935449
0.0404711630441543
0.08294377805097164
-0.08374157436277692
-0.08293046128553232
-0.12567721506569113
-0.004265646530759909
-0.09202563434975539
0.0501788925355272
0.06258084964626275
0.17370474065050492
-0.009807997178818733
0.09263635258597944
0.03898410308965712
-0.02526348413569694
-0.15292382150599326
-0.1813792762177162
-0.12371915145769885
0.03212778248682923
0.1161002829252246
0.16367318244950066
0.20368408593005863
0.05129641977777626
-0.09141308812253135
-0.22842768182105022
-0.16063181719704123
-0.07977918229435627
0.030929506869726547
0.18973774242368735
0.20623317126511706
0.07339700450343435
-0.03407913331586169
-0.1541273930384333
-0.12655211598384086
0.018687318533650358
0.07040015642632545
0.040369355919027544
-0.03730463240922146
-0.11116460832519807
-0.12127515720781443
-0.011624904370609153
0.05533732844228376
0.28522949278728343
0.2440069234049968
0.06039357748220941
-0.15984553859954723
-0.11053553361429949
-0.25936507237166867
-0.22802645283463666
0.015279984268137727
0.14862845483519543
0.07695460486439443
0.10657398990646655
0.12082229527523972
-0.037348065894052894
0.02739435884985907
0.06618553135509492
-0.0015582887684394658
-0.06961917091444299
-0.024312141346473592
-0.1260540167392448
-0.19734596466057688
-0.020179595749610105
0.05633203597875439
0.10017258413292252
0.17713365025755545
0.1337497591072189
-0.012791274374101023
-0.0756671939782886
-0.09146182939690019
-0.10866032639513148
0.02437555807318226
0.06900149063838046
0.002316932485555375
0.019913004307735353
-0.06392998645761819
-0.018178047463471188
0.0009415382714552012
0.043960993420372727
-0.039234060228554225
-0.007297045907630163
-0.03469582032487923
0.08279043708064956
0.12564599202506832
0.05256501073860235
0.007448798940422126
-0.06934234792231977
-0.22810883179868272
-0.09908441628189783
0.1127715948274515
0.02614556036031639
0.0762208428585684
0.10503760504845629
-0.0475859518297301
-0.1507793238677431
0.01327212557346093
0.04730327726154881
0.1388129086090685
0.06235348347294032
-0.015041090026677756
-0.12569478448490445
-0.09247244556563625
-0.1224008893257975
-0.005338576385018483
0.08159687711112082
0.1655541986715613
0.06887018960786737
0.0029650314600664957
-0.03274068321476455
-0.047145548966369674
-0.05114926968455286
-0.051534702832045004
-0.047474890884813624
-0.030965361881568624
0.008946523218581092
0.07968276343135056
0.1790371430176569
0.09239632301762088
-0.0046908819122722266
-0.13870527543927208
-0.12779761589797933
-0.17323249139984584
-0.056707016196201825
0.05465516650611176
0.19713616998892797
0.19743910619317492
0.06325420392642142
-0.018708879801813526
-0.07658175914297827
-0.14193188636476953
-0.23802114115819872
0.027434240587860707
0.06230078395260621
0.08339314910500825
0.10652962682227152
0.13778260653154092
-0.03040901068240279
-0.01678624845960704
-0.04354757830227638
-0.12639537731115447
-0.06614224649001742
-0.04509209179619429
-0.029801877230627338
0.020287713318729337
0.1408705936946525
0.1512757332354606
0.04742955541984883
0.0019757892213510962
-0.028176861007614722
-0.08923730224412421
-0.21697424580160593
-0.026637765352449477
0.09050927296329128
-0.036664666144778306
0.03144609848206561
0.13356763069544572
0.09726842217055356
-0.06718111908447567
0.03250234594771333
-0.02511971249024866
-0.0679570514216701
-0.12276294116265138
-0.009493626486228212
0.06099522146831838
0.08608835372288956
0.06892390534732107
0.01621595217720449
-0.06249044852562502
-0.15447281388919232
-0.0438565801042545
0.08655013612964102
0.0514072778985524
0.05836216841879393
0.10511725222820757
-0.020286529463630215
-0.135773340794961
-0.059547330358858626
-0.004749310426327288
0.0235480580124924
0.028305547759542183
0.018084090988029506
0.003508226132423045
-0.006168069475570027
-0.0056359884273196395
0.005088365203702302
0.02059180296275076
0.03134464569065694
0.026296142154342405
-0.0035204453531272753
-0.06116575554328414
-0.14106735832799572
-0.028841622797863297
0.09553246069573236
0.05179595092592786
0.052802360642938355
0.09980862631913004
-0.018465523629197456
-0.12268766587670059
-0.036959198516315676
0.01773781658439726
0.028669743743550736
-0.006010362624741423
-0.07725619779046015
0.032535604846654166
-0.05469936686940251
0.08195891664828035
0.0571862159172686
0.07582038262053813
-0.06789666921526365
0.011995853237138022
-0.1023878058020864
-0.02793470545003458
0.023100669416605418
0.044715150874027824
0.03698234599978955
0.0049246482073935964
-0.042821461934302994
-0.09537211987354918
0.05870964506731399
0.029189096826829495
0.02179125929203513
0.036607183722804866
0.06816230840932531
-0.09258944970013545
-0.05497172171867247
-0.025329901645277573
-0.005249887345011017
0.0079654785908459
0.01880933505610878
0.03015905497425965
0.04036664930582596
0.0421186138718805
0.023768850183141378
-0.027011663508214896
-0.11839233801779964
-0.05019054394029032
-0.01219348165156331
0.014029259235472102
0.050305379827873545
0.11581159110584556
0.02207771693765837
-0.029189075982699975
-0.04496799704856105
-0.03737449429018964
-0.019380404423447958
-0.0013805348698693628
0.010541673256102405
0.014627177999355931
0.012278992687743882
0.006458389218505872
0.0002508059174246643
-0.004066761548915251
-0.0054075404407421005
-0.0038410251984037623
