0
-1.9395343892568114e-19
-2.1145458651400392e-19
-2.3171913464161075e-19
-2.4636430308570823e-19
-2.449110202405195e-19
-2.1873145063083677e-19
-1.6637546639561754e-19
-9.845146104989035e-20
-3.9397476813179836e-20
-2.3464842858538868e-20
-8.353442367936734e-20
-2.3411686167102935e-19
-4.5353881829676155e-19
-6.736216915104384e-19
-7.86288193544348e-19
-6.736664003574687e-19
-2.604941020931093e-19
4.240585912195912e-19
1.200149063240064e-18
1.738436961089698e-18
1.6356160832884997e-18
5.702390526942915e-19
-1.49135408094138e-18
-4.111406853351116e-18
-6.322856156965616e-18
-6.7986928176799184e-18
-4.29701236849698e-18
1.6775540847785417e-18
1.019640053908341e-17
1.8538061114747243e-17
2.248876725689403e-17
1.7552891969336634e-17
1.0048784445368592e-18
-2.5740151607382883e-17
-5.542041791887996e-17
-7.511263924202122e-17
-6.931475435754531e-17
-2.608882029924047e-17
5.4987024187751687e-17
1.559263668639804e-16
2.3851382560637106e-16
2.5139677333377307e-16
1.4776759681099079e-16
-8.893058023322443e-17
-4.192858973653218e-16
-7.348546605632916e-16
-8.7153618143039795e-16
-6.581395822996964e-16
3.365543443287507e-18
1.0470733316250642e-15
2.180467581481322e-15
2.89704747821775e-15
2.6017372457759252e-15
8.527388257787963e-16
-2.331774742333781e-15
-6.215633848780312e-15
-9.290722828437304e-15
-9.57214579435855e-15
-5.299681967850724e-15
4.064336618757191e-15
1.6860444873895134e-14
2.8774575561927664e-14
3.342329794199428e-14
2.429856760307465e-14
-2.097318701274743e-15
-4.2780694982813033e-14
-8.599494412396331e-14
-1.1191228315260937e-13
-9.772050602738537e-14
-2.7133008401570664e-14
9.779721150195505e-14
2.4704443456118517e-13
3.611712154064482e-13
3.635487756135649e-13
1.8814269828265616e-13
-1.8179479604022706e-13
-6.768637423513299e-13
-1.1257151945374901e-12
-1.2803208018186872e-12
-8.936986572637103e-13
1.5776206895843357e-13
1.7417750328557236e-12
3.386819218680757e-12
4.317610885119941e-12
3.660864409317783e-12
8.187802393724252e-13
-4.0764477925202605e-12
-9.804069245568311e-12
-1.4024553436067678e-11
-1.3783178633426051e-11
-6.609097543074594e-12
7.98612779672166e-12
2.7117162945717516e-11
4.398860508586529e-11
4.8974358143351946e-11
3.271852859817418e-11
-9.09698347462584e-12
-7.070035346974317e-11
-1.3321778907236953e-10
-1.6637009550379068e-10
-1.3677477278091702e-10
-2.259627366271934e-11
1.6899082615832568e-10
3.8849921693332863e-10
5.439574926661604e-10
5.215762721898618e-10
2.2916187854346017e-10
-3.45914098380454e-10
-1.0843091411176824e-09
-1.7169239843659991e-09
-1.870596244291741e-09
-1.1916002731286703e-09
4.687486252154646e-10
2.8618075075389937e-09
5.233520348494745e-09
6.402673357062007e-09
5.095083339565164e-09
5.175763852660786e-10
-6.971928686005792e-09
-1.537267942910589e-08
-2.107354597114111e-08
-1.969793952765594e-08
-7.816380101315464e-09
1.4813661146944017e-08
4.327843397573951e-08
6.693663172889198e-08
7.133917250281345e-08
4.313982276771054e-08
-2.2687404903026586e-08
-1.1554202369256729e-07
-2.0535109822258722e-07
-2.4608732980136257e-07
-1.8919175229105163e-07
-6.035029205805902e-09
2.8640570563506234e-07
6.074420839764277e-07
8.1545924551604e-07
7.423426314199555e-07
2.6094669674851385e-07
-6.284657312539597e-07
-1.7244012089418745e-06
-2.6066348727243004e-06
-2.7163464998912853e-06
-1.5510723557805422e-06
1.0549604184547756e-06
4.653712192887185e-06
8.047857487026444e-06
9.445940703768249e-06
7.000387492196499e-06
-3.1454900800631375e-07
-1.1720266754828915e-05
-2.397022514375715e-05
-3.151743624197145e-05
-2.7912883431893116e-05
-8.46017729195399e-06
2.6452641693329566e-05
6.859306771112044e-05
0.00010138789599855642
0.00010324928361063256
5.5302505215161834e-05
-4.773807539748172e-05
-0.000187077188004445
-0.00031512393618067286
-0.0003622294166760688
-0.0002582003593202264
3.344340973137057e-05
0.0004779651605102365
0.0009452793468351778
0.001218876905258615
0.0010526397612781277
0.00027538899955850617
-0.0010806285376761028
-0.002676823287447184
-0.0038568412055486716
-0.0037863871196096802
-0.0017655331333850685
0.0023353521097218485
0.0076496416650553185
0.01209720483718688
0.01257609125830876
0.0056641730305622764
-0.011272736136801978
-0.038925223523578106
-0.07537039008939661
0.08367056977114296
0.04365190290293589
0.009676435407811098
-0.014584691269367043
-0.0271095191653436
-0.027109519165343647
-0.01458469126936716
0.009676435407810947
0.04365190290293582
0.08367056977114305
-0.07537039008939642
-0.03892522352357791
-0.011272736136801843
0.005664173030562341
0.012576091258308764
0.012097204837186848
0.007649641665055268
0.002335352109721805
-0.0017655331333850937
-0.0037863871196096854
-0.0038568412055486638
-0.0026768232874471746
-0.0010806285376760993
0.000275388999558504
0.0010526397612781217
0.0012188769052586073
0.0009452793468351704
0.0004779651605102322
3.3443409731370134e-05
-0.0002582003593202244
-0.0003622294166760663
-0.0003151239361806714
-0.00018707718800444468
-4.773807539748204e-05
5.530250521516125e-05
0.00010324928361063209
0.00010138789599855626
6.859306771112047e-05
2.6452641693329702e-05
-8.460177291953854e-06
-2.791288343189302e-05
-3.15174362419714e-05
-2.3970225143757142e-05
-1.1720266754828936e-05
-3.145490080063544e-07
7.000387492196451e-06
9.445940703768203e-06
8.047857487026406e-06
4.653712192887161e-06
1.0549604184547655e-06
-1.5510723557805413e-06
-2.7163464998912794e-06
-2.6066348727242966e-06
-1.7244012089418758e-06
-6.284657312539631e-07
2.6094669674851004e-07
7.423426314199523e-07
8.154592455160372e-07
6.074420839764249e-07
2.864057056350596e-07
-6.035029205808232e-09
-1.8919175229105309e-07
-2.4608732980136294e-07
-2.053510982225867e-07
-1.1554202369256649e-07
-2.2687404903025898e-08
4.3139822767710824e-08
7.133917250281342e-08
6.693663172889178e-08
4.32784339757393e-08
1.4813661146943898e-08
-7.816380101315451e-09
-1.9697939527655845e-08
-2.1073545971140997e-08
-1.537267942910582e-08
-6.971928686005792e-09
5.175763852660339e-10
5.095083339565122e-09
6.402673357061976e-09
5.2335203484947265e-09
2.8618075075389887e-09
4.687486252154712e-10
-1.1916002731286556e-09
-1.8705962442917244e-09
-1.716923984365985e-09
-1.084309141117672e-09
-3.459140983804478e-10
2.2916187854346306e-10
5.21576272189862e-10
5.43957492666159e-10
3.8849921693332636e-10
1.6899082615832402e-10
-2.2596273662719702e-11
-1.3677477278091627e-10
-1.663700955037894e-10
-1.3321778907236824e-10
-7.070035346974221e-11
-9.096983474625272e-12
3.271852859817433e-11
4.897435814335182e-11
4.398860508586504e-11
2.711716294571727e-11
7.986127796721525e-12
-6.609097543074607e-12
-1.3783178633425987e-11
-1.402455343606759e-11
-9.804069245568237e-12
-4.076447792520222e-12
8.187802393724333e-13
3.660864409317773e-12
4.317610885119928e-12
3.3868192186807495e-12
1.741775032855726e-12
1.5776206895844165e-13
-8.936986572637014e-13
-1.2803208018186814e-12
-1.125715194537488e-12
-6.768637423513303e-13
-1.8179479604022867e-13
1.8814269828265399e-13
3.635487756135632e-13
3.611712154064478e-13
2.4704443456118567e-13
9.779721150195586e-14
-2.7133008401569806e-14
-9.772050602738475e-14
-1.1191228315260914e-13
-8.599494412396338e-14
-4.278069498281331e-14
-2.0973187012750333e-15
2.4298567603074456e-14
3.3423297941994254e-14
2.877457556192779e-14
1.686044487389536e-14
4.064336618757434e-15
-5.2996819678505455e-15
-9.572145794358464e-15
-9.290722828437304e-15
-6.21563384878037e-15
-2.3317747423338662e-15
8.52738825778715e-16
2.6017372457758657e-15
2.897047478217721e-15
2.1804675814813196e-15
1.0470733316250764e-15
3.365543443304862e-18
-6.581395822996816e-16
-8.715361814303888e-16
-7.348546605632888e-16
-4.1928589736532395e-16
-8.893058023322906e-17
1.47767596810986e-16
2.5139677333376986e-16
2.385138256063699e-16
1.5592636686398108e-16
5.498702418775361e-17
-2.6088820299238326e-17
-6.931475435754368e-17
-7.511263924202037e-17
-5.5420417918879885e-17
-2.5740151607383314e-17
1.0048784445362182e-18
1.7552891969336082e-17
2.2488767256893693e-17
1.853806111474715e-17
1.0196400539083512e-17
1.677554084778739e-18
-4.297012368496786e-18
-6.798692817679786e-18
-6.3228561569655665e-18
-4.111406853351131e-18
-1.4913540809414277e-18
5.702390526942395e-19
1.6356160832884593e-18
1.7384369610896773e-18
1.2001490632400628e-18
4.24058591219602e-19
-2.6049410209309426e-19
-6.736664003574563e-19
-7.862881935443416e-19
-6.736216915104378e-19
-4.535388182967643e-19
-2.341168616710336e-19
-8.353442367937115e-20
-2.3464842858541324e-20
-3.939747681318075e-20
-9.845146104989009e-20
-1.6637546639561668e-19
-2.1873145063083566e-19
-2.4491102024051854e-19
-2.463643030857076e-19
-2.3171913464161056e-19
-2.114545865140041e-19
-1.9395343892568153e-19
-1.8365810374214056e-19
-1.8113251222255575e-19
-1.843106824199556e-19
-1.9010680984855448e-19
-1.9575204084144485e-19
-1.9954146760745095e-19
-2.0097501567377501e-19
-2.0047089125065784e-19
-1.9889792505632936e-19
-1.971391519629631e-19
-1.958112416932205e-19
-1.9517003114705013e-19
-1.9516326786576756e-19
-1.955600529436541e-19
-1.960884510726179e-19
-1.9653535794676916e-19
-1.9679134524487772e-19
-1.968467069889859e-19
-1.967578619663328e-19
-1.9660547585950982e-19
-1.9646040269672447e-19
-1.963651942088335e-19
-1.9633122545635114e-19
-1.9634659777866962e-19
-1.9638839663312444e-19
-1.9643388263669907e-19
-1.9646751795302338e-19
-1.96483166535111e-19
-1.9648255458791448e-19
-1.9647184479370316e-19
-1.9645808528541855e-19
-1.9644668666838523e-19
-1.964403362567159e-19
-1.9643916025983284e-19
-1.9644162502156937e-19
-1.9644562485729917e-19
-1.9644934874366983e-19
-1.9645173682396022e-19
-1.964525350239227e-19
-1.9645207834593334e-19
-1.964509700617629e-19
-1.9644979507219673e-19
-1.964489442670859e-19
-1.964485638886677e-19
-1.9644859977910514e-19
-1.9644888786744718e-19
-1.9644924569793536e-19
-1.9644953607636336e-19
-1.9644969322789778e-19
-1.964497170777743e-19
-1.9644964914552427e-19
-1.9644954432216077e-19
-1.9644944884294194e-19
-1.9644938904896789e-19
-1.9644937047971017e-19
-1.9644938378529523e-19
-1.964494131103109e-19
-1.9644944342715818e-19
-1.964494649180139e-19
-1.9644947412292849e-19
-1.9644947268372572e-19
-1.9644946495835688e-19
-1.9644945566445286e-19
-1.9644944827615077e-19
-1.9644944439745692e-19
-1.9644944394890346e-19
-1.9644944581060323e-19
-1.9644944855356466e-19
-1.9644945099880955e-19
-1.964494524931883e-19
-1.9644945291993194e-19
-1.9644945253807193e-19
-1.964494517636507e-19
-1.964494509823249e-19
-1.9644945044026752e-19
-1.964494502186318e-19
-1.9644945026885092e-19
-1.9644945047542355e-19
-1.9644945071651254e-19
-1.964494509042637e-19
-1.9644945099972037e-19
-1.9644945100701293e-19
-1.9644945095624662e-19
-1.9644945088457446e-19
-1.9644945082202353e-19
-1.9644945078474894e-19
-1.964494507750908e-19
-1.9644945078591836e-19
-1.9644945080633168e-19
-1.9644945082644489e-19
-1.964494508400964e-19
-1.9644945084540246e-19
-1.9644945084377346e-19
-1.9644945083826437e-19
-1.9644945083201802e-19
-1.9644945082725298e-19
-1.9644945082491107e-19
-1.9644945082483267e-19
-1.9644945082621088e-19
-1.96449450828081e-19
-1.9644945082967924e-19
-1.9644945083060706e-19
-1.9644945083082134e-19
-1.9644945083051736e-19
-1.9644945082998022e-19
-1.9644945082946306e-19
-1.9644945082911979e-19
-1.964494508289936e-19
-1.964494508290441e-19
-1.9644945082919066e-19
-1.9644945082935232e-19
-1.9644945082947307e-19
-1.9644945082953035e-19
-1.9644945082952955e-19
-1.9644945082949228e-19
-1.9644945082944356e-19
-1.9644945082940278e-19
-1.9644945082937974e-19
-1.964494508293751e-19
-1.9644945082938357e-19
-1.9644945082939767e-19
-1.9644945082941096e-19
-1.9644945082941958e-19
-1.9644945082942254e-19
-1.9644945082942102e-19
-1.9644945082941715e-19
-1.9644945082941296e-19
-1.964494508294099e-19
-1.964494508294085e-19
-1.964494508294086e-19
-1.9644945082940961e-19
-1.9644945082941087e-19
-1.9644945082941192e-19
-1.9644945082941248e-19
-1.9644945082941257e-19
-1.9644945082941236e-19
-1.9644945082941197e-19
-1.9644945082941164e-19
-1.9644945082941142e-19
-1.9644945082941135e-19
-1.964494508294114e-19
-1.964494508294115e-19
-1.964494508294116e-19
-1.9644945082941168e-19
-1.964494508294117e-19
-1.964494508294117e-19
-1.9644945082941168e-19
-1.9644945082941166e-19
-1.9644945082941164e-19
-1.964494508294116e-19
-1.964494508294116e-19
-1.964494508294116e-19
-1.9644945082941164e-19
-1.9644945082941164e-19
-1.9644945082941164e-19
-1.9644945082941164e-19
-1.9644945082941164e-19
-1.9644945082941164e-19
-1.9644945082941164e-19
-1.9644945082941164e-19
-1.9644945082941164e-19
-1.9644945082941164e-19
-1.9644945082941164e-19
-1.9644945082941164e-19
-1.9644945082941164e-19
-1.9644945082941164e-19
-1.9644945082941164e-19
-1.9644945082941164e-19
-1.9644945082941164e-19
-1.9644945082941164e-19
-1.9644945082941164e-19
-1.9644945082941164e-19
-1.9644945082941164e-19
-1.9644945082941164e-19
-1.9644945082941164e-19
-1.9644945082941164e-19
-1.9644945082941164e-19
-1.9644945082941164e-19
-1.9644945082941164e-19
-1.9644945082941164e-19
-1.9644945082941164e-19
-1.9644945082941164e-19
-1.9644945082941164e-19
-1.9644945082941164e-19
-1.9644945082941164e-19
-1.9644945082941164e-19
-1.9644945082941164e-19
-1.9644945082941164e-19
-1.9644945082941164e-19
-1.9644945082941164e-19
-1.9644945082941164e-19
-1.9644945082941164e-19
-1.9644945082941164e-19
-1.9644945082941164e-19
-1.9644945082941164e-19
-1.9644945082941164e-19
-1.9644945082941164e-19
-1.9644945082941164e-19
-1.9644945082941164e-19
-1.9644945082941164e-19
-1.9644945082941164e-19
-1.9644945082941164e-19
-1.9644945082941164e-19
-1.9644945082941164e-19
-1.9644945082941164e-19
-1.9644945082941164e-19
-1.9644945082941164e-19
-1.9644945082941164e-19
-1.9644945082941164e-19
-1.9644945082941164e-19
-1.9644945082941164e-19
-1.9644945082941164e-19
-1.9644945082941164e-19
-1.9644945082941164e-19
-1.9644945082941164e-19
-1.9644945082941164e-19
-1.9644945082941164e-19
-1.9644945082941164e-19
-1.9644945082941164e-19
-1.9644945082941164e-19
-1.9644945082941164e-19
-1.9644945082941164e-19
-1.9644945082941164e-19
-1.9644945082941164e-19
-1.9644945082941164e-19
-1.9644945082941164e-19
-1.9644945082941164e-19
-1.9644945082941164e-19
-1.9644945082941164e-19
-1.9644945082941164e-19
-1.9644945082941164e-19
-1.9644945082941164e-19
-1.9644945082941164e-19
-1.9644945082941164e-19
-1.9644945082941164e-19
-1.9644945082941164e-19
-1.9644945082941164e-19
-1.9644945082941164e-19
-1.9644945082941164e-19
-1.9644945082941164e-19
-1.9644945082941164e-19
-1.9644945082941164e-19
-1.9644945082941164e-19
-1.9644945082941164e-19
-1.9644945082941164e-19
-1.9644945082941164e-19
-1.9644945082941164e-19
-1.9644945082941164e-19
-1.9644945082941164e-19
-1.9644945082941164e-19
-1.9644945082941164e-19
-1.9644945082941164e-19
-1.9644945082941164e-19
-1.9644945082941164e-19
-1.9644945082941164e-19
-1.9644945082941164e-19
-1.9644945082941164e-19
-1.9644945082941164e-19
-1.9644945082941164e-19
-1.9644945082941164e-19
-1.9644945082941164e-19
-1.9644945082941164e-19
-1.9644945082941164e-19
-1.9644945082941164e-19
-1.9644945082941164e-19
-1.9644945082941164e-19
-1.9644945082941164e-19
-1.9644945082941164e-19
-1.9644945082941164e-19
-1.9644945082941164e-19
-1.9644945082941164e-19
-1.9644945082941164e-19
-1.9644945082941164e-19
-1.9644945082941164e-19
-1.9644945082941164e-19
-1.9644945082941164e-19
-1.9644945082941164e-19
-1.9644945082941164e-19
-1.9644945082941164e-19
-1.9644945082941164e-19
-1.9644945082941164e-19
-1.9644945082941164e-19
-1.9644945082941164e-19
-1.9644945082941164e-19
-1.9644945082941164e-19
-1.9644945082941164e-19
-1.9644945082941164e-19
-1.9644945082941164e-19
-1.9644945082941164e-19
-1.9644945082941164e-19
-1.9644945082941164e-19
-1.9644945082941164e-19
-1.9644945082941164e-19
-1.9644945082941164e-19
-1.9644945082941164e-19
-1.9644945082941164e-19
-1.9644945082941164e-19
-1.9644945082941164e-19
-1.9644945082941164e-19
-1.9644945082941164e-19
-1.9644945082941164e-19
-1.9644945082941164e-19
-1.9644945082941164e-19
-1.9644945082941164e-19
-1.9644945082941164e-19
-1.9644945082941164e-19
-1.9644945082941164e-19
-1.9644945082941164e-19
-1.9644945082941164e-19
-1.9644945082941164e-19
-1.9644945082941164e-19
-1.9644945082941164e-19
-1.9644945082941164e-19
-1.9644945082941164e-19
-1.9644945082941164e-19
-1.9644945082941164e-19
-1.9644945082941164e-19
-1.9644945082941164e-19
-1.9644945082941164e-19
-1.9644945082941164e-19
-1.9644945082941164e-19
-1.9644945082941164e-19
-1.9644945082941164e-19
-1.9644945082941164e-19
-1.9644945082941164e-19
-1.9644945082941164e-19
-1.9644945082941164e-19
-1.9644945082941164e-19
-1.9644945082941164e-19
-1.9644945082941164e-19
-1.9644945082941164e-19
-1.9644945082941164e-19
-1.9644945082941164e-19
-1.9644945082941164e-19
-1.9644945082941164e-19
-1.9644945082941164e-19
-1.9644945082941164e-19
-1.9644945082941164e-19
-1.9644945082941164e-19
-1.9644945082941164e-19
-1.9644945082941164e-19
-1.9644945082941164e-19
-1.9644945082941164e-19
-1.9644945082941164e-19
-1.9644945082941164e-19
-1.9644945082941164e-19
-1.9644945082941164e-19
-1.9644945082941164e-19
-1.9644945082941164e-19
-1.9644945082941164e-19
-1.9644945082941164e-19
-1.9644945082941164e-19
-1.9644945082941164e-19
-1.9644945082941164e-19
-1.9644945082941164e-19
-1.9644945082941164e-19
-1.9644945082941164e-19
-1.9644945082941164e-19
-1.9644945082941164e-19
-1.9644945082941164e-19
-1.9644945082941164e-19
-1.9644945082941164e-19
-1.9644945082941164e-19
-1.9644945082941164e-19
-1.9644945082941164e-19
-1.9644945082941164e-19
-1.9644945082941164e-19
-1.9644945082941164e-19
-1.9644945082941164e-19
-1.9644945082941164e-19
-1.9644945082941164e-19
-1.9644945082941164e-19
-1.9644945082941164e-19
-1.9644945082941164e-19
-1.9644945082941164e-19
-1.9644945082941164e-19
-1.9644945082941164e-19
-1.9644945082941164e-19
-1.9644945082941164e-19
-1.9644945082941164e-19
-1.9644945082941164e-19
-1.9644945082941164e-19
-1.9644945082941164e-19
-1.9644945082941164e-19
-1.9644945082941164e-19
-1.9644945082941164e-19
-1.9644945082941164e-19
-1.9644945082941164e-19
-1.9644945082941164e-19
-1.9644945082941164e-19
-1.9644945082941164e-19
-1.9644945082941164e-19
-1.9644945082941164e-19
-1.9644945082941164e-19
-1.9644945082941164e-19
-1.9644945082941164e-19
-1.9644945082941164e-19
-1.9644945082941164e-19
-1.9644945082941164e-19
-1.9644945082941164e-19
-1.9644945082941164e-19
-1.9644945082941164e-19
-1.9644945082941164e-19
-1.9644945082941164e-19
-1.9644945082941164e-19
-1.9644945082941164e-19
-1.9644945082941164e-19
-1.9644945082941164e-19
-1.9644945082941164e-19
-1.9644945082941164e-19
-1.9644945082941164e-19
-1.9644945082941164e-19
-1.9644945082941164e-19
-1.9644945082941164e-19
-1.9644945082941164e-19
-1.9644945082941164e-19
-1.9644945082941164e-19
-1.9644945082941164e-19
-1.9644945082941164e-19
-1.9644945082941164e-19
-1.9644945082941164e-19
-1.9644945082941164e-19
-1.9644945082941164e-19
-1.9644945082941164e-19
-1.9644945082941164e-19
-1.9644945082941164e-19
-1.9644945082941164e-19
-1.9644945082941164e-19
-1.9644945082941164e-19
-1.9644945082941164e-19
-1.9644945082941164e-19
-1.9644945082941164e-19
-1.9644945082941164e-19
-1.9644945082941164e-19
-1.9644945082941164e-19
-1.9644945082941164e-19
-1.9644945082941164e-19
-1.9644945082941164e-19
-1.9644945082941164e-19
-1.9644945082941164e-19
-1.9644945082941164e-19
-1.9644945082941164e-19
-1.9644945082941164e-19
-1.9644945082941164e-19
-1.9644945082941164e-19
-1.9644945082941164e-19
-1.9644945082941164e-19
-1.9644945082941164e-19
-1.9644945082941164e-19
-1.9644945082941164e-19
-1.9644945082941164e-19
-1.9644945082941164e-19
-1.9644945082941164e-19
-1.9644945082941164e-19
-1.9644945082941164e-19
-1.9644945082941164e-19
-1.9644945082941164e-19
-1.9644945082941164e-19
-1.9644945082941164e-19
-1.9644945082941164e-19
-1.9644945082941164e-19
-1.9644945082941164e-19
-1.9644945082941164e-19
-1.9644945082941164e-19
-1.9644945082941164e-19
-1.9644945082941164e-19
-1.9644945082941164e-19
-1.9644945082941164e-19
-1.9644945082941164e-19
-1.9644945082941164e-19
-1.9644945082941164e-19
-1.9644945082941164e-19
-1.9644945082941164e-19
-1.9644945082941164e-19
-1.9644945082941164e-19
-1.9644945082941164e-19
-1.9644945082941164e-19
-1.9644945082941164e-19
-1.9644945082941164e-19
-1.9644945082941164e-19
-1.9644945082941164e-19
-1.9644945082941164e-19
-1.9644945082941164e-19
-1.9644945082941164e-19
-1.9644945082941164e-19
-1.9644945082941164e-19
-1.9644945082941164e-19
-1.9644945082941164e-19
-1.9644945082941164e-19
-1.9644945082941164e-19
-1.9644945082941164e-19
-1.9644945082941164e-19
-1.9644945082941164e-19
-1.9644945082941164e-19
-1.9644945082941164e-19
-1.9644945082941164e-19
-1.9644945082941164e-19
-1.9644945082941164e-19
-1.9644945082941164e-19
-1.9644945082941164e-19
-1.9644945082941164e-19
-1.9644945082941164e-19
-1.9644945082941164e-19
-1.9644945082941164e-19
-1.9644945082941164e-19
-1.9644945082941164e-19
-1.9644945082941164e-19
-1.9644945082941164e-19
-1.9644945082941164e-19
-1.9644945082941164e-19
-1.9644945082941164e-19
-1.9644945082941164e-19
-1.9644945082941164e-19
-1.9644945082941164e-19
-1.9644945082941164e-19
-1.9644945082941164e-19
-1.9644945082941164e-19
-1.9644945082941164e-19
-1.9644945082941164e-19
-1.9644945082941164e-19
-1.9644945082941164e-19
-1.9644945082941164e-19
-1.9644945082941164e-19
-1.9644945082941164e-19
-1.9644945082941164e-19
-1.9644945082941164e-19
-1.9644945082941164e-19
-1.9644945082941164e-19
-1.9644945082941164e-19
-1.9644945082941164e-19
-1.9644945082941164e-19
-1.9644945082941164e-19
-1.9644945082941164e-19
-1.9644945082941164e-19
-1.9644945082941164e-19
-1.9644945082941164e-19
-1.9644945082941164e-19
-1.9644945082941164e-19
-1.9644945082941164e-19
-1.9644945082941164e-19
-1.9644945082941164e-19
-1.9644945082941164e-19
-1.9644945082941164e-19
-1.9644945082941164e-19
-1.9644945082941164e-19
-1.9644945082941164e-19
-1.9644945082941164e-19
-1.9644945082941164e-19
-1.9644945082941164e-19
-1.9644945082941164e-19
-1.9644945082941164e-19
-1.9644945082941164e-19
-1.9644945082941164e-19
-1.9644945082941164e-19
-1.9644945082941164e-19
-1.9644945082941164e-19
-1.9644945082941164e-19
-1.9644945082941164e-19
-1.9644945082941164e-19
-1.9644945082941164e-19
-1.9644945082941164e-19
-1.9644945082941164e-19
-1.9644945082941164e-19
-1.9644945082941164e-19
-1.9644945082941164e-19
-1.9644945082941164e-19
-1.9644945082941164e-19
-1.9644945082941164e-19
-1.9644945082941164e-19
-1.9644945082941164e-19
-1.9644945082941164e-19
-1.9644945082941164e-19
-1.9644945082941164e-19
-1.9644945082941164e-19
-1.9644945082941164e-19
-1.9644945082941164e-19
-1.9644945082941164e-19
-1.9644945082941164e-19
-1.9644945082941164e-19
-1.9644945082941164e-19
-1.9644945082941164e-19
-1.9644945082941164e-19
-1.9644945082941164e-19
-1.9644945082941164e-19
-1.9644945082941164e-19
-1.9644945082941164e-19
-1.9644945082941164e-19
-1.9644945082941164e-19
-1.9644945082941164e-19
-1.9644945082941164e-19
-1.9644945082941164e-19
-1.9644945082941164e-19
-1.9644945082941164e-19
-1.9644945082941164e-19
-1.9644945082941164e-19
-1.9644945082941164e-19
-1.9644945082941164e-19
-1.9644945082941164e-19
-1.9644945082941164e-19
-1.9644945082941164e-19
-1.9644945082941164e-19
-1.9644945082941164e-19
-1.9644945082941164e-19
-1.9644945082941164e-19
-1.9644945082941164e-19
-1.9644945082941164e-19
-1.9644945082941164e-19
-1.9644945082941164e-19
-1.9644945082941164e-19
-1.9644945082941164e-19
-1.9644945082941164e-19
-1.9644945082941164e-19
-1.9644945082941164e-19
-1.9644945082941164e-19
-1.9644945082941164e-19
-1.9644945082941164e-19
-1.9644945082941164e-19
-1.9644945082941164e-19
-1.9644945082941164e-19
-1.9644945082941164e-19
-1.9644945082941164e-19
-1.9644945082941164e-19
-1.9644945082941164e-19
-1.9644945082941164e-19
-1.9644945082941164e-19
-1.9644945082941164e-19
-1.9644945082941164e-19
-1.9644945082941164e-19
-1.9644945082941164e-19
-1.9644945082941164e-19
-1.9644945082941164e-19
-1.9644945082941164e-19
-1.9644945082941164e-19
-1.9644945082941164e-19
-1.9644945082941164e-19
-1.9644945082941164e-19
-1.9644945082941164e-19
-1.9644945082941164e-19
-1.9644945082941164e-19
-1.9644945082941164e-19
-1.9644945082941164e-19
-1.9644945082941164e-19
-1.9644945082941164e-19
-1.9644945082941166e-19
-1.9644945082941166e-19
-1.9644945082941166e-19
-1.9644945082941164e-19
-1.964494508294116e-19
-1.9644945082941159e-19
-1.9644945082941156e-19
-1.9644945082941156e-19
-1.9644945082941159e-19
-1.9644945082941166e-19
-1.9644945082941176e-19
-1.9644945082941183e-19
-1.9644945082941185e-19
-1.964494508294118e-19
-1.9644945082941164e-19
-1.9644945082941137e-19
-1.9644945082941106e-19
-1.964494508294109e-19
-1.9644945082941096e-19
-1.9644945082941142e-19
-1.9644945082941226e-19
-1.9644945082941325e-19
-1.9644945082941404e-19
-1.964494508294141e-19
-1.9644945082941298e-19
-1.9644945082941053e-19
-1.9644945082940723e-19
-1.9644945082940417e-19
-1.9644945082940302e-19
-1.9644945082940545e-19
-1.9644945082941233e-19
-1.9644945082942288e-19
-1.96449450829434e-19
-1.9644945082944057e-19
-1.9644945082943667e-19
-1.9644945082941818e-19
-1.9644945082938576e-19
-1.9644945082934724e-19
-1.9644945082931808e-19
-1.9644945082931816e-19
-1.964494508293643e-19
-1.9644945082946058e-19
-1.9644945082958863e-19
-1.9644945082970375e-19
-1.9644945082974176e-19
-1.9644945082963911e-19
-1.964494508293648e-19
-1.9644945082895435e-19
-1.96449450828531e-19
-1.9644945082829594e-19
-1.9644945082847426e-19
-1.9644945082921803e-19
-1.9644945083048893e-19
-1.9644945083196657e-19
-1.9644945083304278e-19
-1.9644945083295414e-19
-1.9644945083106825e-19
-1.964494508272713e-19
-1.964494508223253e-19
-1.9644945081800077e-19
-1.964494508167896e-19
-1.9644945082109583e-19
-1.964494508319997e-19
-1.964494508479571e-19
-1.9644945086403709e-19
-1.9644945087238633e-19
-1.9644945086440304e-19
-1.964494508345416e-19
-1.9644945078481947e-19
-1.9644945072821295e-19
-1.964494506886228e-19
-1.9644945069543668e-19
-1.9644945077223085e-19
-1.964494509217785e-19
-1.9644945111260813e-19
-1.964494512746367e-19
-1.964494513112966e-19
-1.964494511317532e-19
-1.9644945069899775e-19
-1.9644945007932798e-19
-1.9644944946963776e-19
-1.9644944917618613e-19
-1.9644944952714612e-19
-1.9644945072359467e-19
-1.9644945266664762e-19
-1.9644945483208489e-19
-1.9644945628181777e-19
-1.9644945588597412e-19
-1.964494527684032e-19
-1.964494468857266e-19
-1.9644943953208302e-19
-1.9644943347768894e-19
-1.9644943246038626e-19
-1.9644943990520453e-19
-1.9644945705487705e-19
-1.9644948109072674e-19
-1.9644950416439366e-19
-1.9644951434626795e-19
-1.9644949913573786e-19
-1.9644945129029503e-19
-1.9644937544674233e-19
-1.9644929273121244e-19
-1.9644923991873745e-19
-1.9644926039294023e-19
-1.964493866016148e-19
-1.9644961771836035e-19
-1.9644990073647257e-19
-1.9645012630456108e-19
-1.9645014991273184e-19
-1.9644984270264634e-19
-1.9644916405593837e-19
-1.9644823282890997e-19
-1.9644736134199124e-19
-1.9644701375504098e-19
-1.9644766545310724e-19
-1.9644957528334426e-19
-1.9645253230504967e-19
-1.96455687065705e-19
-1.9645759961481502e-19
-1.9645660639477568e-19
-1.964515102842858e-19
-1.9644244129591933e-19
-1.9643156281316357e-19
-1.9642318566658717e-19
-1.9642289012177306e-19
-1.9643551264081536e-19
-1.9646233065788445e-19
-1.9649836726595814e-19
-1.9653121371503046e-19
-1.9654283100125243e-19
-1.9651517184731903e-19
-1.96439069931838e-19
-1.963239120038654e-19
-1.962037806967636e-19
-1.961349922337683e-19
-1.961812478178656e-19
-1.9638652697371997e-19
-1.967419665523689e-19
-1.9715955712907902e-19
-1.9746957672155037e-19
-1.9745680441599802e-19
-1.9694017621792693e-19
-1.9588184246701816e-19
-1.9448894688719297e-19
-1.932537440878713e-19
-1.9287649459681966e-19
-1.9404109662234365e-19
-1.9706855118916533e-19
-2.0154813013209936e-19
-2.0611507221911583e-19
-2.085694123276132e-19
-2.064753866588824e-19
-1.9822495725973062e-19
-1.8431072055790012e-19
-1.683024200493943e-19
-1.5687378231489807e-19
-1.583152293058136e-19
-1.7938658540809106e-19
-2.2109730488178514e-19
-2.7487130110622033e-19
-3.212096554124207e-19
-3.329600940204139e-19
-2.8425588546326526e-19
-1.6400961214466982e-19
1.0044373660710843e-20
1.8336071754934789e-19
2.7009777434869196e-19
1.7725661892535645e-19
-1.5364167320572704e-19
-6.977000536284978e-19
-1.3105212273565394e-18
-1.730007659403467e-18
-1.6372112128271635e-18
-7.805188292448488e-19
8.612645427549693e-19
2.9347288818161706e-18
4.668593683733197e-18
5.011264257205334e-18
2.9863739652276374e-18
-1.7823795710020207e-18
-8.537489816108583e-18
-1.510285669404981e-17
-1.8132813231850748e-17
-1.4082079151404458e-17
-8.370787127164525e-19
2.041144443997033e-17
4.383731834788008e-17
5.915964160349153e-17
5.412373837763469e-17
1.9394849126589813e-17
-4.514671760281597e-17
-1.2499788787414196e-16
-1.896926987643914e-16
-1.9855113197720017e-16
-1.147984237833755e-16
7.404492149132576e-17
3.359112789258708e-16
5.841328912347384e-16
6.884617309173399e-16
5.139627939281368e-16
-1.5207904913558215e-17
-8.441277565244107e-16
-1.7382734491633407e-15
-2.294852572911016e-15
-2.043638557658219e-15
-6.395661339428448e-16
1.894566631592759e-15
4.965814362269715e-15
7.372367632610073e-15
7.542423281651885e-15
4.094042205497566e-15
-3.3736025481477366e-15
-1.3513222953383804e-14
-2.2878724309827713e-14
-2.640529190444781e-14
-1.896586996770695e-14
2.1382571990540866e-15
3.443800444603605e-14
6.85137447456505e-14
8.860316540836983e-14
7.668773551277606e-14
2.0062991702746034e-14
-7.931601813012374e-14
-1.9728938385242714e-13
-2.865103926849435e-13
-2.8632052469277257e-13
-1.4491650613170444e-13
1.499802212305056e-13
5.421310299155653e-13
8.947260426525761e-13
1.0110405157127867e-12
6.966079800279289e-13
-1.436323189880706e-13
-1.4007895683071151e-12
-2.697304979541389e-12
-3.4170765120689596e-12
-2.8706274391103264e-12
-5.923042693172128e-13
3.3003266701212585e-12
7.825899231077852e-12
1.1121506615869647e-11
1.084910273354806e-11
5.071948918007465e-12
-6.5579942232689986e-12
-2.170641626916626e-11
-3.495012929750539e-11
-3.8656834803041485e-11
-2.5464225094507793e-11
7.93502447691633e-12
5.6809707011605603e-11
1.0605589732908827e-10
1.3161979803225873e-10
1.0715711183603391e-10
1.568652064663214e-11
-1.3660704395597412e-10
-3.099740398711999e-10
-4.3120768260841724e-10
-4.1030198012073983e-10
-1.750575670902675e-10
2.8300159645157963e-10
8.674640829628508e-10
1.363664392207901e-09
1.475835744976756e-09
9.257957178235854e-10
-3.997538162885712e-10
-2.2976873224609734e-09
-4.164897517691551e-09
-5.063355973634445e-09
-3.987992235243932e-09
-3.230978316245717e-10
5.628243455215474e-09
1.2260225373725294e-08
1.6699549679191148e-08
1.5485748931871e-08
5.93575755645567e-09
-1.2082595755955326e-08
-3.460483348883704e-08
-5.3145775079438074e-08
-5.62572344306678e-08
-3.3450077185426676e-08
1.9079876801584355e-08
9.269692861152101e-08
1.6336084078406984e-07
1.945330386623733e-07
1.4792907245595042e-07
1.3725410630989588e-09
-2.309263572071159e-07
-4.842539626992254e-07
-6.459714666863237e-07
-5.832081545483639e-07
-1.9659932255995355e-07
5.112970336363779e-07
1.378101752310723e-06
2.0688727961787996e-06
2.141010031484366e-06
1.1998886507284245e-06
-8.788160681418299e-07
-3.7309686925065713e-06
-6.399908877844992e-06
-7.46399140409996e-06
-5.467307506400232e-06
3.827041308161274e-07
9.439641303848637e-06
1.9101478557758734e-05
2.495778959489472e-05
2.1913635702364957e-05
6.303134353373943e-06
-2.147445706668402e-05
-5.47919704563449e-05
-8.044545098062327e-05
-8.134395537622927e-05
-4.267619507722056e-05
3.946692146806029e-05
0.0001498376798607956
0.0002504264146903006
0.00028598113498541823
0.00020122798390301427
-3.190249165038151e-05
-0.0003846529432627241
-0.0007526275388754203
-0.0009633344878421611
-0.0008216577598993094
-0.0001928544579384726
0.0008960615135043344
0.0021758720462208385
0.0031274907399359573
0.0030931744264360546
0.001520883218775107
-0.0017013010516219315
-0.005933323871344126
-0.009661155232931817
-0.010736402751594425
-0.0070728034717699
0.002271120027958637
0.0159183176461212
0.02940800173517394
0.03540969884709007
0.025313067760641097
-0.007879683134197984
-0.06611627730650077
-0.14370361534814813
-0.02710951916534341
0.1020094049134377
0.061208021444944624
0.06120802144494453
0.10200940491343745
-0.027109519165343675
-0.14370361534814832
-0.06611627730650091
-0.007879683134198158
0.025313067760640913
0.03540969884708991
0.029408001735173793
0.01591831764612108
0.002271120027958564
-0.007072803471769925
-0.010736402751594404
-0.00966115523293176
-0.005933323871344064
-0.0017013010516218898
0.0015208832187751208
0.003093174426436046
0.0031274907399359334
0.0021758720462208107
0.000896061513504314
-0.00019285445793848106
-0.0008216577598993073
-0.0009633344878421526
-0.0007526275388754096
-0.00038465294326271477
-3.1902491650375875e-05
0.00020122798390301568
0.00028598113498541655
0.00025042641469029745
0.00014983767986079247
3.9466921468058146e-05
-4.267619507722148e-05
-8.134395537622924e-05
-8.044545098062267e-05
-5.479197045634414e-05
-2.147445706668334e-05
6.303134353374343e-06
2.191363570236502e-05
2.4957789594894505e-05
1.9101478557758402e-05
9.439641303848339e-06
3.8270413081595124e-07
-5.467307506400267e-06
-7.463991404099904e-06
-6.3999088778449e-06
-3.730968692506485e-06
-8.788160681417765e-07
1.1998886507284397e-06
2.1410100314843516e-06
2.068872796178771e-06
1.3781017523106946e-06
5.112970336363576e-07
-1.965993225599633e-07
-5.832081545483647e-07
-6.459714666863198e-07
-4.842539626992203e-07
-2.3092635720711156e-07
1.372541063101341e-09
1.4792907245595084e-07
1.945330386623724e-07
1.6336084078406836e-07
9.269692861151958e-08
1.9079876801583402e-08
-3.3450077185427145e-08
-5.625723443066787e-08
-5.314577507943785e-08
-3.4604833488836724e-08
-1.2082595755955034e-08
5.935757556455842e-09
1.5485748931871032e-08
1.669954967919108e-08
1.2260225373725181e-08
5.6282434552153645e-09
-3.2309783162463954e-10
-3.98799223524396e-09
-5.063355973634444e-09
-4.164897517691535e-09
-2.297687322460957e-09
-3.997538162885629e-10
9.257957178235849e-10
1.4758357449767485e-09
1.3636643922078912e-09
8.674640829628417e-10
2.8300159645157343e-10
-1.7505756709026977e-10
-4.103019801207391e-10
-4.3120768260841455e-10
-3.0997403987119595e-10
-1.3660704395597024e-10
1.5686520646634828e-11
1.0715711183603446e-10
1.3161979803225674e-10
1.0605589732908393e-10
5.6809707011599606e-11
7.935024476910398e-12
-2.5464225094510953e-11
-3.865683480303887e-11
-3.4950129297495064e-11
-2.1706416269148972e-11
-6.55799422324934e-12
5.071948918021173e-12
1.084910273354561e-11
1.1121506615842869e-11
7.825899231025811e-12
3.300326670054932e-12
-5.923042693734393e-13
-2.8706274391228868e-12
-3.4170765120063216e-12
-2.697304979390772e-12
-1.4007895680916677e-12
-1.4363231877632931e-13
6.966079801294678e-13
1.0110405155901186e-12
8.947260422360173e-13
5.42131029239819e-13
1.499802204781495e-13
-1.4491650663436353e-13
-2.863205245530835e-13
-2.8651039159890837e-13
-1.9728938180597509e-13
-7.93160155743282e-14
2.006299380398073e-14
7.668773586008149e-14
8.860316281255243e-14
6.851373877769717e-14
3.443799608977275e-14
2.138249186355207e-15
-1.8965873488611933e-14
-2.6405286591196212e-14
-2.287870765322906e-14
-1.3513196578008506e-14
-3.3735738110472032e-15
4.094060513202751e-15
7.542416084395897e-15
7.372323673923445e-15
4.965733968765147e-15
1.894468274759892e-15
-6.396444100362093e-16
-2.043646526962468e-15
-2.2947455135249647e-15
-1.7380373864038934e-15
-8.438042111377082e-16
-1.49056650714564e-17
5.140822094632301e-16
6.882330302419746e-16
5.834662600933519e-16
3.3488050834294796e-16
