0
-7.791548860068494e-17
-7.78914369642739e-17
-7.788126272119268e-17
-7.789803479553989e-17
-7.794912807717944e-17
-7.802928394586552e-17
-7.81158689355689e-17
-7.816994402548784e-17
-7.814599025921476e-17
-7.801052212849228e-17
-7.776557443634986e-17
-7.746831659821574e-17
-7.723488033616554e-17
-7.72173513719658e-17
-7.754968759059962e-17
-7.827118016237507e-17
-7.925214263320835e-17
-8.015974295349118e-17
-8.050411725848789e-17
-7.978863769460782e-17
-7.775073376821376e-17
-7.462714608015523e-17
-7.132707182110271e-17
-6.937441025314125e-17
-7.051354914614412e-17
-7.597767663472782e-17
-8.558432721902206e-17
-9.700361488503036e-17
-1.0566001453321801e-16
-1.0568382671605353e-16
-9.205269501835326e-17
-6.355854020704061e-17
-2.5616848687008543e-17
8.557656414697542e-18
1.993655611450456e-17
-1.0319157420914603e-17
-9.146492980771468e-17
-2.1304879336967226e-16
-3.3862349632219505e-16
-4.0861991291178124e-16
-3.562831563505145e-16
-1.3639978137603936e-16
2.399168746182042e-16
6.780097389822747e-16
9.978353838864308e-16
9.731318653643425e-16
4.160981284232555e-16
-7.077302728359313e-16
-2.1734951392342113e-15
-3.457310998675008e-15
-3.820880843961489e-15
-2.5508914315901216e-15
6.749514281132367e-16
5.402130763972393e-15
1.0172427526023973e-14
1.265997806635347e-14
1.0313894879768496e-14
1.4847802528072047e-15
-1.3239167466487485e-14
-3.002325876854183e-14
-4.179175469358707e-14
-3.983371610317775e-14
-1.7146794487827445e-14
2.7120162414770582e-14
8.36773021084081e-14
1.3178582472427607e-13
1.4283312266955955e-13
8.9863399993245e-14
-3.817634874063238e-14
-2.2175874073421135e-13
-4.026496546459026e-13
-4.901404902451226e-13
-3.8690184764950253e-13
-3.310633566177851e-14
5.423200567873639e-13
1.184438009431978e-12
1.615509785710527e-12
1.5005975114376984e-12
5.794260117834743e-13
-1.1620122311350252e-12
-3.3416125336084296e-12
-5.139550455589089e-12
-5.448240310939611e-12
-3.2511483012159322e-12
1.823391518128984e-12
8.94471210656648e-12
1.579131016536219e-11
1.882959826222707e-11
1.435179077388205e-11
2.0205908441551244e-13
-2.2260232310668143e-11
-4.6790118696333834e-11
-6.249891528029628e-11
-5.652500307765903e-11
-1.9227120108689622e-11
4.9195051629491084e-11
1.330873042346688e-10
2.0008530079559853e-10
2.07365241494577e-10
1.1667722653279463e-10
-8.414965354027429e-11
-3.600722145708437e-10
-6.186985837746253e-10
-7.225336644643615e-10
-5.30559949724043e-10
3.4310962054123295e-11
9.10141345046239e-10
1.8457963276279528e-09
2.4148919072923477e-09
2.1242048338092655e-09
6.179465643457785e-10
-2.0671262082384986e-09
-5.291980510700586e-09
-7.780654519122724e-09
-7.879381862691613e-09
-4.152308762656121e-09
3.784407486634783e-09
1.446281390998931e-08
2.4211756577044597e-08
2.768728693264486e-08
1.9535316484284143e-08
-2.9756750475267737e-09
-3.708627621461967e-08
-7.27189257954216e-08
-9.319664011509664e-08
-7.963122923714411e-08
-1.8948293125693048e-08
8.629496871289956e-08
2.1009692749671945e-07
3.022177346001386e-07
2.988698326879545e-07
1.462901319032666e-07
-1.669460349679201e-07
-5.797200927467157e-07
-9.46384240077889e-07
-1.0594759928796311e-06
-7.160803701268932e-07
1.7953034418315814e-07
1.5065054033315748e-06
2.8612642241754267e-06
3.592283190071447e-06
2.977264698004992e-06
5.380193401086383e-07
-3.5821855608062406e-06
-8.328517975848833e-06
-1.172532143786082e-05
-1.1315279925981235e-05
-5.090858314959828e-06
7.2552807238142065e-06
2.319196817115812e-05
3.6949379196039424e-05
4.048269432320717e-05
2.6116259138027933e-05
-9.459435186041377e-06
-6.1022518580164954e-05
-0.00011244130416355539
-0.00013829190272983326
-0.00011099414692514203
-1.3152135494332597e-05
0.0001479612802890492
0.00032966980525982864
0.0004543754512423651
0.00042752956813934216
0.00017438795715178082
-0.0003116604946657625
-0.0009262904438127614
-0.001441260967017549
-0.0015449624546313402
-0.0009475638586991121
0.000463584534874855
0.0024657484760104344
0.004416214017302475
0.0053258132683260875
0.004146246114266434
0.00025381764360992755
-0.005994802171767696
-0.012867313767683028
-0.017310484677168718
-0.015692932523518166
-0.005278044113577228
0.013857379172234069
0.037112430035242235
0.05476543586367317
0.05333967816983673
0.0192653726735467
-0.05578995067005429
-0.16968748486218707
-0.10718944621578577
-0.042125078178271554
0.05515704176886083
0.20710628871090583
0.21926172081335138
0.07614691659076767
-0.05451391317297604
-0.21016078193105361
-0.2188341290096765
-0.08779155400033967
-0.00013485078003075922
0.07923912893402361
0.19101060439319809
0.16735498311387642
0.021834009516344753
-0.0533781274828979
-0.0828459376702504
-0.09863350787903269
-0.1306310628205908
-2.3437908653176308e-05
0.08247935539290584
0.11441913041414124
0.09789173980128892
0.037159481864750384
-0.060961511355061046
-0.18462741818266132
-0.11486147166295375
-0.026572719444337006
0.10605006862443446
0.10108054116840245
0.16078583961237544
0.06787020628734683
-0.011520478519656742
-0.11830048829271296
-0.08745279514869309
-0.13611172778610567
-0.05706244615611014
-0.020158478867157242
0.018540597244186753
0.102751609723358
0.2617180258038944
0.10076392468008234
0.00028597493625061494
-0.076223027423961
-0.16815883217443148
-0.30344064653282177
-0.0897286588874387
0.08518478978496928
0.24438622182598535
0.20894991752275519
0.187718552940179
-0.025165364970944175
-0.24403256939342663
-0.2804474032519565
-0.13332861361226694
0.013932895312771606
0.18750654531518665
0.21112982886128542
0.0939065810587553
0.02360349025048776
-0.0316170026741714
-0.11380053537357245
-0.0617827784550151
-0.09848245965549704
-0.02298013048783839
-0.009653088646565168
-0.014456685852468171
0.013474377383731992
0.11803740401669495
0.12390122955231556
0.029236730874840446
0.005671302606843389
0.0056728988038695
-0.024586311819837385
-0.13039351050908057
-0.13580298519202857
-0.036769212180226905
-0.0022599584105816046
0.01684457764953238
0.07366550335676855
0.2102503057040207
0.04600009005850209
-0.027048016926564406
-0.04101743659487247
-0.042574205632751626
-0.0801532867395329
0.00833276531543122
0.004397550163670487
-0.08719537670694141
-0.04020561977778202
-0.013811234998237784
0.036834118621999694
0.14889871101413168
0.14228638851024047
0.01520800065416191
-0.05358519324812243
-0.0968315775479225
-0.14816541897263732
-0.032825988928478246
0.037333399355831264
0.06364129743388869
0.05645769161124139
0.029489453170671066
-0.005161916253609915
-0.03997872609206203
-0.07294110227589046
0.09304639057954506
0.05164687836033199
-0.004716568642101357
-0.08210519869054335
0.017693356340048184
-0.10112500598371654
-0.028719951974236647
0.047739197639884
0.13994777824217722
0.054639894111815475
-0.008064580675058391
-0.05328698216943003
-0.08777673651203258
-0.11607459779511531
0.061474390583621814
0.04791657578769544
0.0467829514618528
0.05892734693934836
0.0810244088794127
-0.09330384160225255
-0.07018212509555534
-0.05166010123128058
-0.03342185409997183
-0.005381792129278025
0.0448664766667287
0.12714671855573154
0.04446679934316862
-0.008676893896737462
-0.044791177319790085
-0.07959193992533069
-0.12794874350204574
-0.0015970051375172962
0.09050571480765163
0.14006499332012215
0.13782724727088055
0.07466407465561542
-0.054189994465324444
-0.24413887727272943
-0.4803568170861295
-0.34638055980656596
-0.04445070385372949
0.5767137608438191
0.9988633242331556
1.2324487573425627
0.24866970269345104
-1.7563817350159507
-2.686703822985035
-0.6941647964979977
1.2245737939073258
4.78312864460423
-1.4570355868996183
0.07068361217085392
-1.270619757669737
-2.3149677663994375
-3.708243168173416
4.831482914411264
2.8181649226672296
0.9123179665174624
-0.2997482871113805
-1.4368315549112687
-1.7851234933237636
-0.7445507517102886
0.08720996649096993
0.3623051293801655
0.36090375952040704
0.3208704982630945
0.14774242510882354
0.3308101596652403
0.2829934209480672
0.11317223754033219
-0.16888524791555626
-0.22244845620638262
-0.33363070510367326
-0.37606661432537103
-0.3869714006358806
0.03530954415530294
0.5149039408187704
0.8742794184744828
0.9178486189310283
-0.7646005162196675
-0.7739428727270722
-0.6702654916435364
-0.5540663129830884
-0.07525861711231766
1.3292858282055007
0.7844707936492806
0.13472483561729573
-0.27086799578547516
-0.5616227645200825
-0.3066323645756536
-0.07156650803538209
0.014433574582770425
0.07480238169105827
0.08522391615998251
0.06212494355516541
0.04632708388924801
0.08720381585422476
0.03080222187209084
-0.08665487152261553
-0.040300951041167474
-0.014868290404597273
-0.0016670300371386061
0.004188329332058606
0.00565228923686098
0.0047292811146209405
0.0028564146037610523
0.001001276747792985
-0.00030848592384263233
-0.000921512830185682
-0.0009489253544658606
-0.0006290891182652907
-0.00020891633928455603
0.0001325488101681315
0.00031183673943262186
0.00032972636299792465
0.00023864558597544162
0.0001065373287690263
-1.0462356306573712e-05
-8.140954855367673e-05
-0.00010104726659465646
-8.204925620403344e-05
-4.4493979151010505e-05
-6.884610626255104e-06
1.904505126180379e-05
2.950649331104465e-05
2.6922290292349787e-05
1.689122492345604e-05
5.276935044454808e-06
-3.717236072281346e-06
-8.248900280759612e-06
-8.543903619426342e-06
-6.066260781517679e-06
-2.60688579505487e-06
3.9492253565946235e-07
2.171154549911744e-06
2.6180333837438155e-06
2.084425767006967e-06
1.0968162709821355e-06
1.2990275426890409e-07
-5.22407904040441e-07
-7.722502802989793e-07
-6.895282195056524e-07
-4.2217458152809563e-07
-1.2136500570670208e-07
1.0681344599857969e-07
2.1788365040202065e-07
2.2022056853120111e-07
1.530291613413163e-07
6.279655904513447e-08
-1.387833989976744e-08
-5.806582311089081e-08
-6.791891194351459e-08
-5.297536457534313e-08
-2.700218273349461e-08
-2.1492116540538947e-09
1.4245793508649733e-08
2.017802136155293e-08
1.76419236569747e-08
1.053992382867655e-08
2.7639653188226703e-09
-3.0150842156454306e-09
-5.7322246120372035e-09
-5.67015755861764e-09
-3.874523962304478e-09
-1.5449725446714612e-09
3.9846030065038433e-10
1.5015383051155989e-09
1.745840553994226e-09
1.390143345498351e-09
7.798179958206523e-10
1.9721383371570093e-10
-2.115533893546035e-10
-4.334944708284716e-10
-5.336129263112035e-10
-5.82350679767102e-10
-5.985379609232842e-10
-5.307660219308683e-10
-2.853065243557104e-10
2.0803584438376382e-10
9.166840955277797e-10
1.648743833832351e-09
2.0576034979026946e-09
1.7344480676497758e-09
3.8723172384238565e-10
-1.936924270505954e-09
-4.672571396715847e-09
-6.713221286668855e-09
-6.645408956448682e-09
-3.271127256239055e-09
3.673162054747178e-09
1.2842115286117149e-08
2.1010090852390407e-08
2.3570009264885882e-08
1.600312132119969e-08
-3.841660144262566e-09
-3.331261942279644e-08
-6.347404594271229e-08
-7.986257563668629e-08
-6.640688948418431e-08
-1.241500213231549e-08
7.903392666370005e-08
1.8461372376797168e-07
2.604947701700018e-07
2.5204328736448424e-07
1.1447490854822476e-07
-1.593577637261644e-07
-5.135970711764237e-07
-8.203378851575841e-07
-9.008430478478719e-07
-5.841238894104094e-07
2.0429590563690852e-07
1.349658212768747e-06
2.4946878480046447e-06
3.0748999599396136e-06
2.47651768264305e-06
3.1034210568966674e-07
-3.266091299878596e-06
-7.30880747679319e-06
-1.0096126184367821e-05
-9.525733563767252e-06
-3.929809559176125e-06
6.850846125218909e-06
2.0512707933468994e-05
3.199530266704968e-05
3.4374887287765545e-05
2.1195099059282373e-05
-1.007994657852556e-05
-5.454035873056469e-05
-9.792840252999703e-05
-0.00011823921331728276
-9.206856972127393e-05
-5.334791616563081e-06
0.00013437026538256434
0.00028894227216323285
0.0003908319532668971
0.0003592429073754978
0.00013225919972803592
-0.00029168399193399414
-0.0008180003114400018
-0.001246754715874646
-0.001310036836412657
-0.0007645070852221542
0.0004744899288061255
0.002199248371267944
0.003842652805237648
0.004549563356588786
0.0034319161446865745
-1.1453928421219136e-05
-0.005421604584798483
-0.011255596478643036
-0.014859760658218544
-0.013138387135543494
-0.0038422885163494525
0.012781266099474938
0.03254972932305354
0.04689630769959124
0.0441237273678877
0.012616092718951956
-0.05456496595728263
-0.1552242231173043
-0.0758108958091413
0.006855461459727284
0.1197018891290152
0.08516228431316969
0.1137295192264795
0.0002662969047221767
-0.07460125038086271
-0.13888640608262762
-0.021917118082337837
0.05204824621875129
0.06773057774397419
0.020234840894350417
-0.08528559598398759
-0.035136107960274186
-0.009725941365226514
0.012616648689418043
0.051202845863159784
0.11917165771830443
0.02177471288277319
-0.04240073393694279
-0.0777354386961968
-0.08721154084934438
-0.06972588719186894
-0.020767266283352896
0.06349085950435825
0.18051248553136365
0.11721892846266241
0.050248509823615194
-0.048178053472736834
-0.2003971208248461
-0.21347993373732013
-0.07416944732509603
0.0483818298585538
0.19246614965165926
0.19014646498819784
0.05560029748227315
-0.01998229851156309
-0.06541386019186415
-0.12020268613892578
-0.02271477090493678
0.00022878377339378812
-0.06042378285930477
0.00505633153315555
0.021416500137706032
0.021347911181886232
0.03715343036029447
0.09335478836700727
0.0020563889270105076
-0.03798965659455077
-0.03883026458769368
-0.018490576840920946
0.004490427677122119
0.015823720758973897
0.008782814371852448
-0.014229271089694627
-0.042012205228880335
-0.05697724602628693
-0.039682571584252015
0.024987429452009005
0.1413908633164171
0.0986998738968736
0.0708579651995051
0.02220643756566939
-0.08208513369089762
-0.2639875142702474
-0.1235883987787635
-0.03724209698622198
0.03543868600508171
0.1377236234195898
0.30014018934765013
0.12932655003373697
0.006126732320148829
-0.1059968172729748
-0.2455822334773235
-0.23729031756757468
-0.08230180102169164
0.04096247733367453
0.16631215270802915
0.3243052014364447
0.12879307751546915
-0.028637395637155443
-0.17428838952361275
-0.1406186261885078
-0.15275186894876808
-0.018913707825592437
0.07195925004275147
0.14559905742672277
0.033593856752259295
-0.03594102167069584
-0.04542218886195238
0.008602315375070944
0.11537066418985906
0.05306755182425841
-0.005186003042965256
-0.08358344286185064
-0.19631134759361
-0.14354793680236805
0.08699453022611622
0.11298644066880656
0.1476644624409159
0.19182442666363192
0.03168022794802108
-0.1559439687296172
-0.19309219844299239
-0.0894617055552285
-0.03552720313118432
-0.0030393172406033963
0.04725566695049869
0.15362761755465346
0.14149926501287005
0.015891468064056065
-0.03936441798619058
-0.05578975353796852
-0.0703056419745231
-0.11482346494378096
-0.008709744333558487
0.043979513747233176
0.052481702141783756
0.03408441954048521
0.007868947698237752
-0.01068265100225461
-0.013201265387951341
0.00015423334441581036
0.02118692950273515
0.035790813083865274
0.027460384555408467
-0.01825874738688627
-0.10926046772068619
-0.04365037150327585
-0.009148412782948605
0.014270600854065238
0.04914984848842954
0.11451021092196725
0.021161723654897685
-0.030023657180016865
-0.046540884466717135
-0.04040945312720254
-0.023837799572835
-0.006018724872464394
0.008108959061155881
0.017218259386254833
0.021828339528840515
0.022440318287303786
0.018479394670575532
0.008542340103074213
-0.008107323978245495
-0.029414887368527053
-0.04880595013554709
-0.05496973499563779
-0.033915073842761136
0.026762492987343223
0.13256781549274083
0.07784100626965373
0.044780774448990285
0.007005134397702969
-0.06295829905916447
-0.18476224369326252
-0.16345995113026832
0.012057604209059712
0.16439145119117707
0.11859832467712589
0.09278351843096595
0.09239488138635975
-0.08969188289775124
-0.26808229409616946
-0.05780474836140736
0.13124832764992184
0.09651264417873807
0.042081626104090365
-0.023033989365378302
-0.08643711761453843
-0.1337702091345146
0.04904423416224219
0.07228627237574864
0.1385062661721375
0.04009534117257572
-0.039920914140836546
-0.1236086835435217
-0.031862719447811404
0.021496581620971268
0.03336983955717427
0.012051818106827197
-0.02484198532462735
-0.05471150044914747
-0.05622437255572712
-0.017081330688542798
0.05769309578953783
0.13886902020839517
0.17017211896598686
0.07181109315623893
-0.04905733270537833
-0.28319137348561857
-0.30435282770735533
-0.1602169687854457
0.12766273637362383
0.3564725677650168
0.53392131318269
0.27761221825734245
-0.3727874553353276
-0.33273188539782245
-0.24913242199492955
-0.48905505061272764
-0.15122182536099088
0.29673526730458816
0.1613682781979128
0.06028649520663102
0.4694571614210598
0.49618320365440893
0.6879520814375265
-0.12077841121034866
-0.9327393624313085
-0.9031509192680336
-0.672440595588894
-0.33825193229884437
0.7262587367740042
1.4198129868798453
0.6518081314128166
-0.10068160689381231
-0.6034834874806649
-0.8481877634768128
-0.6259271537107364
0.08777333575015964
0.5270285307754249
0.5130208274290228
0.42979180475507167
0.21461498128422984
-0.028205063010590215
-0.3926268570348687
-0.7278422983241103
-0.4043455796018691
-0.10416356454573777
0.15861619106131666
0.392744231816591
0.775491956679679
0.2078534617153713
-0.10609746108117357
-0.25070433478829585
-0.16676883074811075
-0.20873646196982695
-0.10471436417340133
-0.12962634671550494
-0.09659288967927662
0.033574294847088355
0.12926689355632554
0.25904067868823827
0.2656795752515774
0.1512782099824587
-0.12248305683012718
-0.22007845718189278
-0.2100651927449227
-0.14372573370464667
-0.04172513143253056
0.10784829621223979
0.14131114237388143
0.10567532792511558
0.04496901882057124
-0.009149395162868482
-0.040764096911210294
-0.04779358426744251
-0.0369956940867732
-0.018346051863106276
-0.0006314851837430027
0.010893697943482472
0.014857296515766552
0.01276833482175539
0.007482657169428855
0.001812695711717905
-0.0023372075840334787
-0.004233425083270232
-0.004113193571640808
-0.0027548030605926855
-0.0010365616263212699
0.00037365018528503883
0.0011492932037552993
0.001281610906296794
0.0009656488700296387
0.00046459017011714484
2.6688630256556615e-06
-0.0002904435090389005
-0.0003853410053805606
-0.00032522752222439533
-0.00018577703370220908
-3.961104987512865e-05
6.522579099197217e-05
0.00011122122802436127
0.00010564282408670396
6.917109646381521e-05
2.452474779074323e-05
-1.1372152243970935e-05
-3.053938115082869e-05
-3.3144274216319065e-05
-2.4457265096566314e-05
-1.1334261966700885e-05
5.03481225492751e-07
7.836682071956909e-06
1.0033006380346245e-05
8.29416020884241e-06
4.607595533541966e-06
8.381982461512656e-07
-1.808216866881069e-06
-2.9188585408575426e-06
-2.7114310019271454e-06
-1.7346915930992415e-06
-5.757511203397575e-07
3.370881855442053e-07
8.095641178942007e-07
8.560765213569618e-07
6.185632234569488e-07
2.75399779755249e-07
-2.760558534202187e-08
-2.1071870057587459e-07
-2.6087630691390957e-07
-2.1127304004144818e-07
-1.1401978031359113e-07
-1.6944117315342694e-08
4.975319877530822e-08
7.644327975895457e-08
6.951474036882178e-08
4.349344575378072e-08
1.3515570804678898e-08
-9.626276245097394e-09
-2.1259802549232302e-08
-2.2040286646766267e-08
-1.577523587371281e-08
-7.05240504672613e-09
5.109704113945483e-10
5.067209153895016e-09
6.468750620593133e-09
5.655261049395397e-09
3.882465790928457e-09
2.104431984936563e-09
6.816939055715939e-10
-5.587573857124069e-10
-2.0025068926837577e-09
-3.829027924168459e-09
-5.683662544005617e-09
-6.6067050249703504e-09
-5.316035057125691e-09
-8.236116478465389e-10
6.78178476990135e-09
1.5696698142325836e-08
2.230094789315801e-08
2.1928887629609702e-08
1.061411703694623e-08
-1.2507319570025471e-08
-4.2947147784645104e-08
-6.996641351637116e-08
-7.824950680595723e-08
-5.281080789740541e-08
1.3414597938004983e-08
1.1148295800520175e-07
2.1155477328315948e-07
2.654735992903683e-07
2.1987096714196247e-07
3.94465637690881e-08
-2.6514464242008235e-07
-6.158681258839885e-07
-8.666576653721683e-07
-8.359128883732684e-07
-3.753715225855666e-07
5.374726662791095e-07
1.7152851089474486e-06
2.7314141876743574e-06
2.9912462661130257e-06
1.927752306876487e-06
-7.030584317522659e-07
-4.514393584453266e-06
-8.31316994332324e-06
-1.0219990692207892e-05
-8.196989153408181e-06
-9.601461505799334e-07
1.0950365579407596e-05
2.437757175258221e-05
3.3584640332425175e-05
3.158467069123814e-05
1.2858390647180116e-05
-2.3073986436758734e-05
-6.849124398465765e-05
-0.00010651621948355954
-0.00011411882993492937
-6.989447546615441e-05
3.4443691509380494e-05
0.00018236650923069062
0.0003262699977665603
0.0003928975346499652
0.00030455076228032177
1.480046923680278e-05
-0.0004504845779921078
-0.0009639216886904402
-0.0013004604694039708
-0.0011915742873551192
-0.00043228914777841893
0.0009810698873407386
0.0027325415422194406
0.004157297048097999
0.00436779342513622
0.002563494299583386
-0.0015218673869639241
-0.007176402778025597
-0.012491658269409607
-0.014611982276538057
-0.010609016073959256
0.0010686947691034095
0.018916861421444123
0.037100072279907664
0.04534149786383082
0.03055844676331298
-0.019738134790442695
-0.1130957436777691
-0.04838293790969411
-0.014370018100156808
0.008395114178005552
0.04277651461738138
0.1089206276126586
0.018975992430983572
-0.025551394142837587
-0.033133147463139286
-0.01883158471369159
0.00045515978518872156
0.010723966906945517
0.0045859837081057495
-0.016605463617431274
-0.04260148236894939
-0.0563815575059493
-0.038626338325658434
0.025993931554672396
0.14219092406341388
0.0994284010646806
0.0717388644700102
0.023308481699894544
-0.08102383003351141
-0.26357293573928586
-0.12457343639739933
-0.040141750305583535
0.03080831939449208
0.13258920625014994
0.29676509836798043
0.13046550143487193
0.013903662398929968
-0.09157515595401725
-0.22798193896094285
-0.22398469746534502
-0.08383101288414833
0.01367946726091064
0.10597203841479169
0.23124665227537036
0.21327287336832482
0.052623836286136295
-0.07232502739271365
-0.1955617556380739
-0.14943401655328659
-0.15264335018139466
-0.005094596677002983
0.10888438127519748
0.21121538209728072
0.11944207917980529
0.039822395027532174
-0.032966257147712445
-0.1099453173693847
-0.1991045080429461
-0.09834744616535224
0.006286560072976724
0.136130474784412
0.11120285616801641
0.14140734906366928
0.02165753922823991
-0.06698616917817315
-0.15086811286105928
-0.054909502527194017
0.005016533251205461
0.025969515002306043
0.017433100150324447
-0.0026605063634962418
-0.013757155902807997
0.0012477075314506188
0.05108104305817567
0.13353358213543393
0.03622392009931858
-0.059136237012837954
-0.17017680063171953
-0.10757580990356368
-0.07191151550894409
0.1448245263967529
0.15399949730399967
0.164438095138602
-0.020794449238049788
-0.20337341060469488
-0.18572281665963733
0.03279835540747963
0.05676867530978601
0.09215228256869175
0.14222396023363953
0.004729827340432971
-0.1279534659107033
-0.06586915462284354
-0.01755349337616248
0.012778828281339224
0.025837213482623744
0.025888283405300107
0.018489020665098225
0.008466814783542954
-0.001130543261955401
-0.00897138084723661
-0.01460513725602829
-0.01746159401443364
-0.016299832574876053
-0.00950785447670742
0.003715990794948483
0.02169341976931261
0.038852021264329704
0.04543687790703731
0.028993310276672884
-0.022351358085737415
-0.11564968090110032
-0.04952849807680806
-0.012921540557462982
0.012935456347258479
0.04970360282560498
0.1160497249257321
0.022878056653703897
-0.028603660195878684
-0.04553854926665962
-0.039740699634120746
-0.023416848280089497
-0.005911552687875769
0.007658966699138677
0.01591771619352631
0.01957625320615291
0.019586958807994333
0.015963624401542614
0.0077716491689757165
-0.005708473192382534
-0.023138987463240532
-0.039464885340947914
-0.04540008338699203
-0.02875868288452429
0.02232363114846222
0.11512666251574029
0.04864633706325751
0.012185269283448237
-0.012815026510028268
-0.04811700806909337
-0.11286747429286312
-0.01877026192390005
0.03207616152427014
0.046219013793110234
0.035623494658227714
0.01373710301099342
-0.007758461987327174
-0.020839168186374178
-0.02176099736403357
-0.010907625818110068
0.007670331266580456
0.02688290006127178
0.037614459093949844
0.030479574431508196
-0.001564445614737988
-0.06021730217592689
-0.1395734348681759
-0.0259876113469914
0.09910270636148434
0.053913243899817706
0.050501373615851664
0.09076723091930985
-0.03414457550902139
-0.14099195926051308
-0.04956249039001669
0.022138953969127573
0.061109201233600856
0.060730099500860994
0.02107833357711468
-0.05106167674767808
-0.14250120657590734
-0.03507288616854873
0.09105575987850456
0.052454222933371375
0.057480804494316466
0.10346828485216805
-0.022471437343814894
-0.13907840376096775
-0.06469029599242133
-0.01164409160435568
0.0165392922347419
0.024473564856168636
0.021509752159445207
0.01722473759010025
0.01743622840125647
0.021949314581062803
0.024639223914255822
0.01585124548227574
-0.013526313452007107
-0.06756146864621988
-0.14202135352249398
-0.0239614669361641
0.10510804050319258
0.06330671019284358
0.06201010639315871
0.10172665462021392
-0.028004683893415726
-0.14471379257541384
-0.06687562719901587
-0.008215073614201584
0.025396308777374265
0.03578240386896959
0.02988065942838914
0.016295715291589095
0.002394911310867909
-0.007288789808291749
-0.01127460017159374
-0.010377625001100373
-0.006559489295536508
-0.0018896785425773133
0.002095736421715907
0.004590493858054883
0.005398176757697765
0.004698187331302569
0.002873672793464625
0.00048048869580640874
-0.0016901324046468599
-0.002618418649662577
-0.0013715767580898958
0.00200836909462613
0.004797189998752265
-0.0011583626387366803
-0.033436845141282305
-0.12447577378405102
-0.12841461832690484
0.07143660320278981
-0.043185864996826855
0.17469379974889318
0.5492627815238682
0.7112688831106353
0.14694848134818098
-0.33898858120689085
-0.9627379283465621
-1.7288153893641711
-1.0519284426419477
-0.04707937225309141
1.5233116818781969
2.284834893314608
2.125976739538494
0.3634075276419138
-1.1823117396027794
-2.224229104349025
-2.018791030170916
-0.8163403690425551
0.6003881408547543
1.482493952157641
1.4170338492831924
0.6154086820378911
-0.16761512658417707
-0.6635733850486774
-0.6746017252183697
-0.4349658304487511
0.02566424970033985
0.30203039641361223
0.2139156657540546
0.19471645667408752
0.07786868696132843
-0.11172897221477661
-0.15918080740925003
-0.056025993072868284
0.004592929016174521
0.031050974779590332
0.03368624625741501
0.02331052826022302
0.00917278456337217
-0.002495857303216043
-0.008866987526308894
-0.009928753792101862
-0.007359290919643184
-0.0033469468370744583
0.00028865833507490696
0.0025276311849164704
0.0031703740792660166
0.002594920500076924
0.0014242055060066812
0.0002401151146471768
-0.000583929356423153
-0.000923426406732995
-0.0008504909162252728
-0.0005392940217290747
-0.00017432757214192233
0.00011089649252031151
0.0002567524715586595
0.00026896050249292097
0.00019280727078398158
8.44960704506858e-05
-1.0386063078553501e-05
-6.71833635710953e-05
-8.217167030017197e-05
-6.603196887351187e-05
-3.522915024946565e-05
-4.753552241020431e-06
1.6011894276505288e-05
2.415812733181955e-05
2.1779472279881716e-05
1.3483025278803522e-05
4.0291977928400025e-06
-3.209009371910118e-06
-6.788252590648792e-06
-6.936229208012481e-06
-4.866967689064752e-06
-2.0400218443153127e-06
3.848268823531571e-07
1.7991238709054554e-06
2.132991934828527e-06
1.67912219808807e-06
8.683483054453918e-07
8.456717879089077e-08
-4.3773173976594537e-07
-6.317146700951677e-07
-5.574705399133531e-07
-3.366599456537613e-07
-9.196540723671738e-08
9.153946613737884e-08
1.79105791103006e-07
1.7866267373767773e-07
1.2267074327731996e-07
4.899062784510786e-08
-1.2906159732707652e-08
-4.8046190476084774e-08
-5.529863039178464e-08
-4.264401504946834e-08
-2.133946360478451e-08
-1.2050615002417047e-09
1.1910524497056121e-08
1.6495260910875597e-08
1.4252560764772825e-08
8.389207436333609e-09
2.063268658425618e-09
-2.582777728546302e-09
-4.717135935101132e-09
-4.596704573733801e-09
-3.0871339358097173e-09
-1.1693233996214157e-09
4.087743921819063e-10
1.2798318368710417e-09
1.431899622735625e-09
1.081616167392766e-09
5.227028593718277e-10
6.064694844557319e-12
-3.2272346370873893e-10
-4.301271496547328e-10
-3.6396109838232655e-10
-2.086029939954231e-10
-4.525421473620453e-11
7.221428226054038e-11
1.2402288823395045e-10
1.1813069670449117e-10
7.756630697158353e-11
2.77124779161911e-11
-1.2473451467124675e-11
-3.4011133702289525e-11
-3.703335098646755e-11
-2.7397711328967982e-11
-1.275759137461265e-11
4.838966963390258e-13
8.711384305679864e-12
1.1200780012739834e-11
9.283205658406677e-12
5.175118704474209e-12
9.620151542792771e-13
-2.003783930307241e-12
-3.2555537195985214e-12
-3.0324571138458428e-12
-1.9457225054904777e-12
-6.514020425983377e-13
3.7066409634287805e-13
9.017582191589985e-13
9.565866840134933e-13
6.929664854518696e-13
3.1005492786875147e-13
-2.893536514071755e-14
-2.344291993673748e-13
-2.913764561493095e-13
-2.3657493186694763e-13
-1.2815412389866917e-13
-1.9614672795771055e-14
5.515449478232056e-14
8.524097117613182e-14
7.767324909235007e-14
4.864006259558247e-14
1.5078127948700208e-14
-1.0883858913072624e-14
-2.3941458034183005e-14
-2.476225985969212e-14
-1.7584418509176976e-14
-7.58375830871979e-15
1.0845493954784222e-15
6.206827801136246e-15
7.488139590453472e-15
5.939577286811608e-15
3.0833248665881416e-15
2.9029812561846823e-16
-1.5917867006183385e-15
-2.3106014569585364e-15
-2.0692254418187243e-15
-1.2955666403080493e-15
-4.2635830697195845e-16
2.3226671853891874e-16
5.522715290091223e-16
5.582325774802516e-16
3.636271489731323e-16
1.02798438133756e-16
-1.1859930523477602e-16
-2.4601011435705244e-16
-2.7422182247170836e-16
-2.3086928506214895e-16
-1.5575369400006136e-16
-8.396333309124858e-17
-3.666302957891317e-17
-1.960796968987464e-17
-2.7008448966516288e-17
-4.75752394443094e-17
-7.005961889100072e-17
-8.67461315053323e-17
-9.45608310212667e-17
-9.432516872062541e-17
-8.906921568409703e-17
-8.227566940602684e-17
-7.662762826422529e-17
-7.346559513359534e-17
-7.286255783688013e-17
-7.406673879850201e-17
-7.60389226950338e-17
-7.788207488393637e-17
-7.906884210726267e-17
-7.947022498070061e-17
-7.924950334880239e-17
-7.870397866593169e-17
-7.812304692441523e-17
-7.770086101398554e-17
-7.751076802347211e-17
-7.752680504253674e-17
-7.766826776576294e-17
-7.784498053274828e-17
-7.798889384732408e-17
-7.806717785455126e-17
-7.80795247141712e-17
-7.804630051863649e-17
-7.799460189547466e-17
-7.794733472716253e-17
-7.791761061411551e-17
-7.790825540499342e-17
-7.791470558302488e-17
-7.792914511354491e-17
-7.794413720548203e-17
-7.795480400996677e-17
-7.795940785711947e-17
-7.795873983966331e-17
-7.79549444137434e-17
-7.795035366522896e-17
-7.794669119707376e-17
-7.794475813837108e-17
-7.794452212084765e-17
-7.794543348336115e-17
-7.794678665178846e-17
-7.794799741572157e-17
-7.794874052790511e-17
-7.794895601745944e-17
-7.794877046459998e-17
-7.794838901673529e-17
-7.794800256361997e-17
-7.794773344937104e-17
-7.794762249662287e-17
-7.794764621667267e-17
-7.794774775291295e-17
-7.794786686490078e-17
-7.794795995560717e-17
-7.794800755359614e-17
-7.794801152431784e-17
-7.794798665220339e-17
-7.79479512858637e-17
-7.794792030754227e-17
-7.794790176551653e-17
-7.794789687429139e-17
-7.794790214566541e-17
-7.794791220356202e-17
-7.794792215376992e-17
-7.79479289331118e-17
-7.794793159215303e-17
-7.794793081496369e-17
-7.794792810588531e-17
-7.794792501918515e-17
-7.794792265606042e-17
-7.794792148765218e-17
-7.794792143952671e-17
-7.794792211525436e-17
-7.794792303828294e-17
-7.794792382996469e-17
-7.794792429167177e-17
-7.794792440061908e-17
-7.794792425238907e-17
-7.794792398765487e-17
-7.794792373175479e-17
-7.794792356124053e-17
-7.794792349792387e-17
-7.794792352217902e-17
-7.794792359428088e-17
-7.794792367417404e-17
-7.794792373408432e-17
-7.794792376266912e-17
-7.794792376251962e-17
-7.794792374423542e-17
-7.794792372017817e-17
-7.794792369996974e-17
-7.794792368849813e-17
-7.794792368613177e-17
-7.794792369026455e-17
-7.794792369722087e-17
-7.794792370379461e-17
-7.794792370807642e-17
-7.794792370957284e-17
-7.794792370884024e-17
-7.794792370692569e-17
-7.794792370486026e-17
-7.794792370334343e-17
-7.794792370264672e-17
-7.794792370268616e-17
-7.79479237031791e-17
-7.794792370380529e-17
-7.794792370432051e-17
-7.794792370460487e-17
-7.794792370465448e-17
-7.794792370454008e-17
-7.794792370435759e-17
-7.79479237041889e-17
-7.794792370408157e-17
-7.794792370404652e-17
-7.794792370406814e-17
-7.794792370411886e-17
-7.794792370417219e-17
-7.794792370421054e-17
-7.794792370422745e-17
-7.794792370422553e-17
-7.794792370421228e-17
-7.7947923704196e-17
-7.794792370418288e-17
-7.794792370417585e-17
-7.794792370417487e-17
-7.794792370417801e-17
-7.794792370418279e-17
-7.794792370418712e-17
-7.79479237041898e-17
-7.794792370419062e-17
-7.794792370418999e-17
-7.794792370418865e-17
-7.794792370418727e-17
-7.79479237041863e-17
-7.79479237041859e-17
-7.794792370418597e-17
-7.794792370418632e-17
-7.794792370418675e-17
-7.794792370418708e-17
-7.794792370418725e-17
-7.794792370418727e-17
-7.794792370418718e-17
-7.794792370418706e-17
-7.794792370418695e-17
