0
-1.1095014615899826e-09
6.1517820860406475e-09
1.459116491214663e-08
2.0733368644388225e-08
2.0218047906932455e-08
9.43492872370251e-09
-1.2261617105583853e-08
-4.051362220793115e-08
-6.520296848094877e-08
-7.209441252812664e-08
-4.746126935902266e-08
1.4854640692327519e-08
1.0601513222810226e-07
1.9783692067334418e-07
2.4545237021935007e-07
1.9973697874470997e-07
2.9048022504120513e-08
-2.5503435924463996e-07
-5.783261813566172e-07
-8.042616381312851e-07
-7.649869122606002e-07
-3.259211042440624e-07
5.286071819207911e-07
1.6186179234580523e-06
2.543615009329582e-06
2.751963746236451e-06
1.7250211038310005e-06
-7.481180387164098e-07
-4.288062331075234e-06
-7.769468637960096e-06
-9.442658355533952e-06
-7.433507622151163e-06
-5.948181583558403e-07
1.0506392334152654e-05
2.287334330216433e-05
3.114605116399806e-05
2.887115294671751e-05
1.1047612749207447e-05
-2.2565698627690856e-05
-6.456837375264833e-05
-9.91301464699052e-05
-0.00010489940514357637
-6.232094396963561e-05
3.5684086647090645e-05
0.00017298773955174142
0.0003047331261831014
0.0003627649475424548
0.0002756936100699261
2.1987106730915476e-06
-0.00043115593770703557
-0.0009036122052070804
-0.0012050541013840302
-0.0010876804625062175
-0.0003662229146973363
0.0009545238086195556
0.0025718925412121247
0.0038618930445332217
0.004000731010821614
0.0022556676151137363
-0.001599734016954059
-0.006878456735376807
-0.011786784204794228
-0.013665863309511193
-0.009805181160937513
0.0012326976019364456
0.018115656196966288
0.0356808893652327
0.045031903760719263
0.03533477306429014
-0.0027018193853877966
-0.07253183595768059
-0.16837775807194028
-0.07476748882351697
0.0297114988563018
0.16501334775383844
0.14133557954114054
0.1537985349739582
-0.01689084431395425
-0.1974662777084993
-0.2116695337991899
-0.07109829916502497
0.028519850574135152
0.10429895788782018
0.17845549285798618
0.06993034639223852
-0.01078936421332809
-0.0618994858309964
-0.08646613116315904
-0.08732289773044782
-0.06372431993626451
-0.011652074157994411
0.07228962352045726
0.18542013166270244
0.11515696310041817
0.03968055724383316
-0.06599908294076173
-0.22050890272439494
-0.22736977514919576
-0.07170176798621243
0.0750553334234427
0.2436666560210537
0.2537834453279955
0.10509020712957744
-0.022587973798800072
-0.15995061806800823
-0.33390776781312637
-0.15506280389715943
-0.013007339388039062
0.11831708726924313
0.2678677757757943
0.25365556144135565
0.07459977861817375
-0.08797842712421833
-0.260102235436592
-0.2613730406390773
-0.09461311919473134
0.05605040397511079
0.21802131194062174
0.21785291207579005
0.06976309253894969
-0.02983133089628957
-0.1000188458896995
-0.16733482645700082
-0.056134998413821954
0.01852870051664868
0.05338466161530503
0.05504976890534066
0.03569577046019491
0.00851558690002283
-0.015501508937293382
-0.029073778291017056
-0.028861235358017035
-0.015211133458111401
0.008011167748440705
0.03346212932093249
0.050719572607880105
0.047750713604879785
0.013866558965079899
-0.056206699534300304
-0.15849651140558135
-0.07817449562670321
0.00820539392196092
0.12651740990368465
0.0968643888244083
0.12665811995018872
0.008003851202236952
-0.07942024461439243
-0.16126140637561343
-0.060266611097578915
0.009726633000820665
0.04564107184866148
0.053032621514971776
0.04178010647817021
0.02181382963060503
0.0004842005323217802
-0.017925698311922676
-0.031064655593734777
-0.036892960415248935
-0.032801255928650165
-0.016285182414751107
0.012759244832380924
0.04891672549144177
0.07878562978077942
0.080822192466944
0.02861406335476732
-0.10256386818666648
-0.12765196073773952
-0.04504875046539523
-0.03400525863053996
-0.05756863689972636
0.12963354964211854
0.1713618109966096
0.10099760439802605
-0.06300474003583884
-0.11650654691297056
-0.0654851072463344
-0.12135321870154997
-0.09860673545954435
0.18425755835629531
0.30205540754313365
0.02166984338846555
-0.09483194048018848
-0.08228559237665026
-0.16244210493291913
-0.13632068634076427
0.01740627249105991
0.1368511105743187
0.06602601920344128
0.04251492633101481
0.08780240575038879
0.002999758727563009
-0.029323135514417117
-0.038384320580038725
-0.05599959389741613
-0.10790147618813618
-0.008064824291006644
0.042665797264971925
0.05392353646838475
0.04075719314103539
0.018305583702228446
-0.002059761003911844
-0.014358502340860613
-0.01758719125747413
-0.014050120036764945
-0.007352844096144202
-0.0007689580660842258
0.0036696433299357213
0.005352541714362381
0.004758183785434888
0.002903191698381131
0.0008262930127496318
-0.0007447046302679032
-0.001506309978154513
-0.0015185191304378587
-0.0010528115692463162
-0.00042992568103197994
9.820128429600188e-05
0.00040170766681688384
0.0004684624589285685
0.00036460975154226696
0.00018519711401292875
1.392359683210188e-05
-9.87907985727283e-05
-0.00013930451948364523
-0.0001215005022924728
-7.234819719549384e-05
-1.8687516640049788e-05
2.1093011180796028e-05
3.9686408006063796e-05
3.907593391924603e-05
2.650472494920885e-05
1.0285470834138425e-05
-3.1844732781939536e-06
-1.0714495041505363e-05
-1.2137921628678038e-05
-9.253440851519465e-06
-4.542482272804912e-06
-1.4478415276223415e-07
2.6832574533031907e-06
3.6359055038765753e-06
3.104322997627187e-06
1.7988136484386248e-06
4.103857208359622e-07
-5.973394876872766e-07
-1.04898330648653e-06
-1.0062811640692895e-06
-6.62162087880845e-07
-2.3319837057566772e-07
1.1560940678857783e-07
3.0250566682691446e-07
3.23733696551179e-07
2.2703668115077245e-07
8.015666798884474e-08
-5.4373346766417954e-08
-1.3364452623210252e-07
-1.390779850701253e-07
-7.523185438233427e-08
3.3729712047331366e-08
1.485175620499016e-07
2.2121157553740845e-07
2.0596434424125937e-07
7.494759485202232e-08
-1.6284501740281444e-07
-4.467836465632194e-07
-6.639208613498692e-07
-6.721633338062292e-07
-3.509481631462218e-07
3.287139448200053e-07
1.2377300662441975e-06
2.0608342520541355e-06
2.343367643007324e-06
1.6337082410741726e-06
-2.930242478494354e-07
-3.1929018601507993e-06
-6.201378081385108e-06
-7.8990108424561e-06
-6.688703004306489e-06
-1.479462591994438e-06
7.482312690772762e-06
1.795805390225816e-05
2.5663893816177384e-05
2.51946265415815e-05
1.2036572117049988e-05
-1.4690575792604961e-05
-4.969102209369248e-05
-8.051795031838928e-05
-8.955689697987641e-05
-5.9707101249084525e-05
1.689256568115816e-05
0.00012962613494205884
0.00024390689767941597
0.00030430783667934855
0.00024977895828288195
4.046783475715308e-05
-0.0003103387484093884
-0.0007119188517473663
-0.0009958710693141087
-0.0009539908761055869
-0.00041770466285102783
0.0006360065130979802
0.001989092259594617
0.0031505546795034672
0.0034410113141051966
0.0022197841868762573
-0.0007745921950309528
-0.005072722125275107
-0.009279729404342607
-0.011228442310715887
-0.008615415589582214
-0.00010466867240752812
0.013338550010494978
0.02734564118750379
0.0338492398533058
0.02205503794526208
-0.01925910244125405
-0.09865774646382479
-0.01923299718508611
0.022840873532850765
0.03787755532410113
0.040757644379266995
0.04845772055289816
-0.12217263378160054
-0.05623267875330801
0.057432575715337345
0.02421264731505372
0.04194647074898086
0.10041654120711593
-0.016981568694641493
-0.1294054226220764
-0.05374487879217924
-0.0006689778030344568
0.026961142827648898
0.03300976036767571
0.02520753023730463
0.011914230427415098
-0.00033963656747567917
-0.007993564842048577
-0.010349012066576364
-0.008660497799300048
-0.004976651204200758
-0.0011735374940408288
0.0015877442175258917
0.0029579207349695953
0.003176404623452087
0.0027150955164414892
0.001963056566994546
0.0010657125719995527
-4.6489295003764996e-05
-0.0014795755749018162
-0.0031428533807950822
-0.004582910872539842
-0.004997224761407611
-0.0034893899249486024
0.0004611684567490233
0.0064545560054634675
0.012792809629694892
0.01655522880786272
0.014347486143942458
0.0037424013809075002
-0.014890339225187758
-0.03681712131105335
-0.052509630148505994
-0.04913751618641223
-0.014246777152336467
0.05905129565332383
0.167126719788743
0.09351005904933588
0.011201747021683247
-0.11006311223346199
-0.09359671699939108
-0.14633437019989376
-0.054093949406447246
0.01618344561007958
0.10751776297993487
0.060094666325842164
0.09874945125742055
0.024682140439937012
0.013865582753188846
0.022564110183397105
-0.0015219558572927673
-0.1053504762240556
-0.1174760890049455
-0.039424423134005564
-0.044135726468091656
-0.08227190211094955
0.10505110970867448
0.1705364891056054
0.14660691500900275
0.03736894621664166
0.0192084944914328
-0.1504445977555579
-0.11954663510889066
-0.12793638895209802
0.001700621808699984
0.06614263905902469
0.0777323746189341
0.05690081604265336
0.02439509977690627
-0.004275455098392178
-0.021134862813171017
-0.025119365367581123
-0.019695156996096756
-0.010031085004452132
-0.0007266953445228132
0.005424976065005151
0.007647174479591682
0.0066799704629677955
0.003990510727858619
0.0010468461279586642
-0.0011413352805597623
-0.0021699268298052987
-0.0021443903461432776
-0.0014599007527340583
-0.0005717875749829897
0.00016850225140637373
0.000584776710435591
0.0006665546628926632
0.0005113068708545383
0.00025424834027083164
1.2227433104146446e-05
-0.00014587886941340528
-0.00020270883623542375
-0.00017838669641543598
-0.00010988563453931787
-3.289640909110225e-05
2.875616882396209e-05
6.537385210365051e-05
7.76468709085711e-05
7.061851388722529e-05
4.8816113163374045e-05
1.4653314562025455e-05
-2.9647081285439357e-05
-7.811793449459663e-05
-0.00011776939377687807
-0.00012882342406117083
-9.03187632982218e-05
9.189418968551926e-06
0.00015894235877694207
0.000317048080794
0.00041224382166690136
0.00036174511037295287
0.00010557478854422363
-0.00035021109334843246
-0.0008977488361937039
-0.0013211277818305702
-0.0013399348025257974
-0.0007099673252634148
0.0006354431597039418
0.0024497119172929983
0.0041131839581900614
0.004722927351630014
0.003374882074843613
-0.00038899482541715437
-0.006093544770945201
-0.012021463596482745
-0.01534214647104509
-0.01287773395031657
-0.0025169173943834413
0.015009434475225082
0.03459409410494592
0.04625580985117071
0.03637553739069796
-0.009124092477363552
-0.10025529294114721
-0.03850473847528796
-0.014164202984657715
-0.006704710907803548
0.011634128291012558
0.06999163273575587
-0.0075957046571879005
-0.007595705340545523
0.0699916313879855
0.011634128075357422
-0.006704707956073611
-0.01416419576219997
-0.038504727916887485
-0.10025528257671448
-0.009124087966628395
0.036375530013033106
0.04625578705162107
0.034594058074958974
0.015009395338678243
-0.002516942032346617
-0.012877723402029617
-0.015342085416339302
-0.012021352765159306
-0.006093409893594672
-0.00038888844625794677
0.0033748909494592844
0.004722777721046035
0.0041128575439595754
0.0024492669686303906
0.0006350301617375557
-0.0007101262828103789
-0.001339613918882305
-0.0013202066729420135
-0.0008963330500124938
-0.00034871123079933556
0.00010646836482334498
0.0003612401187901609
0.0004097773568633187
0.0003126971612818535
0.00015375740228243626
5.2415677842926016e-06
-9.036587982361084e-05
-0.00012268247779625554
-0.00010487501245564962
-6.090480426359398e-05
-1.409141543037806e-05
1.992335136851849e-05
3.5233247988552144e-05
3.393381732044828e-05
2.2530204841911567e-05
8.289212853482424e-06
-3.306400970019335e-06
-9.612377203755104e-06
-1.0605032344569637e-05
-7.926208575473352e-06
-3.7596230674021364e-06
4.9079911395146304e-08
2.443686539403507e-06
3.1968404807307344e-06
2.6765311407265484e-06
1.5126978373604085e-06
3.0459470606313093e-07
-5.548024574439041e-07
-9.255779824853654e-07
-8.715664115233667e-07
-5.656177258448518e-07
-1.9566120357967302e-07
9.943372730452039e-08
2.551427125610158e-07
2.7410274140887693e-07
2.0062412276911725e-07
9.156843763332758e-08
-5.9919084684442654e-09
-6.585684472440449e-08
-8.320287677602152e-08
-6.823641629639711e-08
-3.749133149715062e-08
-6.349538604204367e-09
1.5332303749645094e-08
2.4267090253291098e-08
2.2349586181081753e-08
1.4162684818572635e-08
4.56141422218722e-09
-2.940577722188446e-09
-6.773795906728314e-09
-7.088357780113216e-09
-5.076139497017881e-09
-2.217472351829259e-09
2.852105369061513e-10
1.7792813975033922e-09
2.163334660011013e-09
1.7175669234300488e-09
8.790292098432558e-10
5.1625227837670566e-11
-5.03926331277105e-10
-6.971502336486823e-10
-5.759550153686226e-10
-2.686029728791724e-10
7.352918709599309e-11
3.1825393835462024e-10
3.7818184854068703e-10
2.248025005008982e-10
-1.0386165559792087e-10
-5.021742844328122e-10
-8.088594112346403e-10
-8.411819594704112e-10
-4.559014905025001e-10
3.7097190782784195e-10
1.4707808909754614e-09
2.454908937583284e-09
2.7756256614523943e-09
1.8988209151134543e-09
-4.293685190318899e-10
-3.897663949252741e-09
-7.455977493968568e-09
-9.403527411277618e-09
-7.847988575343327e-09
-1.525467249460238e-09
9.212893796059927e-09
2.1637004420008667e-08
3.060240521358426e-08
2.9683827656316634e-08
1.3597830956498669e-08
-1.8531019029297108e-08
-6.018036507731521e-08
-9.635051727786716e-08
-1.0603598792195701e-07
-6.909130566721683e-08
2.3341859318733323e-08
1.5791781208661026e-07
2.927759558233597e-07
3.616195178757646e-07
2.9220427423946445e-07
3.848971554792172e-08
-3.814619174421528e-07
-8.571798277067061e-07
-1.18658991884019e-06
-1.1224312381101044e-06
-4.678828772965083e-07
7.971620921272875e-07
2.403617286000668e-06
3.757956983883705e-06
4.046401914338752e-06
2.508122716105252e-06
-1.1590755345297874e-06
-6.383620434454643e-06
-1.1494692024439604e-05
-1.3907596303907945e-05
-1.0867109211733049e-05
-7.063207279646955e-07
1.570019036115976e-05
3.3892206964333245e-05
4.5940736649606614e-05
4.234218244667298e-05
1.5787943293785097e-05
-3.3959728441485054e-05
-9.584642254179756e-05
-0.00014641908691380578
-0.00015418761336238196
-9.047888896953332e-05
5.4797286068847536e-05
0.00025738907129970785
0.0004507204683444244
0.0005341338357832469
0.0004027121719012039
-3.4900896964711267e-06
-0.0006438035086282188
-0.0013385849514000192
-0.0017770747605926026
-0.001594410890216456
-0.0005199637674739568
0.0014347553043069332
0.0038183171852583016
0.0057070806304469375
0.0058872712733293395
0.003286271145133188
-0.002414759594656271
-0.010183993523478646
-0.017362566984909927
-0.020034909357593257
-0.01424751691377807
0.002013828396298661
0.026588250487184488
0.05153693716185265
0.06323333735800887
0.044943631594029726
-0.018099761528108656
-0.1323141430294552
-0.0903625298518825
-0.06937234453624863
-0.034541185527526344
0.052054618474536477
0.21987332051334327
0.0795029161717478
0.017421060312319558
-0.0017853752847478603
-0.02612863411119957
-0.10267910808736366
-0.06390138226064507
-0.11798370247525065
-0.04614502025397909
-0.007948347817532165
0.04669467147274994
0.1622789937508508
0.16393304628238398
0.04964747753089326
-0.00877639692181428
-0.05628583333685992
-0.13981572237944262
-0.09315426878678493
-0.12640226564161627
-0.02337302388990093
0.05239258288935006
0.14519303970738534
0.09262726304829585
0.11383885179262276
0.0042432632893119595
-0.06200773250018617
-0.12325853928036705
-0.01859088420319557
0.023188518212919288
-0.009020233445832984
-0.10615837242969936
-0.04173877393539634
0.020927743629206522
0.11865642829189267
0.07813816261396765
0.1086524684393972
0.00016030754505215903
-0.0726451882672571
-0.14194154315530644
-0.03716428386707506
0.022573882775737544
0.032035304402819056
-0.0008460350600083933
-0.058861339065548815
0.07890192991876217
0.03130595553077891
0.01057982632479338
0.019980232141306977
0.054178178561538726
-0.09794998936310718
-0.04919857538282226
-0.010060241043416036
0.013782839953568434
0.021944432334118424
0.018133925619475973
0.00813075499847319
-0.0022176105277999037
-0.008467106481173818
-0.008392500601488004
-0.0022535042864639263
0.0073472842106141285
0.015970418756847335
0.018266682189936025
0.009364902096572317
-0.01343239982467924
-0.04911138384625822
-0.09228352380103233
0.06596398004132462
0.035628473001938374
0.02452914295999802
0.03555534452070607
0.06563467489623978
-0.09311568083103919
-0.0505604206197534
-0.0152848985442928
0.00774516629386069
0.017845031866361848
0.017715517774180838
0.011716893072402645
0.004139439011662783
-0.001963881942635205
-0.005194189316291932
-0.005593522372786487
-0.004082421274439782
-0.0018413411605432478
0.00015651962618326107
0.0013739094599789347
0.0017172660046465892
0.0014025707893410197
0.0007732066780432829
0.0001442186160948486
-0.00028787405160959006
-0.0004649504342853908
-0.0004354073669963254
-0.0002983855290100231
-0.00014969539562930282
-4.621325283212619e-05
4.906834402146035e-06
3.4561191315238645e-05
8.557013365353684e-05
0.00018281175997377364
0.00031072247920567106
0.00040769213345518817
0.00038313921785056095
0.00015676751094491727
-0.00028908957331312134
-0.0008623787589717397
-0.0013443345684964476
-0.0014266828501654342
-0.0008152969863108226
0.0006110185496157453
0.002628260924311592
0.004548516454404131
0.005225862811855788
0.003225010930594855
-0.0028845388982860405
-0.014247961633029747
-0.03167836733590398
-0.05603886930533239
0.11098235918230279
0.06616362603099751
0.00488565873372803
-0.07734800542855329
0.017680752869858676
-0.10663378186706733
-0.04083287306681901
0.029068567080175415
0.11789249753548017
0.036853332646899196
-0.009781016546168798
-0.02560344056993469
-0.020414012872410545
-0.0068648381189849355
0.003380568602067309
0.002961194175269765
-0.009033890611507767
-0.026449549963699946
-0.037187720313425994
-0.02608406269518161
0.02083971100191481
0.111720554606906
0.04529631157528223
0.009952217884542442
-0.013907458081930814
-0.04875712208515138
-0.11388267133469798
-0.020540835515872626
0.02999606506720052
0.04510653636217507
0.03714554609257064
0.0191255955386042
0.0013156401275588652
-0.010414897540603856
-0.014511820793576161
-0.012482180136890262
-0.007227259125783561
-0.0015950414352338604
0.002499016489817609
0.004328923877082613
0.004146751351732887
0.0027432058612327235
0.001001829199992984
-0.0004116156227891758
-0.0011774015751465717
-0.0012948204873289833
-0.0009654393882585268
-0.0004560579661435058
8.398810339046549e-06
0.00029962122089448594
0.000390436612073379
0.0003261384410648654
0.00018374985230869753
3.635420590008802e-05
-6.824614926257735e-05
-0.00011315039336073248
-0.00010627996160291259
-6.879193821792142e-05
-2.362067005881659e-05
1.2326526765572344e-05
3.122802941183396e-05
3.3450075880379765e-05
2.4425481383383026e-05
1.1098791020839485e-05
-7.944064552385245e-07
-8.071979027692454e-06
-1.0159736093377153e-05
-8.312680466869756e-06
-4.551875198059607e-06
-7.528808155003523e-07
1.8856544983641705e-06
2.9671601263489294e-06
2.7262318021858392e-06
1.723675789978363e-06
5.518307941095132e-07
-3.617189129992175e-07
-8.269671990128473e-07
-8.634815676589978e-07
-6.173332480715691e-07
-2.690885699736065e-07
3.5164909890351746e-08
2.1670949778633665e-07
2.640012001850485e-07
2.1159914093793466e-07
1.1245726480387274e-07
1.4656250941104353e-08
-5.179950174216907e-08
-7.769929342862383e-08
-6.986153862334126e-08
-4.3120744593389716e-08
-1.2757739025180427e-08
1.0429196900527968e-08
2.1845248346979262e-08
2.2253567631896683e-08
1.5569547177596393e-08
6.4822187604142105e-09
-1.2920316041805278e-09
-5.811129799097899e-09
-6.861305347371839e-09
-5.3890663811331716e-09
-2.779980712539279e-09
-2.6539225611558123e-10
1.4049401359767595e-09
2.0198804736917527e-09
1.7751116006840122e-09
1.062893962793051e-09
2.776681765607406e-10
-3.077975237604823e-10
-5.830743806542002e-10
-5.754184124037242e-10
-3.9134648362457085e-10
-1.5481086275219338e-10
3.782838693799204e-11
1.3844867467701788e-10
1.460246368217574e-10
9.177196147330048e-11
1.951989619915206e-11
-3.187542666788718e-11
-4.041017057101613e-11
-6.0494041505665925e-12
5.05637999979636e-11
9.503787463709256e-11
9.087453941861095e-11
1.4222108586711994e-11
-1.313770626035991e-10
-3.0530235729818574e-10
-4.3150623278614634e-10
-4.1676669446475455e-10
-1.8643152010011827e-10
2.691618151364593e-10
8.535746404033798e-10
1.3512955296755783e-09
1.4654010702164623e-09
9.166919434767385e-10
-4.087029002162011e-10
-2.3076525311191943e-09
-4.176492916602848e-09
-5.0762606756257235e-09
-4.000874680916779e-09
-3.3393665129014383e-10
5.621427154519424e-09
1.2258346794352219e-08
1.6701450110634523e-08
1.5487653398218754e-08
5.931699183866019e-09
-1.2099055541108212e-08
-3.463768943452091e-08
-5.319320227600327e-08
-5.630913500325206e-08
-3.3488281018364954e-08
1.9077324257900512e-08
9.274713531620582e-08
1.634648250626113e-07
1.9466589507648432e-07
1.4803720672967163e-07
1.383436835399421e-09
-2.3107938057478618e-07
-4.845955010326371e-07
-6.464474839877906e-07
-5.836669749521563e-07
-1.968097079086727e-07
5.115781044812619e-07
1.3790161569968665e-06
2.070332642446702e-06
2.1426076071871996e-06
1.2009117192069751e-06
-8.792100196765248e-07
-3.7334128632223253e-06
-6.404393608973683e-06
-7.469495804463108e-06
-5.471715616008828e-06
3.821961683198783e-07
9.445542725289533e-06
1.9114596375867215e-05
2.4975842863948816e-05
2.1930587263629648e-05
6.309985836012946e-06
-2.1486949461539068e-05
-5.4828882894833067e-05
-8.050277134453571e-05
-8.140528538704593e-05
-4.2713642359259374e-05
3.9485669040053304e-05
0.0001499359955092439
0.00025060202556288725
0.0002861923564820095
0.0002013913868164135
-3.189519554422772e-05
-0.00038489596371201856
-0.00075314640726508
-0.0009640336118051547
-0.0008222972290207227
-0.0001930845093705929
0.0008965918872078794
0.0021773428365561014
0.003129722956355752
0.0030955099418902244
0.0015222310011944395
-0.0017021785300675657
-0.005937285788357888
-0.009668039391301345
-0.010744512675281724
-0.007078853917559978
0.002271306211840465
0.015928268634244628
0.029428481289584477
0.03543672537186672
0.025337122155158796
-0.00787218042300877
-0.06613863083841748
-0.1437621383395943
-0.027196364230254375
0.10192059766018295
0.06115987891916659
0.061247872008802634
0.10216868264468701
-0.02683999190371413
-0.1433926783951166
-0.06589313880935854
-0.007905285898954551
0.024906938176830897
0.03460228015988815
0.028364226958617424
0.015015325403474871
0.0020356009866537217
-0.006137265771744409
-0.008410692040042477
-0.006283250668665449
-0.0025541961560464734
2.0771912471345246e-05
-0.00021235614783172022
-0.0032248167448309427
-0.007286265391569578
-0.009523786893740418
-0.00699827836722072
0.0018855406940523221
0.015992800125015135
0.030620498841226307
0.03778435317461787
0.02802121712405822
-0.006391149143595885
-0.06761669488224747
-0.14935097125239816
-0.03651973100673928
0.09142393989512065
0.054176164328835985
0.0634378151997901
0.11784685856964737
0.002216905637356762
-0.10835182912366316
-0.04082941049194412
-0.015757998241244856
-0.04078412861683019
-0.10826707271351466
0.002325998174944306
0.11795174694488113
0.0634966735253582
0.05414250168395361
0.09126505400795061
-0.036798237129310775
-0.14968408473335523
-0.06787564348545523
-0.0064083691379640375
0.028392775984272357
0.038586913534397534
0.031709402659361174
0.016998751852075677
0.0022656846276567074
-0.007793963965869891
-0.0117858951647072
-0.01075256019211624
-0.006889329947330621
-0.002390897022757928
0.0012517917233322868
0.003436582806170519
0.00424115891584498
0.004037512189779177
0.0031460814103371243
0.0016768108204366868
-0.00039816810634660206
-0.0029999942747491273
-0.005666798460029978
-0.007421207400469953
-0.006932017221242804
-0.003028526465548454
0.004521641343833924
0.014227468693216849
0.022461529721895482
0.023798486440262064
0.012296210536968397
-0.01647538976176331
-0.06334299336663497
-0.12442772805899227
0.008008231904480422
0.14260546641274321
0.08496231993195658
0.03474621957716693
-0.014382790568526293
-0.07176706332571767
-0.14512520000389223
-0.03664828650470625
0.05831627197549808
0.14968971810950568
0.049555467209963344
-0.030502996406016388
-0.08049168188803194
-0.09196889550596607
-0.05835689243538071
0.023203413446588255
0.14864547613887574
0.1041712070270795
0.06626062566033443
0.00605643525378357
-0.10241517858819449
-0.2730237443435329
-0.10138559551168165
0.03487322938768293
0.16879467923286812
0.13244592048842332
0.1458385092670213
0.01096342642558364
-0.0870065219725747
-0.17255278293138387
-0.07028360267455168
0.002891277208053963
0.04127539195342092
0.04931936467814071
0.03757113317046128
0.017890812221456793
-0.0002653888314767373
-0.01164443759661609
-0.015148778794048787
-0.012582402437002087
-0.0069913246944013395
-0.001245465466463318
0.0027950436279976414
0.004489060776337656
0.004165670856351341
0.0026641871581906907
0.0008842352738079076
-0.0005174602209541223
-0.0012429741641205867
-0.0013144881773605344
-0.0009499039703208481
-0.0004230598185103796
4.2183699362772635e-05
0.0003233876131737104
0.00040046453196030226
0.00032435314885174174
0.00017505008521848746
2.5993905892207605e-05
-7.642576700864102e-05
-0.00011739930600029565
-0.00010671676678368375
-6.668047144346842e-05
-2.055524879871763e-05
1.5039648089841267e-05
3.287219543826447e-05
3.390516555971081e-05
2.398627973063607e-05
1.0230687379448864e-05
-1.6631962694458321e-06
-8.670290258912327e-06
-1.0400333979190956e-05
-8.251913789195627e-06
-4.319374391042268e-06
-4.842233144982843e-07
2.093405570894159e-06
3.0715807880297268e-06
2.732704112237319e-06
1.6661578453157255e-06
4.717767848327496e-07
-4.310388022524784e-07
-8.678430720858338e-07
-8.735861425291469e-07
-6.048168523758737e-07
-2.4620562986591856e-07
5.738060916458074e-08
2.3145451268628082e-07
2.693125293938209e-07
2.092493746287224e-07
1.060899340856721e-07
7.991870114819145e-09
-5.618553411626595e-08
-7.887583855642674e-08
-6.841844584979859e-08
-4.063916725930522e-08
-1.1096688135734449e-08
9.851057257085685e-09
1.863344481426397e-08
1.7359982960796317e-08
1.1222974726737119e-08
5.62210237126105e-09
3.913749783277035e-09
6.286493058867529e-09
9.912090810215375e-09
1.0253688247364231e-08
3.192091456267936e-09
-1.2590330733822467e-08
-3.3745123255848206e-08
-5.1812932203721496e-08
-5.497606636120585e-08
-3.2271815015512644e-08
2.0409482487710837e-08
9.44046419896316e-08
1.653059743897687e-07
1.9602672004191966e-07
1.4784126285903964e-07
-1.4306312999640965e-09
-2.368999638324539e-07
-4.924758554606299e-07
-6.537712370765273e-07
-5.864846420103004e-07
-1.9104924445171387e-07
5.281357943094579e-07
1.404539453418144e-06
2.0974780908149365e-06
2.1589411316751357e-06
1.1920915253386053e-06
-9.234606724450766e-07
-3.8118718079685997e-06
-6.498262507612894e-06
-7.5414618320295176e-06
-5.4735958848952066e-06
4.920149378331073e-07
9.677779977429658e-06
1.942586123400432e-05
2.525861004356199e-05
2.2028962389941885e-05
6.068459155127707e-06
-2.2146640730041504e-05
-5.5824347953648377e-05
-8.153832090470032e-05
-8.199384781010043e-05
-4.230571757482019e-05
4.126744083060186e-05
0.00015301094815316294
0.000254205368132622
0.0002888549891245911
0.0002012550976201954
-3.638782200606481e-05
-0.0003940594315832816
-0.0007651758915820998
-0.0009746642850262126
-0.0008254781845752103
-0.00018292406358035233
0.0009228302484836927
0.0022160604980842468
0.003169082536935231
0.003116486945939393
0.0015038178248567846
-0.001773770717921184
-0.006057641668771227
-0.009806149249378272
-0.010842618505363544
-0.007065388462549039
0.0024544643505180585
0.016289345839334134
0.029892791582734283
0.0358353478171812
0.0254354448647805
-0.008296976567076631
-0.06718092543635554
-0.1452668078299374
-0.028690380088459155
0.10117967593704645
0.06197465082463978
0.06412105466234393
0.10688246314739783
-0.021532665083730935
-0.13974717653776303
-0.06664096086042043
-0.015175834355631215
0.010995025538204818
0.0171728166284707
0.01411461717423541
0.012929167008764616
0.020104840639612404
0.034150900415209635
0.0448766455244715
0.03574599377396476
-0.011015087088772772
-0.10779102825294297
-0.055470403946592126
-0.040154114152977406
-0.03432959609675319
-0.0027618682985173755
0.08826774127218553
0.061013944644571556
0.11876577543229071
0.04346697924428076
-0.0003281537618371162
-0.056016183882377855
-0.1628583713934398
-0.14520898076690675
-0.006702978991866973
0.0688006507061568
0.11042418647981588
0.15079349773391781
0.017721748129262114
-0.07028052437154483
-0.10428278012426277
-0.08267209844017533
-0.008743698223371576
0.11031605287922094
0.06317311269417919
0.03419723849017803
0.004862747835554699
-0.042916593659133986
-0.12252189028500712
-0.039295472337007975
0.010151926396001626
0.03540284512045626
0.04737550864114753
0.05314564348504893
0.052629239582931954
0.03862156881734963
0.00045727319798587624
-0.06985595977379029
-0.17138576153620153
-0.09077801412884877
-0.003728520932808615
0.11827046374799925
0.09804725790702638
0.14358839067018647
0.04347144882340676
-0.03096090733965761
-0.11719543939559016
-0.049820160663564955
-0.04953864886408024
-0.1165844652209616
-0.030626350680577903
0.042815538357477825
0.141489885789256
0.0946822612865736
0.11465765041241927
-0.0058210012091023606
-0.08933696205487948
-0.16504505779792167
-0.0589606406455178
0.01303561703282621
0.047466148820162736
0.051049701391516995
0.03592304225506355
0.0146099961093932
-0.0035607566059955758
-0.013923498017834829
-0.01607494407214326
-0.012363996433593035
-0.006116834948541033
-0.00022848489465270616
0.003585122816400824
0.004889251705814056
0.004194407163543732
0.0024489489221136192
0.0005817528836678834
-0.0007808177783490399
-0.0013994514918326784
-0.0013545433853965388
-0.0009038036917584346
-0.0003368207403931578
0.0001269286062175091
0.0003807614382022741
0.00042262894953379863
0.00031732774506188773
0.00015174582484871985
-3.4377305061680226e-07
-9.647005909406564e-05
-0.00012721121356195212
-0.00010699464804755316
-6.0839154652933124e-05
-1.2663548553063786e-05
2.176787394537413e-05
3.6766215429688736e-05
3.4791620148164076e-05
2.2693312083282412e-05
7.96189380304654e-06
-3.8419676777719225e-06
-1.0112708087373828e-05
-1.0927052756584253e-05
-8.034991065367188e-06
-3.6995605475530285e-06
1.9724821253531905e-07
2.6014001744612473e-06
3.311414730579274e-06
2.728082293161888e-06
1.5082968956635594e-06
2.6616304806361693e-07
-6.027826915710735e-07
-9.64638517002963e-07
-8.92803057770844e-07
-5.6895441636681e-07
-1.866314780194912e-07
1.1347242775269387e-07
2.6797315302954487e-07
2.821678530326577e-07
2.0315922049232824e-07
8.981411926638066e-08
-9.91312048448789e-09
-6.992632836385397e-08
-8.609728738224665e-08
-6.948503962901128e-08
-3.730970536700328e-08
-5.320087789895155e-09
1.6576845552791245e-08
2.525972688828547e-08
2.2874022291413196e-08
1.422871719245823e-08
4.318545420530329e-09
-3.301713662293553e-09
-7.0968661068603565e-09
-7.288300409354664e-09
-5.139828374046979e-09
-2.1807548973914345e-09
3.685033985363203e-10
1.863532340577373e-09
2.225321532665088e-09
1.7572509275034588e-09
9.100521218931617e-10
8.714227068338523e-11
-4.637948545375233e-10
-6.708481168709936e-10
-5.957482604142925e-10
-3.6553722009618816e-10
-1.0896695753736317e-10
8.427669246571425e-11
1.7719286695361804e-10
1.7765433593935928e-10
1.1947222843553776e-10
4.232671187136809e-11
-2.2761760616256693e-11
-5.992503708935719e-11
-6.783050660336495e-11
-5.4758300766099904e-11
-3.248895126773576e-11
-1.1344360161553658e-11
2.4951328998520035e-12
7.396902107816587e-12
5.114930755576133e-12
-1.0008953839931743e-12
-7.635480473491405e-12
-1.2529472577076609e-11
-1.4796053116202755e-11
-1.4693391136355847e-11
-1.3123630114037614e-11
-1.1115069913684172e-11
-9.45518446280795e-12
-8.533513433732832e-12
-8.3663397091456e-12
-8.72869470543254e-12
-9.313111587449942e-12
-9.855799633157797e-12
-1.020286032900898e-11
-1.0317917684513884e-11
-1.0250299724964079e-11
-1.0088181001795387e-11
-9.916820709077477e-12
-9.793047402119102e-12
-9.737979883343644e-12
-9.743556631027506e-12
-9.785766387300577e-12
-9.83799319667558e-12
-9.880272540395664e-12
-9.903073965041564e-12
-9.906440892188722e-12
-9.896460965571483e-12
-9.881147961045353e-12
-9.867235494421467e-12
-9.858547462401457e-12
-9.855874281556493e-12
-9.857840495968258e-12
-9.862129120213638e-12
-9.866549921445644e-12
-9.869675838239822e-12
-9.871007691281753e-12
-9.870789065033708e-12
-9.869657563600282e-12
-9.868301281468163e-12
-9.867225695034997e-12
-9.866663110788511e-12
-9.866600550962726e-12
-9.866873883725634e-12
-9.867274516671892e-12
-9.867630769868977e-12
-9.867847853494971e-12
-9.867909186954273e-12
-9.867852845912957e-12
-9.867739616215775e-12
-9.867625698750471e-12
-9.86754686846246e-12
-9.867514820475756e-12
-9.867522366840966e-12
-9.867552612940549e-12
-9.867587790541703e-12
-9.867615119226993e-12
-9.867628959821547e-12
-9.867629950129443e-12
-9.867622500759352e-12
-9.867612034180126e-12
-9.867602922240489e-12
-9.86759750876775e-12
-9.867596123516584e-12
-9.867597719033925e-12
-9.867600703076357e-12
-9.867603635192369e-12
-9.867605620144384e-12
-9.867606386830611e-12
-9.867606143600606e-12
-9.867605337202704e-12
-9.867604425921946e-12
-9.867603732438188e-12
-9.867603393008868e-12
-9.867603383446197e-12
-9.867603585584838e-12
-9.86760385864316e-12
-9.867604091428603e-12
-9.867604226143423e-12
-9.867604256797651e-12
-9.867604212049931e-12
-9.867604133545939e-12
-9.867604058162578e-12
-9.867604008260218e-12
-9.86760399004152e-12
-9.867603997551387e-12
-9.86760401899898e-12
-9.867604042577618e-12
-9.867604060152213e-12
-9.867604068447545e-12
-9.867604068284731e-12
-9.867604062820783e-12
-9.867604055706335e-12
-9.867604049766054e-12
-9.867604046421221e-12
-9.867604045761945e-12
-9.867604047007876e-12
-9.867604049071073e-12
-9.867604051008033e-12
-9.867604052260683e-12
-9.867604052688809e-12
