0
1.2683522165595706e-12
1.5547319525696815e-12
1.2983169955102425e-12
3.104185077273941e-13
-1.346684605799003e-12
-3.2447684353842913e-12
-4.588294894252947e-12
-4.39326704580745e-12
-1.8627736079656606e-12
3.111688137689992e-12
9.497166534973554e-12
1.4965777706646865e-11
1.6290310921193793e-11
1.0412660458112193e-11
-3.950929628486572e-12
-2.4647319267213585e-11
-4.515269858417325e-11
-5.525076966332453e-11
-4.3924292317974106e-11
-4.3196917935992126e-12
6.045865255704666e-11
1.33098397537836e-10
1.8236433595711792e-10
1.7041042175763198e-10
6.75938646447172e-11
-1.2815493153195804e-10
-3.7430809706392995e-10
-5.788130644663075e-10
-6.167121040838514e-10
-3.726246248696415e-10
1.968322714957856e-10
9.998742047248826e-10
1.7763272755217838e-09
2.1281080717845643e-09
1.6353595698516962e-09
5.072635033631489e-11
-2.4786188054267026e-09
-5.2545079838048625e-09
-7.052033527066172e-09
-6.417469073998423e-09
-2.25187928928232e-09
5.4413728008038776e-09
1.4918475035055134e-08
2.2544338330666024e-08
2.3486279967877866e-08
1.340053841426416e-08
-9.143255763603221e-09
-4.026614435356998e-08
-6.960976541035798e-08
-8.168029855652797e-08
-6.050332654452191e-08
2.782630240800061e-09
1.0143044351488733e-07
2.0734976670122481e-07
2.725622110479476e-07
2.4130234552603526e-07
7.298009037442568e-08
-2.2900749778394226e-07
-5.934188608782627e-07
-8.768980434477362e-07
-8.927657236330135e-07
-4.778720061307216e-07
4.133430873593346e-07
1.6181439858462543e-06
2.7247974691134035e-06
3.1309564466930508e-06
2.2298695270966127e-06
-2.9315708475646085e-07
-4.136153386604056e-06
-8.171371168421178e-06
-1.0521751829825862e-05
-9.051052410534534e-06
-2.2661866555808295e-06
9.573646950019408e-06
2.356762354150966e-05
3.406959162741567e-05
3.387713036270201e-05
1.6877731299216602e-05
-1.8306223485880444e-05
-6.48902701956043e-05
-0.00010653385998445355
-0.0001198466753644483
-8.182400511840366e-05
1.859207724837861e-05
0.00016812845426170182
0.00032159892891688735
0.0004056481455803406
0.0003385501353936111
6.5622963906967e-05
-0.00039812890839358174
-0.0009349622998871441
-0.001322782860223971
-0.0012840038156997833
-0.000590067851588053
0.0007976161554987284
0.002598723319051931
0.004167688776717457
0.004600990314401521
0.0030345600633826437
-0.0009047058033742419
-0.006626558263957035
-0.012305955991025902
-0.015066532715039563
-0.011801299157710618
-0.0006148182982325401
0.01742588073165567
0.0368469183349287
0.04740306982254394
0.035418524246998075
-0.013086227089217905
-0.10825290068518838
-0.05281465836493864
-0.04093941708008823
-0.060681838933146645
0.1001765526481947
0.2467021143188215
-0.22943276143035296
0.047532980124239996
0.2399613553519414
0.10425800028077731
-0.19810262380232305
-0.08890870650211462
-0.5655929682324286
-0.2026279227993228
0.2360043272275581
0.5770840077999758
0.621013992021279
0.3389966511130332
-0.708730456124286
-0.5369680040655543
1.705159377322066
-3.037201924519042
-0.5231362866314818
1.7502015231204995
0.8822260141974323
-2.3101026101914752
2.440009011431416
1.4144139184236182
-0.8791155318742617
-1.0498304165211272
-0.3357727902274761
0.08836709402563782
-0.8199716298260493
-0.14203552903534783
0.3895101253508936
0.5452656109191397
0.33841872635229386
0.16805754352838104
-0.01890097660863886
-0.14159703730703999
-0.17814758008407164
-0.14608070768359593
-0.07977865681878367
-0.012220640753076566
0.03537543019700774
0.05596872947420926
0.0534975502745408
0.03726178706344964
0.016687714901164274
-0.0018340493382237183
-0.015615559806607992
-0.024437333083971426
-0.028562237749525335
-0.027211272151775306
-0.018369521287115637
-0.00017266415810263051
0.026598092023932693
0.05601583708938558
0.07592392162133113
0.06948084254863912
0.01968597013381361
-0.08419081019399716
-0.2409306486892041
-0.23602254261674277
-0.04755289319236607
0.1405725808759354
0.3221363538651597
0.45636592118192953
0.2678493089733284
-0.33735472174733955
-0.44244117448586884
-0.28728371429296506
-0.04500696032540742
-0.016883954042814245
0.15218533100498302
-0.15797465949644657
-0.1822243913412102
0.3926940816761048
1.6035808662195443
-0.9918843331660306
0.3082166483918861
-0.0062292244434469105
-1.0088589469667313
-1.903722762398691
0.9758543393697047
0.7321600784000772
0.8449995468004147
0.7170322743086259
0.048440454161719895
-0.14710534732680772
-0.891934565875105
-0.7803060545433305
-0.3260210916589576
0.2597656003260236
0.4560631968358262
0.39464365985542216
0.21516887734626983
0.02915792290166709
-0.09815689581274493
-0.14760587793258845
-0.13312893262370307
-0.08400260736998504
-0.029125573750784714
0.012606784841973603
0.03494704775958804
0.0414508736000837
0.03983792485590956
0.03635838363840493
0.032307506769759284
0.023783977547371448
0.0046330507520509325
-0.028566819564776417
-0.07147745252529425
-0.10938911399947238
-0.11926631832543506
-0.07759146508305033
0.026879583484778157
0.17892677451674027
0.32701912919839227
0.3843685258672829
0.2454843260199364
-0.18234491574321876
-0.740560928260979
-0.7882509918663271
-0.3943340525447442
0.03759175345074017
0.7155102508988497
1.1942289177923375
0.7250849920254213
-0.15831572480425218
-0.611592023796386
-0.8203639597760481
-0.7353193706714816
-0.027271439289038565
0.32296489677102674
0.4009592730882246
0.31532089156172133
0.3534628364072587
-0.048084807223900974
-0.11154075824484817
-0.1053488768520663
-0.11883411297525946
-0.23389374947199212
-0.10247642845066414
0.06460143894870736
0.09601776447730832
0.04773190846503893
-0.015335440897353907
-0.03897994924248131
0.00307975009318145
0.09734542479860796
0.1864679122059622
0.17500550160912995
-0.05419816144821523
-0.21477521953054796
0.01242187221581957
0.005703345775707357
-0.18086061918887997
-0.41597793726198184
-0.10776381056287741
-0.037956880085466396
0.19177438778491215
0.5124291596464868
0.7536165004286586
0.23609431686376448
-0.2028315114551239
-0.5560767062881883
0.41808407677293147
-2.1497539834001107
-0.417227732046731
0.750167944301147
1.3218429922809647
-0.5708808454915396
2.306507325574842
-0.7286196272835576
-0.6502572376338313
-0.46316787520034086
-0.532232046055689
-0.9288891140993846
0.9871734207465414
-0.052253912950463985
-0.2724333792260575
0.6854873800194757
0.7141074168690774
0.21281483676241128
-0.10797745256746816
-0.5938959166010548
-0.5980056375114798
-0.23506479679230669
0.045612111011452
0.26220909417464244
0.2814962763136384
0.18988314528638262
0.06629241391231856
-0.03508248611558583
-0.08970142756760041
-0.09762374448554766
-0.07329772892470564
-0.03510278414843633
0.00198498249331818
0.02936480722893546
0.044039819732580435
0.04580376611879197
0.03427038399546925
0.007067197784945789
-0.04047448477019349
-0.11481451033630433
-0.024155422530618427
0.0200735621705446
0.00011968848728675643
0.08841919587886228
0.24582134139573897
0.023502593754192516
-0.23085266787159256
-0.3643470177767916
-0.011149587776956198
0.2113638773830635
0.30296151881391864
0.08121581055454628
0.38702104418975997
-0.1035134866868914
-0.6646769554297675
-0.7132352718524857
-0.0173821603820926
0.07173998195732412
0.5701679327758824
0.4071581888607314
0.5859240744481135
0.17451801453694915
-0.06733319895380395
-0.631820595796498
-0.19376081255392597
-0.7497412082011504
-0.3843039562910014
0.12727374529882687
0.48248034080006647
0.5960160339827637
0.7464679529716787
0.14475417487833625
-0.46592725685460185
-0.5825760035192934
-0.5023647453869106
-0.08842525750703188
0.24589497343964312
0.3321503096879772
0.2283400247103986
-0.0024292430405803297
-0.10769571394778567
-0.05252959521371744
-0.018830529723900674
-0.0003161668744570562
0.003746639464720507
-0.005908150151754923
-0.024814741147787475
-0.04351535924523433
-0.0491453891090824
-0.029810027956988085
0.01904873917555373
0.08807962604758857
0.1498855361814699
0.16013472925720718
0.06568895593214541
-0.18086514441462262
-0.20397910844676412
-0.19125607327049318
-0.08909806662026845
-0.011497560380093976
0.1386766196243252
0.04069191265011983
0.12658386306295885
0.15908628291576263
0.22302906742026885
-0.06644060571809803
-0.1391007928454494
-0.23234332809693428
0.4522859828041694
-0.20801589328148273
0.1792628418761371
-0.4531323651591543
-0.024802931504165668
-0.7235623288147787
0.15213065835712702
0.12640581850696908
1.064259243406049
-1.1102778513845826
-0.48042509413891327
1.0255089203095473
2.43577119013008
-0.01356740680366224
-0.7750205983846481
-0.8498810755738287
-1.8501178698626515
-2.5091742494178972
0.3233393017064256
3.3991979876412732
1.7346465347712983
-0.32503959591058196
-0.7908085798858636
-0.6474014567883031
-0.21718536615554707
0.5026328313041186
0.3067036278164056
-0.36094828754288033
-0.5665621700911679
-1.0713728458502738
-0.14847607545057923
0.9683802973556496
1.0170664922555324
0.24415875820188349
0.17109899191287223
-0.3974188505710935
0.07448243588959226
-0.2734768337284713
0.17992629621038908
-0.3990632534864323
-1.0659808382912266
-0.7071217487187986
0.3050471204213365
0.41845408456490063
0.9933796107991929
1.8132327238651198
0.6456763162542553
-1.1302802845348894
-1.2409605424139234
-1.2117359948544957
-0.6797114386895401
0.24416967917618354
1.3580145139861035
0.9159296869080581
0.3704159305254434
-0.4631552329917352
-0.6102555081081621
-0.3171323396431007
-0.02379955425015011
0.05532424232061786
0.13691807267312914
0.06215178646512119
0.08373678933561977
0.05259418976939008
0.008221621538888118
-0.025552782078850516
-0.039793705264827346
-0.03634694440558775
-0.022532677534303165
-0.006466125912487943
0.005941417116383524
0.012087118284319793
0.012294978702859838
0.008641789523413239
0.0036612718496064644
-0.0006191868157331001
-0.003129075465142726
-0.0037400213799132975
-0.002961405014626351
-0.0015479148653283223
-0.00017408432037909993
0.0007469446568458758
0.0010964951228324786
0.00097898878583098
0.0006064922287960938
0.00019137624182635746
-0.0001220255364545907
-0.0002789750178016002
-0.0002985329461928091
-0.00023816036928045548
-0.0001567252654616569
-8.896455882132351e-05
-3.746117921408791e-05
1.845443279537888e-05
0.0001025375039090454
0.00021894684321979336
0.0003368166307761951
0.0003905880053158711
0.000300704349695993
1.2638963389926785e-05
-0.0004563174953126474
-0.0009812481710577035
-0.001327612662911678
-0.0012017601885095284
-0.0003575654427121789
0.0012621307246182714
0.003398429084266281
0.005430377794162976
0.006467143875054224
0.005582901245604281
0.0020971768123998783
-0.004337305526430405
-0.014224342332251233
-0.02977421613684724
-0.05796554393498176
-0.11529959178753074
-0.033759894369142264
0.13370138193464073
0.3113415703017523
0.406595343683949
0.12685324000428055
-0.39405082840858774
-0.9669010487634319
-0.12762191549931495
0.26188257718835206
0.38938193522071507
-0.3488280086034182
0.007034938465133283
0.5449933781343795
2.2673700921954842
-2.4945621818427486
0.36146631440956356
0.7654291195744556
-0.6741820866858071
-3.446006906727251
1.647520743744803
0.6300920984004058
1.0645829340926416
1.3728728849033178
0.1977549822191948
-0.37444450509573735
-0.9375284317131243
-1.0641200825971755
-1.2168595463586958
0.49775838634213954
0.9223672298691897
0.8004235704215258
0.11261672365680232
-0.1764778511132179
-0.1478154819409025
-0.13345641988904697
-0.10659561362653973
-0.0657513758269297
-0.020237870608828798
0.019532863616449583
0.04640713158074269
0.05695778606074328
0.050313163482166606
0.027343294033426727
-0.00878783541720054
-0.05098302257446709
-0.08687489986165621
-0.09967785206994569
-0.07270159751232931
0.002376072282898267
0.11541674767585136
0.2298564355791656
0.2818136831784254
0.19023465897187058
-0.12137159948185852
-0.2962446051996522
-0.3183789805910154
-0.5011504059570413
-0.5002477232355987
0.046301498551940976
0.658350632543605
1.1516593456860156
0.19675730341642994
0.11805675662646041
-0.2599258375090366
-0.32805538845907944
-0.3901262347218486
0.6333691257823221
-0.3263290303190557
-1.462268220045093
-0.7241979348742508
-0.5125887667601833
0.3738333975730641
1.3646188888537145
2.7633623046922007
0.6625293561623662
-0.23824110952747507
-0.7089294281159245
-1.5966921779553007
-1.6239817802440528
-0.8383745320101164
0.04493263913101487
0.19978354257355846
1.5698410132160114
1.320584831667408
0.9141209022548916
-0.15533143239015568
-0.7536875238063698
-1.0433744378810983
-0.7981923355443903
-0.13252047303451653
0.3323444620843028
0.4613398009302225
0.3710231362132635
0.1867323184069989
0.00831046909018397
-0.10697813205067035
-0.14427992697850273
-0.11932119658608324
-0.062293093250470624
-0.0035532887923982195
0.03553917288351405
0.046125814752125245
0.030987750568479994
0.0012194240513222962
-0.02802284230141181
-0.041903390984988326
-0.030195070638237606
0.008701553865114472
0.06463856260618527
0.1147514059239104
0.12612219772350416
0.0628836640355436
-0.10318727069169047
-0.3819259583849407
-0.3590053796044716
0.00026518088634985723
0.33672629822740047
0.6776559207692652
0.2206602716921079
-0.27069670631237197
-0.4578348366791558
-0.41089892103301917
-0.3953552765749372
0.33159381623050554
0.5160366776810051
0.5034964132187136
0.8492922111965439
0.5517482392446594
-0.2950414498761179
-2.6480663048869117
-1.6939784138221483
-1.0914339304540444
0.911260551688756
2.708246270796106
3.7777913942189723
1.0044591955236215
-0.8719677445432363
-2.687195041285119
-3.223592476010912
-1.2091137731439043
0.7844248291587634
1.5196032177017804
1.376381597481278
0.7988169361207577
0.16392702417487237
-0.29229044453421377
-0.4861190308708544
-0.4511209685977179
-0.28249683065597986
-0.08412520530385302
0.06732144388125698
0.13702154926304538
0.1290012805529411
0.07277801471485172
0.006961027744477196
-0.035063545912048064
-0.03491818682261338
0.005999573161577252
0.0664503259633392
0.10966664166535854
0.09177041084088072
-0.026618388234092127
-0.2679800616716437
-0.22874807427844376
-0.07790317074188784
0.034082399133580216
0.15722957882918037
0.3203136231167172
0.11284869626299883
-0.12275096897544271
-0.08594115114898802
0.0989664212023748
0.10757811504693295
-0.1568977972791236
-0.1379265124378283
-0.4067529476622228
0.14552977213330723
0.5033577688037021
0.5115166035115871
-0.9468298920619529
-0.3772428482176143
-0.5082294641803788
0.265768632837856
0.8378243420237682
1.3527959555111866
0.20043841896747672
-0.5518769263525315
-1.0923639562523948
-0.9857057427000675
0.09095613665252224
0.5782030192897393
0.629047807141179
0.0809711405160869
-0.17779398646682587
-0.2363377942451481
0.01947605925711992
0.09413973877655439
0.07384658139152922
0.02146351002412998
-0.024454005474385386
-0.04671264345114824
-0.043825999703413415
-0.023520579239706504
0.002940748127622009
0.024758857587691696
0.03394825967653404
0.026612891012985702
0.003746644270242206
-0.02827605163737817
-0.05796600762953271
-0.07060284958162558
-0.05248359024863757
0.002507710377969719
0.08537078066706245
0.1662214597822714
0.1936796541321871
0.10207985601897293
0.026736487633958084
-0.27618544274120405
-0.612229922243988
-0.3421480358868572
0.20773008056146847
0.31916459105903017
0.4489430430106789
0.6033909215303036
0.3333129884605491
-0.44566267661957426
-0.8136096031726489
-0.6034976634612387
0.026667764592352275
0.19516799154615502
0.4719737388160885
0.4395112949991217
0.05383002823350515
-0.3825284540881324
-0.4323238768289707
0.27717771903670513
0.46330620396406075
0.40357810083595524
-0.44219091518575704
-0.40553579319178357
-0.5859116268264214
-0.0394858721266023
0.21461986188942797
0.7740193669917979
0.429764739653056
-0.047242687179658224
-0.5033042825876938
-0.3853408364349462
-0.12085485618098211
0.09485115512238797
0.0988990349428483
0.1500875689907341
0.1130677674345222
0.04386965906891735
-0.018923172099962103
-0.056123530990521676
-0.06441339972461724
-0.05014099815591859
-0.023271704444189287
0.006658452840578268
0.03211589619356489
0.047391967680505374
0.04801979582942918
0.03104013656565159
-0.0033431957537736353
-0.049239601664230324
-0.09320744935026179
-0.11507718788148112
-0.09310200681655183
-0.013643474509633062
0.11665172401435742
0.2605944796481425
0.34789656718147527
0.2852619864959389
-0.01969990839039006
-0.625804101018434
-0.7283492495892655
-0.4462218489954788
-0.03632225691989299
0.4652161346173597
1.188592645016117
0.9847069304440196
-0.19140215059652366
-0.8606126512318091
-0.9739567647655516
-1.06465809073704
-0.02093048182454614
1.3119874684541724
1.7120465980297075
0.5672392978419412
-0.3102731101494913
-1.4420010511970682
-1.636171878007012
-1.3714984414983193
0.16137125139441277
1.760399458097772
1.8859332046034338
1.3582150880711834
0.12426655568213747
-0.887932218734069
-1.6464765626999187
-1.0693467423535408
-0.7063578342722321
0.3152604784647866
0.8741167276934191
0.7856055127996995
0.3135347689092792
0.09391863056053686
-0.11028332328308633
-0.22024454784838873
-0.22641213417060813
-0.1608139272195574
-0.06882275444231083
0.011479551075707068
0.059287261300702096
0.07156241853103877
0.05756341706276516
0.031409077052464984
0.00577872494160228
-0.011651476959283449
-0.01886785021416924
-0.018067576345448314
-0.013270706097959004
-0.008076315133563534
-0.004276254659641234
-0.001595837525262049
0.0015592261573192663
0.006748831759868348
0.014093657117847656
0.021411911919543305
0.024391869565089694
0.01803666049440047
-0.0008066244495482653
-0.03055835720031619
-0.0628846277337581
-0.08299977717796737
-0.07345406293397887
-0.021583768587505405
0.07078573620712612
0.17855107651967145
0.24978397965914811
0.21141998133566214
-0.014262556271603069
-0.285128508957858
-0.4141086824308202
-0.35374902765621674
-0.19917786155180714
-0.012399040298903112
0.5376731558066741
0.5327864324371016
0.7773876176662778
0.1987619604052802
-0.3211493790516555
-1.0924103993942655
-0.7637712349325799
-0.6935536975695332
0.24009912166310585
1.1919919507782342
1.0857820007044248
0.361634112579413
-0.2416378541905281
-0.6644245624802932
-0.8773416716648537
-0.22869346719970463
0.19081586874762962
0.3569572954736831
0.29840508555821355
0.07240861854459597
-0.05851393575107049
-0.042027676567674956
-0.04240506788872898
-0.04025633266425679
-0.028828236942012253
-0.00948874605920959
0.012128820361292909
0.0289068079725231
0.03425219709368327
0.02388481289825045
-0.0022815300804667287
-0.03843465679635148
-0.07224530895759602
-0.0865682316022265
-0.06438022702511896
0.0032243171978581482
0.10784501538701216
0.21694964309752401
0.2737709884921948
0.20728135536610826
-0.047703160711609814
-0.5253225845350985
-0.8083248829870127
-0.22409635709910639
-0.064108963920547
0.5764517396086879
1.1537894222241196
1.24680210886933
-0.6376660578939651
-0.8224280549263135
-0.7962501765088165
-0.7572789631366713
-0.5904264624508372
0.7091630792137689
0.9744188057768902
0.5903375554489335
0.2327134629107711
0.04304900235878239
-0.15434764664807088
-0.4023371777000627
-0.5466998850029511
-0.37840632115576844
0.001450213067574881
0.1871301418010119
0.24763251404226072
0.2911857205931638
0.2285009319894391
-0.054238516447474114
-0.10744797471594153
-0.11620853681618266
-0.08944876276869594
-0.046513283579721273
-0.006027272294930928
0.020505114848434806
0.03023611775036143
0.026993019858045572
0.01766862503529231
0.00867799738984878
0.0035903216073203755
0.0023831600030329242
0.0022246599359486527
-0.0006709884586485516
-0.00877573208099191
-0.021326928198891676
-0.03351184821194271
-0.03736494930650048
-0.02460990749632118
0.008954363315050534
0.058724508740809096
0.10813044244971755
0.1291727839754014
0.08812814862699785
-0.043839291273688685
-0.2778994457955935
-0.19759605664924684
-0.1573024892171494
-0.09269904063523306
0.05740266733263749
0.3235824547539906
0.2822060177210053
0.4462241032295055
0.2781226131467891
0.02626506853047851
-0.42296930077156825
-1.0933330377758896
-0.8875723808257604
0.006158233881210464
0.2661942769181477
1.3611830159183085
1.4736703431502687
0.05357704912877349
-0.9809686445433525
-0.8000311119341701
-0.9992357467075482
0.05303425494231763
0.6403075288183312
0.6942606678909498
0.3763184568215021
-0.1385690620484018
-0.6666223971445198
-0.21008182945363493
0.04933693491827161
0.15075734905181418
0.1464076454511468
0.08948006971523438
0.023018617261690466
-0.02632291344432734
-0.04868296947824083
-0.04694307674266132
-0.030701063712259447
-0.010613202523616716
0.005410705764186139
0.013723122869810162
0.014554994548850416
0.01054160377670345
0.004996337184733967
0.0005439785338212037
-0.0015924034389025758
-0.0016364811316464292
-0.0007993533847613836
-0.0005543261446202413
-0.0018888745672231428
-0.0047497754554735264
-0.007858563229007584
-0.00901828310004171
-0.005937552642069442
0.0025510466403548294
0.015188791601765696
0.027380889847209433
0.03119983115619346
0.016647961459410398
-0.02590633657578348
-0.10278652032793084
-0.014665629403652855
0.04414467010484591
0.08442584039589594
-0.08068656757967252
-0.03900780229099441
0.017559569303215
0.09057514859338203
-0.026074547181376913
0.05477988189594599
0.11711540870628999
-0.052535909800443696
-0.25858225874832047
-0.09156213571042904
0.0724648304098784
0.06732349482236308
0.12837995247356063
0.08368247336253669
-0.05222799179510139
-0.08028217699606856
-0.015098636648499005
-0.08117646719919798
0.09124048105376993
0.0698554579058937
0.023741604106624556
-0.07308998700345747
-0.0381436661226639
-0.07787899584006132
0.012687930082711145
0.047710977831427054
0.04617893240451172
0.026990639908228233
0.00502587537416111
-0.010806577310543429
-0.01744994716043989
-0.01611878264112532
-0.010153654632051244
-0.003107125410010314
0.0024702526243955045
0.005444253438465254
0.005890071101776647
0.004572513565794769
0.0024120529297442478
0.0001345696838998785
-0.0018308118186680547
-0.0032581647828752278
-0.0039576732800675725
-0.003669138696315644
-0.0021085421591848204
0.0008197972545404134
0.0047274008992997454
0.00852271121224753
0.010458816292322587
0.008588207896147507
0.0016252185932405766
-0.009993517937790285
-0.023280045784657387
-0.032658203004764325
-0.031212057745224845
-0.01337035287987699
0.02142520329473708
0.06523221765563553
0.09999542679872077
0.09948869721443027
0.03563557348301091
-0.11166519116130923
-0.14415054673446204
-0.23867580007832398
-0.14888769352524475
-0.017153936725094368
0.205149647101144
0.3351619920144985
0.34263042561166945
0.14855615465854377
-0.1581702721440447
-0.2895168447197618
-0.32195923625624
-0.26713151800535395
-0.059380355046611044
0.23579305160211472
0.19539896037239124
0.002835496550457796
0.01155564147857009
0.1163576423233676
0.13711165263186018
0.01699999859966858
0.03501403527148024
0.030073519330023488
-0.16818364467682612
-0.30855435912780294
-0.09430164608059051
0.028618477664009902
0.06935235236307515
0.07837343773806373
0.1275268890824486
0.0900351745705734
0.0253779296050322
-0.028394237304515284
-0.05494394493268625
-0.054592756644919305
-0.0369215424605388
-0.013787372113298503
0.005484112961856704
0.016188549199465954
0.018048146198189195
0.013676316982557541
0.006693443904729971
0.00021828683333296211
-0.003928956781170562
-0.005323212396443274
-0.004556869161370702
-0.002679330641660253
-0.0006960430830778932
0.0007368623976748063
0.0013956060621980535
0.0014008768854077006
0.0010452512241227064
0.0006193799456235363
0.0002947659333320366
8.779550195701489e-05
-0.00010005633029089977
-0.00039214305652176753
-0.0008348252697763314
-0.001325176394989802
-0.001603844753704618
-0.00133309399503237
-0.00025367867962564815
0.001620416626760382
0.0038448857784882475
0.005521026822346078
0.005487719247905597
0.00275480933291166
-0.002898913075238819
-0.01036352776158091
-0.016969722004478376
-0.01890251817459397
-0.012432614142929404
0.0041492438814254035
0.028402848814229158
0.052280417060274455
0.062328042282904964
0.0422226791147866
-0.022510746354055526
-0.1389502560013018
-0.10281554584480164
-0.09877127678588382
-0.10660630144910256
0.08740326374761055
0.2774650742858275
0.22930159699384026
0.2812437375374479
0.1588071990403836
-0.19907383549893504
-0.8103014366399662
-0.8290863685713887
-0.14674363391166528
0.5820634869645429
1.296614696859229
1.2908364849199494
-0.8024063871486842
-0.9961721428595434
-0.9151707252647013
-0.5660684842857868
-0.1324576245690065
1.8020576454838981
1.0179227676852176
0.03513509157524376
-0.8821599756793841
-0.6923129939401419
-0.3310864061369876
-0.07644356730886935
0.26331045172828604
0.33762244592340646
0.2274595535116079
0.017207218990868703
-0.025811204942144658
-0.06039679284408957
-0.07040945286379215
-0.057556282592991614
-0.03234414106025103
-0.0064068460320849405
0.012177186474811244
0.02041759056696872
0.019604989329901866
0.013355744580759039
0.005592970103263035
-0.0008407112462572943
-0.004698618787535258
-0.006099028517183732
-0.00587566400690136
-0.004877303541226509
-0.0035044511268073767
-0.0016280660218843512
0.0011222575790117446
0.00485086754953042
0.008912574022434738
0.011723403626671595
0.011077439192953833
0.005026947119644667
-0.006854332312190038
-0.022271554807129692
-0.03571802589694562
-0.039344040270386155
-0.025541218746542804
0.009022732756376614
0.059013158515320435
0.107524345868023
0.1267574251687145
0.08372895600827025
-0.0492506682871702
-0.28202556631087133
-0.1968337750556621
-0.14670825894508843
-0.06531885393404492
0.11276048713948447
0.4272033412321357
0.27161397404128224
0.1868507481666383
0.07320190376132099
-0.1800658005661648
-0.4562267736665915
-0.3766127207380491
-0.28312405169558885
-0.04588093731865078
0.10422481667539059
0.5272550652219236
0.5256118062298869
0.3115031027064291
0.001929361418452153
-0.15691368451715243
-0.5443893197856188
-0.5150652223445997
-0.16001563694882137
0.10885773651437071
0.3495561690221897
0.262961283017023
0.16002447852577456
-0.06584511292068486
-0.15516972491012332
-0.08713783790855643
0.12429035195729644
0.0393199934325498
0.0037946085088885737
-0.03842736374615576
-0.1339461938298322
-0.11138520344952875
0.021921857153121144
0.0774342047918466
0.07838828832052051
0.051072323595689445
0.01742409977604787
-0.009054621660761616
-0.02364699168234796
-0.02794257949957777
-0.026123720968773897
-0.021626229706210098
-0.015327826019323995
-0.005729422031914086
0.009124553674709636
0.02884612085232007
0.048262091871232024
0.056611185383937807
0.03926918511223638
-0.017954491777857608
-0.12304721902653491
-0.07266510528325161
-0.05006262043089969
-0.027699642841661466
0.025554363905787192
0.1346060899233603
0.10903936330119886
0.13825160032772954
-0.00687415478813069
-0.16586660639617729
-0.17692875355100102
-0.0660034709055713
-0.04065826896118983
0.10956600568700749
0.2077290205329712
0.0824302670661128
-0.03741146549544874
-0.12438681772272817
-0.152121514390301
-0.0952261283749478
0.0680089902113193
0.14999093821741222
0.1475599783186785
0.0385697361281703
-0.01606671080193273
-0.06465964766902832
-0.15372790031148573
-0.11749516743124373
0.028592069743429135
0.08862791565364966
0.08200002240414854
0.03657445909467197
-0.018011374426584195
-0.05534463320333949
-0.0553416512455987
-0.006118257145508192
0.09481441042324802
0.040162675617466004
0.013959258155017687
-0.005312504940392066
-0.03990991711730971
-0.10761970122404098
-0.017859013597560536
0.029578559772785736
0.04285910042718248
0.034441192468610604
0.016975288345753792
0.00018624121566550536
-0.010546301830070869
-0.013970883169304418
-0.011684567887776208
-0.00651599128293768
-0.00116021785995061
0.002623324495948553
0.00421799001609707
0.003921561218033229
0.0025159409088727565
0.0008441184104106788
-0.0004761384571357324
-0.0011628408233481243
-0.0012347608421039613
-0.0008953189157915266
-0.0004014369043551852
3.618067556854716e-05
0.00030175797915578124
0.00037568064466308516
0.000305295263571755
0.00016555453741564423
2.5507858324808948e-05
-7.10608376578288e-05
-0.00011000614225253747
-0.00010034639830512451
-6.294403135532558e-05
-1.9650089020592086e-05
1.3872472114120198e-05
3.075993752640619e-05
3.185602620306485e-05
2.261769315086687e-05
9.719033662836985e-06
-1.476592965339667e-06
-8.106676675196607e-06
-9.782191244189229e-06
-7.798828112754624e-06
-4.113147599391732e-06
-4.901146588746309e-07
1.974441200387325e-06
2.945217133759314e-06
2.667023445381589e-06
1.6708023116185255e-06
5.023402150120872e-07
-4.4745799882887844e-07
-9.94217761826819e-07
-1.1231889278130998e-06
-9.139477235717703e-07
-4.7351005099948673e-07
9.481085560069687e-08
6.848280164516249e-07
1.1629518004652421e-06
1.356534840940311e-06
1.0825136115940477e-06
2.2593720431157815e-07
-1.149932448777696e-06
-2.7094054455027937e-06
-3.831481345209947e-06
-3.7375054313067044e-06
-1.7792896059174717e-06
2.1630597101747495e-06
7.309302405188512e-06
1.1834723101581673e-05
1.31585636752856e-05
8.775039698707663e-06
-2.467990151406865e-06
-1.901392953111481e-05
-3.579037561743545e-05
-4.46666464648873e-05
-3.668478862436694e-05
-5.99396494896275e-06
4.546223964210286e-05
0.0001043788466439779
0.00014605121147359215
0.00013993258085878043
6.129660790410678e-05
-9.319918937304112e-05
-0.00029145463482143486
-0.0004611740107845234
-0.0005021613814808148
-0.0003194968727395102
0.0001266423341817612
0.0007694193856799368
0.001406452984204428
0.0017210380527650912
0.0013721365613044863
0.00014874671744596966
-0.0018500478084963108
-0.004083276152805716
-0.005577879173932476
-0.0051585236445798495
-0.001914279856155511
0.004185399888267221
0.011732917781739814
0.017675083982429868
0.017734614887919997
0.007578452885170933
-0.0154581360175688
-0.050658141294359374
-0.09304547406202461
0.06593595488930883
0.03607345001967423
0.02513457142412354
0.03607345002219708
0.06593595489385601
-0.09304547405654301
-0.05065814128967871
-0.015458136015885868
0.007578452881777976
0.017734614878462146
0.017675083968113632
0.011732917766707035
0.0041853998793452895
-0.001914279851181743
-0.005158523620201542
-0.005577879130939476
-0.004083276101565681
-0.0018500477694293803
0.00014874671807092968
0.0013721365009037002
0.0017210379257015483
0.001406452814404014
0.0007694192320061644
0.00012664228171331904
-0.00031949673941503794
-0.0005021610202353112
-0.0004611734673554372
-0.00029145407127305394
-9.319887175021363e-05
6.129638033225536e-05
0.00013993160379861938
0.00014604953141308211
0.00010437688350430528
4.5460796585636566e-05
-5.993874886217909e-06
-3.6682319958025005e-05
-4.4661635184486976e-05
-3.578381556246624e-05
-1.900815466073887e-05
-2.4663021734761936e-06
8.76943675876779e-06
1.3144199175209884e-05
1.1813590651242277e-05
7.287888138192972e-06
2.1517533975247294e-06
-1.7690490346585435e-06
-3.6982582395706627e-06
-3.7657329323084185e-06
-2.6341757133227043e-06
-1.0967927470103542e-06
2.1797691098828634e-07
9.819119718035471e-07
1.1590982916887749e-06
9.097747364462251e-07
4.683272477816041e-07
4.2970017763232076e-08
-2.3956910837083734e-07
-3.436388141140914e-07
-3.023324203387001e-07
-1.819213099411469e-07
-4.900481472388244e-08
5.037758829222452e-08
9.755171639680362e-08
9.698155398651052e-08
6.637951787743822e-08
2.6317641283737438e-08
-7.237534026705047e-09
-2.6212312061719827e-08
-3.004468978313937e-08
-2.3100850615722343e-08
-1.1503746171958586e-08
-5.786119750745483e-10
6.514605842112251e-09
8.971375255087178e-09
7.728399987480024e-09
4.5320437184115295e-09
1.096413406817568e-09
-1.4192958728315915e-09
-2.568470088873527e-09
-2.4946395194891063e-09
-1.6699869283992106e-09
-6.27409504235688e-10
2.2794891100929702e-10
6.981135780406945e-10
7.779300328982085e-10
5.858610665004094e-10
2.8165340550491443e-10
1.3675487828734692e-12
-1.7634988070107607e-10
-2.337111061488421e-10
-1.9699776882461656e-10
-1.1220113193781138e-10
-2.3461349724287822e-11
