0
-5.171267473157867e-10
-2.9858121352443266e-09
-5.414325683989242e-09
-6.582534088226722e-09
-5.18320250377653e-09
-4.156675869566404e-10
7.325551023555789e-09
1.5951456022718365e-08
2.17245415311843e-08
2.0143859542008197e-08
7.7200447447751e-09
-1.5717907859470153e-08
-4.501228935947083e-08
-6.912554041694542e-08
-7.31669169079061e-08
-4.3494415738640645e-08
2.48373861012384e-08
1.2059237112070875e-07
2.1249797987396116e-07
2.530271338340777e-07
1.9238583070257387e-07
1.7367554801835758e-09
-3.0042524729563675e-07
-6.299147220365506e-07
-8.402148825692838e-07
-7.585047539246284e-07
-2.555607739269619e-07
6.652541591253644e-07
1.7926906933834565e-06
2.691056863649154e-06
2.784661687656484e-06
1.5602665436092248e-06
-1.1437320745767278e-06
-4.853561446038543e-06
-8.32476451234824e-06
-9.708162213262717e-06
-7.110163661085279e-06
4.998153563557197e-07
1.2280545737984679e-05
2.4847100073036803e-05
3.246256646064839e-05
2.8500140655795714e-05
8.192417584204002e-06
-2.7939888991286823e-05
-7.127517418454538e-05
-0.00010463781929543112
-0.00010579764265829097
-5.549153282680653e-05
5.136111664934802e-05
0.0001949225375452891
0.0003257494276159528
0.00037197520851957886
0.0002617114277217923
-4.153797835407455e-05
-0.0005003493803463245
-0.0009789190666952797
-0.0012528885099509066
-0.0010685116797665127
-0.0002506404952146758
0.0011653635696341677
0.0028289330077987504
0.004064242767517578
0.0040147545768824434
0.001960951395060376
-0.002244668714286567
-0.007771516553454085
-0.012650621317753031
-0.014082098720334153
-0.009331608386608748
0.0028807503344431607
0.02089004830501684
0.03915433622735613
0.048633806263041646
0.039002152105481455
0.002576680117300388
-0.061100029042653076
-0.14206567684046903
-0.220641383593331
-0.07389951786084106
0.11237642633011176
0.32975851037881687
0.33765179801780837
0.26500161412056716
-0.17320750365721652
-0.24732236506095537
-0.3813904309802183
-0.33107453159051425
-0.18211438338049032
0.025703561272647266
-0.14763005539025664
0.0004277651357806878
0.6635893152337338
1.7008444991746487
0.4537672252835662
0.6148228706415013
-1.8645727725107322
-2.0599433402081817
-2.0008547749144987
0.12053557057969774
0.84890060668784
2.9029315892857346
2.010709528331309
0.20746282640638478
-0.7663672403004254
-1.571907493057485
-1.326188305548881
-0.6612901850144532
0.16586312108718612
0.4944489665569703
0.6209434459572928
0.5277114051778375
0.20940619798160506
0.019590794802646166
-0.15300228485549744
-0.2812036668185643
-0.1792300906895228
-0.07760621753559585
-0.0026725211222561342
0.03451647036976862
0.039610722620402355
0.0293121028752929
0.02233791216718463
0.03048574287554426
0.052490559343904626
0.07240409809391564
0.06318232087816408
-0.0050786044381769336
-0.1542968274470127
-0.1883606462653768
-0.08779508230612149
-0.011934514522662735
0.09129836662036281
0.27109207676769614
0.1600929592461087
-0.033641762999885624
-0.12671787646506752
-0.1538303307684529
-0.15859240715947606
0.013900472737144882
0.12053198491406925
0.1204744680946557
0.1754161521448616
0.05298450422239938
-0.06527320589925859
-0.17306698317356103
-0.23013148216895957
-0.15993329987812507
-0.058043076343711045
0.18887958553952455
0.27799032022215064
0.26664460387148453
-0.04208872045057607
-0.10037568270035124
-0.20354324601140214
-0.06947836372554628
0.18482075944263396
0.2652414396445328
-0.08129636564357101
-0.4546333428483975
-0.398567199379455
-0.21148133331575833
0.2286090334365367
1.0301824700929731
0.2573429179631661
-0.08538645625254995
-0.2465655005200025
-0.5041397104991591
-0.7369431991640295
0.3955181655386338
0.45833477970840675
0.23412250861284503
0.11245665846990757
-0.11574939935758399
-0.25599615207304327
-0.10307315195939776
-0.034750168311533824
-0.010896441456200506
0.020556520019288448
0.11257731175707025
0.10658077754860597
0.022537028132704924
0.05459154035315243
-0.02676292118577165
-0.06699987243023284
-0.11694911701041245
-0.022432553175791528
-0.016763234362541457
0.08271610976172578
0.07452087185790351
-0.0291755701957222
-0.005370631902733681
-0.02303946710825666
-0.04614763875559558
-0.03746203342064052
0.03651128545326622
-0.00019648211217592027
0.06154123653526776
0.012273434924135499
0.023454176716148564
0.05089381126966015
0.04215113051529598
-0.053102427012126766
-0.07166213663359935
-0.026972024030810678
-0.103732329929618
-0.05908570594488954
-0.031131952108921238
0.04630078071940148
0.025556994113080655
0.12807698502402318
0.13321550957536987
0.1771775806057881
0.16437773073212603
-0.009590377690217674
-0.4281091342411315
-0.5251156105150933
-0.0675719934934357
0.8446460473933511
-0.8389051585389977
0.25072096390815746
0.46726486080194735
0.1178057030182896
-0.7590197945317503
0.9992281718768553
0.08651388612558128
-0.24969619039512028
-0.37636572273287766
-0.24054063838654646
-0.14246658299520737
0.07650330801375417
0.22975978550715395
0.16944138089579455
-0.03405264022349083
0.08971881112368295
-0.0008511863217281212
-0.06475006630359867
-0.07857988230966262
-0.0344089344616917
-0.13787696634054483
-0.008115924568383755
0.12071551920359894
0.1983890348083234
0.1613561001132452
0.14211839320815733
-0.1144904509592824
-0.23169091714832454
-0.38488099092549377
-0.2977118123559605
-0.2558188969926387
0.2621542917810026
0.5444318986347235
0.8114660544567506
0.4026727194859934
-0.0056289413027557555
-0.753516478745739
-0.937826826449079
-0.5630121186483267
0.07698641538267051
0.5779725035134917
0.37390647671762395
0.2736090625960769
0.0065366529235806594
0.39222182436771597
-0.26117444431516507
0.06809167173129041
-0.041733260155390056
-0.20665537865400127
-0.7938281763952212
-0.09542028588103027
0.2743762426986461
0.36062791025462126
0.2364348708194842
0.1720865245332924
0.015230540335119834
-0.013466734939333718
-0.11123906898121275
-0.2773594234188102
-0.29889147364432206
-0.1452592421769732
0.0250774539188099
0.44825397091508284
0.5366885591701537
0.26869618349213936
-0.20720704666016218
-0.5541732934361022
-0.8241170383025351
-0.24250245222083497
0.5912137120465938
1.0901118279618283
0.8657879840167068
-0.4725066466246473
-0.9018781189394551
-1.1644654601047173
-0.9614160504440857
0.02221690564531356
2.464110246677385
0.7464123934357364
1.326490823130769
-1.0388411981296666
-0.8167862854829607
-1.7980696136482788
-0.21416671775424925
-0.9069089631592557
1.4375203804746823
0.8048223006674161
0.9521434487705832
0.3268404109214372
-0.5723978843895652
-0.7894160150865528
-0.2742073413692006
-0.23759124204864138
0.2867945470797126
0.6679627431018083
0.2946615208501861
-0.40908209310792215
-0.5673445463689617
-0.23863793100540906
0.18788048735924381
0.3828649849653531
0.2570970444645097
-0.060964969002938324
-0.24412415906064333
-0.18009660011283743
-0.18187124670994761
0.20295955342478922
0.38452159636577515
0.3285646942284751
-0.035474190706000684
-0.1950590080617137
-0.4284312611318952
-0.3810491575165735
-0.05412443535832187
0.1899367500116302
0.4078137037936364
0.25014299950547786
0.14165730575200797
-0.12606557246647163
-0.18823182698175508
-0.2917226992254441
-0.07887226193777139
0.02345470996379727
0.20704794774493912
0.27970256985048436
0.06094701072073222
-0.2205248887713751
-0.3276643830701171
-0.2172115143118202
-0.046576569143042965
0.41447795492984313
0.7723250411920776
0.40600501313771076
-0.5229648090170708
-1.2505505313903509
-0.5918498444304681
0.661876555046117
-0.27414011576466313
1.7933801354917276
0.8150718355190336
-0.2970974535420903
-1.837893513021323
-0.26366817887823707
-1.1590684668978897
0.764952921427436
1.2407975699024538
1.1996228102309066
0.13820893863955228
-0.8856233941952739
-1.0313681467986453
-0.8475738919240277
-0.060462596636442684
0.6084254250594879
1.0020927528902182
0.6865469936037392
0.33138926504140337
-0.674337228920797
-0.5748576740019866
-0.38698682672073886
-0.24874687129712328
-0.19425243716238205
0.23961779631670888
0.38065926596683036
0.37636229895487305
0.15202516487554166
-0.01604830739574578
-0.10739804723770655
-0.14684262583885013
-0.1838625759286439
-0.07048084274053817
-0.04435701264007648
0.07962844732407846
0.1095665228923265
0.07118044257749731
0.0003158071705597332
-0.06431891535818245
-0.08742152841344872
-0.04292645192329279
-0.12009139884314257
0.07052328255930829
0.2932782691951877
0.28943630270242376
0.18834409974114646
-0.07150027538749232
-0.5159130822380661
-0.5126049674680893
-0.3643367418914217
-0.1253580071955381
0.5600569438935955
0.8085471183344735
0.4562879903431521
0.04227317906886269
-0.1761612492075041
-0.5811249381566815
-0.5412362144820705
-0.1670119823874844
0.11121830633881997
0.13847364861444686
0.20883106340837962
0.22907459889185303
0.08442350071412952
0.015357076647325342
0.009717213445287627
0.009601778261114661
-0.0707847533989758
-0.12191497444425753
-0.21635918522691053
0.00796798551881883
0.1556085637025678
0.07210480726047477
-0.16470253603734503
-0.057842600664116284
0.09352038321982549
-0.021155589356531224
0.2635826218527308
0.182145630539404
-0.06144490651021811
-0.28559099777315283
-0.1193677848180722
-0.1923806043904829
0.06932181726021082
0.24024830691176377
0.08822275992829674
-0.03212582754728779
0.019328643612453934
0.17428183797672855
0.16911886795782569
-0.23734571452217387
-0.2459681761561161
-0.20541318882170692
-0.21251790137110785
-0.1281529629100798
0.393421840107882
0.4693176975711136
0.1578874439860793
0.04375114132088505
-0.15737271362044009
-0.1765873171326379
-0.1604600030340763
-0.03997084831012823
-0.10751197965947046
-0.0060562929854167625
0.06914320910498699
-0.041103354750053056
0.12282957833063468
0.22154435502925152
0.1026906524493075
-0.2062467826858002
-0.09831969708312645
-0.1831061829386895
0.11833708130413986
0.17758883724439153
0.16243477186716473
-0.15843081644885504
-0.008763498939807228
-0.19753056764373417
-0.1139417291536404
0.07277323258006907
0.20845610165459347
0.14605789116719292
-0.06213683322290103
-0.16985835509381683
-0.13987129204746404
0.05355632981993794
0.02130920358718756
0.15571215305477215
0.2287680569561044
-0.005109311884075409
-0.20106685426947632
-0.21256334046250172
-0.08120171034263822
-0.03183766251206778
0.12544835006841026
0.18847435762969425
0.15557334077271148
0.02219684720618817
-0.016223352524956634
-0.1563023797739467
-0.17774409603431132
-0.23871238938718528
-0.07965125905367287
0.16366936664591164
0.34148573421368494
0.2728347996129436
0.13740996649678808
-0.11921227753931318
-0.3684485282195562
-0.2765104273269719
-0.08599247953977496
0.19225275856373006
0.17570211456838952
0.09891627223281002
0.00017311186978346993
-0.0895944455151576
-0.15395662223571252
0.005189920507413986
0.16621641740021648
0.08896875956042247
0.11990521663158066
0.0022235182694118013
-0.10984581047902484
-0.2358902312331154
-0.15822553759867625
-0.01936566806531894
0.07006358870383479
0.21483176789597483
0.11494164271945329
0.04755144474283776
-0.14486470905846746
-0.05887961778326414
-0.12821173318850168
0.18251720227937362
0.1874004494651671
0.1925356953796542
-0.08685443777291024
-0.30751203265035204
-0.28255829535266846
-0.17584892828950308
-0.11097745341564727
0.20542823106053187
0.45250350291401886
0.26662777833167567
0.22636872547839146
0.057279234828651326
-0.5444630925702487
-0.27783137727996365
-0.004212856918516723
0.0730403451049372
-0.38887572384899854
0.11260519528235391
0.09729442787080234
0.2689978483591507
0.28676893225670247
0.5498392411416015
-0.1983391949600413
-0.4481900392552986
-0.4928932705470868
-0.4010403496337802
-0.00419981941463038
0.6972583178928505
0.5162902863227838
0.06115632478645086
-0.27251578342290184
-0.2969359374032515
-0.22000099653268698
-0.03450656551326281
0.0848709601582946
0.17562408584708977
0.07586023609389922
0.01235705532441504
-0.0074608072638567705
0.002383136065400164
0.010078037388172372
-0.026018809221356763
0.05290444618459057
0.01662458517655707
-0.14559073407162967
-0.22074987027529136
0.025786059063806786
0.041217071025636445
0.07089649205058995
0.14270335614213445
0.05540968901965617
-0.024411594904981442
0.8455858497774129
-0.797834440248994
-0.19828936239505487
0.04421128777922753
-0.01306486500112629
-1.0588844104203121
0.6500536310601712
0.25305768355114916
0.4456281568630282
0.44983317435101916
0.20677850119685104
-0.20480214708659197
-0.5302319974522363
-0.6957660047752068
-0.5783475604827132
-0.0009521111209120092
0.6453637672639229
0.9650444761182627
0.7281891231560075
0.26661835004945034
-0.4970900589202011
-1.1981081510087064
-0.9799495742597721
-0.4744122311745117
0.1729511018048861
1.0359293432572974
1.3231465920333816
0.5091683767628985
-0.09140962998029181
-0.49778214249877845
-0.7969068208740405
-0.6639782543234414
-0.0972465663582224
0.2146492193022335
0.28941104724446587
0.2211442888230762
0.13902780052667282
0.168898211540263
0.006951605822055839
-0.09128825432270979
-0.10863618729467761
-0.05558266227604211
-0.15722502525719448
-0.042613268004955324
0.061008009236723726
0.1292737802293684
0.13946128211178488
0.07006915192134722
-0.09671951942129049
-0.16995657085187843
-0.14472343692689318
2.9413321316228427e-05
0.09883464208142144
0.1931250160243361
0.12372736679342376
-0.07434220411424389
-0.17341138361528935
-0.15225544217840611
0.004511636369535956
0.10477630278706807
0.14532432933982142
0.10871709798249007
-0.036593277950188394
-0.13171628152160278
-0.01948017827834049
0.06398630422154435
-0.10458663757032463
-0.13364603462941002
-0.019843621334472636
0.0444163229437973
0.06099428456754059
0.21728231505680728
0.2830373073123062
0.01594705056536902
-0.22401322984977132
-0.25557812353709564
-0.2599594124201752
-0.17500203026418998
0.09612610658260712
0.2632710781314268
0.22157799460591046
0.22725227322451105
0.0850543214078347
-0.04868480702531017
-0.2494229904536426
-0.200694678531334
-0.17181718033211596
-0.004113415824668038
0.09119597953094148
0.12491863202951664
0.11649032855466929
0.08109294824093877
0.021840704273029025
-0.07103103059463568
-0.01478146447803748
-0.025319038760019938
-0.10833988165605919
-0.053537358601639114
-0.03390798545374706
-0.010665769064096284
0.05745432274765529
0.20324449980115902
0.041902928133573256
-0.03329629463218779
-0.049342634522261564
-0.046849184674700325
-0.07094906196896153
0.03756346974459536
0.04897386146297645
-0.051482962685776686
-0.06260737986128405
0.03122196720496283
0.05639353034738248
0.0450610112480218
0.029800648014207266
-0.1613348746510937
-0.1093163464272004
-0.00850281411552733
0.12952066472416093
0.274630355763377
0.3825799985034866
0.007472463329974268
-0.47910578090373623
-0.6689391740645073
-0.30802657493837077
0.09473091831378447
0.6411881289905286
0.6099601095067247
0.43016747291047586
-0.12455547173283765
-0.519258095277932
-0.8271899343692701
-0.30148774429435204
0.23719505461053383
0.5930381342887329
0.37467646396733356
0.17553377475796342
-0.03384944041986679
-0.29822820090135393
-0.4600965082889669
-0.14209913536167829
0.06161087814458656
0.18147503656918362
0.2590324942664783
0.13091544853235867
0.01748680533750624
-0.08001278754938845
-0.17434267329752953
-0.08297377837256997
-0.019347044548704742
0.0119662867839596
0.015327786235501436
0.20067541284449367
-0.02079957127990037
-0.03976615941501251
-0.04980452520515002
-0.0470665899508421
-0.029996087411448484
-0.00024219743011614822
0.03510755377581844
0.06090629416793952
0.0524859957546391
-0.0231742946814815
-0.002908506628220024
0.08026084777898532
0.006636729753880618
-0.020616777802670797
-0.16838626511026597
-0.17187984639760287
-0.14084067634391767
0.025479010781708854
0.21690397770995326
0.2901635188105552
0.2534160198550226
0.06367413344775422
-0.16099089307495604
-0.3183314534412243
-0.2962723855733927
-0.15411017100444405
0.08320169793603546
0.2173115226227123
0.2606930678970111
0.22129403028689262
0.09513444404178586
-0.12987996948965128
-0.26125143858201494
-0.2870847133586917
-0.16735798001104477
-0.037046824182574004
0.1783080500342443
0.3397158938995728
0.2734046649121082
0.15996143187256728
-0.0609961483253286
-0.2717854936832629
-0.3503204356466743
-0.14643793303677352
-0.06948960234785721
0.1091217839315782
0.24085895086688258
0.17935677099360045
0.1623796118952541
0.002654749003571598
-0.1104170336543722
-0.20070421315729833
-0.09249199457431057
-0.2008321705072841
0.07098435114145972
0.12648831028943794
0.16684763541341383
0.18273428621754953
0.15219287910548338
-0.15324524354238125
-0.15595436808871294
-0.2584389345378603
-0.23513091664066035
-0.034822199245729706
0.20552119131205382
0.34001780376747825
0.19434088855717552
0.1557249731655385
-0.022810189853915034
-0.20518236009155566
-0.44853098411917836
-0.18242547922416788
0.0008840011289934075
0.14195707047556252
0.29849457435577065
0.5261723630664277
-0.3358400221784643
-0.27016731487840423
-0.07837792084577921
0.025177313425131048
-0.18176078188462422
0.4727502789792177
0.15586050010722763
-0.1674904214216472
-0.32936944287193
-0.1529578248644045
0.15051413751679177
0.18004623068136658
0.13978635608382498
0.034186395305890224
-0.13371330161420308
-0.16065105235746666
-0.040349570286527706
0.037750592994944675
0.08699144523624885
0.12008833541637927
-0.054127945299329155
-0.03208204227335731
-0.014518097231266998
-0.004054793928498377
-0.002450989212513481
-0.008536253915031586
-0.01730573213888943
-0.02032554107462494
-0.007315621548135918
0.03154128637064984
0.10336275249346025
0.011366873776444212
-0.04463608082874726
-0.0662467051280423
-0.05408198007381402
-0.006413424317897516
0.08029646144674782
0.009151788674414981
-0.02011177528047133
-0.013604779486168233
0.01546921726986857
0.04718363627300977
0.057093327458459936
0.020307537467779784
-0.08306021868140664
-0.06238625137582017
-0.11293445274201173
-0.015959948002571576
0.056848337918815696
0.13570805010810288
0.04443914348452055
-0.00560210195046565
-0.017476958797691677
-0.006303753168875812
0.00622619243731378
-0.0013841299313235658
-0.044303632217472334
-0.1276334164813852
-0.046474773415802736
0.009587320050581079
0.04839308473613586
0.06596823452460623
0.23971108387710002
0.12748978328335372
-0.12546432466728072
-0.37280285563723037
0.14980426384323622
0.03985531135982733
0.13805059063374753
-0.06818574669568828
-0.04816817534066904
-0.4394727217225875
-0.26909713150803793
0.01568548273879226
0.5109922396055567
0.6242117815217582
0.45884925631848206
0.02621832261294591
-0.5152107783810629
-0.6034095694014914
-0.41776931521830174
-0.2438644046275323
0.13148782167291564
0.3961408126082276
0.47110251980286527
0.26802583154790866
0.06014409505405233
-0.12618461428920252
-0.30108723363910644
-0.2904326331228646
-0.11543702362253455
0.01912714193159784
0.12521305334787164
0.2229167896627884
0.12905777992591894
0.049131372977881185
-0.023697434736178337
-0.10264766876332909
-0.1977579707518151
-0.10753408028008653
-0.015949091066882026
0.10354598281409451
0.07848598390791506
0.12615679635996266
0.04504428430936789
0.01211211520302429
-0.013207006018220205
-0.07972859636028615
-0.03296227869516612
-0.10483979523264071
-0.10775300480662621
-0.03454176553959774
0.13591953812483906
0.23002405771264478
0.07150225715537756
-0.12220569216553295
0.4620166253649436
-0.9613035167579121
-0.17097867749649195
0.4612260157109889
0.3648581330501682
-0.43759121312364035
0.8643262083544663
-0.1283514537551895
-0.6141546198969162
-0.3794993227641779
-0.1932778429575334
0.18612894354868373
0.39196460530651306
0.42635161274161876
0.2450680102830602
-0.04154867222973709
-0.35027633889312737
-0.3959735394447995
-0.26323414823259744
0.010704454425074892
0.23687596003625036
0.2616528149307297
0.14739347508903464
-0.045134420709580625
-0.06741991270923206
-0.08626877104100138
-0.08182227165768434
-0.04402308999939833
0.030006169288170667
0.13707895944912182
0.0685922710677385
0.012312035376761529
-0.043872053078256465
-0.10700948502127015
-0.17516230947098954
-0.036910895543645614
0.12457815554677573
0.12410758887676795
0.16689301899239975
0.04464290735159789
-0.06256242216467388
-0.17929207581855722
-0.1259741604563331
-0.11248369587161142
0.06300460999815072
0.20984886284736404
0.13824074592290247
0.0539799671562204
-0.0424024828952988
-0.15210991223751433
-0.2728686128226277
0.004111173870721573
0.09244053760858034
0.20459507910352887
0.14510378405643723
0.10720615463193227
-0.12444580497360724
-0.16584860086644895
-0.22437614060294062
-0.09314992299621984
0.04761373319294805
0.22251899573016365
0.2500512727070126
0.13435404576031165
-0.13604723583152242
-0.18209082741249652
-0.22413070644008465
-0.07343760508116591
0.07057039061528449
0.21669106772372912
0.17477122626444322
-0.050576572413310525
-0.06214263847834363
-0.06778728969191897
-0.0757466803205187
-0.09055363796240776
0.08832443096007339
0.06477166969019942
0.04250305622172696
0.021739489166630675
-0.0023379693581614537
-0.038914476692435765
-0.09932829159969711
0.005465085546945996
0.06678315035271642
0.07931715276569115
0.04206085130966619
-0.040314083012065696
-0.15589029705032553
-0.08505555692761754
-0.002718421259442537
0.11634849854222226
0.09045187226071781
0.12504320920849418
0.010685075580124595
-0.07390625098796598
-0.15486285105816294
-0.05509764165543901
0.011660457555139938
0.04283750044355016
0.045083135989753255
0.030037072110580564
0.009800369580887902
-0.006407383707325951
-0.013815526833531152
-0.012064143211087088
-0.004119856796248108
0.005269225570909422
0.011181058154423792
0.009999128845165616
0.000660691523653057
-0.014501498716812724
-0.029658814181423424
-0.036560219577607786
-0.027087225323206763
0.0028370359688468186
0.04879680752260779
0.09439410894805482
0.11053423110006434
0.058837277529546185
-0.10087019366498735
-0.20101644518421605
-0.2583453801637884
-0.07121478823263436
0.1765594227513444
0.5079342663196571
0.3468242080494863
0.11997143149353101
-0.7324630007194392
-0.5437021713947457
-0.41542117488529073
0.17003852519096366
0.520221896725396
0.8964623273519151
0.28757594490431226
-0.1931920306203458
-0.48512386241247873
-0.54034851464013
-0.284043451572394
0.010519437385477668
0.325424996789149
0.2833333970451146
0.12430700892504645
0.08497305883232006
-0.013054412396826755
-0.16411154168000924
-0.17191917430708872
-0.04072985196772705
0.031142090082683385
0.05310035144401688
0.0397489052005074
0.006150916514337106
-0.0367953482304571
0.11485559739359517
0.058066315784773774
-0.01427449016145037
-0.10821330342134233
-0.02312726434481964
-0.14808746010419974
-0.062279075130088915
0.05989173781132541
0.2404634037423897
0.08962283668907065
0.001132916257183077
-0.04634721264333738
-0.08259183070124888
-0.13665892910989283
-0.02890409960294131
0.03311046345418049
0.05400968056667695
0.04643817570921798
0.02553558788929744
0.0041716444861326285
-0.009810144980059792
-0.014120967228892986
-0.01084994306404973
-0.00440924920072949
0.0006266347208872872
0.0012507310140586027
-0.002967396193319965
-0.009715568540208904
-0.01464677977793664
-0.01290849790549258
-0.0012889655367876787
0.01947037406101113
0.04292075129063223
0.05657695896100428
0.043695554298542744
-0.012794215470680282
-0.12516820202073517
-0.09653378295408864
-0.11945172882538749
0.021087714445023695
0.14098820514942334
0.24961455508326663
0.1457979061582589
0.02058576867282
-0.13304939074478292
-0.3073388052903017
-0.270321312844568
-0.16648083433774544
0.06950039794890592
0.28849596317781523
0.30032509571182614
0.25561631309933164
0.24546280056245254
0.12284369939771639
-0.2575978540125959
-0.3920231353076383
-0.6874521203800121
-0.44484827540336896
-0.07486847562241528
0.45493279646394663
0.7549134462659954
0.7519861371531731
0.25390017789905983
-0.24827461055573283
-0.5416413705985164
-0.6326556006309961
-0.28993088809295003
-0.00738354070170827
0.20367582585735264
0.1964986886316424
0.256035254821744
0.26484668896459745
0.07884249337643429
-0.08161114002495505
-0.22593214963251632
-0.17861977080890712
-0.1634029905768811
0.00728038474714987
0.1347448321251137
0.22997565489232455
0.1072816943067279
-0.019953107248650973
-0.13943887047724704
-0.23737601627192037
-0.09650157248086849
0.10216280308568046
0.17340623823675896
0.12040973192955406
0.12998745918438628
-0.02633854354137307
-0.18512746741037792
-0.18045933713135895
-0.034461777651954226
0.04730425377977213
0.07434667560913741
0.065177107962162
0.0397746120995362
0.013532858423666623
-0.0056126412086738115
-0.01668855175509278
-0.022786112562101203
-0.027306754384707674
-0.030927137366382806
-0.030482326693357938
-0.020320099631997275
0.004119388937833334
0.04157326458971666
0.08082518381966007
0.09918483254963971
0.0651570140410433
-0.054370945280061804
-0.08392929737795399
-0.22948246935012265
-0.0725634398112352
0.028612491296898378
0.13076987579420793
0.09260180318250544
0.16167493445315803
-0.0345631104936361
-0.09145414538850982
-0.02388221020413979
-0.05944807135439793
-0.030902304489682994
0.030091131359978672
0.09705992810100589
-0.049068429890643354
-0.019056197506103767
-0.015431847965080136
-0.03369942451917152
-0.0649139832377563
0.1005636310035388
0.06900837945596516
0.04037627756306636
0.007757495471334699
-0.04036966265829474
-0.11598267205353383
-0.02726251959535273
0.023976945046412505
0.042348385987537984
0.03688272831300702
0.01821550793789333
-0.003786730752251688
-0.021348008812656614
-0.02918640295610028
-0.024583457112544733
-0.007695247871268026
0.017719862002838878
0.04354930490189285
0.05737680255445729
0.044185731785926115
-0.009962770225535713
-0.11293114129841347
-0.06184598686541364
-0.040860599143098475
-0.02284369535454621
0.02492850450818447
0.13262922364404353
0.11994772957813885
-0.008915135205978275
-0.06576629067131613
-0.07482616504985981
-0.06704353693907587
-0.07478862970727049
0.0715073478835841
0.14483900302563407
0.12275129263497903
-0.010065329742388955
-0.05707953628666036
-0.2046515397210547
-0.21946318739957316
-0.05191412391792769
0.15345373215939187
0.24303744845657702
0.24037548810940623
0.1396655364159437
-0.08986184894560954
-0.2899628304977671
-0.2956121912002084
-0.12120216085891261
0.04341077851846956
0.2259285756810356
0.2577884793743354
0.16040576383503807
-0.06243281237922449
-0.22371659719277132
-0.14605688794018926
-0.05302612504481838
0.036627383346195405
0.1101949402730868
0.15892320480567806
-0.02459527882503973
-0.047282802938059774
-0.11422898324561952
-0.026428253528256243
0.020549556943667703
0.035884592504667724
0.031066322948273946
0.0168178007786434
0.0005937909802927351
-0.014655320263462182
-0.030413450718893315
-0.051603029000624495
0.11493238181680443
0.06236148620652515
-0.013648160478346915
-0.11203360329013762
-0.023965387512122238
-0.1325426890222824
-0.01575889841405478
0.1474276431800679
0.16985129311581743
0.05079517725180267
-0.02479259638233679
-0.08185792324423273
-0.14739075920646044
-0.04247712697949434
0.02268444604005329
0.04940447449955636
0.0473918488893028
0.02985806374622247
0.008939471315255207
-0.007183861834841035
-0.01509808078131534
-0.015318363422793737
-0.010611921525831023
-0.004275885709600445
0.0010974193954341501
0.004173020164331471
0.00482743752323372
0.0037409792553201155
0.0018891706213746892
0.0001292246597648604
-0.001024400806149371
-0.0014348952936950382
-0.0012472545187442307
-0.000739668862816715
-0.00018790520927787277
0.0002197751003018483
0.00040917719350741673
0.0004014152988600758
0.00027132626505329627
0.00010440444769159996
-3.377072250491553e-05
-0.00011066941782828602
-0.00012481678277804112
-9.484730453709986e-05
-4.630859790392816e-05
-1.1560245238382237e-06
2.777427860371937e-05
3.741890559636315e-05
3.185328736338614e-05
1.839905105613427e-05
4.14874816221535e-06
-6.161653284024991e-06
-1.0764082698278115e-05
-1.0319703081464278e-05
-6.820580660263362e-06
-2.4797191515172926e-06
1.040152608784885e-06
2.9429670301686985e-06
3.229260760287906e-06
2.403445504584602e-06
1.131465900444328e-06
-2.6183689564072864e-08
-7.505077391490115e-07
-9.74787298888829e-07
-8.127332560999265e-07
-4.567635162440494e-07
-8.909618519708681e-08
1.7132466699028987e-07
2.826806850794198e-07
2.6499396931001664e-07
1.7117207642584942e-07
5.8432549187873314e-08
-3.112185528081391e-08
-7.808079856085396e-08
-8.344495165731678e-08
-6.081778844217651e-08
-2.7535156895296916e-08
2.111234188634357e-09
2.0212338237640074e-08
2.536390798076692e-08
2.0715414918413277e-08
1.1315559978559008e-08
1.840447229769164e-09
-4.72770359068938e-09
-7.408390821955584e-09
-6.79342276793359e-09
-4.284928403035465e-09
-1.3605386494709606e-09
9.151053565582318e-10
2.070659245289551e-09
2.1571576555388734e-09
1.5402507947119898e-09
6.706393369934507e-10
-8.770121465919071e-11
-5.391665304361495e-10
-6.556816443464246e-10
-5.239284042696823e-10
-2.7617014736985996e-10
-3.226832431935726e-11
1.331386091512407e-10
1.97300704023715e-10
1.7739389347123524e-10
1.1050087358908679e-10
3.4736796477857735e-11
-2.301518189932215e-11
-5.136167509870602e-11
-5.2263021597290274e-11
-3.5517696403583365e-11
-1.2828254556291363e-11
6.547117068055463e-12
1.778381562807656e-11
2.036697242078486e-11
1.6669203839302225e-11
1.0150308145108041e-11
3.879132897152444e-12
-2.7978852240500307e-13
-1.805347826857576e-12
-1.1889686829050177e-12
5.90495359593123e-13
2.551006317484946e-12
4.014735642799885e-12
4.7077040307578145e-12
4.696896955134175e-12
4.244153762490874e-12
3.65295725460099e-12
3.1585060282758474e-12
2.879451727298067e-12
2.8237036252942055e-12
2.9266336901647395e-12
3.0978693820549116e-12
3.258929062310512e-12
3.363327492138154e-12
3.399320072586529e-12
3.3808062190423753e-12
3.333577119333948e-12
3.2829060005467594e-12
3.2458575227246833e-12
3.22898127331364e-12
3.2301312179401116e-12
3.2423284529226915e-12
3.257712329855203e-12
3.2703154357740145e-12
3.27722907193204e-12
3.2783869127633007e-12
3.2755417944709865e-12
3.271051028696474e-12
3.2669193325841504e-12
3.2643032014126136e-12
3.2634618030220257e-12
3.264005716266736e-12
3.2652565639788707e-12
3.266564670511847e-12
3.267501106128738e-12
3.2679103667635467e-12
3.267858445490925e-12
3.267530906904529e-12
3.2671311093900108e-12
3.266810257853255e-12
3.2666394081457903e-12
3.2666167456866104e-12
3.2666949137775705e-12
3.2668125064758465e-12
3.2669183762668496e-12
3.266983815633744e-12
3.267003267448617e-12
3.2669875555861205e-12
3.2669544936580633e-12
3.2669207632181543e-12
3.2668971277915e-12
3.266887249996821e-12
3.266889157336493e-12
3.2668979268309644e-12
3.2669083037261915e-12
3.2669164619071215e-12
3.2669206722937227e-12
3.2669210718523792e-12
3.26691893555984e-12
3.26691586088607e-12
3.266913151223355e-12
3.266911517458851e-12
3.266911073906091e-12
3.2669115217574725e-12
3.2669123939834154e-12
3.2669132627454357e-12
3.2669138584136665e-12
3.2669140955404e-12
3.2669140318618907e-12
3.266913797708809e-12
3.2669135287047213e-12
3.2669133215313475e-12
3.2669132180825774e-12
3.266913212522338e-12
3.266913270633793e-12
3.266913350912174e-12
3.2669134201835933e-12
3.2669134608898956e-12
3.2669134708286827e-12
3.266913458200503e-12
3.266913435231114e-12
3.2669134128808797e-12
3.266913397891778e-12
3.2669133922343337e-12
3.266913394245527e-12
3.266913400481824e-12
3.2669134074468734e-12
3.2669134127011525e-12
3.266913415234541e-12
3.2669134152563385e-12
3.266913413682154e-12
3.266913411588999e-12
3.2669134098201713e-12
3.2669134088081296e-12
3.266913408590527e-12
3.2669134089434633e-12
3.266913409547355e-12
3.2669134101217275e-12
3.266913410498301e-12
3.266913410632263e-12
3.266913410570901e-12
3.266913410405048e-12
3.266913410224788e-12
3.2669134100916582e-12
3.266913410029955e-12
