0
2.4348835083121658e-08
2.3943770525909594e-08
2.2953466444478895e-08
2.152627181898868e-08
2.0111949704025733e-08
1.941497576054696e-08
2.0195202731995204e-08
2.292553355504247e-08
2.7392311497338884e-08
3.2402113629061195e-08
3.580120501309967e-08
3.4979544201703684e-08
2.7892205420179013e-08
1.4395166405156503e-08
-2.5803714478973936e-09
-1.6687578135463883e-08
-1.930929336863121e-08
-2.486952232071932e-09
3.6775017885062476e-08
9.215224922524609e-08
1.4570761662593417e-07
1.6999057971376315e-07
1.3604343507981148e-07
2.6797403148380066e-08
-1.4761486214403381e-07
-3.390642772100276e-07
-4.630899245420793e-07
-4.1943483010145797e-07
-1.3228593077523175e-07
3.981758445340242e-07
1.0517554716186606e-06
1.5778182577973712e-06
1.6430960203637083e-06
9.479647625199108e-07
-6.06366959959512e-07
-2.7526023533057104e-06
-4.776596223663594e-06
-5.60993425888653e-06
-4.150838561058578e-06
2.1222110949180658e-07
7.014598992064872e-06
1.431981342110446e-05
1.8819581576500656e-05
1.6667966484680246e-05
5.064654785600401e-06
-1.5758084427231635e-05
-4.088966048860139e-05
-6.044574654401971e-05
-6.155254485624124e-05
-3.29560455857873e-05
2.8491622028850993e-05
0.00011157581743318664
0.00018790973651748949
0.0002159567042174217
0.0001538676058806913
-2.007652881648748e-05
-0.0002850770947140806
-0.0005633898924460607
-0.0007255871075610232
-0.0006243452668646449
-0.00015666593795103415
0.0006596301661709516
0.0016245478550492697
0.002348725239397842
0.002335390746971416
0.0011628366327529997
-0.0012641437758800682
-0.004477671959461779
-0.007350132464528736
-0.008266055911028412
-0.005633264410789784
0.0013223847780383978
0.011706666996816358
0.022438944629938437
0.028515185478690988
0.024374270836689124
0.006327252582466193
-0.024551704124137902
-0.06027903011403764
-0.08615462881864999
-0.08475934113297183
-0.0443600944602886
0.02925397325952321
0.10042810610834006
0.2953549457919675
0.3028617107453388
-0.012294008291680794
-0.38406113041098633
-0.11308843773455336
-0.43697126932112484
0.0887091772705482
0.5942250959512724
0.48553168218143783
-0.7759742468976369
-0.7017472377247598
-0.6144275867387078
-0.09796120125037998
1.346969203169716
2.0609060945165663
0.6219151656126878
-0.9036043763073035
-1.262966722334509
-1.7054423172045532
-1.3017562073187328
0.8710382307794167
1.2734481896790903
0.8008769273326463
0.476143391345774
0.3755399990806805
-0.3915228856844667
-0.25078281803494484
-0.2966082311950349
-0.4148003552091579
-0.41739376606008494
-0.20516327769905626
0.23622036354799417
0.4106601247977545
0.2690105741283884
0.16474382221914607
0.020598577723465808
-0.08758096580983361
-0.1304860893934221
-0.11377051570933745
-0.06208396388330932
-0.004440254089486353
0.03583458827518038
0.04589555597320085
0.023961865383778314
-0.022684332934886885
-0.08096373461476801
0.06421744053663359
0.026147660162809193
0.013081087415636223
0.026401765638413958
0.06077637590702453
-0.0937135511569919
-0.04820076717937563
-0.011676352447534835
0.011135932135891709
0.020105990338231253
0.018507456418738757
0.01112645950606206
0.0025060843835120515
-0.004158043905573928
-0.007358643644235181
-0.007041555099302076
-0.004104744756647029
9.701800283265768e-05
0.00410386334131892
0.00656729087976394
0.006431616753885109
0.003182462800536404
-0.002820687226503304
-0.01004363931626507
-0.015739988691001763
-0.016435714554593608
-0.009079555865634161
0.007260615124590783
0.029622817712300353
0.050056793470466876
0.05601816991015351
0.03269265146488204
-0.033137743531053254
-0.14918187018980106
-0.1160694977271075
-0.13051108052316718
0.0058088187793991575
0.07319923911668975
0.22129684152399107
0.16322630668595126
0.382971932463457
0.35972365820657215
0.20780020892903459
-0.47651367920329196
-1.1777932836927878
-1.6555414860780369
-1.187703023231285
0.5342813145847005
2.6839998002931753
4.804429085385794
2.3986468064926934
-3.3593280482407932
-4.018853807778107
-3.6389082315617456
-3.475621760753248
0.9565608325886966
6.0583186439427115
4.444303990176739
1.4984410832606947
-0.9093389189083817
-2.917933583980795
-2.6387289707170316
-1.491592602962139
-0.20983805677597556
0.8341682206463253
1.1855835055891957
0.9881257818923225
0.44527617439779477
0.10759049589520574
-0.1900150027486355
-0.3397271354891649
-0.33515299793108666
-0.22848240288554655
-0.08849409817930222
0.02914278404936345
0.09545347950781312
0.10789145106680192
0.08171810336155859
0.03893195027604597
-0.0008788081164108471
-0.02567344013657552
-0.032048129985152406
-0.023490879162731827
-0.007367200682078106
0.008108355983677215
0.01625027340886967
0.013482929012285424
0.00021567372133607292
-0.018956765367821954
-0.035913457214564695
-0.04085396346385836
-0.02551928228578867
0.01254126718773793
0.06576586193059146
0.1142708264886702
0.12747270073012587
0.07093645798619883
-0.08207931605517173
-0.1374087069190566
-0.2703039351000819
-0.22513018603064705
-0.12846906114297568
0.08448898153449057
0.2357881169185101
0.07305669271091854
0.45286640466916106
0.7503948027677687
0.5018593712099654
-0.3224415663922858
-0.42857236468916193
-1.3189337428536456
-1.4538485536437091
-0.8814747637019568
0.25573789200405805
1.5575434207950238
2.3918069701989553
1.3693726023619632
0.5171893439912837
-0.6334921180640617
-1.8689697185344818
-2.2834670199337963
-0.9071494883705257
0.5754589446294239
0.19954388699587033
1.0078009216870132
1.2981958313070072
0.6828287006112143
-0.4031904862511544
0.27404527253392025
-0.4161826230978545
-0.6943644451005202
-0.5866272194052662
-0.45773272763042866
0.22195100411957094
0.4723538405605139
0.37238588155934277
0.21857237466195056
0.0900423658700774
-0.1705369446417188
-0.15890105166302226
-0.09898598754720812
-0.027819824901732557
0.01839811113916273
0.013693104336398398
-0.053585941033304746
0.018780559912554163
0.04324692308558763
0.037279837419071246
0.018172481791050785
-0.0007834749731428529
-0.012103068225115704
-0.013974229988380315
-0.008786052492625087
-0.0010731148263291362
0.004503481591943899
0.004763256636125126
-0.0009720160005955527
-0.010530315289100499
-0.019305781648418653
-0.02152359008307915
-0.01231221328222775
0.009755612690551248
0.04040897043909531
0.06882911918108019
0.07936920701016434
0.05649818296063021
-0.007538979185243736
-0.10447946947136925
-0.20490920109615102
-0.2606000411950192
-0.2176314078645688
-0.04037968996574705
0.2585878065929939
0.5930569136125052
0.795707274645058
0.6404643719213917
-0.10196582414863334
-1.3860647756139932
-1.0161313357628876
-0.8055123553209059
-0.395304220039026
0.26250527625945347
1.377129592316563
0.9852476645538385
1.0566157483193417
0.47453792422326846
-0.09578212745675542
-0.6653763914283245
-1.1437116543777919
-1.1745712034477809
-0.4327035202606685
-0.212194971187192
-0.31329314670380204
-0.009826007413488503
0.33975644318822495
1.88649298204898
2.1427100229492364
1.1364270290253586
-0.30991212719616046
-1.1914613483631362
-2.8770028411788484
-2.2844838824703446
-0.14555446475996692
1.4055297864202032
1.531075090102863
1.1282754918824556
0.46989013981127215
-0.10482112053970717
-0.4302800731082253
-0.4946044517578171
-0.3840424927534023
-0.21927138769692855
-0.1044709352395576
0.10049366041516127
0.18453459606859032
0.17311631777355718
0.10879696539893506
0.0330515483714942
-0.025395187977126782
-0.05434566494498648
-0.055595406702161274
-0.03908376123398431
-0.016695293803864066
0.002265918303220778
0.013136412315283614
0.015725241991331313
0.012743951925258927
0.007795591712751523
0.003695635720368657
0.00156347642364051
0.0007883407816588867
-0.0002828919963791306
-0.0032493797555998485
-0.008546169145127281
-0.014731187574121006
-0.018524184273856093
-0.01579589672678916
-0.0034257569647482824
0.018437506738736266
0.04457250986485589
0.06443298971012319
0.06440509512792446
0.032868969905606664
-0.0328273664284806
-0.11981782464326445
-0.1970798553566828
-0.2203321845464049
-0.14657358586854635
0.04299404036015448
0.3174962257340763
0.5784230557027104
0.6607814030104219
0.36167150257881614
-0.3043534466040851
-0.8364493925790848
-1.3898221470554561
-1.3574016726951343
-0.009783753063149088
1.0093056166088241
2.1614946169161664
2.7143813684413005
-0.6894566241889112
-1.3749211512844506
-1.107424086376707
-1.3467202594440317
-1.5382338744772481
1.520195431357752
0.829952634049099
0.0846020663285224
-0.4583552375196033
0.7083032103726198
0.8657865520447994
0.4461973173666097
0.06704087671941998
-0.18359849623650693
-1.232201638360628
-1.1066526250029747
-0.25679559277864117
0.2705376788179108
0.6007335649069085
0.5624300813565436
0.40778286917954065
0.14734010473930675
-0.08552379145027007
-0.2385185533845167
-0.3208311488132512
-0.17308009890229908
-0.03929073830768377
0.051196920395609635
0.08980426354085176
0.08531932334802007
0.05572550809692235
0.019747428723579125
-0.008986977354809125
-0.024197408999215443
-0.026159922061485548
-0.019194762969420444
-0.008824176329085996
0.0004046880081346799
0.0060002424071263095
0.0075713933776915794
0.0061924675377813135
0.0035226292511688047
0.0010344754784956146
-0.0004476432880885566
-0.0008532749663169676
-0.0006799550004412155
-0.0006366694251504967
-0.0012511899868279013
-0.0025646063114293126
-0.00401261117791017
-0.0045573651049464845
-0.0030784784989461617
0.0010490475541652393
0.007360338915864702
0.013946548561282869
0.017624250024534098
0.014824817627061997
0.0031712722322391603
-0.016637684253238087
-0.03938599300415248
-0.055316117338668695
-0.05239023687723981
-0.02113162477813756
0.038672440220971854
0.11131845825487237
0.16137275638999862
0.1354317721935479
-0.029221301968720782
-0.390362115916853
-0.18498584000962381
0.5830534309070081
-0.4516681773266976
-0.21883196360035523
0.37801024069745176
0.24703251095207926
-0.5079925456515222
0.39773745438894337
0.019227577898589476
-0.2246977516595434
-0.15356598632159998
0.17619881164858683
0.4761755497087423
-0.1649786256746406
-0.0677561895491542
-0.1452132206100334
-0.48847551426264774
-0.5600216657481777
0.8026626968745724
0.7767300415929425
0.34647324669581947
-0.09151467292790218
-0.30843457634794885
-1.0180856841005985
-1.0635748306815935
-0.03142132933605264
0.9033944726124056
1.51518915794748
0.6748293265874407
-0.4674678052736575
-0.2530132887303628
1.1504407231388412
-3.9765051765973496
-0.6516588446842942
2.416847990254762
0.7898437960821647
-1.7726471225639184
2.621047906472513
0.35444364005012086
-1.4982009092016624
-0.5385602373204321
0.006962802613217565
0.13582467652533306
0.10149471224648339
0.026220953829614688
-0.10163723017796904
-0.04035796487757949
0.08673482335444054
0.1710190082271153
0.10030234549120433
-0.054086538190601136
-0.04309991887402642
-0.03923549490936443
-0.03157541588290859
-0.0193449777106538
-0.006111952666168734
0.0042531817382723035
0.009624985568121809
0.010038454601698025
0.0070997316378412926
0.003019559938190427
-0.00026946455467526104
-0.0016707677933023915
-0.0011025118972392434
0.0006451826632345361
0.0022768437146183287
0.0024848719855683314
0.0004755016788929043
-0.003583130367983666
-0.008334535836567632
-0.011392308956405492
-0.010010068565795645
-0.0022648334405319655
0.011452137386279777
0.027074503974497954
0.036210774964567004
0.026710317298977788
-0.015424823709269309
-0.10326507527703188
-0.04636158144070301
-0.04945439660242656
0.0871145108816457
0.16613892170999944
0.19328820669663255
-0.020548820422595898
-0.2546379145810619
-0.27461893021445816
-0.23445247579471737
-0.08782902032604836
0.19152258899842714
0.5868816558500535
0.42333192085080573
0.1704922830763846
-0.13227593090080836
-0.432858882321602
-0.41880844009150736
-0.48216619005972283
-0.3108002875506733
-0.11185126297109764
0.3385126434673783
1.035638293665218
2.3000822150288034
-1.6354474443528888
-0.5998642336018456
-0.4324196603639018
-1.1347888159585477
-1.8536207558265099
2.695335333232133
1.5730921229711095
0.3630515786112519
-0.25206013168697605
-0.668372514035911
-1.1062355112754947
-0.7510607293230969
0.08304900242704703
0.5541310378440844
0.6637970340632954
0.6189266412729455
0.20551925828015222
-0.21194763821501708
-0.26611397506443357
-0.5500229153131438
-0.7867518326510848
-0.22193738615639286
0.35337193277406226
0.5550175404623494
0.7501169796208514
0.4148859795963233
-0.07783775585884149
-0.23732004801062534
-0.6094546192153273
-0.7256532800481733
-0.06558269589400913
0.15392896463920494
0.36328612275604694
0.4082014271386825
0.31703799122479653
0.08100797186244603
-0.14639241151751664
-0.4330762406965053
-0.24415110295442266
-0.02069955237151315
0.03057639173152391
0.13483800913489496
0.1371229284357555
0.08698293850184101
0.02551237899045443
-0.0217629709610452
-0.045518997806341346
-0.048428482173715814
-0.0388376102278489
-0.024959932589561286
-0.011370731413910205
0.001560662803781202
0.01572415214626955
0.03198898170293835
0.04713010083372021
0.05242315485893222
0.0348491842854333
-0.019070944250928937
-0.11793184652793867
-0.060670309333690456
-0.034702925462463556
-0.01855576571261583
0.010971669802796931
0.06872566020299244
-0.04900456648049209
0.02844626176454582
0.24530938836856617
0.3273398253392657
0.19958443144868732
-0.1881714916539712
-0.6353465441607947
-0.8755674675893484
-0.3848594742000859
0.18154034294995633
0.9312268916250325
1.0764443659150984
0.9027188897909467
-0.014970194734628418
-0.5453756707934928
-1.1019474366457664
-0.7455211854569623
-0.9250340166043779
-0.08086072773764795
0.28548161170480013
0.8937831681916335
0.7544617457573127
1.2643634575602654
0.3606851632166538
-0.2537779765415683
-1.02410327819395
-1.0255799238203973
-0.854094378685718
0.04223483560267037
0.37505239894733433
0.5780306535709694
0.542133343010728
0.3515974778398915
0.0426527042698429
-0.004844784546337427
-0.045246382152583906
-0.32620754267176655
-0.4455938196187982
-0.722849785842106
-0.19706007340750153
0.3449174779804389
0.9184246627454626
0.4870234902927968
0.32500973957920565
-0.19014857163372076
-0.5552030973311086
-0.7006017428487005
-0.1500624295529731
0.20490927121096764
0.31028763825987865
0.33952155203953827
0.07860514985127652
-0.08455970875033046
-0.1626608018684514
-0.1651424027180552
-0.09283133688691032
0.06465197265008286
0.12711669527034958
0.11909945576848224
0.06525505377961105
-0.01167357513388975
-0.08990041481740682
-0.1465885574431257
-0.15805325548615679
-0.10503523102521416
0.016270069235768583
0.18002896158774484
0.3191993152455703
0.32385791747622883
0.2552892779335651
-0.02303616109422875
-0.4034949759048806
-0.6941300721463041
-0.5964679809497206
-0.31473424457474697
0.19974390871219258
0.7787363886735065
0.7637354416731922
0.7555854994399029
0.20811255353363137
-0.32774680500780823
-0.5207727881505605
-0.7631492177208166
-0.8924732198457203
-0.35842420600822006
0.1535606374908201
0.24762729681264806
1.1146408730239539
1.0332674608707817
0.3055738770155778
-0.3548836629519573
-0.5838188283738787
-0.8950678244098724
-0.4053288964265449
0.021220427062701983
0.5972959655208835
0.4094854551525121
0.2008886939322243
-0.24690075059493843
-0.12504840662670225
-0.2022075120601332
-0.027251476039862665
0.0657828167753946
0.14937647685069538
0.09270780816443301
-0.046562344560474825
-0.026626883767451145
-0.02161727691644632
-0.018645391371930234
-0.013551797082853255
-0.006804068987655654
-0.0003804869136551291
0.00408317275502785
0.006004901231271824
0.005771771148787343
0.004268730641909868
0.0023705139516368313
0.000618020037605845
-0.0008428817581619851
-0.0021018697914155027
-0.0032215004712855865
-0.004015158542556487
-0.003989295642581226
-0.002513866208161534
0.0008039953716933014
0.005668403106978074
0.010774340998985792
0.01385686835638117
0.012284856954359746
0.0041966512698018476
-0.010099925347025186
-0.027043107567417454
-0.03983682791978111
-0.040335656935324496
-0.023185790292498693
0.008103527681400878
0.03439664705317932
0.01554317539541356
0.08887802338412752
0.17399398412487432
0.18532799366337155
0.05231347696529291
-0.256029831339167
-0.30859618375655873
-0.4005795893044003
-0.36068264083953117
0.01984396961053725
0.5413546860500534
0.7464335350981474
1.284590226125342
-1.2947813451611225
-0.518455629293758
0.054445724539470705
-0.3223910379239961
-0.9514806436423804
2.3194289138313877
-0.7079561190645569
-0.5956405735153466
-0.08399830373889419
0.2930628675090754
-0.6087209537459597
1.2394392757491006
0.22888201851087558
-0.2848099276347702
-0.5666434499337467
-0.2797142593344044
-0.06604495322191574
0.060678923595824844
0.3089490792218375
0.2952133270997482
0.02990738025358118
-0.08963754145183306
-0.07737799299712492
-0.15042686401141747
-0.1195849992352416
0.01689460026455153
0.07403754010433351
0.07588319006790317
0.04871799660669353
0.014767723389150599
-0.011587468321093338
-0.024483050671944957
-0.024779226789576808
-0.017077482317015495
-0.006794690831887456
0.0018777248525537202
0.0068471611640671184
0.007991978035712518
0.006442889897300912
0.0037197858517756385
0.0010594067766958948
-0.000904178028336342
-0.0021092136790363133
-0.0028027241016304856
-0.0032099813697249535
-0.003294983212737551
-0.0027192170366555917
-0.0010286917218989857
0.001989451511757184
0.005922160375674154
0.0095128860336239
0.010804178747088186
0.007750454615197762
-0.0007590888991002482
-0.013756564902974437
-0.027436424695308662
-0.035384333953402826
-0.03026184030310823
-0.006983864705524512
0.0332560492968207
0.0794958788390928
0.10989256463799875
0.09462313842721258
0.003309445091704904
-0.1844614704688802
-0.2690158618985961
-0.02537211407733865
-0.006328823107280629
0.04582203800845827
0.1822746809089093
0.23109302679085267
-0.013121208487151618
0.010568720365849412
0.039805004165751334
0.006909535217199046
-0.14088095638600684
-0.22538604961390646
-0.4320329286509581
-0.31951805743315803
-0.0446860473780529
0.8042038718430524
1.3798639028922486
-0.029090682181109065
-0.1697597817573244
-0.5665944637978041
-0.652148476930859
-1.1141641208122308
0.11717662489612167
0.031034511027853248
0.25326911745352354
0.14108477657893292
1.284870176136678
1.246959930085651
-0.04127588065657119
-0.41886546446947803
-0.7871413094433732
-1.5878715908549486
-0.9069841919046915
0.5668770703321808
0.9217508625151066
0.756452576395867
0.3002592317144328
-0.05251791961108178
-0.17713683816574535
-0.22183375825210508
-0.18997201268781094
-0.1139076697372788
-0.03123293891536051
0.030638274571203092
0.060267578281975306
0.06040651781046211
0.04214188391247946
0.018375443561693808
-0.0010350713326546584
-0.011507419307884417
-0.01350644083581209
-0.010688263275153863
-0.007443947650741813
-0.006736068311911554
-0.00883607317742628
-0.011259203845300861
-0.009906111150854125
-0.0011472933960176082
0.01568737797880272
0.03619612961827287
0.050065884357092055
0.0422397530670702
-0.003723961462456625
-0.10080426504682605
-0.053797878002102416
-0.0567638398240241
-0.09418564094270272
0.05395568006285892
0.2047812860273812
0.1658313095151116
0.13237559104790572
-0.3096496842547198
-0.17649730045416617
-0.07928632603577614
-0.020741028552645008
0.00227766921946792
0.39232815197661286
0.14548202123461476
0.05051226305368185
-0.1049263420058886
-0.3235244353306065
-0.3889411846966405
-0.06437738823502918
0.09766744653743606
0.33718495204619486
0.6683450440785116
0.2713693805865911
-0.29873681478114095
-0.4881191591450388
-0.5148838290743897
-0.34893167612572334
0.08859450466789691
0.7049534574011866
0.4031714759611184
0.050864427804401965
-0.33809559304862
-0.005285721521050487
-0.2364772128584137
0.05576762715538862
0.1500913228096409
0.13239305174272856
-0.09046232799868896
-0.17956100393911498
-0.15699736009454274
-0.005329350558864848
0.1254125645687857
0.1045547960692927
0.005115278857062076
0.08989452876289476
0.0024217433813075668
-0.036076359267894334
-0.024294430386481214
0.025159152646472047
-0.10684923077583001
-0.039296138174546164
0.013485888581080423
0.04353406451672259
0.04870534512084103
0.0310647336596186
-0.0045708047160621995
-0.05138411977037066
-0.10091420485974056
0.056208995633749884
0.02863571484231043
0.0220499096725853
0.03727849446692524
0.06980056383073525
-0.08887786636877497
-0.04840563526211499
-0.016493525188351364
0.0031087698711516594
0.010743060129462708
0.00910647913773518
0.000321948279898684
-0.01728032357073276
-0.05180530551747656
0.08096238672175068
0.15862966415573604
0.15650640287172268
-0.14461159003204338
-0.1487275103923131
-0.23668965510092457
-0.16460539670159005
-0.07165637944430493
0.30349154817740254
0.40295340498357346
0.2345676600674135
-0.03146598256019768
-0.2521067493517366
-0.29141267551962136
-0.19955865791444521
0.00032209034997175793
0.11259211084249286
0.15734804008726944
-0.04897061356951453
-0.3146053816727499
-0.08970529864210777
0.1252646559815479
1.1861465453069207
2.13411889448447
-1.3494742741987993
-2.072519484623018
-1.674219367454777
-1.2170373278664224
-0.6514900213302258
4.058039447470431
4.995775590006576
-1.1892653946701393
-2.4698946317939687
-2.3391585199945544
-1.6781126189155349
-0.06127327384889826
1.6623272115378926
1.7207677885669719
0.9446682398961518
0.1119842628958717
-2.0629407865242366
0.09954420738941126
0.0893867661873111
-0.1571515253855339
-0.444322584540202
-0.3280884006841522
1.0551004174169023
0.7542557628449084
0.17948839576390574
-0.5014050220016848
-0.5446461445997421
-0.20094712596446335
-0.08973065832296222
0.01197790036762828
0.16345908983240076
0.24187967024354004
0.1200572145956625
0.048640251619451555
0.04785545242231443
-0.09023533352426107
-0.19171268002241115
-0.08783733347109475
-0.004024051705541209
0.04614319061669601
0.061386021080006556
0.04938599915089259
0.022118202388753415
-0.00812197048123346
-0.03112306338796343
-0.03980899181583719
-0.0307403649592755
-0.004804061536415677
0.031748770322487574
0.06650967687130314
0.0814628101623971
0.05586170067878062
-0.028473511380303494
-0.1808020464799222
-0.1967736582065872
-0.058411993858473746
0.059721303030192754
0.17965033693070395
0.30884911935200926
0.234449368909095
-0.07339803768017171
-0.44958964117007355
-0.31909556382846194
-0.08693871902843138
0.06094288365027728
0.14573961236797636
0.3785956131162836
0.34732544612887895
0.015094186746597365
-0.26570651028196657
0.07224054272162349
0.03985861839853169
-0.8878509751335718
-0.7697959024379782
0.3788152885425815
1.5420332869587496
-1.55081104593967
0.9300035438416828
2.2959748113905136
-1.0418625769147452
-1.119669317138339
-0.1470538597151676
-0.43914950310424533
-1.3807098339342323
0.9636532596231905
-0.403790783358871
1.9088500567828448
0.6104000842596561
-0.11432399951415746
-0.39969485723793846
-0.453800512480222
-0.4926878093274032
-0.479398548103161
-0.08721468950583326
0.30489524893679565
0.38879274706466854
0.28852292814375036
0.12191192009954231
-0.025842705500706206
-0.11189153425611505
-0.1308246985362864
-0.10119700590215615
-0.050259707093910436
-0.0019658453107566217
0.02940986787777299
0.04020776275609306
0.03462522686373677
0.020493978852729654
0.005450939470394344
-0.005440731211208179
-0.010393590214102874
-0.010289330440686592
-0.0074010006970112755
-0.00406670971152468
-0.001751314942539826
-0.000692400124289579
-0.00011494275662368234
0.0011491341046558651
0.003884703023396355
0.007841594793687125
0.01147445584393949
0.012269808418651837
0.007707739828015726
-0.003323109913722519
-0.019114050321372082
-0.03442170616932202
-0.04121525716876478
-0.03143277761001665
-0.0017307326204479341
0.04061670276113647
0.07235385213921075
0.05159225998221944
0.1198621868006616
0.009867419625206876
-0.14169343153791797
0.0213064135270728
0.08871186830303557
-0.10686220984866039
-0.28994038905271396
-0.35405297004362796
-0.386854658940196
0.09420780884132184
0.7049624098489202
2.5723162633710936
-0.8558257397617329
-0.5606779394033972
-1.0741555253271
-0.6014752774520912
-1.9787998793599932
1.5125625085491443
0.8769205330227597
0.9041455707389723
0.27430907709446073
-0.30311895911137515
-0.30307949649316235
0.04294856987312155
0.001331722923097343
-0.3994661116071518
-0.10851466937879052
-0.0057904399081672294
-0.07496812391449585
0.0031961621612387617
0.03972235705551001
0.11398184024065726
0.1446427825386759
0.061484670323270305
-0.01686148471878439
0.003402131802237249
-0.013773609314534014
-0.03238567560123372
-0.03816629287124279
-0.030690112623577778
-0.01596813549295359
-0.000932437201308276
0.009656824768662137
0.014111916155184381
0.013231567530485818
0.009071931765464175
0.003777454538978685
-0.0011195277415665238
-0.00484009046056984
-0.007096743557484434
-0.007708564666115372
-0.006370025357720118
-0.0027411618669961114
0.003145769564902423
0.010351328759362927
0.016688213933251855
0.018923258350187384
0.013742334110014034
-0.0005921741824155228
-0.022362289824929795
-0.0451498648019844
-0.05826846158972585
-0.049711105307137876
-0.011755790507619544
0.05174711650425536
0.11859943051085685
0.14496838876664725
0.06833861685751522
0.01792165099916508
-0.06880736220277457
-0.2274650575443949
-0.0517446913760026
-0.08769539402668407
-0.24100419035390416
-0.19775169097560952
0.14475990233201405
0.24467787008322264
0.8909791934710117
1.3996334394100645
-1.3623523457843116
-1.1296761142380023
-0.38649427137446724
-0.3329169643879621
-0.48563209635179583
1.8895661016211982
1.3319865045727286
-0.048187744656892365
-0.9761763018601892
-1.3938624781339475
-0.6364380191837219
0.17252269700003103
0.29858848350745526
1.9584346305205445
2.2921199977291384
-2.2305841248078577
-1.5653373262708665
-0.030898362597724285
-1.0639330593094758
-1.017074849847937
2.7974008788556737
1.4403030484522745
-0.11056292889990361
-0.5766146379951401
-0.7484546714938026
-0.42700038796636275
-0.36376790173077816
-0.023120754935806856
0.22406250783276
0.27905767400778003
0.27845030244862484
0.1561333015140089
0.015430850658579008
-0.0833425984644816
-0.1206953226391851
-0.10611994019065475
-0.06296140040697297
-0.015312982856374236
0.020093899853503225
0.036524634187672655
0.03570196337651856
0.024158322754048854
0.009413907143362649
-0.002755358297940393
-0.009504051396630658
-0.010750470222387917
-0.00819858186525203
-0.004143854378599386
-0.0005100128961544898
0.001664813942602486
0.0022834608011177275
0.0019130089864304537
0.001354440532350537
0.001226048447238553
0.001684015285589669
0.0023506313070558414
0.002468975291430923
0.001251167738611155
-0.0016687382049447538
-0.005823311512282688
-0.0097287962899808
-0.01111285951966271
-0.007654210506809943
0.0018335928247141724
0.01607131258247248
0.03034653689477068
0.03650023819335464
0.024287801168253007
-0.01593891695725541
-0.08996638911940351
0.002781287372955182
0.06945652404021492
-0.07943872396050737
-0.23725938475835145
-0.012282633752938496
-0.041414008969658654
-0.003291974610924445
0.37502014051803406
0.7253669139908485
0.46675116144177675
0.0563970231499812
-0.544189467470214
-1.4075674243913672
-1.2098720325552779
-0.45493784278382343
0.4398635517779472
1.8135814173528233
1.6266711706337136
0.36701092054709805
-0.37062534342862485
-0.6272296736712538
-1.1681335087860534
-0.5564750594635178
0.15157203017212517
0.2677334946578591
0.08496830604383775
-0.14714507971260526
0.12994091753957165
0.32750977454017965
0.2570023076063729
0.09069621452563507
-0.058694729552786894
-0.13922573858138562
-0.1465539412826362
-0.10399817585139225
-0.04319374251826906
0.009720192024261292
0.040626879739304074
0.04759388051647744
0.03708611892487494
0.01889893216658784
0.0018517338372133147
-0.008716020581365858
-0.01153188687906518
-0.008545327476134358
-0.0033545339926744832
0.00045836719648776394
0.0006489320305548473
-0.0029438332027467945
-0.00832455023673079
-0.011961289696346888
-0.010042699568903154
-0.00018360166882736568
0.016816590057942234
0.035779081247490095
0.04723468936090548
0.039345205009079676
0.001656105510898959
-0.07019477446807303
-0.17059323086561232
-0.08306932739442961
0.016069523911117718
0.14993696991390296
0.13171917849403275
0.1577638294747697
0.006533374040152044
-0.1555513382610682
-0.1634368921162464
-0.042144527340355925
0.0008582168504499702
-0.022767164349728482
0.11350973257801304
0.043183649878043864
-0.0019154678175109232
0.001525913716258564
0.06466015496083864
-0.013666269249980526
-0.044136740709612696
-0.04246030563408619
-0.02466128135308026
-0.0035446882661080486
0.0129162300852839
0.021351887378871566
0.021633846732689175
0.015292248762967723
0.0044337686796640146
-0.008559746144739462
-0.020757523261986884
-0.028383616202895742
-0.027130462438599134
-0.013476539661014334
0.013107916214465318
0.047814498489267984
0.07926121298476636
0.09069855500700243
0.06438604614029989
-0.21146598870989158
-0.13547323569229347
-0.08894105701478015
-0.03766357583806364
0.05976581028730334
0.23954224416176928
0.1207225095744417
0.09860879907643141
-0.05369653340215271
-0.17607502620074983
-0.1082111155228022
-0.0776242773555238
-0.09328692575940165
0.053320103510251994
0.18089130999369782
0.10824796711801732
0.04588153086956877
-0.007681525506509904
-0.06388989391040817
-0.13824366063577864
-0.0435317567330914
0.01482563103300308
0.03979876233408133
0.04042418460508814
0.027703964811230615
0.010570460368134292
-0.006780936902080576
-0.025727721010327793
-0.052449235890055595
0.1039361671447086
0.033908487843100174
-0.0694794859296492
-0.007554395365592075
0.026301089441445914
-0.15285702947184054
-0.12378194873239755
0.13584878762478203
0.2426738231752074
0.001851700749525829
0.005108028727927055
0.03398873652134314
-0.13284194970484609
-0.31143803316469276
0.09278058279869779
0.08520167102458867
0.07726641210681205
0.07951851243746912
0.09602292035172147
-0.07735482331522846
-0.05038291350085421
-0.033109202221690365
-0.030219717989961842
-0.03746973897897664
-0.041615905106010154
-0.02409078668242643
0.032497294887662356
0.13699128224508278
0.08406610964801421
0.052860810534385246
0.011131104490544315
-0.07586625565338502
-0.23461593521399626
-0.07469321117085749
0.014319324675380373
0.059055001556475084
0.09329945350078059
0.14732520953649356
0.03970803018150067
-0.025599987175387893
-0.05646461275394678
-0.06581848367879171
-0.06405968707801327
-0.053668767771122027
-0.028002523400903735
0.025430455650019737
0.11857012274128222
0.055820945064612465
0.02928691850571797
0.018210846366238577
-0.006953593172188923
-0.07702327283850506
-0.015408066242156784
-0.030903667123252668
-0.1141881036057636
-0.03930346536854219
0.02991540081467226
0.13003713301464126
0.08779510352370357
0.11286056408784205
-0.0038040164898860756
-0.08551688782869059
-0.16126543235478052
-0.05638039356851726
0.014054496910831328
0.04718017451786477
0.0500274801386598
0.034753710667140336
0.01371213521732185
-0.004006943800788434
-0.013944813132096574
-0.01582081072737965
-0.012014836853451555
-0.005816430519892976
-5.260243642844859e-05
0.0036273751125442152
0.00483378155371775
0.004094407667651739
0.0023519629241594096
0.000516922964568452
-0.0008050787914970917
-0.0013904703072470394
-0.0013273208173624799
-0.0008735186300023916
-0.00031403201312474766
0.00013787709035639514
0.00038081156379169773
0.0004157723828656637
0.0003082408397455171
0.00014408092548040435
-4.71860914179808e-06
-9.739450401093495e-05
-0.00012565162645493592
-0.00010432685692472128
-5.827077446100731e-05
-1.0926093077468984e-05
2.246054985164873e-05
3.65809586263218e-05
