0
-2.3790928542738337e-10
-4.8940465709144593e-11
2.7369105435835544e-10
6.485684777307807e-10
9.212704288618293e-10
8.980985391695597e-10
4.1873799599826856e-10
-5.453595065523555e-10
-1.8004252706508565e-09
-2.8968267077199894e-09
-3.202143248871327e-09
-2.106739071027081e-09
6.625721385016434e-10
4.712610198052937e-09
8.790815118749944e-09
1.0903721121766345e-08
8.869328703076492e-09
1.2830034668211643e-09
-1.1339087301509033e-08
-2.569945857446937e-08
-3.573000607525629e-08
-3.397432683871874e-08
-1.4456560702572976e-08
2.351424251505392e-08
7.193608444804236e-08
1.1301189397720198e-07
1.2223488871679986e-07
7.657144556016869e-08
-3.333243718115783e-08
-1.906012387362175e-07
-3.4522205634616146e-07
-4.194579237686662e-07
-3.300661181233237e-07
-2.612599927498026e-08
4.6710561954169853e-07
1.0164257404040401e-06
1.3836747662270308e-06
1.2821858846461163e-06
4.899046755612823e-07
-1.0036753344062767e-06
-2.869545900269372e-06
-4.40426052486254e-06
-4.659270299112581e-06
-2.766121248305011e-06
1.5890660003057612e-06
7.689018508477439e-06
1.3540283835273867e-05
1.6114906414214673e-05
1.2242202753789712e-05
8.848958003675265e-08
-1.916320667796123e-05
-4.0145176461230444e-05
-5.3521418105433465e-05
-4.828528401730727e-05
-1.6214092337300984e-05
4.246262759140553e-05
0.00011427021954557523
0.0001714413892431757
0.00017730424243259148
9.918591435883766e-05
-7.31650395898831e-05
-0.0003095129180585798
-0.000530535334433653
-0.0006184208486165821
-0.00045258049631302633
3.255547522697218e-05
0.0007833314435851668
0.0015841918153243137
0.0020700959971067315
0.0018199200620850394
0.0005318631421588919
-0.0017579762974807003
-0.004496616260699581
-0.006586378485744286
-0.006610747191850989
-0.003352219999746028
0.003478655567873151
0.012530415821674223
0.020458192396819376
0.022287659717134856
0.01269259070150971
-0.01196189002172657
-0.051412201531473245
-0.10009311151696695
0.052499317896539
0.019283958890833737
0.011469887544877823
0.03419688348145357
0.08351786691957121
-0.054107207851260886
0.0005781841583247507
0.02441612546499857
-0.002152831301047942
-0.08934729811593142
-0.03409157871737754
-0.019122810667285637
-0.015779094376719458
0.009942278142656495
0.08953544819629497
0.04451842902185455
0.08156323017556626
-0.008283390826183052
-0.046144658519801915
-0.05899201030856995
-0.07287733887507722
-0.10826811616706697
0.02085442923251695
0.10410003143968838
0.1297067348961624
0.08029508635459306
-0.06823359339039897
-0.14391750050038937
0.026674659021882208
0.024205672345454697
-0.15920981056359415
-0.11801302893183543
0.3672442226824486
0.9306790551348599
-0.9759132002411733
-0.278670617081395
-0.28136205962628613
-0.2766448464745949
0.22767830001996292
-0.12770202834013947
0.8127951579606704
1.9056617263826
0.32825744777900523
-3.5643463741659827
0.8396911069544177
1.882653257163105
-3.1204937025431483
-0.28530311579274453
1.5916971489162377
-0.05576467485718031
-1.4705445514022468
2.730741785178017
0.6976685517267341
0.5437780215473764
-0.39071492263025887
-1.4252414510118592
-1.4090934106527304
-0.8188410446681054
0.2839904926527039
0.8263834700394155
0.8465084011523766
0.6001382313767961
0.2855786738396206
0.008900255112761128
-0.2070025596746756
-0.38192660862687416
-0.5282069875603658
-0.6143787468957757
-0.560918722512005
-0.27555786458216486
0.27873556523199045
1.0050103166041549
1.615874404645996
1.634139707529242
0.6731841151548772
-1.2068837614326526
-2.305064791633608
-2.1122434339538367
-2.0409343407532603
-1.098096009620862
1.4998656726711745
3.0246610743347966
3.941506125819951
3.125870174747217
-1.7384452685306664
-2.976744668000625
-2.424868085189341
-2.524391821106786
-0.5131950025867631
2.43568292733923
1.5349485065769235
0.015863297544070648
-0.8634645010966178
-0.5865780341743401
1.301386241262442
2.1356822724693996
0.546299439015237
-0.6526147463447477
-1.9158475818910667
-1.6044783044754132
-1.0597618471458128
0.6473053216828707
1.2826424435890598
0.9563389397589321
0.41253583491146045
-0.05937856371768127
-0.2717043163492416
-0.34353092522967243
-0.2775171244414578
-0.125521279405267
0.04345122033034374
0.1663756612929525
0.20009059908399152
0.12901366149580867
-0.030373143728227872
-0.2281084559905048
-0.3856532709152777
-0.4120366191177687
-0.23430573586079867
0.16051428512284677
0.6830763129175704
1.117434813925998
1.1350212752644107
0.5592982451776516
-0.7244525986688783
-2.243338661667057
-2.64315414372277
-1.4765525034062874
0.5005914766476258
4.342136507713178
-0.3038807263774808
2.843904942690525
3.862236407038185
-3.8679599668135993
-4.838436594121574
1.84455258618911
-1.3404421514478622
-4.8577270175138905
4.011732208645669
5.179661580225906
-4.893400662067653
0.37773090448711766
4.553769675456292
0.9253524530100143
-4.421859933755722
3.754201379886128
-1.3302148518211334
-3.6677549658935242
-2.102293104442954
0.7254022883431908
1.9158066868963295
1.7620685859711511
0.9758745261454758
0.1503801236942026
-0.5034851079791123
-0.7463783447326143
-0.6509483153321036
-0.3280964357674088
-0.06816671045234005
0.0878705939652816
0.14692377119546313
0.34209454722519556
0.30536800002920905
0.2482871684464527
0.15926862777604475
0.018872758518157277
-0.37353624591334944
-0.5746667836248628
-0.689346670130539
-0.5924999874580854
-0.18452812079591366
0.5307456151229741
1.3717269484050383
1.9446046785959183
1.8832269239210242
0.5789546445608545
-2.218534552581762
-3.988975038464986
-3.7043230147286184
-1.6463305975222848
0.7902160826720589
4.553833456309215
5.967796639338181
3.2806780646374545
-0.15404062506597496
-2.6469302797712477
-5.1710358869864885
-4.141176493121744
-1.5317003176189719
0.16778733792232364
1.7528711397618457
4.143846206633609
2.7982442757282584
2.029725630531103
-0.08019461873206588
-1.5641442989186725
-2.902333720541592
-2.3092776602396783
-1.679652172124754
0.5344905320818729
1.6981240169816647
1.655712835673249
0.9491294125639118
0.25801133591224884
-0.29547821732762103
-0.5687738452375039
-0.5653342265286957
-0.3745076347155421
-0.11204692244899053
0.12180249356586068
0.2620857063484637
0.2817262266627522
0.18593845970315073
0.006151220054346234
-0.20375286179369004
-0.37168224898448055
-0.41837412555003023
-0.28097471910982236
0.05017127620713597
0.48904122735062333
0.8213793749708537
0.9015502190656588
0.4944365933415433
-0.43443104477090905
-0.39522612074765123
-0.6480951137791542
-1.5154724976587812
-2.1694650789480803
0.084337114594854
0.6324852187669239
1.9279553873003827
3.2793148952079734
1.3267866721974078
-0.14584441057077008
0.9389463124878337
-6.209524164737192
-3.4119679445250557
0.8284216632860719
1.7308935637635074
0.5127602395614697
5.005705368325709
0.5011199192467175
-1.1114215506585183
-1.8988771918190717
-2.1699584555544766
-0.5543916066577073
0.6695110957292449
0.9784011804548527
0.7532824495488405
0.20818423579677212
-0.07045140766381933
-0.1569590214297931
-0.19139435377616462
-0.16521653674924672
-0.09926720487244986
-0.02333756560969641
0.03759951076226517
0.0694992841630389
0.06950059686941153
0.04323089366110551
0.001664970526709642
-0.04125433544221105
-0.07046517580897027
-0.07226180166300294
-0.03857412376684896
0.026665558717359806
0.1002262069194237
0.1338240156554253
0.05283300029415241
-0.038464984549138145
-0.0449291983812828
-0.06383387863578532
0.033429488949216546
0.21789084200427705
-0.0850986117647135
-0.5913852485372493
-0.36397599283086646
0.36863831596684676
0.5840009632957932
0.8347676794681909
-1.3748361114914918
-0.9993952632277967
-0.049542425283260166
5.824124037142175
-1.0341203576999436
-5.429577440286872
-0.05916947255231533
2.1109394931278134
-4.999529372416558
1.1034564454353581
7.74726363257734
1.7837762173141196
-3.027197668353333
-2.3204594086479418
-1.351208582254543
-0.6193890210132655
-0.3599000289951936
0.6730440155960884
0.9395841402315156
0.8028688638883155
0.41566010093505895
0.038554876789301556
-0.19437756343334567
-0.2649675359826065
-0.23014207724040905
-0.17027708054202675
-0.1441414643603771
-0.16250434415436335
-0.18617496570469627
-0.14828204012246293
0.004851622792180709
0.2649261974757724
0.5197960446268904
0.7350885066995506
0.5732473662006832
0.2555472339137012
-0.740853804654805
-0.9736914906151736
-0.5474064275939088
-0.8793151482523718
-1.5418489898994554
0.41784932299360683
1.3043696440266157
1.793216410149118
3.202290764119194
0.4674990542036496
-2.7573656666567286
0.6979487405199427
0.7523046544959924
-9.142992945490214
-1.341157175638985
4.505275844779201
2.815519948510239
1.2064491841766922
6.291488317057583
-0.5582185625318563
-3.8724706520839396
-5.423196525760739
-3.564876484800381
1.3118012278308138
3.76153334878471
2.7355223535601993
1.1932965427168067
-0.43423982501670483
-1.4861246653691433
-1.22808536001739
-0.5696458959637416
0.010708887029561269
0.3036982980352259
0.36670673975380474
0.2939247601353229
0.17852404194759472
0.08313013420486859
0.027484961555908637
-0.005469707308578876
-0.04969471586782029
-0.1304446819178429
-0.24245590819982168
-0.34100305919039936
-0.35249337182979534
-0.20655702386243419
0.11538760929696415
0.5282611303681848
1.008111961966805
1.1954371553188043
0.8524587763289981
-0.026520690017005716
-1.6762006200200434
-4.240299008775373
-1.9273070132309313
0.5185508415790222
2.4375484675227934
4.428540678661338
4.374532756329233
-0.1939941324626007
-2.9708721659642627
-4.435102920658018
-4.6156700802586235
-1.5809569861725723
2.28204196249198
3.823403403790437
4.425221756313955
2.370585394748636
-0.01101219739475909
-2.5966027939496565
-3.380115783868092
-3.1532026287601567
-0.8723318107733562
1.2167625973439955
2.094284780421266
1.7774552828697203
0.9099166844238176
0.00040154559338387205
-0.6539399243224429
-0.7627406916898269
-0.5848947707988114
-0.25399402128236365
0.08566868134519953
0.31980523577661246
0.38247934132844547
0.26048664022762363
-0.007757519524536433
-0.33568300610007856
-0.5981436225336182
-0.6550651907517722
-0.395406200245025
0.2007804326602576
0.9972619934145435
1.6604497107849752
1.6727513208251168
0.6205390128821259
-1.648929950718601
-2.8407065381663608
-2.659667713008667
-0.3563542544431288
1.1965234802938558
2.714925218251274
1.662892084645538
0.23535035674101398
-1.981176587432778
-1.4533660409981264
0.934936705022186
3.5791826045810784
-1.8988870201878085
5.142288585286693
-2.014564319533131
-10.247143128466483
-4.496817047508684
7.556225057577592
-0.16019951951617498
3.743776425329824
7.622421205805568
-0.13073259490981706
-5.788113871256799
-4.62425452151975
-2.0065065767352595
0.6285806136189189
1.8414611853988898
1.7092306136429942
1.0658835974113905
0.34086329121738984
-0.15043654695780542
-0.44624170488296505
-0.5193447954177735
-0.42579909972605684
-0.24906148790098873
-0.059468403200242964
0.10261838355872818
0.22244421953872082
0.294915723741742
0.30920341252449185
0.24398404669681292
0.07789376511547247
-0.18766953715240187
-0.5035839785708752
-0.7608973610219101
-0.8064498399592606
-0.494188524382102
0.2335562481916964
1.2581687257471257
2.2288880162327698
2.582200191326582
1.665443950311258
-0.8423965579790921
-4.470457309490164
-6.759943736812145
-5.648537371209656
-0.5068582319965084
9.203550579598112
8.202977726129104
7.224087580695731
3.99883171849649
-2.535129959614521
-13.532460014157651
-14.521026355419208
-5.186900045892479
2.9245124456561333
11.807071412326758
10.145383289384405
11.594577393306711
2.509464395489661
-5.757386600524984
-15.124474583600355
-13.948318136598344
-2.4627925106008974
6.870941070292493
7.913553430776392
7.532382936965688
8.551252502822022
-0.9734493331428786
-8.26159597689961
-6.801547893023622
-3.0424258858556894
0.39508106906099044
2.2685106899852996
2.6309406294272524
2.0116453860524137
0.9785876257550408
-0.02914038756059914
-0.7642484491210741
-1.14438130319959
-1.1800944673306908
-0.9081798000047896
-0.36671520551778675
0.37761975406980397
1.1672821196401806
1.6946948439125893
1.6904666758903764
0.991225339461312
-0.7097320575905912
-3.263557491740053
-1.685178728370374
-1.2666335350792002
-1.4386414428165875
-1.7888842619565515
3.60830913366395
7.242594119199073
1.5133007222744177
-0.9347055185138886
-0.45700288460255184
-3.49610327767908
-7.828721142341753
-0.901813349786365
3.6641774209289584
5.614130293795695
4.930423906436718
1.7547016129787072
-3.576889956438696
-10.419614259070945
-4.743461621982051
0.982982055024245
6.307902810640227
5.597054154152026
7.8946684610470745
0.012004961915821758
-5.489062953254588
-8.288458132180885
-3.0496345464745365
0.705111075581315
2.482598402015471
2.6844793962395914
1.9510244947979163
0.9040003682512654
-0.023662669183441426
-0.6393356234772757
-0.9412618542964821
-1.0160834461801755
-0.9381697422099812
-0.7141842630164971
-0.2936741861679307
0.3603097161740915
1.1711798374582414
2.0666373161983143
2.3646126970490298
1.4621630908797147
-0.9726095999713295
-2.752772796674234
-4.958834133850916
-6.064532384777182
-0.2772903602746775
8.109398182978767
4.252847933468601
2.755273435958587
2.673466050843059
-1.781398487001205
-6.890904854406074
-0.9467367962629125
1.6104183098033422
0.11071783118202302
-5.224644051077277
-0.36829313355604004
3.0534050619243094
-0.011861072857815487
6.16797841421718
2.4071088828906704
-4.537483479691801
-1.5280894692594371
1.1204259556604876
-4.542804746813705
3.0946300128689055
3.7580711500094948
-3.415494493445531
-2.220648633693859
0.03113258999292076
1.0758510475712582
1.2141551649624907
0.806624448840755
0.18289638743575773
-0.4099411238235752
-0.615551687830393
-0.547131014142175
-0.15769242168609346
0.1816823950723451
0.4898960697400818
0.3745759154584996
0.030245365376868005
-0.3579436587822932
-0.4054476846538697
-0.32066325375424576
0.0949950289992296
0.43749510905789607
0.4861744528807784
0.19450854855304592
-0.10689154194292881
-0.49439850909845445
-0.4296200427100313
-0.14253893346661334
0.172193716862418
0.3446471599012534
0.2108337594774119
-0.004657648032232759
0.10331278933029232
0.12490289776986456
0.050306917042530416
-0.5105336276036141
-0.31184666445088616
-0.2681658881309366
-0.06805465321317405
0.19591294734578496
0.790004976791151
0.5092648605128167
0.06818902633476051
-0.28141090417925135
-0.5100487626025445
-0.36184307546981964
-0.11453488476722021
0.03896354568571703
-0.016872732577130345
0.050336809884565875
0.1784822418635554
0.06679441889949869
0.1406868737060043
0.3344393972683248
0.29736302891337246
0.02465999934798971
-0.09153861822197004
-0.40179117403984915
-0.7453047666694068
-0.2187130316210202
0.02069276083072971
0.1152629246033807
0.23964074403760785
0.5223120749416652
-0.025207493308892687
0.04413225960969296
0.19815696306795885
0.3460411146511046
0.09109457882457986
0.007691236451304289
-0.27092050527511513
-0.7720618598832415
-0.730641484514307
-0.38082906949024314
0.00044091381100555457
0.20578038173916266
0.9880870512140187
1.161828409618093
0.9468336763760481
-0.02494139315823436
-0.6400394204350126
-1.3952147436755844
-1.289944532765089
-0.7601837419741888
0.3222666010931737
1.1871446617120713
1.4680950666265802
0.711404249806049
-0.07313408310205324
-0.6044665319039173
-0.8760986648968505
-0.6831301989886082
-0.16084017484047233
0.2451286811977692
0.37314732285592717
0.3146785341881108
0.17466533223657074
0.0382795833703449
-0.0473508658146202
-0.07505020366912951
-0.06699963985949017
-0.05788073940240959
-0.07799729528886101
-0.1412172625489922
-0.0405472831903465
0.04818852172758413
0.15654431387288661
0.11149452393997572
0.12595966905655476
-0.004708875738181109
-0.09941217591116858
-0.1831887649681593
-0.07822304135294145
0.002122880380211591
0.05422023086020028
0.08062868860154243
0.08469203462459132
0.06638308870567927
0.02156275457325265
-0.055001865786002385
-0.1644553864179985
-0.09938710217757565
-0.04293002441018333
0.027255211835705378
0.13125128818717038
0.2787584186226271
0.0646777797255434
-0.12884323334988476
-0.12423441934799856
-0.13776341277577572
-0.1712954070762399
-0.010531817043990263
0.16929419324651915
0.19273491981388013
0.07321148096083883
0.006596936774054415
-0.028216423282529716
-0.06240737076345142
-0.12701981521300362
-0.04336588799913116
-0.017289804678038274
-0.03886848051367231
0.11288271603265096
0.06237124647542981
0.029699339719783183
0.025398398897051106
0.0490169773512575
-0.10854663132794039
-0.06035196814685111
-0.01840186116337665
0.009856395992105174
0.022624831738033903
0.022703161736442944
0.01528516980107737
0.00569829630176144
-0.0021627088248454733
-0.006443725423960457
-0.007118339417156801
-0.005304969908833183
-0.0024891672666353974
7.748036155518635e-05
0.0016823575241440621
0.0021758833363023722
0.0018109627974767215
0.0010159371165630224
0.00019631885905969747
-0.00038344272668171486
-0.000630715641823647
-0.0005905219436130782
-0.00038097062338267204
-0.0001295985591524015
6.985624946384958e-05
0.0001742699956588317
0.00018599138017852854
0.00013540925208362255
6.11789249280228e-05
-4.867155627103325e-06
-4.5139573547891475e-05
-5.65457322107451e-05
-4.613006003460858e-05
-2.5154503784533597e-05
-4.037953854922004e-06
1.058288794559011e-05
1.6533897125299388e-05
1.5142630047211982e-05
9.538595305423411e-06
3.016029324002865e-06
-2.053369795962377e-06
-4.620896735193068e-06
-4.8020901199735005e-06
-3.4138343415662807e-06
-1.463349180376773e-06
2.3421665177492595e-07
1.238187308590824e-06
1.4821375891738385e-06
1.158898239346694e-06
5.690129290609922e-07
-7.35226819280236e-09
-3.854702132337085e-07
-4.96742067691091e-07
-3.711650943455125e-07
-1.0249054183069935e-07
1.8792995792831234e-07
3.8163262566220666e-07
3.8847990937076743e-07
1.702075789190994e-07
-2.3799521977722984e-07
-7.147568024316664e-07
-1.0615812770761778e-06
-1.0469881871758065e-06
-4.901295322151474e-07
6.300007664057875e-07
2.076568009824018e-06
3.322844182261978e-06
3.6414551416025716e-06
2.3430841739785074e-06
-8.647770618699794e-07
-5.505292500613709e-06
-1.0121355221492122e-05
-1.2424305077995787e-05
-9.938246219257514e-06
-1.110573373325824e-06
1.33876614898971e-05
2.9702081268614405e-05
4.084675604739988e-05
3.832910856054137e-05
1.5460414500001838e-05
-2.830109448407294e-05
-8.351547843841165e-05
-0.0001296195866228645
-0.00013860463726665326
-8.449768824727212e-05
4.2656851323505675e-05
0.00022259403204599236
0.00039727441474652454
0.00047756150156537185
0.00036910008595941073
1.578690323663118e-05
-0.0005503786627581021
-0.0011739284204690071
-0.0015808809197368865
-0.0014449817818899995
-0.0005181578536463331
0.0012018309123776924
0.0033275709521451554
0.00504671648027919
0.00527564929231478
0.0030360476895062716
-0.002001753119787699
-0.008979402107375694
-0.0155829541765587
-0.018336040659243793
-0.013633665428124261
0.0005647355774732128
0.0228371750002714
0.04701517673099452
0.06250489665378871
0.05698289305530425
0.021497427913877442
-0.04319667968441233
-0.12160366606293309
-0.18325922998367047
-0.19073708436860629
-0.11766953778533902
0.0247089447862929
0.1582395367411082
0.3154154180974462
0.23558266479784903
0.3904754479462554
0.8453623314142042
0.954335856501288
0.07685971880414447
-1.7126678425458284
-4.166482426308507
-3.9060642326081663
0.4038714161170334
7.171095311614654
3.767386526147919
2.7188230013048815
0.49190021751930785
-3.910358188082198
-8.823428422250974
-2.0040962680161187
2.7583785406218535
5.063641667270439
4.812830739731161
2.1207672899702437
-2.6931159305127874
-9.040036071808705
-3.007845263819745
0.5787932589531084
3.1395056525773497
4.215875624020614
7.776574180785837
-0.11362546574498913
-4.191814001211288
-5.098064769950958
-2.4032138872053
-0.5084319897980452
0.888113670071465
1.745230634988967
1.7096211449604088
1.1090319300578093
0.3834384978402529
-0.2026022571826622
-0.5613675736410089
-0.721830935067478
-0.7473176812883322
-0.669738209763956
-0.46719568185624866
-0.09339298530361625
0.4526832858535634
1.0454357077097334
1.5782679364069518
1.3734173794140832
1.0781259256817142
0.04106536017756843
-1.8725990209418935
-4.101392357388039
-4.931445421846273
-3.8342874986933113
1.9912714395354671
10.15466671396519
7.254517944190217
4.8997640878772994
1.0957164340131589
-7.231356279365998
-18.162178943169287
-6.049591562966458
3.0344526225457145
5.398754648537431
14.331386722054477
11.695466658278479
-2.1920368043502703
-14.077210595203864
-6.583952122072729
-5.779674571654465
1.0634868498323091
6.013585976664728
10.610128626390745
2.5684939756484586
-4.568281190966759
-4.565083679873326
-2.6807415201193163
-0.6345488932031067
0.7370946961291732
1.495512799359282
1.5148934344478624
0.9589011620175041
0.17570315826431757
-0.5583203603524296
-1.0476848128905152
-1.1640593547125069
-0.8402609432748204
-0.09178111097562283
0.9365953403685681
1.9255740445874998
2.378784846661744
1.9001029650284966
-0.23872958575132322
-3.474218846373492
-5.350419981108061
-4.441948488202432
-0.8753696860308837
7.551627588878332
5.149009408755177
3.16910793567051
0.6421788764391577
-2.3278510659206733
-7.858277427084583
-1.500579366254963
2.4928960122085635
3.368558717525195
0.9343514109512006
-4.47213485480376
0.9279589143455904
-1.1769898385950321
0.8401096966773376
4.154182756305599
-0.8866004460859629
-3.083803152641481
0.954346162549059
1.0140832930717316
-2.2783348523576197
5.428989027721468
0.14237165275722327
-2.50964443117503
-3.696286070044286
-1.0430857969509288
0.8193446177868982
1.597023625060488
1.3921519522540966
0.737834225624864
0.06406844179966362
-0.373140637511335
-0.49718091998606656
-0.36933007100269016
-0.12644835359042064
0.07954450859990123
0.12652460013510597
-0.054235818631329646
-0.2764540364208941
-0.7182544255599531
-0.7603013267384278
0.16431213311597453
1.924895281294
3.0798311727663856
-0.0760740632814895
-0.192089497651063
-1.0937534703074627
-3.2278251412466195
-4.999613438602754
-1.4687624891408213
0.3794967105612718
7.445243903451973
4.135451477592588
2.9516628408625745
2.1574516322438524
-0.25870469143408364
-9.023156677543488
-8.802014871675826
0.18690769374656166
2.0382193202315864
6.089327786543175
-2.369186693249713
4.567945293622459
1.5862263100213005
0.9148373226789328
-4.283754296409495
3.873327189991239
-0.09358341086548852
-3.863677791600529
-3.5918711440566553
-1.1007963990234433
1.3627773429227443
2.210581882247457
1.8936280584833027
1.0686368032294093
0.22673243885129232
-0.37688564322809287
-0.6963830140312238
-0.806778526330509
-0.8008306096087138
-0.7143094791958086
-0.5068808861415126
-0.1044418696381791
0.5133681313966478
1.415288486169875
2.0553283249637886
1.8866086618115556
0.4742435618936099
-2.506594461267134
-2.6425712875880083
-3.8068016268210783
-0.114365595885387
4.154015089961871
-3.1173363536986014
0.5773920191451306
7.438644492710265
-0.4645213601261578
-5.461510206485309
4.427333869952403
1.344192540084217
-3.660897031461683
0.7458082270089752
0.5230070741815264
-4.505158669649593
-0.5654319447950287
0.15852297741521856
-2.9678883306369035
-0.2676558230526816
6.55425282183507
5.380541115822638
0.43855860662455276
0.32745364100920943
-1.485636677771779
-3.1923391536799546
-6.341276533201285
-2.25938796622503
1.7013056372138604
3.2748612667885992
3.022175847708786
1.8228722528107077
0.2310341923737473
-1.0457046151771996
-1.7483861824173843
-1.800623073741906
-1.2378852071054316
-0.17848803144047756
1.1537619444556195
2.3840995849578985
2.9722192810521992
2.2810246745489597
-0.05050701830532442
-3.864326422915713
-7.661172706082346
-5.318148904927458
0.7655733294413414
8.49925235329116
6.027790879628157
5.3473839975855935
0.7766492692920404
-5.063029445794602
-10.24577724181813
-3.5012256259587846
1.481358248444764
4.316824470088705
4.997633928762121
3.706099667958952
0.6952481236820756
-3.704569467097273
-8.993475272632217
-1.4303142294186242
1.9171554803159987
2.7729137117887555
4.374190683223735
7.042391651392085
-2.081103478814873
-5.0941034063852015
-3.8452380927811
-1.8223642459853728
0.2594413427308399
1.7096911432560462
1.9718917738439796
1.4599533192959928
0.5998514261955239
-0.27044672650351215
-0.9292943725688231
-1.248961621128195
-1.1610264304246534
-0.6450985305250072
0.24310303810240855
1.3157022500611733
2.2043035981676464
2.365205843314532
1.3725108005669346
-1.3008971069544355
-5.062211973921037
-5.225102348039754
-0.5768077975284174
4.465490050037244
-2.2596826321256964
5.374451538889508
9.897550234004232
-1.6499984020356124
-12.177118113260493
3.572125647232507
2.179066190159654
-8.170868339117622
-0.9658266957633943
10.18574316530134
-5.023691786371834
-3.442127628050929
6.112378493247147
4.492507980538875
-4.025748389096163
3.1395137721503366
-1.9348520393067754
-5.651355415604793
-3.7218010487114817
1.0710020015336936
3.758088245963202
3.7671636099017047
1.9061210288951478
0.04657259289047608
-1.4473037953333567
-2.769171284130944
-2.073498246845776
-0.31321992818318095
1.0338420326416538
1.3416856539947215
0.9470212747715259
0.24079469957430885
-0.4226967174996094
-0.7844055167294784
-0.7120961677739499
-0.21804429550980456
0.529279649453632
1.204547709143944
1.3520112878615616
0.6557876631090349
0.05722846033393089
-1.501547204259023
-3.953322090075975
-3.05668328086494
2.137755131155475
5.709906503145409
-2.9620336116495154
2.194895734849614
4.242944368494619
-2.945128968999931
-5.55376549635188
4.568723626134729
0.30192006205381033
-3.0056016143319995
-0.6724837382221651
-0.9109554172409678
-0.7446576629661071
1.4032228717878534
2.5017360293100697
5.753375549609704
-4.051355662333775
-0.6382113006909078
0.762183063802234
1.0738983489666714
-8.397046454674621
2.361825003226824
-0.15392805324865003
-1.140678036059999
-0.1678458954670208
6.918226517824184
2.9652246834177616
0.6432698413829337
-2.2367492520341767
-4.657686216363483
-4.0899870975094315
0.1344531042458965
1.2919016127634275
2.5797397007081337
2.539059489067894
1.0782194344533003
-1.0320854201209106
-1.3691445547642973
-0.9974211756680584
-0.5843931220060578
-0.1373191704235092
0.41634302503520537
0.60659586062534
0.3748981934871816
0.22757042373987038
0.006457503690301235
-0.1156813015520409
-0.21776959010636388
-0.2002064094556962
-0.15288038283563885
0.06964461245554046
0.061073142556417735
0.06412840071798978
-0.03837610563263563
-0.13883579927449166
0.27631558948547025
-0.4934240628271364
0.2185662291375223
0.4315710255629635
0.3113852241805204
-0.4239723853337834
0.31389230708238597
-0.3898602609182205
-0.42658719128290096
-0.04557076193585208
0.1509044498095201
0.19852884538545676
0.15301163329931186
0.07076281509484597
-0.0053609877490129335
-0.05226518936344266
-0.06535050393056852
-0.05256500560218877
-0.027116580492325917
-0.001453865517090828
0.01619682997396328
0.022715940397792327
0.01918392408855911
0.009214592225913613
-0.0026499624726712074
-0.012094327346069312
-0.01576338671335424
-0.011834231946353602
-0.0006675669827219408
0.014439546325325773
0.026663630525540327
0.025672304863695723
-0.0013689780067183484
-0.067746911396936
0.01552232918136679
0.042485396488486135
0.014610293180162092
-0.057574412851953805
0.04617215809837807
-0.04498597079784991
-0.095757733805969
-0.06991072428447152
0.062382636426125467
0.11635091297729144
0.08607737055481224
0.1425473963270156
0.038296127606825124
-0.08156157165385503
-0.2648410617434162
-0.13925867165506853
-0.10589140636096903
0.058118010374487494
0.1886950902831161
0.3204792953219442
0.07515287099419976
-0.14287120039260495
-0.14256280611633562
-0.1373967563898722
-0.13663077530741022
0.059121272991729104
0.2568522665715381
0.06654244389784739
-0.10374610397122845
-0.05060009613450381
0.02457997013365678
-0.08316322061462175
0.01904215978298586
0.12287087232385432
0.019609891777472237
-0.09869322288094745
-0.037668856800017525
0.0007376584102479966
0.018621613499463608
0.02118226824420345
0.014937816302669183
0.00588117622098469
-0.0017795132573225547
-0.0060402780252087306
-0.006791111616741056
-0.005093296825547311
-0.0023911074597078785
8.954335861745956e-05
0.0016459601959011646
0.002125482853200641
0.0017701092279323377
0.000995112831338287
0.00019517460185449956
-0.0003716097357527656
-0.0006143369603708764
-0.000576398631700431
-0.00037271109691703886
-0.00012765193225921042
6.718269721542727e-05
0.00016949514991759128
0.000181369318549416
0.0001323217670690309
6.00236577098236e-05
-4.440167501131479e-06
-4.384478386975653e-05
-5.510579976443601e-05
-4.504768099915118e-05
-2.4636464313950697e-05
-4.03917806669618e-06
1.0253074026998075e-05
1.6099188461731236e-05
1.4778128734454306e-05
9.33405427022742e-06
2.978785629850304e-06
-1.971298788786012e-06
-4.488707704422466e-06
-4.681876949863308e-06
-3.344174705209862e-06
-1.4549602310236507e-06
1.9411242689993846e-07
1.1770153699784015e-06
1.4319128361014601e-06
1.146689509743545e-06
6.086506783951268e-07
7.841982690425934e-08
-2.815311833338408e-07
-4.214976770635973e-07
-3.786263301821793e-07
-2.334347617330337e-07
-6.877563309669081e-08
5.685648369907893e-08
1.1861941582694026e-07
1.2071058846437347e-07
8.439304335893764e-08
3.509754419767262e-08
-7.038023077340108e-09
-3.150428517485565e-08
-3.716129140781027e-08
-2.9152953773943564e-08
-1.4995225740025838e-08
-1.3612785177675155e-09
7.6898417369598e-09
1.101886073770488e-08
9.689211743010296e-09
5.826461063626833e-09
1.565422311193518e-09
-1.6189288040427805e-09
-3.129056443947967e-09
-3.1089418449709875e-09
-2.126855861049426e-09
-8.423325817434787e-10
2.330075701161151e-10
8.406711102258621e-10
9.62932612147419e-10
7.399371772583212e-10
3.6801991715969617e-10
1.784727543251158e-11
-2.093739919224364e-10
-2.87945801111476e-10
-2.479606487290076e-10
-1.4542829221254414e-10
-3.529208244820142e-11
4.5312116755125055e-11
8.209583364393604e-11
7.968253561235474e-11
5.322029320774568e-11
1.9792949089258278e-11
-7.617991397276531e-12
-2.267469347027368e-11
-2.521932806680287e-11
-1.9053610587147747e-11
-9.299142534574916e-12
-3.156233089126127e-13
5.378797551007977e-12
7.216413434159155e-12
6.0406639529745606e-12
3.324869815738772e-12
4.814831721237225e-13
-1.5559961291299585e-12
-2.448208868321532e-12
-2.337552462219304e-12
-1.6268473152392681e-12
-7.580839416309317e-13
-6.021345285375007e-14
3.119127538368806e-13
3.618895182728927e-13
1.9244580185640782e-13
-6.299692057604641e-14
-2.9320102513536246e-13
-4.356521804961084e-13
-4.781587283679314e-13
-4.44171794193939e-13
-3.7238243385412993e-13
-2.9905976270525823e-13
-2.476308230325067e-13
-2.260918332881307e-13
-2.301818871654955e-13
-2.4921313663755566e-13
-2.7176384455540254e-13
-2.895094508217085e-13
-2.986808919514035e-13
-2.995668784533511e-13
-2.9493372446066503e-13
-2.88252992285995e-13
-2.8236014556480064e-13
-2.788040964845998e-13
-2.778366381295543e-13
-2.788099862441111e-13
