0
1.24955963093619e-09
1.7985940772855875e-09
1.7796348236996012e-09
8.723441920763215e-10
-9.917633047999232e-10
-3.4493872326784547e-09
-5.633860466979707e-09
-6.310089127822594e-09
-4.269383344635834e-09
1.059552349076452e-09
8.95911059145042e-09
1.7028312201313936e-08
2.1388971878102196e-08
1.7739523319647512e-08
3.229167077889052e-09
-2.129513277812697e-08
-4.955975163907664e-08
-6.980636044238657e-08
-6.740315491484806e-08
-3.038782485137823e-08
4.308774140782635e-08
1.3797607909784592e-07
2.1994309931664271e-07
2.410940076552174e-07
1.5570568957680349e-07
-5.5979584054853525e-08
-3.629460687176899e-07
-6.692191801099758e-07
-8.234594177575456e-07
-6.614097524615732e-07
-7.934678993904422e-08
8.796668264671719e-07
1.961805314866228e-06
2.705236328007737e-06
2.546987003389151e-06
1.0416822952095836e-06
-1.8507085594917e-06
-5.509869748249554e-06
-8.577556326410262e-06
-9.198645407274058e-06
-5.6469714886405155e-06
2.7491367105426437e-06
1.466378359324005e-05
2.6267483615069172e-05
3.1661242564155665e-05
2.4582485644135467e-05
1.2803384728631827e-06
-3.617800314443398e-05
-7.754904075258867e-05
-0.0001047153943284724
-9.604417925382942e-05
-3.5007681917377504e-05
7.870807319656226e-05
0.00021963724040975367
0.0003341200820196553
0.0003503817119188536
0.00020338776610505553
-0.0001291952548083625
-0.0005912106871761142
-0.001030128157374051
-0.0012162667888796176
-0.0009111778527695672
2.000281625548145e-05
0.0014821229926009157
0.003063710815242433
0.004056736162794524
0.003634415081329904
0.001191331064713305
-0.0032274633348152617
-0.008568507381943518
-0.012702223432416775
-0.012851012710243062
-0.006598625171403003
0.006661222918551379
0.024261380865506974
0.039434043085384236
0.041795642827236815
0.019516193268478924
-0.03710908884244291
-0.13180012824877793
-0.05985478652294052
-0.008689998210104322
0.0382111666965075
0.09520567243598937
0.16886287850139473
0.05562919754706555
-0.05561491753380226
-0.17678421838304748
-0.1125341076897198
-0.05475831557100699
0.017608545595234535
0.1332211913649466
0.11962227815545971
-0.0053367543720108344
-0.03902964399313804
0.004646818980759502
-0.10237694547573042
0.002164133838120617
0.0761814485773475
0.07872907492409631
-0.024305841792736822
-0.054365590353922834
-0.015012623908934118
-0.0888606458380834
-0.03822544740025643
-0.010330087738656079
0.053361340035880944
0.005435876991321104
0.08113492717235012
0.09015822434141939
0.013977832050028805
0.009744827871480639
0.020269372611723433
-0.012013988522129742
-0.13033709220709336
-0.15191398773932796
-0.0627474803439622
-0.02098748816989161
0.03152471415796541
0.152599655236653
0.18293070188701294
0.13454327354202802
-0.011780277359155364
-0.09945116592858717
-0.18225790516186385
-0.10902060825327724
-0.1121305240149773
-0.003352498225802108
0.22301725757699867
0.18264991321840623
0.09387324341815081
-0.025809660101666614
-0.15867992213412163
-0.2839217709341829
-0.17739158215668538
-0.017543109572011658
0.20259312771481774
0.46206122864375515
0.30495087585883124
0.0465863624839086
-0.2051844915385383
-0.3189143728198942
-0.5097677746889036
-0.32334330834045655
0.15877759963158164
0.8917206883086085
-0.573624379560322
0.06696850173040593
0.23797915635150219
0.2675321374398615
-0.2085260108118059
0.980037522069244
-0.014560040983144578
-0.5968633589485126
-1.0674602065693217
-0.9818748743064489
0.2543970672073473
2.7504866675039317
-1.9338543003596511
-0.060574049524925434
0.6228342599504822
0.23663222132772832
-1.4559440536983619
2.7534622036847414
0.352012043745043
-0.8287924163711085
-1.1256696057387834
-1.1577230831335266
-0.3722999344829891
0.356147967243786
0.6735761196791675
0.6602979537125889
0.3419062010205969
0.2250887319134119
0.07449744299124529
-0.06755084289989245
-0.42868422449036636
-0.6386631656505459
-0.06495138646850686
1.6334536380509586
-1.8739949201153578
-0.5981437555488839
0.33209023138751803
0.40628512431586133
-0.7446888843116538
2.5816521098013934
0.7218292470525758
-0.3410736277784011
-0.9134789393870236
-1.296379219179904
-0.8949377573822264
0.03323539431065358
0.37437744499267844
0.706108592202537
0.6207960453939387
0.4549951044265178
0.04871438970153546
-0.05550012320290935
-0.3784345379952866
-0.4506233669115244
-0.35920770015820075
-0.11270270705733935
-0.0336634194441633
0.020323282744743588
0.21537051779390715
0.493114590952318
0.33039645786785926
0.11887426700993621
-0.02979473038376677
-0.25602458544851314
-0.5119189225655842
-0.32234992879108443
0.040232201550158934
0.1612425625617968
0.27172631089683374
0.22664438348205607
0.08350851915907388
-0.1115740348073916
-0.12836661504828217
-0.14986909192634595
0.03298155414655323
0.025530471530869746
0.031040018649514483
0.050354528347560004
0.0811656834762468
-0.08180087502288365
-0.04530013354817967
-0.015395852198825163
0.004333218151308965
0.01344476309269622
0.014081367747662258
0.00970992025579077
0.003791430824118033
-0.0011529397756750927
-0.003903075348858054
-0.00440124752323141
-0.0033235441959584464
-0.0015911467016601678
9.912730365910027e-06
0.0010248598150749296
0.001350117361474024
0.001136209785740913
0.0006471346840532576
0.00013610213379240696
-0.00022962953617382793
-0.000389440782276154
-0.00036914246927661386
-0.00024121150092229214
-8.506424657168403e-05
4.025120371863009e-05
0.00010698573475031133
0.00011584704141708209
8.532816816422356e-05
3.940939585889608e-05
-1.9343822200874608e-06
-2.7491122016678884e-05
-3.5089455555994e-05
-2.895542215423698e-05
-1.6045127644924137e-05
-2.872989700433798e-06
6.357415278962917e-06
1.0215454276248298e-05
9.471151459876509e-06
6.046859005695135e-06
1.994613254593993e-06
-1.1913705151638117e-06
-2.8357664849976113e-06
-2.991975820759921e-06
-2.157841764646441e-06
-9.571831972546673e-07
1.009938530231016e-07
7.390508818292121e-07
9.123193154633603e-07
7.374684856574702e-07
3.9687201884757817e-07
5.7608475692070345e-08
-1.7502069700738785e-07
-2.6763849044998086e-07
-2.427850756164379e-07
-1.513529952555063e-07
-4.6304851984059153e-08
3.460202716451953e-08
7.500497506844694e-08
7.718085051278688e-08
5.4490481112182583e-08
2.314170665032433e-08
-3.910233546137468e-09
-1.9807918843635658e-08
-2.3690572759091194e-08
-1.8760140191840094e-08
-9.790759905759046e-09
-1.062661208571354e-09
4.79112633455103e-09
7.0008658359332754e-09
6.21582164162156e-09
3.780658370027411e-09
1.0607470253161484e-09
-9.911969398588405e-10
-1.980642339645751e-09
-1.989268215621068e-09
-1.3746014672039045e-09
-5.57223404734801e-10
1.335353121316942e-10
5.287760289249622e-10
6.137800966746373e-10
4.759766266526596e-10
2.4016758524291813e-10
1.588738407849177e-11
-1.3114632823265143e-10
-1.8343707136380723e-10
-1.5946309186169774e-10
-9.471226908458754e-11
-2.4376116248110674e-11
2.7514613702421466e-11
5.149470615224008e-11
5.028869400433693e-11
3.3514267323755025e-11
1.2178991188533066e-11
-5.252601860441923e-12
-1.458690086463119e-11
-1.5702858094301692e-11
-1.1189153135500978e-11
-4.641563286555524e-12
7.702094500647777e-13
3.171145101948386e-12
2.258286408668238e-12
-8.890295204650663e-13
-4.307289083445533e-12
-5.826511095702153e-12
-3.8284391142057996e-12
2.0297657395604436e-12
1.0305694173572108e-11
1.7724586724376046e-11
1.9844479763664095e-11
1.254342599921007e-11
-5.868251654209567e-12
-3.2526582937117434e-11
-5.887853110138485e-11
-7.164421846203766e-11
-5.66220385651666e-11
-5.126792487176037e-12
7.856473354470722e-11
1.7182993194318324e-10
2.3421990616398435e-10
2.1705157248535812e-10
8.26147672495965e-11
-1.708848557952703e-10
-4.876051691705483e-10
-7.481406176333379e-10
-7.914760497298028e-10
-4.701856588129712e-10
2.690279780144775e-10
1.304436104122195e-09
2.2976857862537563e-09
2.7348123109353698e-09
2.077600017334126e-09
1.4748215089499273e-11
-3.253006558287384e-09
-6.814615750894405e-09
-9.0854137156389e-09
-8.197082077674869e-09
-2.753750544248285e-09
7.205869200314774e-09
1.9394885747706018e-08
2.9100337266441642e-08
3.009765972370628e-08
1.68408861964717e-08
-1.2410319489023792e-08
-5.2524086991861276e-08
-9.003657832869482e-08
-1.0495108363226555e-07
-7.680088772964026e-08
5.537160323821366e-09
1.3293765878938817e-07
2.6877093218405156e-07
3.5099047884478205e-07
3.079579190686814e-07
8.818028827011391e-08
-3.0262025582044894e-07
-7.711169878300971e-07
-1.131523342222811e-06
-1.1434854069144834e-06
-5.98860190897863e-07
5.570114484210235e-07
2.109280986579479e-06
3.523042947898229e-06
4.021175225888872e-06
2.826729167478037e-06
-4.5407510355831406e-07
-5.415383648517862e-06
-1.0587588752919046e-05
-1.3544143022374605e-05
-1.1541969164714187e-05
-2.6895751079013088e-06
1.2626497803112277e-05
3.060992913321465e-05
4.3946375963616876e-05
4.3366148566370284e-05
2.107754256028798e-05
-2.4535396255853716e-05
-8.453190714135283e-05
-0.00013769325823994824
-0.00015385325854374874
-0.0001035714319373505
2.693673742015526e-05
0.00021991894112177585
0.00041652906275963533
0.0005219743714380079
0.000431364926034354
7.55424587848526e-05
-0.0005240991012374005
-0.001213596703036455
-0.0017053376250928199
-0.0016421967009544144
-0.0007331144588035373
0.00106527506358849
0.0033838190892450802
0.005383914857165507
0.005899301696481219
0.0038221957358753568
-0.0013146634364305794
-0.008733556861783839
-0.016071254532472157
-0.019627306018315943
-0.01542942071662495
-0.00108340204210287
0.022013997897560828
0.04691801982732815
0.06086558179843837
0.04734203040046942
-0.009357422384964575
-0.11801767272400175
-0.07489064519088094
-0.06108711358928736
-0.04484264470926581
0.011110119644975939
0.1388334412262037
0.1544935659642812
0.0515134589049664
0.0003582330327452023
-0.044564995603863185
-0.13300562044159867
-0.10579244758006738
0.01543066024567719
0.032976932272424625
-0.02823484835067502
0.07300335767476555
-0.015026516066950112
-0.04694252557917133
0.01081924185876591
0.17363702733501882
0.03617892534373175
-0.025414915705081493
-0.04686688838210192
-0.06636127116282624
-0.11524783190717401
-0.011655921576811421
0.04132827177208323
0.05299722739570596
0.03947362736043205
0.017551588936823296
-0.0001278046304239891
-0.007541695148605604
-0.0053096663861220035
0.0011857700487823077
0.0047982440645897816
-6.0364713771630187e-05
-0.01451763734631997
-0.03346478178087826
-0.04554805385816581
-0.03533194918405037
0.012495561855997064
0.10780671565229705
0.050305287629233246
0.027323943584229377
0.015462581536522253
-0.013928062454203496
-0.08682260939102752
-0.018503203914751253
-0.007983763233571969
-0.03687643365593947
-0.07373339242671485
-0.08383506211988519
-0.04328205302476706
0.04512237674110229
0.13833892392793845
0.3473914374628067
0.3450527410178516
0.1902120561473173
-0.032856638141846875
-0.5691513336527501
-0.9568120901877232
-0.6176627692605725
-0.08657079106830383
0.32120947039661457
1.0218577520066061
1.2834474239653249
0.7863028575862113
-0.15684169061371334
-1.1224326301024048
-1.0638884478258603
-0.6035445883261112
-0.36417631240870363
0.04104715486079021
1.3632433332746625
0.43779131813211947
-0.1029887303146363
-0.30243475183738033
-0.32789121348114814
-0.496117833809632
0.919666287350983
0.5000222831568142
0.3101599640713666
0.15401088166130056
-0.3536766286030501
-1.5132136850653808
-0.886879450200354
-0.08739557471621402
0.5854398579161557
1.073836519592442
1.4872889802800402
0.45770429816557123
-0.2548793842459754
-0.9088520848097054
-1.5061877250912956
-1.1345755004444227
-0.15947800869193102
0.5219234362681124
0.9804097311668905
1.3453987270745968
0.9309411016592971
0.8309633282881763
-0.40597597480404823
-1.0410192745049924
-1.791510977155748
-1.7137263554559388
-0.7675645452568051
0.5180744892214422
1.6976659720940388
2.030510623461251
1.7367505145606614
0.5414809617274937
-1.2738283108319917
-1.9361414259922556
-1.6181959138058744
-0.9129625652930781
-0.3907209545704895
1.5522181708316198
1.5813007744566
1.098924976715973
0.35796604570993107
-0.15636161379418578
-1.0769800754690098
-1.0646332909745873
-0.5154504263004505
-0.10005263489424172
0.24931801745863907
0.7075683704080473
0.5001525501340109
0.24435443578326332
-0.09367068139341607
-0.41929896458153043
-0.5113581734958036
-0.21529349776975382
0.16422243778341872
0.6699595051315351
0.9043367699140905
0.05599497631212907
-0.4559646824850291
-0.7283763478609917
-0.9301230630030319
-0.689580661564951
0.27369270559219944
0.8769232124702663
0.7830954663039968
0.7219098803706839
0.2505592328417252
-0.0321594239893448
-0.6237265674641516
-0.6289997068603064
-0.6734827311681637
-0.24535218638427414
-0.08189404898127096
0.3991475896834387
0.4367517108666771
0.45409446807048426
0.3987466654944659
0.11169682806652785
-0.2692836211993474
-0.2775403763314397
-0.2703717252222978
-0.38312311056761034
-0.09792822001910802
0.1662516128256432
0.2435062228084539
0.19825802645262441
0.09998392935616542
0.003803567790057212
-0.05888276660139965
-0.08001481958445254
-0.06804233754385788
-0.038855438946102
-0.00794311162818431
0.014335241384144451
0.024097894264677237
0.02276741317167847
0.014689559739363041
0.0047395437819766975
-0.0033376657675123988
-0.007623433518351989
-0.007924416070867845
-0.0052309121022982245
-0.0010858620163766981
0.002913881491797337
0.005426003150072815
0.005544082068824338
0.002951408565189429
-0.0019036810768248117
-0.007665377439031065
-0.012114454088290424
-0.012584741173358128
-0.006858145632891402
0.005553276935676115
0.022094500413388563
0.0364040681100003
0.03872081035887969
0.01781671966753612
-0.03578212192502868
-0.12628595662604963
-0.050381692687303026
0.0024026252691896626
0.046394230614127244
0.09474429464814953
0.1550072634732575
0.027661725577823797
-0.0914256828181561
-0.20573916533917685
-0.113021700302786
-0.003548697687078678
0.13681034532999983
0.12013065078288347
0.15005599182121748
0.01909118139844256
-0.08877477065801959
-0.19129725074059833
-0.1004590842752453
-0.01798895987057705
0.06397479898321637
0.15769399095149458
0.07294505323022606
0.0118085763418562
-0.0327349500100421
-0.07440881532981419
-0.12925061784911956
-0.011640620109385571
0.06759558848709477
0.10095516375532278
0.08331166388202597
0.012053711191012301
-0.11086144405451587
-0.07578139606882635
-0.0632503583123423
-0.0450085129736847
0.01108398885491263
0.13324322257221216
0.13768822728589436
0.02343197547176398
-0.027829593531624397
-0.04650948360840726
-0.06650341314165242
-0.11624094327268307
-0.012371258069749282
0.04219626177696898
0.0559375700800984
0.043624727550245844
0.020744225668788367
-0.0007009075419428345
-0.014115321287107307
-0.01808609357152446
-0.014777286737098154
-0.007887590682014754
-0.0009240052571230935
0.003818035009451662
0.005532827482691927
0.004641077058745931
0.0022686320142755695
-0.0002884251129440774
-0.0019694666983270394
-0.002185703614540975
-0.000910973291724347
0.001336010614933283
0.0036034299711399363
0.004726039597386836
0.0036696360335905153
-2.3631529302353362e-05
-0.0057929984980342256
-0.011811616406094358
-0.015170223441161285
-0.012675772373045931
-0.0022683899291631457
0.01522880237287254
0.03462291300357429
0.04590875913985714
0.0355485283500185
-0.010339044865218618
-0.10149742939160801
-0.039171225740667524
-0.013575716336103038
-0.004404493423369252
0.015520493435164925
0.0744788424458362
-0.004363444269374735
-0.007929720171503406
0.06420676224887857
0.0001255278343567892
-0.021520935396264318
-0.026812196705404533
-0.04139098346169157
-0.08625149995406757
0.024468426352615622
0.08351762214059037
0.08924454374898702
0.04445088975212758
-0.04352586067644408
-0.16167679641113622
-0.09064581378857149
-0.00638219482530589
0.11511488680926456
0.091178411246203
0.126747310411925
0.012337950494651171
-0.07303434952861898
-0.15502551947760457
-0.05605643547258405
0.010520037115543609
0.042290006892811115
0.04578046046636585
0.03220719287542986
0.013005550107278756
-0.003345050651381322
-0.012610169871913345
-0.014423955287852166
-0.010925197713717378
-0.005158488462892748
0.00020030363934820216
0.003536184077153711
0.0044188020579386065
0.003337304213735581
0.0012703409458301837
-0.0007297771083641523
-0.0018436931484641314
-0.0016631877222843617
-0.0002617273538884487
0.0018215406306803727
0.0036863031786723787
0.004285501450249873
0.002761781198754934
-0.0011313662080289738
-0.006640515976363704
-0.011848004163064875
-0.013949085419913401
-0.010112881023222348
0.0011226988922944947
0.018250586355421754
0.035588753160873024
0.04318989172852405
0.028412001320649537
-0.020844150668651928
-0.11201792629226404
-0.04437410495435223
-0.007682486928432243
0.01605125419892875
0.048232921913412725
0.10827505960289939
0.009103984664384338
-0.044991029713332936
-0.05791538002453666
-0.039646631160451556
-0.0038058065478037656
0.03414530589520436
0.05806784291010266
0.05238269832555685
0.004154488506573861
-0.09385138130457459
-0.03997584645687561
-0.021804346982331323
-0.01692312955080846
0.003332605024629312
0.06789058595391216
-0.0007124728926428364
0.008194497979924421
0.09069351441387717
0.029231900184572206
-0.002678368217524873
-0.03297861132265247
-0.08282300201740529
-0.16028981349313096
-0.058573951141257165
0.04010914857336023
0.15585638012508135
0.10077901731192934
0.0712218382618033
0.045838612639362154
-0.00939094674617753
-0.13076895475713224
-0.14471141810947974
-0.05813741888396732
-0.05487505980702379
0.10066685425494146
0.05394733048544414
0.048190561751672405
0.11362696447784223
0.06117790170527972
-0.11799528265925989
-0.04762009801349098
0.041760998168151105
-0.07865357913549646
-0.029189177550503976
-0.01816480500010459
-0.04197750174232418
0.11175241303668879
0.059400464336978105
0.016787960633012477
-0.003605171129288622
0.006820754295045908
-0.1462390828601551
-0.05898730921502944
0.07014289304574631
0.03842766133151616
0.036013416393297734
0.04409252991492891
0.03574919883001502
-0.019778390591621512
0.05016114056982997
0.030405840789942126
-0.07406225632724298
-0.23392909624221098
-0.19825100740751694
-0.1062151552854965
0.09255856996120511
0.21371716609598596
0.41814362812806405
0.40579659685094777
0.23051378886061108
-0.26355101874669223
-0.3918164116814148
-0.5809311761009424
-0.5403106031794608
-0.26750916581175643
0.10876905392330836
0.4571596608214582
0.7640336560370755
0.8715195762077671
0.6555072130645941
-0.7461095618272346
-0.6620819309220913
-0.5962697161753165
-0.5455765612296622
-0.35166775304189196
0.9032078328945709
0.4616600974186502
0.03392976070570652
-0.2641564637001526
-0.3660508713863495
0.10240233346699433
0.1929326620547574
0.42076147259236374
0.5718056559162966
0.13559287900591016
-0.43754050757020413
-0.6652903422703363
-0.3659272036276987
-0.21328040650843202
0.07363099982083422
0.10505272594270897
0.367971472381436
0.16141806653275848
-0.06492864681309275
0.04333696617654904
0.3221656545907203
0.2914448486765636
0.1821110480728349
-0.21714366110238334
-0.5041633571920554
-0.8140018913269239
-0.3920067250416522
0.000668788956625459
1.0509330001045432
-0.1583645887447428
1.0054806081322294
1.1051832444831304
-0.9502134993459888
-1.2581172680254802
0.336051270563283
-0.7175288981792924
-1.0648012167461214
0.7184557026251873
0.6600798983688669
0.7145461014640807
0.9042915081990207
0.703499393581725
-0.7265952519886121
-1.061854721067454
-0.9267270939358246
-0.6268510704056254
-0.3277931299450006
1.114735300010359
1.0892520606706606
0.557018439811418
0.0037244742154395227
-0.3702759776362084
-0.6245924368755921
-0.43565737704213237
-0.05676306152773742
0.10371882881123863
0.08134951673142328
0.1365668661829972
0.1271683192324695
0.08243828647754355
0.18680680458334542
0.1775434699289289
-0.042838565250539716
-0.18281581980258194
-0.33372123885041627
-0.3462057244889466
-0.019086781898239254
0.29620560917784
0.2786446877041624
0.21593018742222173
-0.013355338250190734
-0.1487737873973407
-0.14858009370811964
-0.18613307571636914
-0.04741408016185534
0.06714269074188499
0.13680454842243556
0.11407803686613574
0.12233062422944989
0.06127886654514787
0.021554526434450914
-0.09362079604264696
-0.1444062807021737
-0.13430058674120915
-0.20028914229359268
-0.017392345692477985
-0.018420556794952647
-0.02579739576215471
0.11115261195568722
0.48227035382549915
0.2952068527232884
0.07374627406866749
-0.12221363632668981
-0.2600576611450186
-0.49230876351857455
-0.32222189536850165
0.012475418703940911
0.33428053659044277
0.3038694593503187
0.19179343876367616
0.05494424796428709
-0.0753635768365714
-0.19290153000668178
-0.10766675595114021
-0.03458846070293995
0.015274320102218897
0.03875057123681305
0.04010362326552188
0.027923248508424873
0.01142594950108582
-0.002353261434395244
-0.009848406242083354
-0.010827857783312706
-0.007347085847959168
-0.002385533903474672
0.0013682881399573513
0.002333197462663159
0.0003867777871977263
-0.0032125983222240522
-0.0062689960081335995
-0.006390580803327506
-0.0019332297851646536
0.007033349382264649
0.018031411636398393
0.026124801515765034
0.02482985914361542
0.008044214394091424
-0.027414485851644594
-0.07960581067610553
-0.1408767453038263
9.338522708253859e-05
0.15368398468214206
0.1238695815721058
0.1048026479121167
0.08201197166887776
-0.1612665170365589
-0.2349311321331952
-0.13438231619142837
-0.03871974676161639
0.08338355432589362
0.2619963975940707
0.11327434151471165
0.03130575092405485
-0.01205061050325967
-0.05928452037344472
-0.1543980699731496
-0.1297925511318473
0.00274364332312602
0.054429603603738885
0.055336628931033964
0.04589867068378476
0.0671555013127468
-0.04768993041070347
-0.07903538228749753
-0.02377966079354726
0.10429252591427597
0.0765386497561272
0.054249642238571864
-0.003640533293236082
-0.13090070157028413
-0.14481792106033287
-0.04060068690218317
0.008252991736219576
0.04326649372710669
0.10993456492394343
0.04576230910947631
0.07095039875321389
-0.015841018120131996
-0.0359894776554368
-0.024724182902935068
-0.022411553299841232
-0.06572991058660425
0.019279239392149306
0.02110288779982761
-0.05671401210191833
0.0019933300894066056
0.021440876752760785
0.028332730870351614
0.04666492746572413
0.09424425506746294
-0.01820690707087657
-0.08546119975689156
-0.10498052198885958
-0.07488878305487426
0.005624911020889061
0.13328146255639217
0.09670241590652574
0.07413018814415225
0.035174885081111655
-0.05289693971542494
-0.21607503890506552
-0.06507829571014175
0.009145839580357043
0.03398972873528656
0.048336177519387964
0.09277322081185584
3.114454192284065e-05
-0.01176921027579118
0.058294078500760564
-0.004411179787949009
-0.025082233744291433
-0.03267214276068869
-0.05315073886893477
-0.1047100284553369
0.0037852099524050766
0.07093972951936826
0.09880745977040231
0.08898999702529067
0.0411206879503652
-0.045253200005473636
-0.16632939430242613
-0.10983820520532593
-0.053928458075312234
0.029158573954931072
0.16535716211806098
0.17002294017244884
0.042091701154449164
-0.03601817073637909
-0.09253422186929859
-0.15698304444520544
-0.05127305884350764
0.015387808813569718
0.04630299013099678
0.0527118492225663
0.04727712976132667
0.03839256903977057
0.027331447724591035
0.009002589235985119
-0.02423554409020564
-0.07733378009613902
-0.14812571614928727
-0.025824762691350842
0.10652089559141109
0.06636506484440986
0.06517476643194549
0.10399607650012008
-0.02698516946363878
-0.14478935118903336
-0.06762942689136207
-0.009202902814026439
0.024499265753697253
0.0351413155197979
0.029541286373367562
0.016256005194497564
0.0026586027187857045
-0.00670793876503011
-0.010401099928513667
-0.00934885929283631
-0.0056793927390256654
-0.0016100944578375602
0.0012986906279974539
0.002435671371735188
0.002047745665564667
0.0009152032376060445
-5.2791583773009076e-05
-0.00018338662852472774
0.0007101010949424422
0.0022379125042565635
0.0035279433819715308
0.0035087718852707304
0.0013488039432170756
-0.003042809113618531
-0.008621359476246522
-0.013137877303618197
-0.013601349836105218
-0.007355493147155576
0.006379037079340366
0.024939901532908336
0.04132028111190538
0.04464799834047035
0.022459279850472722
-0.03550128705189739
-0.13310594785242583
-0.06510572574508507
-0.017539088634712926
0.028122057010413523
0.08825024799099412
0.1704284685648848
0.06998876569655672
-0.028224187841980285
-0.14301626403294937
-0.08748939909048585
-0.061063681740120564
-0.04633002040685174
-0.012302603380561435
0.07671141113340729
0.04934669230900437
0.11627363103999507
0.06382355748808817
0.05465079746070701
0.03598110149656615
-0.04627132786945941
-0.2312768168607585
-0.12993741907927592
-0.11915901331441021
0.05355773743852873
0.05591744267797737
0.15115643395648684
0.1790775030804403
0.14391498623389964
0.013046700231105986
-0.07293615465984771
-0.1820831097349706
-0.17086463844281258
-0.06845616349372494
-0.07031964951201283
0.0574930018566551
0.16550897546615378
0.10427009125536447
0.10960813510980445
-0.005869254184201891
-0.053310854049770824
-0.06126216182420618
-0.06551090795401598
-0.0988193915259278
0.01652391875866713
0.07197728259286683
0.07220980803475992
0.03226427509235317
-0.0260154419445156
-0.07762992692374608
-0.09860464900142105
-0.07164667202092297
0.00641139137799766
0.11664661666810357
0.21260734692969235
0.22135998493991754
0.05406821148519301
-0.17383135698472396
-0.11693284365178797
-0.17616040688511125
-0.28561919823263865
-0.11668976304928434
0.0980566912045099
-0.07628171841569077
-0.12786189303114104
0.15207953720818093
0.4332976835591085
0.6378470564481908
0.57014849777625
0.5912149416291933
0.1310939114230279
-0.7814245112531707
-2.8072665130076886
-1.0461820205338541
-0.2806312238232518
0.477987710505972
0.9695990408433851
2.4511894634291918
1.3179647516314126
1.2374471029526535
-0.37817370316117116
-1.378361650532367
-1.214252309504502
-1.6880275245552867
-2.184006881272656
-0.4285754817615265
1.2136165466326287
1.9431260096375114
1.8977713336916056
1.3710929462234906
0.33537267668627985
-0.712319051538579
-1.40594570567775
-1.324424205412254
-1.429666834693221
-0.3819505671905384
0.4431081229657404
0.6457199280768088
0.6385745977226399
1.0795839465937451
0.7487104045630179
0.7020631740654835
0.11458869623000566
-0.6014764798044382
-1.4366673725202181
-1.2300515763877686
-0.9669873157093934
-0.15880977885013334
0.6931030001300157
1.7753849428507764
1.2286808853019855
0.44902824113530937
-0.3451256972801562
-0.8782688097892508
-0.9396310248761484
-0.698372607874601
-0.24521764726682754
0.4225950779287012
0.7762486042603536
0.5087293278141033
0.29020443174015553
-0.2569768363140345
-0.35830478115255815
-0.26849934678626086
-0.046459766316948765
-0.13485311767763664
0.2500032583683643
0.11820926262451531
0.10021931928690066
-0.1608428893835914
-0.015756582238774842
-0.014266075228441567
0.09051688923638444
-0.062343798891200126
-0.04622374273326756
-0.05149658241189931
0.11032509434692825
0.003615814098123358
-0.031908600730123624
0.12208692499797355
0.17060779216432165
-0.18181251226224338
-0.014749120729352454
0.025183487553606655
-0.06163327268324199
-0.22045649631016245
0.055812154964495035
-0.08597118805894423
-0.0815951390426586
0.021370839446177837
0.13286170896438987
0.29468735094508425
0.26705550599184164
0.1327359573427176
-0.07968785265586366
-0.15772364036557948
-0.4615530273248375
-0.2873880875670216
-0.04817204932656157
0.12321069504502886
0.15029864897415451
0.17713109823511475
0.13079758526956842
0.09215522760964902
0.08096772931156403
0.057471041125365586
-0.06161040646732597
-0.1777448740209645
-0.1831007953729898
-0.13829903205330293
-0.06106347329799116
0.07206538507147096
0.11285391865781909
0.12243141775203738
0.15265395618899918
0.03326779762203933
-0.03215778946825688
-0.061718986605883534
-0.08496122973899453
-0.1311915237564146
-0.020313114053868524
0.04136381877634666
0.06004449263553029
0.049719873056620324
0.02630087676684661
0.0028451774775130373
-0.01293151724934666
-0.01880296973976467
-0.016558040583282217
-0.009896195643816545
-0.0025417932658072444
0.002936971646693418
0.005506345837159339
0.005424860137457791
0.0036864779684678364
0.0014391308020873096
-0.00043079656728545407
-0.0014794460218516957
-0.0016817311470868925
-0.0012855391382122798
-0.0006342468748640315
-2.4585980974754074e-05
0.000368762069025907
0.0005028016321655423
0.00043121687511590715
0.00025203004459932064
6.063129731747786e-05
-7.910153513343969e-05
-0.00014316961030614388
-0.00014017318404770628
-9.637853676109333e-05
-4.0642302189594306e-05
5.926543621993474e-06
3.388696375194228e-05
4.389360544045578e-05
4.201281645071072e-05
3.459679599076356e-05
2.4815454865789524e-05
1.1921137034431504e-05
-6.806030119978693e-06
-3.2467886925852185e-05
-6.101866288665986e-05
-8.171440334470988e-05
-7.908026198998822e-05
-3.8883136923623264e-05
4.30448960916586e-05
0.00015216385935654372
0.0002512351728905169
0.00028557757035934734
0.00020018317709487787
-3.3027240186050527e-05
-0.00038547754909504044
-0.0007530050999472314
-0.000963311453417347
-0.0008213884360647806
-0.0001925132794257604
0.0008963417689627078
0.002176026362356138
0.003127517249507791
0.0030931118012969103
0.001520783722569763
-0.001701392852324405
-0.005933382177199585
-0.009661174164237183
-0.010736390866016791
-0.007072775793562895
0.0022711490678245625
0.015918338492011446
0.029408010895957234
0.0354096977575049
0.02531306052482697
-0.007879692002842772
-0.06611628444301604
-0.14370361916351487
-0.02710951968974591
0.10200940663469474
0.061208024050202745
0.061208023796975396
0.10200940637163516
-0.02710951872759538
-0.14370361569276244
-0.06611627803887006
-0.007879683883727031
0.025313067233793094
0.03540969862524208
0.02940800177530561
0.01591831783932002
0.0022711202575812256
-0.007072803290886166
-0.010736402658137228
-0.009661155224118551
-0.005933323919020003
-0.0017013011203575903
0.001520883157964168
0.003093174389418332
0.0031274907293327363
0.0021758720554539966
0.000896061532226156
-0.00019285443923419668
-0.0008216577472220549
-0.0009633344831149783
-0.0007526275408360637
-0.00038465294902708877
-3.1902498207484836e-05
0.00020122797870553329
0.00028598113208547725
0.0002504264139649252
0.00014983768055409032
3.9466922659363426e-05
-4.267619412573889e-05
-8.134395505664019e-05
-8.044545134396522e-05
-5.479197132195673e-05
-2.147445816363395e-05
6.303133268652113e-06
2.1913634780171933e-05
2.4957788879650977e-05
1.910147801303881e-05
9.439640853431095e-06
3.8270369706682854e-07
-5.467307977800999e-06
-7.463991935781708e-06
-6.399909465329153e-06
-3.7309693155587822e-06
-8.788167028680059e-07
1.1998880230872391e-06
2.1410094205884115e-06
2.0688722029188965e-06
1.3781011717511585e-06
5.112964586938474e-07
-1.9659989811886305e-07
-5.832087344755721e-07
-6.459720519936692e-07
-4.842545523492747e-07
-2.3092694918927935e-07
1.3719487482114962e-09
1.4792848117718272e-07
1.9453244896275728e-07
1.6336025251478357e-07
9.269634123238596e-08
1.9079289693236948e-08
-3.345066449932039e-08
-5.6257822187408246e-08
-5.31463632910836e-08
-3.460542202116641e-08
-1.2083184424044184e-08
5.935168911949407e-09
1.548516040441553e-08
1.6698961291427966e-08
1.2259637096420886e-08
5.6276552354288025e-09
-3.236860453268172e-10
-3.988580477302767e-09
-5.06394425699955e-09
-4.165485837676155e-09
-2.2982756646805557e-09
-4.003421647081073e-10
9.252073752830729e-10
1.4752474141243214e-09
1.3630760730738448e-09
8.668757719117275e-10
2.8241328866259415e-10
-1.7564587568388888e-10
-4.1089029183966433e-10
-4.317959979442478e-10
-3.105623580050849e-10
-1.3719536349649525e-10
1.5098201016900053e-11
1.0656879297389067e-10
1.3103148023340347e-10
1.0546758044156285e-10
5.6221390650616625e-11
7.346708237326443e-12
-2.605254149457046e-11
-3.924515147013811e-11
-3.553844618987251e-11
-2.2294733270396104e-11
-7.146311225521878e-12
4.4836319525879184e-12
1.026078575297009e-11
1.0533189505911124e-11
7.237581882041136e-12
2.712009060794317e-12
-1.180622003296649e-12
-3.4589449896633615e-12
-4.005393465922591e-12
-3.2856209758823324e-12
-1.989104517102874e-12
-7.319466062907207e-13
1.0829340739231621e-13
4.227242954873106e-13
3.06406832060252e-13
-4.619181776133385e-14
-4.3834548978195984e-13
-7.332424431394555e-13
-8.746424059815142e-13
-8.748234494687686e-13
-7.85590429347969e-13
-6.67605937806564e-13
-5.682226886985121e-13
-5.116066845394278e-13
-4.997162080703448e-13
-5.198439206298588e-13
-5.539601743921915e-13
-5.862839854647107e-13
-6.073742975485783e-13
