0
-0.0008914397287311808
0.08730710605213356
0.1691554458725984
0.03697667427532278
-0.11679488569506807
-0.09687886443400412
-0.102184576941008
0.07527742301148652
0.048532373219358355
0.03149334768470011
0.034375483644104
0.06053321572730287
-0.09428745344837247
-0.040402524971085194
0.008724481373648466
0.039686963142312404
0.04199726295354764
0.010488562774500245
-0.052820589847942884
-0.13791666993383575
-0.0279247094492232
0.09726235520922889
0.05545640097329986
0.05662196331483666
0.09960224746514058
-0.027374789428790475
-0.1425241192489759
-0.0644007470905648
-0.006399233286770362
0.026108771816448488
0.035421275486469415
0.028812670254200826
0.015052817764000616
0.0015134025306994046
-0.00740480039927788
-0.010467046241976682
-0.008820609298726068
-0.004791591222210836
-0.0007478922688832095
0.0016813889931522872
0.0019435706464528322
0.0005122132822278961
-0.0014348078639232222
-0.002491413634570303
-0.001554297976787365
0.0016858309107987642
0.006405977193539548
0.010601560982538437
0.01144901594988514
0.006113590416982146
-0.007144684610569029
-0.0279472099027311
-0.05341811783715523
-0.07898222239635294
0.09954139560004774
0.08322480365791214
0.06815637418604294
0.04597078387472943
0.007382440061744943
-0.25237620255605864
-0.12882358437201763
-0.007116691956935657
0.13400697214216417
0.11447407680545206
0.14479327436426218
0.02147627217992369
-0.07194010364478222
-0.15890960347478308
-0.06180301599933584
0.00476891703271716
0.03690147490467509
0.04029509952218175
0.026438702107131437
0.007991815583211957
-0.005073759970514749
-0.007762629541904724
-0.0006326072567764047
0.011111025281409424
0.019666921693380395
0.017483393707548776
0.0004476921702646773
-0.029289729162320786
-0.06189090821105387
-0.08099874803203636
-0.06838986703973052
-0.012054342149169815
0.08387651016511977
0.19057577062525824
0.2515331870150126
0.18873275322226174
-0.08110553548225491
-0.42371687313968476
-0.4657512898474082
-0.18395145348438863
0.08855653254279508
0.23954302757690427
0.34695839270475876
0.45317115133817604
0.35630248678788445
0.024905765660694926
-0.36688427999348655
-0.5959895856994893
-0.5570154475106877
-0.6564551829672567
-0.2440137823776746
0.722954992072364
1.4006211991962272
0.7938920590333137
0.1326522642158823
-0.2982626201959359
-0.8838721377111489
-0.9848732328422294
-0.45676945394104435
0.1928321900352079
0.4004289653050711
0.5055707830752596
0.29268758047927773
0.1369217130971108
-0.031724221968264826
-0.14135557403665375
-0.17197369727791192
-0.13829666209167737
-0.07034678343352752
0.0018256803963062336
0.05652572132753283
0.08246625815947248
0.07706621781703896
0.04394861615357168
-0.008394099235853499
-0.06650436555833532
-0.11180268905545164
-0.12258659128954502
-0.08001090754034641
0.021800724312184647
0.16386099639536153
0.2933457229558721
0.3231963823341912
0.14436369763741133
-0.1496969315524995
-0.6328645010082282
-0.7223122631174207
-0.3730596193791959
0.30252005200902904
0.7954773263495174
1.1582191334457728
0.7809436507780133
-0.5992160625653541
-1.2590850586091684
-1.4412389944034132
-0.9253353342020317
0.36194311490900843
2.3030063681155526
2.54123861515712
1.6680314554159714
-2.5322192844396776
-3.19464747511101
-2.497068179101064
-1.655859337140288
0.3750627434840658
5.930611399336675
8.068766716249009
-4.490302155263192
-2.267361201241792
-0.6003430087004075
-3.595150970594159
-7.1680594062326675
4.543453135053271
3.5974350082517916
1.9647805160474698
2.4660201261399473
1.4357137245129517
-0.435351115257496
-2.7016810786264394
-3.486451871582076
-2.2293163361303563
0.4546727266449971
1.7685109727201715
1.803384166176108
1.151864085912607
0.33717602238638383
-0.29228452528018156
-0.5897501097555259
-0.574320456187475
-0.3631018299002227
-0.10105692321303542
0.09158966441597868
0.14694651091737085
0.05428928261805091
0.04918595548522259
-0.005482095062715658
-0.04067029993082491
-0.0005117616973242816
0.1428970339690364
0.18148866978752315
0.07168196689547104
-0.05645053495609921
-0.08360502798672821
-0.2842745551975497
-0.31477297348399264
-0.211518657573617
0.19908614107739467
0.4836658406178238
0.5875334063977892
0.23419044520694038
0.1453191386647461
-0.5215709434514769
-0.9310978195064071
-0.9429546245440085
-0.11686589000806713
0.6452880943643596
1.2321029391843643
1.2554654054338492
-0.18970623056343475
-0.9252203103470973
-1.056061260805184
-0.7265474320428226
-0.09037012358335442
0.294931751385845
1.258302636397146
5.214165784700809
-5.006592054948404
-1.8902481084205587
1.4359289161109863
0.6490168850158079
-5.184933976850576
3.9073954802698876
0.47525858323292974
0.09683631357642883
0.6595806912982379
1.105133848440922
0.6577949928753962
0.33371050875921254
-1.893413515917441
-2.3133398795109827
-0.9395131284731565
0.5491922146688628
0.7722288076584494
1.1387303717223582
0.9112352286817601
0.2879228070531334
-0.26657352226230197
-0.43470114889950057
-0.416349212895947
-0.27834132915987714
-0.1046879145715636
0.038321569419056095
0.11752407777914664
0.1316413067699204
0.1001851397463645
0.04975201792366335
0.003035685132436613
-0.02694108865500228
-0.0374234733240338
-0.03299525366632412
-0.02128382232042294
-0.00914073199671191
-0.00038816781600868296
0.004587529444054246
0.007742543381366497
0.011487982656454341
0.016817391830155078
0.02216311618221118
0.023443538630400124
0.015373511479959814
-0.006399711404374938
-0.04333770499152628
-0.09369303338893722
-0.15538264494808923
-0.03297608464728037
0.05183611268654224
0.24915972184242713
0.27398907157978764
0.2084732733549606
-0.2840873343843796
-0.33551413458198004
-0.2456366347235607
-0.05937674098389828
0.4473873475529462
0.5738585337993707
0.6963552619550801
-0.3316740667313923
-1.9877678432572092
-2.9117760507958166
-0.3748246119708583
2.6192568361440336
8.639645573911798
1.6052243952306284
-6.522269293764195
-4.349871477850163
-3.4636585715084136
-4.14949451259989
5.122635516183372
13.098109582239987
1.3466356461577935
-3.3941590202277023
-7.1054216169068285
-6.289796457755535
-3.237037066843373
7.344253590009476
5.939553599103894
2.8005070113017605
0.2159087449494975
-2.2416474782129847
-5.118413639914547
-2.4319168330563796
0.313191693093879
1.5772240846315395
1.706713687767992
1.180555624990125
0.4528011004086481
-0.15460564066702567
-0.48928410784295523
-0.5458987630775329
-0.4098195328009589
-0.19518861107235733
0.0021640204532382963
0.12811537798347247
0.17147362172466526
0.15085108567546718
0.09672168592805613
0.036402674015924535
-0.013866774810059004
-0.04928758851299954
-0.07160473217327609
-0.08260765897402775
-0.07964047611215619
-0.05558214926578561
-0.0038863108441658605
0.07286687242656242
0.1543276652803495
0.19805882301318573
0.1434868944542406
0.1258201229917518
-0.10213141748549792
-0.34662983474707215
-0.5579166894475734
-0.43351397912835005
-0.24597042265025487
0.3076083212369263
0.8478402039956555
1.269333963216436
0.5341522480449884
-0.0840141500819515
-0.5101461342926598
-1.1583378897071015
-1.6410354789985306
-1.1346614120389162
0.37742628051274923
1.191754472967541
1.7377466673924513
1.6504619127817493
0.7120648900608353
-0.9146620292532558
-1.7736680381127212
-1.1674345241025832
-0.4280228726190383
0.3499981061357192
0.09881391987280083
0.09929070341170884
-0.3379627005032812
0.5991718299369966
1.717610511853392
1.1609122431277996
-0.5829038304359837
-1.0087810805521833
-1.08145512651893
-1.3208609424145616
-0.12271779659754636
1.4681701956576365
1.3394301448521462
-0.12763217876449087
-0.6917082835482493
-0.46899017270352783
-0.1396166067769653
0.045367241196060226
0.24943635084629295
0.22965365765693618
0.11604909594310031
-0.0017601554664959111
-0.07721738888801487
-0.09965850940065371
-0.08135939599722983
-0.0437057208984995
-0.006353340646450184
0.01873844449319785
0.028476916739086224
0.02640027021353504
0.01891796993440798
0.011722976691313728
0.007505078070049059
0.005430733409079813
0.0022742462316032905
-0.005345830524705426
-0.018453838670908423
-0.03389566948254813
-0.044136218351492465
-0.039307260281155956
-0.011526348473856862
0.039379555323140684
0.10056051998656708
0.14366391525451686
0.12739090893982966
0.005885324439481344
-0.05875604093462226
-0.28444715612943056
-0.46413916796191085
-0.37413635662269723
0.001905671239012224
0.4380958120317025
0.8335860290575619
0.8001235231372489
0.6856482605025905
0.038412377839995494
-1.701555494846964
-1.7140554377004906
-0.551247851084303
-0.15937362697420998
0.22728974110357178
1.5469852137197124
1.973341552415134
1.4321077293371505
1.4070557868036415
-2.9631081652474056
-2.9350198567959325
-2.0243982815418637
-0.5472591049524016
1.7340224273852
4.485698048376151
1.4644667523441361
-0.7652943970402956
-2.026546235175146
-3.45638153493634
-0.017496606232525386
1.9578614154967426
1.978764219074637
0.7846299856297053
-0.4536539070131123
-2.1051325805610803
-0.8360951636299838
0.017671489994335626
0.6417679376048325
0.6968382217366189
0.4539900196020337
0.13695162596240248
-0.11125965398610906
-0.23237356500105483
-0.2340725535920837
-0.16041247093986657
-0.06324460683863795
0.0175999771375841
0.06275771003734965
0.07203555529761121
0.05729718619771454
0.03381551927946269
0.013377252268328012
0.0008518072845624977
-0.005574343901569044
-0.011396035059431705
-0.021523500332765712
-0.036437124519092
-0.050298081055234214
-0.05210195707297994
-0.030197396323650913
0.020576230497800635
0.09108936920064499
0.1523976255338115
0.15563439728332942
0.03940463597713214
-0.055644557779268085
-0.16854049116473513
-0.30207739548903073
-0.2161240410101106
-0.035039845717375014
0.13031873738032626
0.1509289693954903
0.24742207946294262
0.1678781930517532
0.1841620443139302
0.3109917493076629
0.14620196596326765
-0.6755948470043383
-0.4294908617390512
-0.2634946028581918
-0.5928034563721348
0.06858636667271553
0.6439944402508446
-1.1862071342482892
1.542065676441867
5.63585732464701
-5.043111743498889
-1.7132744178038997
1.018913834518092
-1.1645151970663858
-3.664367501073776
5.613236517319619
3.2095918106154486
0.48372705994372606
-2.368957241145013
-4.060222757604821
-2.569146556941162
-1.3822879755948287
2.9618692683858154
5.065260600338249
3.2922457658748363
0.7188746894201402
-1.7430494400652172
-4.2794999982626525
-3.664446746539596
-1.024629088053712
1.4399107309159183
2.168618948932504
1.8419391417421132
0.9583501047203075
0.0631111696347649
-0.5323897750605295
-0.7426956714800875
-0.6415228223638129
-0.3749499530710602
-0.08678082201938789
0.12628910460972242
0.2272408521406217
0.2273099339655633
0.16333034136594635
0.07559484373392955
-0.006344447485397434
-0.0677618487571858
-0.10488917661504148
-0.1176803592374764
-0.10412687730915379
-0.059613773088355325
0.017739831332474275
0.11769462325282556
0.20876328523147664
0.23463798957509976
0.12042757687297354
-0.010251641739354521
-0.21092813186571394
-0.48871332601032014
-0.39175632230590696
-0.21615131128096424
0.1654480099730861
0.46011000311991496
0.7103213761365356
0.4666151551197323
0.1904257225239852
-0.5101762890295128
-0.6222323314572613
-0.4671035162154417
-0.058781208733048984
-0.2961725403211622
-0.19271722923526238
-0.13512915762781322
0.8461097547809219
1.2179829630464365
1.722432117165385
0.20644158294391815
-1.8988342114948824
-2.679711025543597
-1.6703917238492632
-0.6547375387763733
1.8506679421052914
3.867729760499005
3.051140337105807
0.873604277482594
-2.2711088069426633
-3.684170011935081
-3.7867072479875605
-2.655112082494975
-0.5274299143125961
5.535070503035539
5.726352775193019
2.8520614106482807
0.08083265610820642
-2.0732503487390583
-5.601500278094405
-4.219505867003412
-0.4965268358611871
2.017171416306374
2.6656657058721134
2.041996496316645
0.9284073916470673
-0.0915985352872947
-0.7110405711218418
-0.8763612998281578
-0.7021547085344052
-0.36935780275782454
-0.04240267850256221
0.17707058271255727
0.25949751337550553
0.23047970609964016
0.1424488330821936
0.0477609812408335
-0.01895465648362242
-0.04684062298489554
-0.0450292171153374
-0.03295975574148936
-0.029128698174734777
-0.04194356375661999
-0.06525520768358438
-0.07994623359424383
-0.06166154984480876
0.0067557604308026535
0.12130561364951113
0.2461116989473608
0.3113146246806244
0.2236292592031363
-0.1101874264857553
-0.5524156110595436
-0.5068594557995484
-0.3074620631423022
-0.031795912807560486
0.2608686924254228
0.47751613263605314
0.24296756274830525
0.4736640733489415
0.5871040644437844
0.5509081008045863
-0.036670088132088996
-1.656453585923637
-2.0015051150249414
-1.5695991024200042
-0.3368313879805816
1.4974353663846198
4.54256345443185
2.699426820932421
0.761314130538923
-1.844273894109218
-3.416264712017877
-4.741076069349214
-2.564989200841944
0.1507135551674195
3.1983893360152043
4.606878124337147
9.57993674868876
0.8204007968760344
-8.709696794052874
-6.862509279781861
-1.7754034465241424
-4.509989392785917
3.6601613186531616
9.962901659644478
4.9913790557758855
-1.5131297906828967
-4.061977722458796
-3.824801335578035
-1.7534407245106687
0.04650464719886846
0.817800719266269
1.3203402859768727
1.1117441018668575
0.6028631436179307
0.14054246666983836
-0.25504847590761287
-0.4971093408733114
-0.39945296719793105
-0.22759706300518415
-0.054047934933718594
0.07036347174493568
0.1265206864561526
0.12257456814827514
0.08205311461076395
0.031191810829790917
-0.010147832912827448
-0.03238009894284689
-0.03554259331825618
-0.02589817139978076
-0.01177775011330514
-0.00015675283433249198
0.00528891286972986
0.004567183345723872
0.0005298352734387237
-0.0026988474062919284
-0.0015384690566135257
0.005415591359555232
0.016335720600498288
0.026040799273784557
0.027069044341945406
0.011940980725505344
-0.023849626621614703
-0.07913462895686993
-0.14606197519875327
-0.011993684645428757
0.1355265067303232
0.1022642282775986
0.08215902228005349
0.05650556497252071
-0.0011660517322298375
-0.11551874390266535
-0.09828474199808464
-0.13975801831533227
-0.006575283606145274
-0.04755618903916298
-0.00673640490136318
0.15976351730449803
0.26803679740625946
0.09712781979848314
-0.010098331544509502
-0.1355916774894538
-0.1677538215070689
-0.18209375714427636
-0.026890928790133467
0.0825864124372386
0.16132277619151206
0.046223706253962604
-0.013784452312590886
0.033791601304118
0.0390233022945943
-0.1547504747381697
-0.3153644915118323
0.1718202296880795
-0.10470786972153501
0.008794678582948204
0.4278193439045315
1.0375801472702177
0.11722787464086054
-0.6211777569689694
-1.3908063345491546
-1.3062329337072758
-0.5977719266093248
0.9311576469094518
2.423622006885615
3.106776761304553
0.6901863135816411
-3.5582887264457153
-3.2862571261434996
-0.5428884296042785
2.8594677773417807
-4.919740592232476
3.1003040764907737
3.9364885724051817
1.2852876245491491
-4.34872027637172
4.387024053354658
-0.568904054255602
-2.497866178438791
-2.906236223458022
-0.38581611556035694
1.0297170759849819
1.2066066333899879
0.9839147905383138
0.6302475182800958
0.13095915190112747
-0.26976036678993426
-0.4718151999929571
-0.48399325949549504
-0.17371323118704632
-0.021572777332951626
0.10821054902759683
0.17974631908454117
0.1844271824019766
-0.06645854301047097
-0.15026642904450108
-0.040404115320181094
0.08749996868855775
0.05043070888751231
0.05443967786834013
0.09390435252481422
-0.04576426890049405
-0.18271157886089426
-0.1326407081329328
0.09527980917443812
0.099224712005595
0.08286007071283341
0.052838245195566264
0.017375440765385566
-0.21398257615000954
-0.23107759298314887
-0.02661496338857311
0.19670024019994553
0.21740248090077172
0.1895498582056769
0.04496118183917219
-0.09440376304621614
-0.09601205270331478
0.005953514307929508
-0.17184244029341306
-0.35643131625565716
-0.43006755831351823
-0.059872141756298194
0.2591502146117272
0.7596900768743818
1.1737136734122093
0.5366914300193314
-0.5686763598832187
-1.139444017072524
-1.277068736992383
-1.1430724532116092
0.2307484675101323
0.8772877180457431
1.4004215511139824
1.6958075083523774
1.3281315010804549
-0.014062915440575807
-1.598824133388093
-3.114226033519453
-2.782510898587936
-1.3842937709273246
1.5878605933681225
3.6860318729294956
4.864360928590123
1.542862468976758
-0.9519779169648934
-3.3724087550472075
-3.4383945750142217
-2.7477234541394306
0.3902762082312266
1.9530597852060851
2.060973112422808
1.3654527830028482
0.45261087475391865
-0.28031393112342023
-0.6585799033722733
-0.6910678287795574
-0.4939420237508247
-0.21213134145444326
0.037304336399267474
0.19091403972646942
0.23743426529898445
0.20012557403795952
0.11505528285275182
0.014443059854093748
-0.08086303228532593
-0.16053178623547923
-0.019339529355420965
-0.051767781866746666
-0.0499558675031706
-0.006224609132090381
0.08067814234708422
-0.0020319263906521186
0.11298882776056215
0.17221883911669306
0.10719295095894489
0.04744565664511725
-0.2622415029474112
-0.4459587011822245
-0.2892952390896268
0.05416660336793296
0.24254821138771634
0.5185444296938203
0.48712031196633704
0.10904520042747382
-0.2851062275821584
-0.3653397269280769
-0.5699078047504931
-0.4856600610314536
-0.2519646369564176
0.21102045823866547
0.7612159179581098
1.4019336803199558
1.2812175428611594
-0.06242472007653657
-1.2141902405817253
-2.1884724754148843
-2.1737163521043454
-1.3603216746221918
1.3337380859285428
4.069181274008187
2.2919132148887504
0.21813459967978607
-0.5522314131796717
-1.4975569854319966
-2.5647825753007925
-0.9621896493886118
0.5824059488700734
0.8689410973869865
0.5866431112959881
-0.17710924188838587
0.35662241648112963
0.36412241820681773
0.1527280956578342
-0.07191504233869092
-0.20723730270200658
-0.23225709682237658
-0.17523760084150533
-0.08210824754431292
0.006397292597875109
0.06593731417550279
0.08952608177868249
0.08227979033390961
0.054479440560415524
0.01638893280672754
-0.023666836965167998
-0.05843031220890098
-0.07990223099928585
-0.0789013765176623
-0.04772336748473335
0.013796423969595075
0.09035902149715405
0.14460095964220146
0.11573250476016392
0.1266397367165854
0.10049883367462761
-0.015271643646605326
-0.22341888459817463
-0.2582177125529105
-0.3835065269905923
-0.6153496613665731
-0.5719086504270472
0.055999695242228927
1.232150577683732
3.129765170326228
1.346689565200872
-1.4009621515858866
-1.5218946916596305
-2.382668551577993
-4.403708614383487
-1.077226640609923
4.281461496918977
7.101437464063263
-2.0581003588404183
0.79293400984259
1.1331345514058828
-3.6863574217408037
-5.811679503624255
5.898355916852587
-2.8558581173919646
-3.476961973409599
2.755337040873974
3.450289236468145
-0.31721098714793555
3.4558610460363255
1.5025836185572436
-2.3649002079724104
-4.00507232495945
-2.681286888949072
0.12682236699780422
1.377038861194221
1.3849539351983362
1.2629148688926075
0.7472906334189499
0.06977869648044818
-0.5018195261996824
-0.6579892797867867
-0.601192764926353
-0.18834005007218627
0.11516944876620513
0.25980378340155236
0.21663321401597238
0.17107761614467779
-0.08530510503463304
-0.15968700434693864
-0.05875139051328704
0.012569752888716673
0.05217910248443942
0.06093772592058064
0.042433419729834145
0.003296493992731519
-0.04577300323872479
-0.08921331157239903
-0.10773440931713614
-0.08291241100714007
-0.005543745624773076
0.11400203619128195
0.23735117073920015
0.29672956891013724
0.20486782499639847
-0.12294653864058684
-0.3391801303058028
-0.43645920389797005
-0.3340765709241293
-0.08802667706847551
0.0730466119235213
0.09249094728230292
0.22483062967939926
0.38730775519625066
0.5413264550397907
0.717186784979894
0.887368816762299
0.2811327602262144
-1.283281536348921
-3.0896507094855545
-2.887820933263266
-1.3696657703377804
1.8422083797266362
7.548094491293544
5.367869345282941
-4.118463662737597
-1.2457183051414509
-3.6050679726801547
-5.569917413456127
1.8732273989431474
1.323728686846136
1.6092450053329055
2.7469317974020595
0.5178731951064405
-3.6730369861275665
5.178812377283375
-0.23654029711504637
-2.1770577532171154
-2.2459565723721373
-1.4100598052015798
-0.09420746566933416
0.8199846788102748
1.302693021292586
1.0348834516233198
0.47014975380068075
-0.06038710276369999
-0.3836522346262737
-0.46746433147488725
-0.37181782976464123
-0.19281573613818606
-0.01780158057849776
0.0993695183106677
0.14308646262943817
0.12682629297290748
0.07812337587333082
0.024538789417277954
-0.015309462871669635
-0.03460853806730865
-0.03629489040877479
-0.02835848582354237
-0.018842939018014294
-0.012279549365983123
-0.008443824652105632
-0.003511040503759774
0.006951495571056853
0.024153508649915226
0.04263599723001538
0.04840576162065787
0.01948415700429697
-0.07100997863168042
-0.05001163064912473
0.06067983458013201
0.048425918102760736
-0.08852919261573759
-0.1424588675656336
-0.10133010054450728
-0.15778081210256817
0.2798199176008374
0.5784806696298074
0.47972959944646315
-0.2890938807797193
-0.7934208106535947
-0.8696780456428619
-0.3162550842088185
0.6953660251668232
1.3948117556208435
0.7896770387065909
-0.5362498439360829
-0.5965336227756308
-1.1583429868951787
-0.7038639848662908
0.383161131313199
1.0005042039078622
1.8923270217034962
2.0164687755094755
-5.273888897326585
-2.4445407691121734
1.3817450210984379
1.1450589684670327
0.3427436555426004
5.349405315201691
1.22006776366648
-2.5939664912001423
-3.6380806222443143
-2.627144958470961
-0.2861482939256263
1.2828969168296256
1.707191854525425
1.3729055963555878
0.6483558386989291
-0.042856627100473804
-0.47365086465252626
-0.5965822317887767
-0.4844180738704497
-0.2592059685210118
-0.034187820640815686
0.11919224234436052
0.1786895618171373
0.16037215174731959
0.0995598247335697
0.032456057461603016
-0.016101313804766454
-0.03711759927201822
-0.03534183771324385
-0.023233452073750216
-0.013847881830445934
-0.014950998169153906
-0.025869538119374154
-0.037819294717265556
-0.03777488538575942
-0.015249297324662098
0.029456969250148422
0.07782949264406637
0.08943967608960032
0.20483639339830498
0.15683961483212613
0.08975576421810483
-0.21740212756998528
-0.53143130686544
-0.7593639055985426
-0.1655187003643153
0.787009172011303
-0.22064883496454094
0.7827730694403787
1.0290595713081956
0.42218680332400677
-0.8034125094260506
0.21170552636796067
-0.7421140232325997
-1.0590651596658196
-1.2852792166929445
-0.9574089094133292
0.6883034694211699
1.762922948934283
2.377364398623671
1.9583943526020233
-0.13026929524779005
-1.2585669206368406
-2.3350751742422378
-2.6213495930170145
-1.833517611281531
0.8205291264482257
0.8709536355659496
2.537434706998798
2.288924021939252
2.0981453132678554
-0.15440896998026635
-1.3239633881190285
-2.742984960922628
-2.1465974088578803
-1.4705130056288833
0.6205186388853267
1.6661977005486546
1.6470047422726275
0.9910040717115568
0.2156062874547998
-0.3575167613336449
-0.609729759235707
-0.576195199116676
-0.3723548901486278
-0.1254410011040277
0.070940957390656
0.1742053473277851
0.1873268187103951
0.14072928521964714
0.07190964792643856
0.01018445351589009
-0.030206680658964265
-0.049096562660915714
-0.05429080695075389
-0.05402581386306943
-0.051270259467944036
-0.042023754865827656
-0.01827068839538344
0.02531537270751745
0.08320258293324384
0.13256062870637983
0.13181720513506145
0.026413332517081382
-0.038232628709721356
-0.09929935358016823
-0.15973756470504502
-0.1780115153724587
-0.06939492250744464
-0.12110701729570832
-0.019803868251314624
0.11400644907597336
0.29331652818437554
0.4441503064794824
0.40682723632036505
0.1641618933850881
-0.10600189939934831
-0.5660155606724245
-0.8613664991859917
-0.893729936631708
-0.6407405647239014
-0.024725490496469632
1.3872388798546458
2.4882543209835335
3.5856080398176737
-2.764864976022118
-3.248088933804589
-2.249023285295005
-0.948535387407145
2.49761973758145
4.698440463487235
-2.2709128607202564
-0.35671981019742977
-0.5821777522556261
-4.083792384001056
-0.15353905335180765
6.706111825723891
1.5397606111532856
-1.0464937802522432
-2.1877852790461056
-1.8014870355279589
-1.2261544946052925
0.0803476884339884
0.7532124940197809
1.05275911117603
0.7527434185791174
0.22817181802996286
-0.02506953014270255
-0.22566889813482785
-0.30198265979940203
-0.26167572102892206
-0.15304623217817367
-0.03154309283454418
0.06135224499246435
0.10596396219992184
0.10237911569828037
0.0635930749187127
0.008268432707783088
-0.04445955681441572
-0.07790791316003687
-0.07978671475011177
-0.04476162249249392
0.021608038402902183
0.09835872774255609
0.14633515374410933
0.1100259087073552
0.12608593816549837
-0.06167200203411803
-0.28412183975271166
-0.3314836432242911
-0.1474854735307214
-0.03731774850974018
0.3114785295172722
0.40177701242576297
0.30323144141621977
0.041108531749880786
-0.19898372266156608
-0.4543878384073467
-0.3661830680053056
-0.16776245660185132
0.11303965223540677
0.4403129428587134
0.5541966191200369
0.36489552556636334
-0.03469983417075427
-0.3377377484320974
-0.5834975984697847
-0.7254408510537037
-0.22330200728504263
0.3327636442067201
0.5704908064256932
0.27211312619288286
0.31985625252088473
0.06746223610096909
0.14609396647816106
0.3031432145086071
-0.5357102041955765
-0.3966984328324119
-0.39893248409539833
-0.5233166917994436
-0.41993942277983115
0.5464422422697409
0.625456984928593
0.6068678855533668
1.1675835393981218
-1.1425469467552505
-0.07298417201940591
0.18522950480949493
-0.3337844249050154
-1.3165687923518072
0.2546637179246699
-0.31043581640770973
-0.05711864811234743
1.7490431753457722
-0.43766415210632975
1.327327723126405
1.4951537394143948
-1.915367981600086
-2.8328827747519463
0.33854156898168336
-0.45745338967493077
-0.37050766830461696
2.6668938063821184
1.640225307991741
0.1878714792766357
-0.8020619180423892
-1.3354747268580245
-1.2270875221830284
-0.42729619640921573
0.4092711154766202
0.9079104943224209
0.928017108204336
0.3152856968607736
-0.1247914373252472
-0.6240806388739092
-0.6278645098303294
-0.36705101462212036
0.15779496018860897
0.5745040008558348
0.524517844448816
0.04653756254246047
-0.231966297809155
-0.49358850042302355
-0.5260026992236686
0.07869057046194519
0.5165229783894653
0.5603176971747187
0.3543980406841159
0.02431145670381689
-0.4972503448865853
-0.6372884548859874
-0.5575726289530574
-0.15233974611451237
0.12580877955754705
0.8189084821043685
0.8132784186537504
0.5068733482557585
-0.3909807035825736
-0.4266041202408325
-0.7495083492076754
-0.4622572481165963
-0.1921635874160163
0.506365079758764
0.523571050443813
0.354973493656362
0.06792889277950523
-0.11441722933237128
-0.20975207965777667
-0.25983361110961906
-0.1099529198328203
0.006944433917544401
0.0771807548001783
0.10466856659150615
0.1041519557611787
0.09369848057276539
-0.11045152012018881
-0.09583206943369775
-0.0537124523905471
0.02088013948874729
-0.07229950076564756
0.05853478377312461
0.19473984392758645
0.10736678835769553
-0.03824643313493646
-0.07322531480939318
-0.013468686723376713
-0.2495947105752331
-0.14292052054057333
-0.030439030997973692
0.16111369650003518
0.09547653916516846
0.20737485443160894
0.08981069902224012
0.0926860552382888
-0.0661998400047917
-0.08059140925543018
-0.23148813840999835
-0.1662363395601369
-0.08717095468476492
0.04701400490873591
0.10808566656888705
0.17790410224902495
0.12739678580956126
0.0009229850585886763
0.00962054474226346
-0.06592068712305348
-0.06604017960624618
-0.03921985172876617
-0.02990074440758564
-0.06968857990134981
0.026689656291401395
0.06075017349662457
0.046160445961883345
0.0029922714153938624
-0.04805730252851252
-0.09056598609032335
0.08388384520094067
0.07341469855628856
0.06570007617606836
0.040790808831319796
-0.022954822718679373
-0.1411339478419333
-0.11638095934920913
-0.13525275585683513
0.029217361340230598
0.20982527668429812
0.23551352532385605
0.12416263672595274
-0.11883658814884958
-0.2962645633513527
-0.21263502246221175
-0.0706496470752989
0.12643405001744454
0.3677632064034167
0.22824644108787825
0.06820550125931414
-0.15774165372487267
-0.2848484901660355
-0.3222316225758724
-0.04462526446707106
0.0030292044208441583
0.08853135453084475
0.2686927873389838
0.36784127658794
0.16723664201108776
0.010478588774570485
-0.17602314894773882
-0.45478989145366616
-0.452490639835384
-0.14943811111228447
0.11117924061406914
0.3973090745716918
0.5561370620715796
0.3905689940871566
0.05540821738098606
-0.32390320468717165
-0.6174065143029355
-0.4563681213518599
-0.2140611701751966
0.189533293941183
0.46086928155123574
0.49518135556292386
0.1434561140236911
-0.0035374970525596243
-0.20969390020384784
-0.17068763885892344
-0.1834690125261774
-0.11877025910598815
-0.004512296396232809
-0.023556167058911143
-0.1248668172999566
0.15617061394161694
0.2746477912958881
0.2574804394000065
0.09553734909737618
-0.05040267490896623
-0.23188292767420396
-0.28999780517824264
-0.23667089361570431
-0.04758789624898736
0.13022407738878883
0.1590231421626764
0.2866399070339511
0.12742379229374992
0.05494672589050672
0.00921534810639818
-0.08391071676210338
-0.2874730830222952
-0.23071545356705503
-0.09669270828479759
-0.02473836392741848
0.07259516788660897
0.2834401840040674
0.26980795801231783
0.04873955232224564
-0.012738114733907277
0.012201287211571155
-0.16891519525011542
-0.2427542319187557
-0.06845713104958326
-0.06529498857353644
-0.012348419586668227
0.14108381461333738
0.25882659873581537
0.0007903683936114065
0.010598724827243548
-0.0896931667762727
-0.09842333839162844
-0.02926516931095885
0.09498360896114838
0.048148203346024376
0.005575964090482466
-0.051785912504192615
-0.13458817137606285
-0.04459704365104507
0.022619366991902236
0.07219780308057278
0.10363790625912285
0.10653559545116993
0.06096982727340914
-0.05651637445103721
-0.06271228001259294
-0.15674828018585923
-0.11267974233898528
-0.07932257490778938
0.011148091596741252
0.02728985120371319
0.21942277875689428
0.20351434282430278
0.15367058032238998
0.006687062735948025
-0.12187464624407417
-0.3149458821368058
-0.23223270127301257
-0.09708077421667978
0.10384584539321451
0.20904837219074465
0.26449554360526556
0.10734821190953825
-0.042859578087742226
-0.1836317101218833
-0.12195439514566558
-0.06474274858289378
-0.012007910243461588
0.044847416362426756
0.11997507123284794
0.027521293024324017
-0.02377666262140385
-0.034016071330429824
-0.013064919383733407
0.02058480649931361
0.04244929152927947
0.025785455550069628
-0.053882468541129144
-0.014030212492137619
-0.061185231884443296
0.011153358925912023
0.022060051268503335
0.0002518688153391453
