0
7.895929285236401e-05
7.479806932433568e-05
7.087172496147968e-05
6.925156773719167e-05
7.207462746317268e-05
8.05286367456203e-05
9.371569551627822e-05
0.00010788421036948052
0.00011662138039673617
0.00011246889692146545
8.99916804021192e-05
4.9630695522484656e-05
8.961760494102518e-07
-3.705532919360841e-05
-3.92630861279908e-05
1.6104796114639673e-05
0.0001351746465112478
0.0002962296805768465
0.000444247973750138
0.0004986827853848165
0.00037833901222678404
4.1014473036371654e-05
-0.0004730477807743289
-0.0010130724449702157
-0.0013277405091871681
-0.001130340907977467
-0.0002188453587279612
0.0013766175305500925
0.003275962850187374
0.004736592913196959
0.004813375344486475
0.0027115406464569593
-0.0017327524693564122
-0.007615542213258032
-0.012831903553304137
-0.014527842536165276
-0.010328355069605914
-0.0003166350777916752
0.010566419516938791
0.010340441107149465
-0.021136752603268496
0.0886515007738096
0.10839280107325168
0.009479722308664645
-0.02502448270689049
-0.19098493828848362
-0.056632245741196297
-0.1623186411148973
-0.02869204983600067
0.027282489808655153
0.2720804023467808
0.1370937872444689
0.20823874901763437
0.028135785625811607
-0.08867482721252962
-0.23157887288813495
-0.26824716469771465
0.17426636810138293
-0.48442391379817296
0.013105203006566165
0.34087323249872153
0.36267198243015913
-0.09107730704033104
0.5658420769028016
-0.11871638899841948
-0.41465293728914193
-0.3820815475496443
-0.2479048381165296
0.003922912361641443
0.2248711923509478
0.2809977677663716
0.2279421021517129
0.09155671232861418
-0.13952245998639595
-0.10854268263025585
-0.07643798415556582
-0.10481306392964165
-0.04154188084009568
0.0878485613551345
0.08240312628080597
-0.03717724702137118
-0.03471392789521252
-0.06653297496435313
-0.09040317561388797
0.12546709269642087
0.19509365711129414
0.11160431808735266
0.05064426039611423
-0.01938956889303597
-0.3230488064256816
-0.26482678101951057
-0.02328407862482122
0.04426102916957492
0.18753616157535966
0.24501847247523592
0.228896228740295
-0.08070387481411324
-0.13017196596144834
-0.17819183116397244
-0.07866306286932268
-0.06691252520151426
0.046867701138286866
0.07622306559520808
0.0509982700544689
0.007024354182115781
-0.024086742742241814
-0.023063687115836257
0.01196156241967795
0.06393602968662801
0.0993462341047415
0.07496266048638074
-0.05155507729423499
-0.10903606005271042
-0.10154555069075069
-0.20259665846674665
-0.15806919891079166
0.10141875471892066
0.24150610131402842
0.3046310730978706
0.29767022927757975
-0.007771517630599894
-0.4619941922116027
-0.31637602781305946
-0.20432886035610062
0.06791834768857925
0.318172301877148
0.3767120738602831
0.07385249535556629
-0.1670053921954786
-0.3293012587585196
-0.1997455087034834
0.033314331656086105
0.1763942374853841
0.22347237742528228
0.14932199042946168
-0.09152226125731514
0.04202626784182874
-0.10938117612462758
-0.1907456854961079
-0.22151073065855495
0.007885101447144192
0.13037998221473746
0.1899813717240391
0.2280555114022408
0.07392844363217692
-0.05688057100659059
-0.35755512888775387
-0.2224386153546818
-0.042635788795029966
0.19192142355698877
0.28509398826958515
0.2268295220909969
-0.009221719830848057
-0.2600845118009193
-0.1618110753676935
-0.13719342532466255
0.011613909268313103
0.10282106014554925
0.16812124991721042
0.04283783867605198
-0.04292155049425589
-0.06969463720597527
-0.030402928150578577
0.07054670088312752
0.01965040102975332
-0.0024359380905682702
-0.017110292415439033
-0.04407245480743685
-0.09851661237384614
0.009870699554702097
0.07591014023794242
0.09677802347904077
0.07034280719551518
-0.004532656470463813
-0.12548082190454296
-0.08330537660184259
-0.060223394271784664
-0.03168791922363229
0.027786797635291065
0.13639350910409273
0.09750383849739475
0.09628950956850454
0.10283141311823563
-0.11824211375729904
-0.19428413006744005
-0.13212711890982284
-0.11174837431630275
-0.08950098463357715
0.18911372330267212
0.17083612292468806
0.07636396885629336
0.08878601369825218
0.1530892730702218
-0.012254825787213836
-0.09415133236905564
-0.15969635005300584
-0.23425661720984578
-0.2900079354453209
-0.04962985276252848
0.19473513736825415
0.35257356006271207
0.3055439002507477
0.08741157964518367
-0.12035455746488163
-0.1772708254464012
-0.16245111392470066
-0.15144461242612856
0.001351959920631699
0.07073498310343153
0.059128165660355655
-0.011786694986044757
0.08766409968369737
-0.01547771013438488
0.09569826608848397
0.024889227814359514
-0.03599137308042761
-0.10198249186040245
0.011077878699405273
-0.10835564119718626
-0.0652889210485316
0.14073800510750686
0.11231217056991127
0.050701158358709475
-0.04556690000738289
0.02073397178146998
-0.1511628115896237
-0.15703572948997843
0.012835052215785788
0.17096348577729895
0.12812401008239652
0.08993753413490682
0.0572888307503164
-0.16883248554111419
-0.18028067707494277
-0.15657698962668665
-0.06546496068461488
0.12940274126665458
0.2558433406566304
0.12065968598987961
0.10288953485012298
-0.043833586591999
-0.18027792250053162
-0.1659949742338899
-0.0447498648172205
-0.03580715827152939
0.06682454236868673
0.08817972784542767
0.062270929064039374
0.021838586541490516
-0.009254057382527273
-0.019687923674695986
-0.010566317740348104
0.007499397858910895
0.018882966172073985
0.007918519533630857
-0.03662575875724587
-0.11858130564851085
-0.03388788204974313
0.026941765991992234
0.07402131809615044
0.1128700922821659
0.1413525004542295
-0.04923181298050568
-0.0687243767964777
-0.12043607716161926
-0.19487876559962042
-0.06847493924685882
0.09108187691804201
0.11417724583386887
0.21752208259241582
0.19665636097158326
0.026814848165767412
-0.1271257604773778
-0.29510506511970463
-0.2873445772868571
-0.08769555342884358
0.14138518652039478
0.2437562071399338
0.2507240651379264
0.16651473453175739
-0.03582612856120256
-0.206749539240419
-0.20442683600864922
-0.07755722854600042
-0.05317901759563637
0.06702311988664214
0.10221403685976202
0.0828645493805397
0.04034207641590955
-0.0009418090944921557
-0.027181762353119567
-0.034827576087918546
-0.027633309779596608
-0.012837078961810706
0.00215903947832018
0.011920171984991412
0.013875884977133431
0.00832187227752993
-0.002067546837706373
-0.012971252787577015
-0.01938036444762649
-0.016894878846544746
-0.0033911836206923364
0.019186370109182633
0.04352000884758234
0.05694632031655383
0.04354768560830205
-0.011565963680913746
-0.11665839194709582
-0.06831958811737435
-0.04921991564819367
-0.030257898507871354
0.022864013796163683
0.14040690478325282
0.13976902200274446
0.020302747356912575
-0.03619870618834979
-0.0595328489895334
-0.08200461624693496
-0.1296922665871617
-0.017148575640348575
0.05295370978468906
0.08583992203413424
0.08870288959201672
0.06585107761529496
0.0171909160989537
-0.059470581811739684
-0.16377223205791136
-0.08853863677887613
-0.018589998641266873
0.06623163628257407
0.18496905083234433
0.1493287115453126
-0.039569792387362065
-0.1900845019310437
-0.11578434579517421
-0.030955490140404687
0.05153899647523719
0.119532294297225
0.15964136005457225
-0.04331804432378719
-0.10404026220383883
-0.03201560177338137
-0.026499124474232177
-0.07359221019024131
0.053042819795822455
-0.01231423721888102
-0.03468518377450842
0.013405227449044762
0.14492461028703305
0.15473756396157531
0.02116023486506357
-0.08702462756735102
-0.20004491856454967
-0.13705201891159208
-0.10073359678131853
0.12099085401697507
0.14707634786771054
0.19310338385061615
0.06357486208981412
-0.049754053278721844
-0.16312751798755679
-0.09233553421987747
-0.04477099024605487
-0.015550308228949452
0.010897245469872804
0.05474062189739122
0.1327699964773528
0.051677408089630644
0.005129823013726428
-0.024375244717733023
-0.05977679610606508
-0.12219140076489654
-0.024896657032526023
0.02939680468573316
0.04744639158976592
0.041586137425273055
0.02496388150102208
0.007735195179111823
-0.004740090329361111
-0.011598784908064189
-0.014691651991830208
-0.016280003294579418
-0.01716844118426278
-0.01597323325187385
-0.009819048008564493
0.003717922929456716
0.02406933150500693
0.04554475182644646
0.05673557303883624
0.04230148233947039
-0.012746775245798325
-0.11723139147848675
-0.06844004501726436
-0.049560975290013194
-0.03159426182491157
0.02016585790815271
0.1368088995025876
0.13669904869194355
0.019855599517373233
-0.03204157896085795
-0.050027745330410475
-0.0687552345514353
-0.11719997616930145
-0.01221663880619379
0.043344824464822525
0.05807915518918506
0.046714295599779326
0.024404362722109534
0.0025847588115894445
-0.012700278419762475
-0.02018277959808542
-0.021383198316075436
-0.018397212498708477
-0.012413680991469705
-0.0034673935768535597
0.00861075448563841
0.022564372590163178
0.034223163478899234
0.03600562050320113
0.017964852120484286
-0.02967481231749537
-0.11328916037720821
-0.0332723736511383
0.0166435706102051
0.047769118696622155
0.07334630957605501
0.10554915737523939
-0.04597850649203433
-0.17372819805818598
-0.07112658016009019
0.06780078996425074
0.046978633927910685
0.06571217350375054
0.11682716606163429
-0.012776742907637011
-0.13874127110643933
-0.07427568637820849
-0.025880196740505238
0.008212665427573993
0.036272320558417205
0.06901436008566694
0.11524785450225529
-0.02087643033397862
-0.14015083143324072
-0.046690092113867786
0.054094901569213275
-0.043376739891829746
0.05512985409504621
0.14330545571017922
0.014702639602336243
-0.1355532187328865
-0.10840782474947491
-0.09957158064729635
0.0991713201338327
0.09599372830026315
0.09428015190824655
0.08992196778092805
0.07271875183464968
-0.16811994407580177
-0.23677763811538238
-0.12586955271475844
-0.01721824662729596
0.11076088049915166
0.2718600368510208
0.2625385748655437
0.05953983978739612
-0.17282536367932483
-0.2679654077274348
-0.24114224546021656
-0.07974246710344976
0.05569540460967683
0.21998321265335893
0.2661831526093918
0.02982260626416217
-0.0799354146715123
-0.08013902866721567
-0.006660180269913048
-0.10338683366754702
-0.011784573569946107
0.0366554806905161
0.02411962128292098
-0.0533979345651013
0.011389486317032065
0.03297050772685108
0.028419042134687694
0.013272696862508194
-0.001257655194434996
-0.009358672315388807
-0.010118123331829598
-0.005991496308290389
-0.0008674002970136057
0.00173852427188049
1.7730943499942163e-05
-0.005454689172020095
-0.011795509347041856
-0.014677458912733391
-0.009923125774628387
0.004417949036903142
0.026025985274461545
0.047071415445233064
0.054611571501411466
0.03314954768298976
-0.030869271858887656
-0.14388569916791508
-0.10150403196356667
-0.08837062401596531
0.11742144183469963
0.1366496509960637
0.18125121137526504
0.05035956348765211
-0.06766282606187347
-0.18786837914089852
-0.11946362887636267
-0.05908940077082679
0.010152075373706769
0.11346419392021938
0.07522294215686251
0.10975781621667363
0.015634669358334862
-0.024596207295544622
-0.03941469498646852
-0.060185217283273154
-0.11281852456343916
-0.011974361316327769
0.04062306050658918
0.05382076110466001
0.04213299621113831
0.020435557673184463
4.481769926429816e-05
-0.012981465122842534
-0.017465427610690108
-0.015426548603169776
-0.010046788010563714
-0.004053817095778303
0.0010724510078661722
0.005047885325670508
0.008153886717964673
0.010441935024619022
0.011184632133670358
0.008856875797934085
0.0017083172050280807
-0.011283748488262661
-0.029545441642862002
-0.050719988345953315
-0.07164636474437396
0.1094999019852493
0.09071036155141256
0.06480320935785841
0.020698247509625935
-0.05234785224406139
-0.15889682220713092
-0.09251331850493029
-0.0346479841985655
0.04155269519516492
0.16358474406021814
0.15112927436553783
0.010395320282705765
-0.06643832704689377
-0.09686979430738793
-0.1012774230897134
-0.09698115562587808
0.10446064324912473
0.09636808730662652
0.07408499419429129
0.03257957083518527
-0.03380292533676361
-0.12943018154797356
-0.05485018938710187
-0.005653209948388801
0.02605138613112716
0.04785680846657758
0.06264174310913569
0.0656720525894369
0.04489618129371919
-0.015102350853279642
-0.12656753648819596
-0.09183926090389759
-0.0992826730419841
0.07608031840660726
0.06707557084699266
0.10588302128565383
0.015495278091372262
0.0037069592087711767
-0.13922128033240064
-0.03959685247767217
0.06292434519865504
0.12020989848775729
0.08252074698203432
0.10804710672973686
-0.02523944911200958
-0.3078590774772601
-0.2916984124546856
-0.09240249408431891
-0.0038947521227232877
0.2770665928136617
0.42336665379354493
0.2566459916066773
-0.05899865363135031
-0.206254126466811
-0.29110401804379354
-0.21562693519906778
-0.05644016691144285
0.1455227397994102
0.1836072032797094
0.0764536719539538
0.056966750378188186
-0.036630976557656625
-0.1663613427210126
-0.09782438928315892
-0.0033285210864800914
0.1341005238510052
0.1167008574221408
0.13031110653932518
-0.05271386849318094
-0.06561944861210146
-0.1364678419877238
-0.0781758365249053
-0.08305996257051135
0.0760730261107327
0.03868986150335006
0.045713389693899195
0.12877872713165653
0.10298317070131788
-0.0347934195377086
-0.10196432785494111
-0.12278829122479716
-0.12074091803492325
0.0862884901725716
0.08678543056362656
0.07342144919555796
0.040228606954929816
-0.01879423698692546
-0.10899091641849927
-0.033127393675800004
0.01021553989012041
0.026786707835784174
0.025219089554730272
0.014741373301421612
0.0030412996253110433
-0.0050291070446827945
-0.007715657016548916
-0.005796264229409636
-0.0015664431671982336
0.0022654588621532773
0.0035341342090757866
0.0013037414273365893
-0.0037765931977436526
-0.009511663135293454
-0.012673603254001735
-0.010035768466134583
0.00015918359634636088
0.01660731439685589
0.03377672628998835
0.04183240213632531
0.028165677620421565
-0.019458875320283658
-0.10887819114230435
-0.04003405499867448
-0.003525114696100182
0.017965002495437348
0.045744212388455587
0.10012060936890439
-0.00390615964688373
-0.05905468786809442
-0.06612731349328023
-0.03312377467668424
0.025938564305306392
0.09222480110388401
0.14395725263826503
-0.04007261870506218
-0.07518913447122304
-0.16510663268806433
-0.09840876846527676
-0.04964022185281687
0.21443495821838107
0.12542890780720867
0.10455208955551254
-0.04201919881419659
-0.12229151568915066
-0.15351021158066744
0.043887651618476325
0.05076581779803653
0.05127096561866268
0.03302651804988074
-0.013159519967123685
-0.09330072509960098
-0.010051808565480172
0.03713806684309394
0.051311558027100336
0.037120776241594065
0.00043987829945336244
-0.05126089643707883
-0.10828130013075322
0.04119412085779982
0.009441355779322829
0.006071616101748948
0.034430823258237105
0.08895813229198314
-0.045245655735499664
0.009960609631055207
0.030673231514061903
-0.002675810122211953
-0.09905382914309492
-0.05247193427565672
-0.041181455222147514
-0.03133657502264707
0.015271603627612405
0.13129381929695824
0.1346852325303633
0.023465948589669775
-0.023613174399440866
-0.040571095844785604
-0.06406689255130069
-0.12306521272754402
-0.031647206390833474
0.012874172297236532
0.02620971422453915
0.029221328010393666
0.038607602473335924
0.05911176573711939
0.0797354437979881
0.07544689978545749
0.014470618291428563
-0.13047952083408956
-0.17035419792311426
-0.09156241439345608
-0.05504868849326086
-0.0040510511712159684
0.12113658804580198
0.16574413159053117
0.14605605540323655
0.04285729277883636
0.005334989574574966
-0.03539039048067147
-0.147025407094839
-0.17690472053447884
-0.13866133980040432
-0.008859081367780932
0.06548129838543064
0.15111854460334714
0.10990107006932251
0.1831588957626384
-0.016256978349398984
-0.10267129499765351
-0.10870907661075775
-0.07289669361282639
-0.0282906858970003
0.004595158125559069
0.019415465848609786
0.02092482676747771
0.01908354094619789
0.022510023723603088
0.033199986084008655
0.043889726024936106
0.038742817486912905
-0.002800887703242376
-0.10013221540628771
-0.065515901875153
-0.10038496013632084
0.004391578377321362
0.06404817721169881
0.09289268962321302
0.097649483111266
0.07423415299283981
0.009799093499806781
-0.11020252062402792
-0.09232377479524718
-0.12647848160560446
0.01815272000722093
-0.009248393947294636
0.050385590160117115
0.053741695511973095
0.04237244146822902
0.03267326134022351
0.010958762786053532
0.13478364768567566
-0.0596459307953184
-0.04541712077432378
-0.09085861724918515
-0.046878920971759386
-0.13887758093602828
0.03484507198951004
0.0981972772163457
0.0879210310001975
0.04295806978188159
-0.004324818891527169
-0.03323806987370839
-0.036054866174710966
-0.01649357559225439
0.013294199414134848
0.03628439550206314
0.03428142893555594
-0.008389705164430467
-0.10153922339983955
-0.04686597392528018
-0.03766876228875725
0.1392133135615534
0.10005360717543424
0.061083690540221974
-0.16321141043563428
-0.1604994290534077
-0.12118784266209787
0.159457716764112
0.27817317543493547
0.2222321725021811
-0.027269881966258385
-0.2867859062869954
-0.3597892338672309
-0.23050141991401768
0.1330122733569777
0.36601158100767883
0.289852772526148
0.09870979485985715
-0.04306607721338466
-0.19146289316584744
-0.20528991511140093
-0.1277770697946332
0.026027346397176233
0.07250789937523346
0.053684328028778774
0.025415585433240104
0.04350926140963336
-0.04899575226741937
-0.03128778460081504
0.09013700149524881
0.0814263589484292
0.08679811804682966
0.039313592554876736
-0.12446048119581347
-0.24912655398130532
-0.14886202454501218
-0.0033820850555237696
0.2373564565864722
0.24210945026533387
0.08571666519983528
-0.1608567184496516
-0.23660538118983623
-0.2948212297154957
0.09118465780604831
0.3201115066708889
0.35556800745882905
0.12549915173649537
-0.06754847910612818
-0.3259494296370224
-0.3325204476454288
-0.13102962459728476
0.08101161610769347
0.14512650379054803
0.12377145196266703
0.07834506134868263
0.05047182772511859
0.05153840471895152
0.06248714270255159
0.04316501547708666
-0.05165247258940733
-0.2541550055730017
-0.16891660808095293
-0.16706272019859678
0.007989530052651912
0.22446623152019538
0.3413325258824617
0.19039628382115034
-0.03172571967256603
-0.15913433342999778
-0.24241624671697115
-0.13116699588817252
-0.06015121178507765
0.15677805979382664
0.1249258094723047
0.06222430510503861
-0.00816048705518142
-0.06346579286922585
-0.08472833267379723
-0.058963927926445676
0.018695966688197698
0.14274652530610904
0.09608954408350123
0.05160746081606618
-0.022479096967282168
-0.1543587956311883
-0.16030013411138797
-0.03982796444034793
0.023039778294885425
0.05237364013899689
0.06923254141629477
0.08097758124062296
0.07519340016953474
0.22124910857452007
0.08049157472880798
-0.1766701905721632
-0.3516410335259457
-0.2036996295189664
-0.2483677372587376
0.028308540331919638
0.34195326016067706
0.3768884788635484
0.35951547367924114
0.048080486153431745
-0.2570899751179741
-0.28665630516563106
-0.16847416730272793
-0.19837598062256317
-0.023941057396173953
0.15590888662120342
0.1782018392809243
0.0963895654700147
-0.03900380997557373
0.005603355433315953
0.04045825725950548
0.05362666779470306
0.018277155504440517
-0.09609807688746506
-0.11141810882863024
-0.031012582885011675
-0.03477365179136996
-0.08093770605690659
0.08595049042971575
0.1231180974905115
0.0770493829770345
-0.026184428726835855
0.01457267369399973
-0.02325193835100817
0.019850512539468058
-0.10599796275008039
-0.05084888465987718
0.14329287493202475
0.04874499797042353
-0.14379129303898827
-0.02354201176082252
0.039141890644673716
-0.11189648886753555
-0.02675946109185386
0.13996027628379087
0.018272046937642745
0.014161324133454396
0.10574427246326923
0.04573913882592279
-0.02964773620652673
0.01311557173250039
-0.07922067259151354
-0.1325958325546359
-0.13731242350790232
-0.04845642330125138
0.004046804171035635
0.09764460209713798
0.09613999221814017
0.23137375904859925
0.09320236670691937
0.031245114320049238
-0.03154854773145038
-0.1771801663588544
-0.2691480633158708
-0.13438395798051536
0.04408362948637667
0.12221673176842045
0.18056387630334747
0.10588529765017593
-0.025581973378739183
-0.15979764260011434
-0.07099294731587215
0.03656391221889499
0.12986185564891922
0.15147663007929624
0.027745065621801804
-0.11910368969804722
-0.15673209125036336
-0.13012704227034086
-0.05467729088344639
0.08288072813875846
0.11635414915567954
0.08808538851155176
0.037277551078114576
-0.007979718777718015
-0.03359435233989349
-0.03786045382045565
-0.02714720341155742
-0.010909864412839417
0.0024421851336580043
0.008054091334320545
0.005425396303546097
-0.0021820809835225944
-0.009289722955075831
-0.010296806078546595
-0.0017572568299738906
0.015583626628315509
0.03554375707093752
0.046676223994137164
0.03432529804703499
-0.015484094652663179
-0.11118633678456301
-0.0514772450097697
-0.0236220723241028
-0.005437626648260609
0.029232215926806717
0.1031073154599697
0.028482175141114254
0.0029257091843990866
0.009051569336298956
0.018472505462247612
-0.0010735647537052884
-0.07716271369794644
-0.024773017798386653
-0.04107181243382791
-0.10443037583127054
0.02182942949475984
0.18179572132755356
0.01754043652260873
-0.039424865584297995
0.02628395237585574
0.012093365310436071
-0.10105992371846917
0.0550493452333473
0.04104750648035149
0.015712893678124437
-0.058121945587579917
-0.008121697957509676
-0.04835252410283768
0.022527432226359993
0.020271291567040304
-0.028662886346733304
-0.092957559356323
0.05642128546569103
0.03894000071186407
0.05871436900936979
0.10219465531623292
0.14092652524587462
-0.06028000683381532
-0.13144552400114715
-0.285531095537702
-0.1113237871691025
0.02528430461519227
0.17129859377228654
0.1715329528570588
0.25453861113549253
0.02530454389258441
-0.1325800322823434
-0.24692930026103083
-0.14422168864432924
-0.04003772614660972
0.06355890666268821
0.1736985517323139
0.0986937991585561
0.04078361862862846
-0.007021145353878853
-0.05909634247336113
-0.13188414414385682
-0.03792158096047607
0.018115521259553357
0.040016872376122524
0.03764244926657332
0.023031513597674125
0.006713927552920579
-0.004627430612453026
-0.008784334586142813
-0.007215201416930408
-0.0033943126462606284
-0.0009478827383854456
-0.002083182724993835
-0.006654157860628552
-0.012068447894120262
-0.014120527491246739
-0.008684977986561433
0.0060195232239015645
0.027166385593380846
0.04586976111178343
0.04739528422223391
0.013557746858364255
-0.07288762782989136
-0.02295108956778762
-0.03694369256169833
-0.1025703166533751
0.003409263804256368
0.1101468241574735
0.04579936239237535
0.031095556582848728
0.07560152590917549
-0.02216937062127176
-0.07117366407368413
-0.08248086492030673
-0.06449014696675956
-0.020717536368161486
0.04913819362725171
0.1458094916233019
0.06692974455824025
0.005610125798770311
-0.04783730493668224
-0.10187685700611837
-0.1597610777031507
-0.01812859348093721
0.1305226231857883
0.09234745865423016
0.06633734143599945
0.041233943373586546
-0.003025772094394653
-0.08959658273827074
-0.03682311660658495
-0.051118559449611065
-0.12337270313926452
-0.03049582769919552
0.058010274171587974
0.17046107633814914
0.12385890374657267
0.11892150933523155
-0.05856496659674899
-0.23073993578151708
-0.21846408196480357
-0.03448032871824899
0.11795823525688676
0.2412427715431663
0.13774501472147507
0.006605813801953065
-0.1546853416907316
-0.1449406412500253
-0.153742080890887
0.04044744671254105
0.06676768759439512
0.1542692516488431
0.12345643670394185
-0.01926940414652536
-0.08223465069685411
-0.0846279360698151
-0.050473035818690504
-0.0031484737751590157
0.037861180032084274
0.05785029705845557
0.04642841394846499
-0.0030281992002225387
-0.09332974632346411
-0.02306010540072889
0.013413793648472984
0.024902713302921087
0.021416128953653094
0.011940516709966358
0.0027801550121335696
-0.003061186900799295
-0.005437381811974324
-0.0058855146909514745
-0.006208275038664146
-0.007292264307672985
-0.008523538014982195
-0.007985730691620865
-0.0034182863211047534
0.00631277266003987
0.01969334406545507
0.031592696560858224
0.0334290855623649
0.014777391540273814
-0.03381163019716061
-0.11767337089775756
-0.035911598737954326
0.018549317761807165
0.0565541129901824
0.08905068383083714
0.12407347307017394
-0.03400896253353804
-0.18273410852085803
-0.11875321272525392
-0.03639821514189017
0.07077901321810824
0.20603986476129996
0.1656813678765046
-0.06150241474971689
-0.09016824974133482
-0.1312760615727252
-0.18551271511438053
-0.04107860030531397
0.12238038836723358
0.12500418348986111
0.1770188900562902
0.0727448979518407
-0.008593977669921959
-0.09522342365911382
-0.2114201552109609
-0.16723947668383624
0.046128040401400255
0.05331358021734361
0.08536204897877434
0.16792650218851826
0.11177991500220459
-0.09089684227662487
-0.06352933333419848
-0.037200414260035355
-0.04106975069314399
-0.09453041924090502
-0.0033539938562091656
0.03948962052968795
0.04919115520785201
0.04263917434901417
0.03251973959571888
0.023893712213767668
0.014142419217852522
-0.00398319808465878
-0.03746841787309982
-0.0882239047116346
-0.15047040226937258
-0.011894529351813132
0.14125923178650343
0.11695569298299482
0.11130921398996484
0.10699494563366331
-0.12239029730770831
-0.20333377410273082
-0.15243281595620303
0.03036376199334748
0.16279955591266693
0.0760488561977611
0.007752490675063412
-0.004835231505901937
-0.1301868208255306
-0.14653717641397757
0.1546190305101213
0.16560331840572218
0.06159271296113598
0.0034812709862704497
-0.05480616937616934
-0.15615814571061357
-0.13061202818415743
0.010371101572873766
0.07382207561679395
0.07993677301566435
0.05406285252026906
0.019126656067250117
-0.009230370551861957
-0.024059834942993113
-0.025661590566404473
-0.018605268833896845
-0.008588165380032108
-0.0001019220078291966
0.004677828217998984
0.0058527458966753
0.004986870794333242
0.003986414237608121
0.0040967645883948165
0.005316237396764558
0.006381411573997257
0.005333097206980629
0.0005228864759102808
-0.008233927903431665
-0.01879043928248851
-0.02658088922407069
-0.02572461122608078
-0.011436542824003594
0.016639310775761404
0.05114478936001048
0.07518834258167327
0.06342597967612741
-0.013146337305961922
0.020899903856165327
-0.04505372420562511
-0.19977316011722457
-0.20734567582412738
-0.01205269679198424
0.04877178713882284
0.227003934652126
0.34719896580592885
0.19813964290050337
-0.06305059511956124
-0.2947878905728857
-0.34901009624748097
-0.2524993657656767
0.0004648887431032178
0.24135063979538376
0.31028740912354374
0.2369308978868307
0.027831653170605212
-0.13496988137851373
-0.2850570091591912
-0.057852733947335366
-0.07854082602293268
0.043782202517800635
0.11486572938398937
0.14927818763543146
-0.036739042629256494
-0.03047934175109154
-0.02479456372280169
-0.017462411656201403
-0.009258087819870784
-0.0019638182059779387
0.003000765008218831
0.005162878765044627
0.004954086939031964
0.003328673193707987
0.0013166559272724668
-0.00030711937145701615
-0.0011674422904143357
-0.0012647153013399428
-0.0008476401374283148
-0.0002554930033908549
0.00021543952833774968
0.00039422938302837986
0.0002629706353473643
-6.063030569430423e-05
-0.0003728529363443949
-0.0004545447182628929
-0.00015216271469953334
0.0005452017045731654
0.001455140843702797
0.002206355734534492
0.002323976568138934
0.0014021123224529568
-0.0006676485026059903
-0.0034914584867012845
-0.00611362005564183
-0.007234883743377641
-0.005799728607534065
-0.0019399232519495245
0.0018911712711390846
-7.505481888939766e-05
-0.017306809018796745
0.1378003482389057
0.0523446231220452
-0.08291691341164778
-0.0684642899975958
-0.09184969070177755
-0.12677885205191694
0.0630651974423624
0.11582077692264167
0.061269968384740595
0.11222777981790348
0.060637051771947066
-0.12025636720577548
-0.06855517200092207
-0.02387768592685929
-0.01826976600249738
-0.07034315540762051
0.016280834225650097
0.050523919771041266
0.04875574256192894
0.028973487282194035
0.006074156172862017
-0.01069148453867391
-0.017961441539466213
-0.016836544234301063
-0.01073976539184188
-0.003422202859487796
0.002357612260357451
0.0053394834907329785
0.00560580966570799
0.004061467427685037
0.0018477103321242131
-0.0001020823678994271
-0.001278201657206408
-0.0015986288539523589
-0.0012779250836262204
-0.0006516096687171626
-2.721479960153425e-05
0.00040128700808106084
0.0005722450134204942
0.0005269530157766896
0.0003589654338384115
0.00016573287409119908
1.6785201395167317e-05
-5.769424166526048e-05
-6.182933001878395e-05
-2.0165046028502455e-05
3.748641061833332e-05
8.727640217340732e-05
0.00011656634177751919
0.00012375173557667684
0.0001147101197139627
9.822043801509042e-05
8.215996935219916e-05
7.137913745633158e-05
6.730067101560671e-05
6.873481932494254e-05
7.320980850888693e-05
7.821344035913372e-05
8.199130556559981e-05
8.381554648225014e-05
8.383480895792256e-05
8.270598504293606e-05
8.12027182690529e-05
7.993128368474998e-05
7.920300387164304e-05
7.90454952693574e-05
7.929825093218685e-05
7.973178108940028e-05
8.014450859258284e-05
8.041537455828445e-05
8.051201635918093e-05
8.046828441217548e-05
8.03493692713759e-05
8.021996354007719e-05
8.012427195698079e-05
8.00797516461128e-05
8.008149192218552e-05
8.011196041641985e-05
8.015110558359854e-05
8.018353447658842e-05
8.020160170808894e-05
8.020494804385373e-05
8.019793642939e-05
8.018655717849705e-05
8.017596235606568e-05
8.016916715243734e-05
8.016689461788111e-05
8.016819223847408e-05
8.017134455123862e-05
8.017468838632792e-05
8.017711216252127e-05
8.017819950049832e-05
8.017810303071973e-05
8.017728702165982e-05
8.017626760188476e-05
8.017543288220623e-05
8.01749700558089e-05
8.017488295246607e-05
8.017506089738655e-05
8.017535755793856e-05
8.017565015022029e-05
8.01758664737453e-05
8.017598265253555e-05
8.017600401399324e-05
8.0175944084303e-05
8.017581330535915e-05
8.017562206824938e-05
8.017539466442756e-05
8.017518430598655e-05
8.017507659798159e-05
8.01751712317375e-05
8.017553957186214e-05
8.017616790325209e-05
8.017690893917894e-05
8.017747237980952e-05
8.017748273958736e-05
8.017661485141297e-05
8.017478460252105e-05
8.017233205623494e-05
8.017010157371988e-05
8.016931928714595e-05
8.01712106399401e-05
8.017639578536677e-05
8.018423213155072e-05
8.019239759949739e-05
8.019705983538604e-05
8.019388813399153e-05
8.017989847724586e-05
8.015570590927484e-05
8.012731059043912e-05
8.010626660991902e-05
8.010721164415652e-05
8.014244304908174e-05
8.021449906677638e-05
8.030924339502198e-05
8.03931533573017e-05
8.04185880224734e-05
8.033907185830334e-05
8.013287517349327e-05
7.98280861771142e-05
7.951768445640989e-05
7.935138389439695e-05
7.949478124994867e-05
8.005696592864383e-05
8.100396008562978e-05
8.209242286370549e-05
8.286805247584613e-05
8.276702625030338e-05
8.133029353842943e-05
7.849061728371153e-05
7.483313044781416e-05
7.168562748657656e-05
7.089526653354047e-05
7.421971066762651e-05
8.240897364269536e-05
9.425092882728393e-05
0.00010602978128675107
0.00011190407467660715
0.00010555167066703561
8.3006414413416e-05
4.5980215164366335e-05
4.3151059951750955e-06
-2.4148132147784103e-05
-1.7719558746077642e-05
4.0684796309699494e-05
0.00015244998659502316
0.0002934670473566808
0.0004112161428897716
0.00043415766021345217
0.00029594697108976795
-2.885636987554753e-05
-0.000488510651092998
-0.0009347913138468484
-0.0011400280050609338
-0.0008631631939348165
3.9291540643982444e-05
0.0014860639359106755
0.0030810221341052418
0.0041262063903466885
0.0037915708384884963
0.0014488865181307273
-0.002899432592754412
-0.008253193030387518
-0.012527146849938438
-0.012952839036508642
-0.007064089408189254
0.0058630380175368375
0.023327949908520235
0.038727587743865304
0.04177012168768371
0.02058573421274432
-0.03469298660317324
-0.12792859740634283
-0.054206686603224204
0.0001680231011587841
