0
1.9900595191406964e-16
1.714902207501703e-15
3.2702536820785045e-15
4.121455477956566e-15
3.4403093321693602e-15
6.730744038112798e-16
-4.0273354189398e-15
-9.466545999305441e-15
-1.3392836774967521e-14
-1.2993113596406176e-14
-5.953414844063032e-15
8.111013562091269e-15
2.6346332394891763e-14
4.218675385800817e-14
4.6435753062578464e-14
3.0271323978628056e-14
-1.0188990721454321e-14
-6.910768582559413e-14
-1.2816235642503953e-13
-1.5832869466430965e-13
-1.2797248847539287e-13
-1.692467618221835e-14
1.669242387891509e-13
3.752261324237695e-13
5.195192515154449e-13
4.915406055865755e-13
2.0508671606170273e-13
-3.4869969310909006e-13
-1.052070532953871e-12
-1.645215104216101e-12
-1.7718420656953793e-12
-1.098766031905217e-12
5.064811030836004e-13
2.7938649064398587e-12
5.032053663360378e-12
6.089472291540498e-12
4.759649782757945e-12
3.123184791007204e-13
-6.870293354762222e-12
-1.483610356385549e-11
-2.0114006382898175e-11
-1.854280907361558e-11
-6.921396683503672e-12
1.4856440485405207e-11
4.19532858397361e-11
6.410263079858839e-11
6.75171865520261e-11
3.963994462819667e-11
-2.3953404597859053e-11
-1.1265361993274161e-10
-1.9732040048855158e-10
-2.338872626845964e-10
-1.7641469807020424e-10
1.3571502242753295e-12
2.8164446532735973e-10
5.858196366265208e-10
7.778447745728356e-10
6.979909895685725e-10
2.2780474778055935e-10
-6.275585440639022e-10
-1.6701287579608221e-09
-2.4947687391527816e-09
-2.5685872142891047e-09
-1.419405001790757e-09
1.0963071877922512e-09
4.5319362834639854e-09
7.728289105423282e-09
8.971260589600737e-09
6.514488360892577e-09
-5.787307810516177e-10
-1.1503864945983703e-08
-2.310096850990655e-08
-3.004480653692564e-08
-2.6212427868212034e-08
-7.237649305917202e-09
2.6317526100269374e-08
6.637940248783055e-08
9.698143826830685e-08
9.755160038230143e-08
5.037747210276532e-08
-4.9004930950757014e-08
-1.8192142610723502e-07
-3.023325364116609e-07
-3.43638930124353e-07
-2.395692243856897e-07
4.296990167771216e-08
4.68327131598615e-07
9.097746202039331e-07
1.159098175492559e-06
9.819118557976005e-07
2.1797679529717967e-07
-1.0967928623577407e-06
-2.6341758284610296e-06
-3.7657330475598277e-06
-3.6982583553899715e-06
-1.7690491514825642e-06
2.1517532795044855e-06
7.287888019266913e-06
1.1813590532318106e-05
1.3144199057722054e-05
8.769436644275114e-06
-2.4663022839871906e-06
-1.9008154767672407e-05
-3.578381566822495e-05
-4.4661635293447384e-05
-3.668232007552609e-05
-5.993875016488307e-06
4.546079644220705e-05
0.0001043768833535861
0.0001460495312679421
0.0001399316036766476
6.129638024983224e-05
-9.31988717866904e-05
-0.0002914540712761169
-0.00046117346736136055
-0.0005021610203000135
-0.0003194967395979255
0.0001266422813766019
0.0007694192315350935
0.0014064528138955823
0.001721037925327459
0.001372136500869112
0.00014874671853277145
-0.0018500477684677405
-0.004083276100345228
-0.005577879129968624
-0.005158523620160802
-0.0019142798526882417
0.004185399876078736
0.01173291776221148
0.01767508396383404
0.01773461487657576
0.007578452884546355
-0.01545813600718245
-0.05065814127594175
-0.0930454740416778
0.06593595490312136
0.03607345001798892
0.02513457140063803
0.03607344997723907
0.0659359548377807
-0.0930454741025868
-0.050658141297658096
-0.015458135960406672
0.007578453009659459
0.01773461505740576
0.017675084139447673
0.011732917841614343
0.004185399765048964
-0.0019142802080722877
-0.0051585241845649695
-0.0055778797450891605
-0.004083276491807492
-0.0018500476135840816
0.00014874766005894532
0.0013721382210126504
0.0017210400278007134
0.0014064544842021295
0.0007694193956292333
0.00012663998425198984
-0.00031950179426370133
-0.0005021679418717061
-0.0004611799282665398
-0.000291456620043098
-9.319398163184099e-05
6.131061709854947e-05
0.00013995359609581955
0.00014607294252341947
0.00010439099946667752
4.54532655451398e-05
-6.031906141056916e-06
-3.6749812248485895e-05
-4.474242721840302e-05
-3.584581117405024e-05
-1.9009891299082442e-05
-2.3719478728999858e-06
8.969156558277583e-06
1.3412016212235474e-05
1.2057045434258652e-05
7.372860989821001e-06
1.944380245183022e-06
-2.3362576107960227e-06
-4.554631068471554e-06
-4.65707362118132e-06
-3.1415115975180178e-06
-7.472111016526672e-07
1.7495772283099632e-06
3.6268102480334625e-06
4.2600323792218605e-06
3.2032442803727667e-06
3.5539053939889545e-07
-3.817468571695109e-06
-8.120180582853174e-06
-1.069414546030691e-05
-9.455417278420862e-06
-2.931754285698281e-06
8.676229318847592e-06
2.261120963608989e-05
3.340620335755986e-05
3.397671556853839e-05
1.8152138171597846e-05
-1.5762159026836752e-05
-6.155067124196657e-05
-0.00010355233357021911
-0.00011888715825181502
-8.453464773320422e-05
1.1406616917615217e-05
0.00015740022085662393
0.000310551080337322
0.00039953997355872005
0.0003432689866758407
8.514860069623817e-05
-0.0003647919205540419
-0.0008961824658105886
-0.0012944644613024784
-0.0012861490360430096
-0.0006393676391526437
0.000697769332147493
0.0024672937978586352
0.004048993058516258
0.004556446037797352
0.003120502284382338
-0.000670456534156573
-0.0062992402358585066
-0.012031932407421748
-0.015062756408881757
-0.012275041088612696
-0.0016095540054457682
0.016262703600330355
0.03657330382897543
0.050176635724713016
0.045008139009694234
0.009385173102859813
-0.0636633577582215
-0.1728576984816185
-0.10827955527914616
-0.0559462473333613
-0.0072439413785745374
0.22967170748733387
0.4218835134432976
0.3132017762178336
0.038834074775572304
-0.4486946678062465
-0.7512490834580207
-0.40764979460114503
-0.0983914535896077
0.32499138419444284
0.9953010972302136
0.7879082726364843
-0.09979866795565943
-0.5388012586934552
-0.6343267561419479
-0.6843360074231211
0.0504948338228522
0.5547004348839831
0.4459449195040796
0.5544639025576292
-0.4932630984723082
-0.48048100281463635
-0.1984320827145725
0.15586493044647723
-0.022667983556498555
0.6469970886956218
0.12807202133522214
-0.23066551424871404
-0.2831355474062107
-0.27034112290525364
-0.00815873783706968
0.1159540618728085
0.13657979311768373
0.09795740064575144
0.04102601723672936
-0.0057038452774305195
-0.029528542756652374
-0.03165170832141
-0.021930468760884895
-0.012578906658286749
-0.01279021415698511
-0.025579229271301535
-0.04746956326218581
-0.07101349038953438
0.11057725343036817
0.09824763832307103
0.08357216140922545
0.04894488556316127
-0.027747507277671748
-0.16523358929385226
-0.1707868182385814
-0.035525652087178984
0.06463664522649776
0.16270486595125702
0.09181102867992942
0.07773025469985655
-0.06455991940924004
-0.1299194910688792
-0.11959864845152923
-0.038132342676406146
0.107469945276623
0.10632762588296084
0.14202184138187332
-0.00699379027643796
-0.16387853256680646
-0.1479470030191212
0.030036472024763134
-0.030653626225374844
0.07690845703684412
0.16247482105890126
0.03390763812561121
-0.10526724475378928
-0.05540494930144174
-0.018417662394677962
0.004661446354993981
0.01495485473592231
0.015606469901769407
0.010741731352216967
0.0042383901851289615
-0.00115595035975801
-0.004142025187801381
-0.004682423630228101
-0.0035237939055192333
-0.0016664510303138558
4.3081038576275823e-05
0.001119196123258748
0.0014549995900599963
0.001215529167615734
0.0006856658658231122
0.00013679792424750942
-0.000253138738456469
-0.0004209824038251335
-0.00039596901634393107
-0.0002567182280975788
-8.859509853872627e-05
4.53829186142104e-05
0.00011598981038501482
0.0001244953226249977
9.10686264176128e-05
4.1545041662350507e-05
-2.716101462450056e-06
-2.985339814259222e-05
-3.7716761399181953e-05
-3.096859873981277e-05
-1.7117618378583e-05
-3.114597213835124e-06
6.630304645732598e-06
1.0704144830786739e-05
1.0029380088390483e-05
6.692211288782259e-06
2.812339332716864e-06
-1.979515376934804e-07
-1.8728918581687952e-06
-2.506116900476865e-06
-2.719595795617587e-06
-2.9984433233522887e-06
-3.371181167388748e-06
-3.3500166610798865e-06
-2.1620795824489447e-06
7.901928791259345e-07
5.393059284329646e-06
1.0435064103318302e-05
1.3616245434532478e-05
1.213368270553529e-05
3.8504909645140495e-06
-1.1212434076181848e-05
-2.9615867424743277e-05
-4.422169822872884e-05
-4.558683087268927e-05
-2.5304038924467575e-05
1.9235076139765162e-05
8.018016894266667e-05
0.00013702056521563885
0.00015935043646901677
0.00011611695537734216
-9.446257570628352e-06
-0.00020326124253403855
-0.0004094399957213916
-0.0005335586134820658
-0.00046681858362371606
-0.0001313041607225691
0.00046373565233077686
0.0011759391893035715
0.0017228930983353612
0.0017403096357283651
0.0009144970751182736
-0.0008330088379750629
-0.003169437277165143
-0.005275496207058363
-0.005967379986118966
-0.004072838183183726
0.0009715406197599256
0.008458034421173672
0.015951582460489912
0.019354865387903184
0.01372088231629809
-0.005211597966609706
-0.039152800676016966
-0.08579692011909924
0.06144480148742403
0.012088873423198171
-0.024139892618306503
-0.04055414904224547
0.163783865619648
-0.017102425464786988
0.005023430278934625
0.01611639355584987
0.004826615678486172
-0.23285356757676975
-0.09141045663663844
0.04235285666453542
0.18360949056009196
0.14230219478614292
0.11809840439515824
-0.09963836451955917
-0.1266345236148328
-0.17589312703525292
-0.0512960767167436
0.054262552576445
0.155644531343562
0.06919612146640126
0.006702671009207346
-0.02785713398993074
-0.03801789782715568
-0.03196391930835713
-0.018832719229777906
-0.005734449475548639
0.0036701349697646195
0.008960719889677974
0.011607063123070756
0.013230205904010296
0.014220605233941823
0.013255166180414633
0.007931498756686953
-0.003644632774028867
-0.02086171516807484
-0.039027568687342355
-0.04913235750767435
-0.039615518834204895
-0.0001565820865528167
0.073448418011883
0.17521854540068416
0.08802495609862993
-0.012686437405662871
-0.15084623123935845
-0.14013581906191963
-0.17699436693218953
-0.03993494044443069
0.10368160339363636
0.28570084075786967
0.1250010458981678
0.020411097901173136
-0.04824708662650023
-0.11171090129075294
-0.19935531559927797
-0.12892876219711402
0.09805409550757047
0.09406594119013977
0.07836525351264362
0.06858437762319264
0.07470225930955283
-0.10268795940351733
-0.07005646888557875
-0.03643794126093753
-0.009144359339001946
0.00858968582139945
0.017568831367103643
0.020837832275589004
0.021278655870517083
0.019740674914513843
0.014464656844466253
0.0020102485640108025
-0.020688915425388744
-0.05400939436507785
-0.09416498823421993
0.06652637065070661
0.03746473628565478
0.02648103578184358
0.03688119638483408
0.06614912214228874
-0.09313534284278052
-0.05061714226376929
-0.014952819996571238
0.008577561619105577
0.018858095782175035
0.01822020588097059
0.010908282401766143
0.0014989877262196463
-0.006229746379850728
-0.009856000079632513
-0.008445178935571819
-0.002488892219140393
0.006200065787826198
0.01465824255630576
0.019168798469426804
0.016052277063549482
0.0028360215631176686
-0.020554385394684904
-0.051319714736701966
-0.08498222293507023
-0.11900344008568065
0.04127131176767039
0.17594089232884724
0.24638955260084955
0.1975382302423999
-0.03105251728282032
-0.28643335836677
-0.1814164357487512
-0.2798132491312809
-0.29515120113222815
0.09401007362146767
0.41532086220807213
0.3695657143341935
0.4053100907655304
0.1111430666017122
-0.3715934333608399
-0.5215722492747947
-0.40823720387490864
-0.2736966944808511
0.26701317880024233
0.6097997966498429
0.5406354250477664
0.22389068700898163
0.009062291457678517
-0.7451166346578619
-0.6405136256099317
-0.219579164363442
-0.16817749652784997
0.45638520437521113
0.7817803405350916
0.4788352754398986
-0.06162332848439977
-0.12468827321834271
-0.6434828907749935
-0.3603433458248527
0.0075645616969600244
0.1875436299280438
0.15330740812288163
0.11446897810238231
0.10132558850816727
-0.04864603286794383
-0.09948296592389781
-0.020628482804620412
0.012271406154971468
0.017855903577763173
0.009810632339532166
-0.002340346149011915
-0.012390040090056398
-0.01663960352033646
-0.01335480141571098
-0.0026796481015542812
0.013034874689595919
0.028841859817891877
0.03732020751062997
0.029732885306389085
-0.0016424236563685017
-0.06054513028137899
-0.14435006321348567
-0.043756565052841416
0.054574715431013186
0.1630361232311374
0.08792674497787023
0.026889709274614735
-0.029393643083656534
-0.09173819327489087
-0.165703797283902
-0.0468113927303312
0.07986555530529646
0.03535912439214718
0.03949087732554329
0.10353210133103835
0.02560370272446068
-0.009604142224754742
-0.02680896347832293
-0.0533089813006557
-0.11174985235853076
-0.014896454316007165
0.036051970422393366
0.04949738562942057
0.03908971276588953
0.018901262021643734
-0.00021857586212384054
-0.012303446896567875
-0.01603749879455865
-0.013303261703045001
-0.007346728417503821
-0.0012333566333468061
0.0030523983343581544
0.004831088631040818
0.004459960633724594
0.002839216279980309
0.0009304878745333336
-0.0005665911940431674
-0.0013369653275032182
-0.0014075288019114768
-0.001013354000930069
-0.00044803366079116937
4.9315764719480995e-05
0.0003485916469427684
0.0004292324652823585
0.00034639881508977116
0.0001859643443539301
2.6459836283154843e-05
-8.271685515116326e-05
-0.00012600420934777773
-0.00011410233896011243
-7.099133767567164e-05
-2.1576352544328618e-05
1.6418286309845e-05
3.5338825532785583e-05
3.629032887208568e-05
2.5575472050985223e-05
1.0820444154236664e-05
-1.8891651229175033e-06
-9.340384992417897e-06
-1.114012789501444e-05
-8.802638806405556e-06
-4.577287135737643e-06
-4.773332135551026e-07
2.2615390126212545e-06
3.2820434454831917e-06
2.895725745256126e-06
1.7418678796828818e-06
4.6873615700692686e-07
-4.7253431754607134e-07
-8.991279909132869e-07
-8.600313754596816e-07
-5.415027401521248e-07
-1.6291328408813322e-07
1.0405588823955613e-07
1.7877959402309051e-07
7.835024206862412e-08
-1.0401492151948582e-07
-2.3867608502049746e-07
-2.08224798605165e-07
4.3765800146332775e-08
4.746864119815474e-07
9.293696437160349e-07
1.165646501268173e-06
9.277103905492006e-07
6.111063188534988e-08
-1.3593295475415583e-06
-2.940595768377809e-06
-3.985656571189745e-06
-3.6627410165168305e-06
-1.3367116107022952e-06
3.0056449778094785e-06
8.39035421682077e-06
1.2765030578384145e-05
1.3385325099998437e-05
7.765866938874024e-06
-4.945025084785117e-06
-2.2598032214139894e-05
-3.936077562536715e-05
-4.645472305699102e-05
-3.477148868872991e-05
8.299069411074236e-07
5.6686791299237404e-05
0.00011702804107891348
0.00015471820471085794
0.00013803389139034242
4.36341970987238e-05
-0.00012707162513564722
-0.00033425343822043744
-0.0004969883720779
-0.0005092871745464731
-0.00027777049631231654
0.00022501244060371393
0.0009088313190543562
0.0015420212647343978
0.0017837157792781448
0.0012887172534500136
-0.0001244747551149507
-0.0022886151261317443
-0.004567060884704845
-0.005894743500517629
-0.005055433854483889
-0.001198199839252476
0.00551770593071222
0.013383435435971924
0.019017142565218043
0.017931971150485077
0.005877379976872938
-0.019307197781744216
-0.055982254546937324
-0.09804358976223529
0.06395744408932359
0.03987547274108707
0.03617700711706757
0.05292826683454327
0.08307538144424709
-0.0853729070385499
-0.06492422477286099
-0.06371794538251668
-0.08232241366447482
0.08632436241069846
0.053818467458032385
0.031454770207357
0.02570632870994301
0.035677292426805604
-0.14684814623420864
0.06483831043138562
0.05589339687327841
0.01388812058091983
-0.06737315976471675
0.015163454881082603
-0.12496819824892053
-0.06533800151463956
0.020594667738030627
0.15638662699934827
0.15550459034016345
0.017109537292113768
-0.07329888202281334
-0.13861335751560722
-0.002618109165757836
-0.08343087641599846
0.009812248180505863
0.07650002786433589
0.12144904841077099
-0.04885425542463285
-0.02894464434067145
-0.015342056579660012
-0.006210998300799767
-0.0005623745637261908
0.0023756764585281583
0.0034082594264193194
0.003322550243788533
0.0027162941870867655
0.0018727924346610705
0.0007785466168406117
-0.0007059000203865062
-0.002586979422818939
-0.004506278563509669
-0.005665068045676971
-0.005003347045262191
-0.0016528416985834699
0.004433141431537479
0.011894990521453203
0.01773248045123594
0.017707817030349328
0.007506552654000986
-0.015536438115683756
-0.05071639139839524
-0.09307309415035209
0.06593634989531805
0.03609183538808422
0.02515937643797218
0.03609557370931633
0.0659503357407763
-0.0930402648434245
-0.05066126493054205
-0.015467782893852148
0.007564472877920349
0.01771905943745106
0.01766179562727639
0.011726941627805378
0.004192041646011407
-0.0018916736672618941
-0.005121565726047132
-0.005535661564142201
-0.0040526720649181665
-0.0018522195582845093
9.616099386655123e-05
0.0012657877891130015
0.0015819255077867912
0.001283842030810904
0.0007330723840248666
0.00024438633147318736
-1.6317679152157835e-05
-5.533316864279096e-05
-7.4872943314243594e-06
-5.041000900000565e-05
-0.00030671845013831604
-0.0007646204518271838
-0.0012449361433990514
-0.001435658988977404
-0.001000876243720477
0.0002527209331653501
0.0021987144823481736
0.004277682786406392
0.005531704270014451
0.004845392203781522
0.0013824108415214675
-0.004901876552272443
-0.012908652926073672
-0.020516712025337093
-0.02545521003332087
-0.027007030252415774
-0.028224034467936043
0.16222672413138828
0.12998910933765803
0.05811201138035842
-0.06637921414337337
-0.2442273076238419
-0.25782635300917256
-0.0714325048972379
0.16031897021481326
0.2776937807720107
0.30076318927217194
0.020700797628849698
-0.1984840176530242
-0.20866768662586171
-0.06192104225557773
0.0032421364696499184
-0.030768774200043477
0.03914918368407133
0.030421280952253073
-0.034888852825622395
0.06009460224184191
0.12004663176485683
0.1356690022066194
0.0885903266837555
-0.03744076699992837
-0.24200906860066929
-0.2954743536759556
-0.13451712936469368
-0.06994029921834578
0.19359737549343908
0.33146388129596527
0.37563077572490633
0.10295345101519283
-0.15993612839420393
-0.3168035320026103
-0.27470248243916945
-0.11957426059212854
0.09773243560334453
0.16261396073998913
0.0879485972859249
0.10118330714445321
0.032766230592429356
-0.09092989530047113
-0.04985252989075801
-0.02933951416665329
-0.018302907939245872
-0.00824345857540525
0.006303108876254167
0.026306338043754294
0.04681260332796435
0.056765742986896836
0.040988732108451144
-0.015545636848231837
-0.12213547406732465
-0.07745840734819133
-0.06768730955549533
-0.06913463003008076
0.14484357653846144
0.19502549152987186
0.08925965797892527
0.020523356919289606
-0.028667810903128376
-0.27728572357532744
-0.1363476409072631
-0.003416219341111225
0.13652224364148752
0.10460325956879299
0.11946815926204296
-0.009560937563712808
-0.08509596048289407
-0.12004415684610202
0.06658003881380944
0.054377924530305974
0.025625942761682553
-0.031663174660086994
-0.12188631389212867
-0.041786259323547105
0.01721910942927868
0.06453695672695318
0.10523351935780374
0.1365299581581449
-0.052063042329373636
-0.07455153160681297
-0.1418292628077158
-0.05562357044252037
-0.005887759555587621
0.027093971210435865
0.06677952710528719
0.13313853088780409
0.037091596469271
-0.02122052899150719
-0.04988146825291828
-0.05973187853065647
-0.05848424410765081
-0.04690137492749253
-0.018540565286064372
0.036905290010663665
0.12809057666869045
0.056685733509525396
0.014589873598811368
-0.0150189270233372
-0.05317762090799107
-0.11902814359368137
-0.024545345314604266
0.027960009507313394
0.044950024747099145
0.03822683678997962
0.020652899625238638
0.00264896055230912
-0.009620014453179192
-0.014305439911101888
-0.012712486743298137
-0.007662037805876727
-0.0020236103654399365
0.0022080217090373437
0.004215720200930059
0.004181344104417979
0.002860528734529047
0.0011349144993809115
-0.0003100562166970274
-0.0011274586782186661
-0.0012931108709025095
-0.0009947819776063428
-0.0004958987494066663
-2.5661232620834413e-05
0.0002798396567809021
0.0003858579878296762
0.0003326070390240106
0.00019519138573806244
4.737455103298586e-05
-6.092872642564307e-05
-0.00011045770812167992
-0.00010735317180387253
-7.191331938786704e-05
-2.7064679560121778e-05
9.752310535381795e-06
3.0006874425566793e-05
3.3465845844164125e-05
2.5218987776467383e-05
1.2136969283968503e-05
7.485770433501595e-08
-7.580649751458571e-06
-1.0060748093603622e-05
-8.492807415685746e-06
-4.852438776208134e-06
-1.035922600639842e-06
1.7019643184204207e-06
2.9036200245830533e-06
2.7585369474541056e-06
1.8065596570225976e-06
6.408762163940749e-07
-2.965436630165103e-07
-7.97227809855936e-07
-8.654510634583942e-07
-6.387650316375469e-07
-2.9615579182829187e-07
1.2986138201394723e-08
2.0457652246950934e-07
2.620641901520146e-07
2.167782975003442e-07
1.2056362575714082e-07
2.2074971293187962e-08
-4.721527761962146e-08
-7.649716525252816e-08
-7.136891562779691e-08
-4.602588411970643e-08
-1.565244827075358e-08
8.664610152048828e-09
2.182606274759894e-08
2.399941317052412e-08
1.8497259254201483e-08
9.483991457614562e-09
3.5819814326710446e-10
-6.872412637915553e-09
-1.13761295953382e-08
-1.2878022039188244e-08
-1.1130453213155287e-08
-5.828750243942223e-09
2.940035099860614e-09
1.3933885094287167e-08
2.4142909148457305e-08
2.888015478152342e-08
2.2984963963201523e-08
3.1473802203781974e-09
-2.922816462139143e-08
-6.580502850778555e-08
-9.127000980614619e-08
-8.676982129556177e-08
-3.7149032519395046e-08
5.939432770882625e-08
1.8261756191775352e-07
2.87370197597302e-07
3.113631989868028e-07
1.959136319068135e-07
-8.303298762446201e-08
-4.829335749389499e-07
-8.769439602835534e-07
-1.0674898809438207e-06
-8.425781542196326e-07
-7.190332268894188e-08
1.181517122567538e-06
2.5801838078335216e-06
3.5191203396992482e-06
3.26876341166627e-06
1.2621910828493498e-06
-2.5310844412866614e-06
-7.2787274826561115e-06
-1.119495865715507e-05
-1.1867210984095822e-05
-7.081280268645173e-06
3.972338273360809e-06
1.948418009380397e-05
3.439741828121362e-05
4.1015092402465616e-05
3.1260898843892134e-05
4.391613027687381e-07
-4.848883228055839e-05
-0.00010191987257263058
-0.0001361358578916833
-0.0001231215604527175
-4.1876962742427646e-05
0.0001071614979379069
0.00028989325109630363
0.00043581861648856645
0.00045165411897737934
0.00025407837314766053
-0.00018342508145154573
-0.0007845298583723161
-0.001347986878755042
-0.0015742844177694373
-0.0011561879795490557
7.44043783405141e-05
0.0019830173654173974
0.004023550800830938
0.005269043792396277
0.0046483706591186015
0.0013918707225148573
-0.004412440974760991
-0.011362452765388555
-0.01666971876708331
-0.01673394786651879
-0.008465272513347766
0.00884551836047523
0.031679114365481154
0.051327994433901444
0.054721035136001364
0.02752997884613196
-0.04080323220605516
-0.15158328752268357
-0.09322573777944003
-0.04169410522870284
0.03409862914968583
0.1632175249431247
0.1632174316557115
0.03409835753198955
-0.04169452098370125
-0.09322621601419566
-0.15158368352296425
-0.040803350303741485
0.027530330395102023
0.054721948888458084
0.05132935499079158
0.031680526208059515
0.008846330708111454
-0.008465797745825596
-0.016736324346748595
-0.016673851209897755
-0.011367328089982684
-0.004416092469607205
0.0013919493480099255
0.004654304005975853
0.005281306043000346
0.004039773455344216
0.0019975057675723955
7.90129684841751e-05
-0.0011694642564901822
-0.0016092835439428252
-0.0014000694803367798
-0.000837944830094311
-0.0002126222270054851
0.00027754455865241156
0.0005467865543080945
0.0005973318553937147
0.0004767204487446499
0.00024192411356360546
-5.581237292976852e-05
-0.0003651974905658733
-0.0006194765274098389
-0.0007283732435014735
-0.0005924151271329675
-0.0001450435503866319
0.0005871104878288451
0.0014312076373097086
0.002057893055168732
0.0020463705702737506
0.001037016147591968
-0.0010539907645594337
-0.003829534674281526
-0.00632405778446652
-0.0071458891775287746
-0.004912658984982015
0.0010652885876856408
0.010047075550099253
0.019401102510992408
0.02480817575194289
0.021405469998239626
0.005835791950661922
-0.021320112015306977
-0.05377788572793655
-0.07983960600767866
-0.08600968869535733
-0.06441823540984362
-0.02304063879772981
0.20425173392476548
0.3525672971148758
0.33110458140627835
0.041857485242253606
-0.18964297794561358
-0.5796292200587569
-0.660503566321356
-0.27748188004886043
0.1858073006950755
0.5571970116240355
0.6167647805125038
0.6492423768567992
0.025312329002037986
-0.38191964949671914
-0.5526714266408381
-0.4661105256994811
-0.455879290835559
0.21055851474006165
0.5260338255402229
0.3195322714227156
0.22794439136146094
0.07640390931461095
-0.3270605577713357
-0.3849730042593956
-0.09955566230201905
0.13461437158969283
0.13063577392194103
0.10337170156891327
0.06204326581196721
0.005620363732763453
-0.07693142280953645
-0.001992746644361572
0.015727970700674634
-0.029933793899025517
-0.1320805560486526
-0.07020188444585261
-0.01433364993664532
0.06673205703624664
0.19560707089763996
0.17852713853890292
0.003099336503639141
-0.1570222060222291
-0.1322407905812339
-0.14605850891879335
-0.007526556787551102
0.09036786207176017
0.16681189518170156
0.04648594114534133
-0.046749742007463464
-0.09398004574623182
-0.08329943656702145
-0.011060704888538556
0.11680110543528009
0.08377394779257522
0.06356091036097872
0.023990108867915153
-0.06599608668820652
-0.22815067912603554
-0.068631205248582
0.0235519793887843
0.07239032165711821
0.10667298059697476
0.15120374332046482
0.021019976842123738
-0.07940406615491886
-0.15243096116040494
-0.001514164681993409
-0.026528897568864698
-0.022278237953854273
0.019490974304437348
0.10576743580804301
0.037680009361556265
0.007660827843165601
-0.0003761865674122141
-0.007823145495401463
-0.036259618972654235
-0.10218959702313357
-0.013400776064613217
0.031897499112647686
0.04308049939315247
0.033284260160696154
0.015331930366674063
-0.0012316087788235364
-0.01136486661580511
-0.01414600203544016
-0.011392790643977486
-0.006017034233036221
-0.0006844113627742223
0.0029367143898528787
0.004331120385244322
0.003872766846379873
0.0023799047510359352
0.000695280436588687
-0.0005866859044366475
-0.0012147046322605838
-0.0012333311605377327
-0.0008606204038562105
-0.0003565112716139187
7.35665767960573e-05
0.00032271431197843304
0.00037970606286168905
0.00029735230044663
0.00015251546628862182
1.3310407878020934e-05
-7.892178208191147e-05
-0.00011267125577011816
-9.889216062460734e-05
-5.933645122207592e-05
-1.5805331243173487e-05
1.6667064704247858e-05
3.2016440436476874e-05
3.1745075448247654e-05
2.1674468453921914e-05
8.543764147496603e-06
-2.42870008735971e-06
-8.614071753875767e-06
-9.841709615261943e-06
-7.549588859119314e-06
-3.7451218658820158e-06
-1.70064094538151e-07
2.145043877588009e-06
2.9410233686562544e-06
2.527584762100211e-06
1.4778210644436755e-06
3.5277275044590024e-07
-4.690924577896013e-07
-8.42843534648662e-07
-8.165103505880852e-07
-5.452396881632866e-07
-2.0357665357056707e-07
7.608716625749975e-08
2.2931540592408187e-07
2.5476249790111186e-07
1.9142245205139277e-07
9.165437250643713e-08
-5.29195888973759e-11
-5.80631792080494e-08
-7.666294896868787e-08
-6.452629301120459e-08
-3.6726025286403795e-08
-7.683611308981341e-09
1.3088595534959014e-08
2.2150620580275368e-08
2.0977390089052424e-08
1.3693759387490354e-08
4.815062213473779e-09
-2.3042924339243748e-09
-6.090447474151151e-09
-6.586938652230203e-09
-4.8471133478061715e-09
-2.2348055072157764e-09
1.1497204190306687e-10
1.5659162562724555e-09
1.9956925464244412e-09
1.6453211295900068e-09
9.10574688276686e-10
1.6173183304845625e-10
-3.625221756423472e-10
-5.811944126050881e-10
-5.383256587322187e-10
-3.433373387257283e-10
-1.1289937155425551e-10
6.81125600256335e-11
1.6140661040506058e-10
1.7010670348109852e-10
1.2256800845415918e-10
5.426862131852458e-11
-5.869379958983844e-12
-4.209080177807488e-11
-5.188451800742413e-11
-4.1902470594005645e-11
-2.2520185913725473e-11
-3.2338943904678232e-12
9.977703701342836e-12
1.5225896245744256e-11
1.3798813636472762e-11
8.593026035623136e-12
2.619601803205649e-12
-1.976870730798103e-12
-4.268795797144761e-12
-4.387863917017905e-12
-3.0949526958770655e-12
-1.3117898805753257e-12
2.2553874612203873e-13
1.127940489437838e-12
1.3472076126540704e-12
1.0658559108843225e-12
5.554758543694929e-13
5.933011905068621e-14
-2.7309818550379354e-13
-3.982765441135371e-13
-3.5328603510437704e-13
-2.146522639726857e-13
-5.999629408143836e-14
5.657188870531497e-14
1.1269153525306186e-13
1.1306351884549936e-13
7.804579955502465e-14
3.1555055378319995e-14
-7.69812358002874e-15
-3.0131677517763795e-14
-3.492745114411476e-14
-2.7067673099642117e-14
-1.3651114702150202e-14
-9.021889917357192e-16
7.448861242566004e-15
1.0413135793911144e-14
9.044652416842783e-15
5.361392842821389e-15
1.362018322392088e-15
-1.5902679797705421e-15
-2.959423201568818e-15
-2.899932651836591e-15
-1.9550331633752443e-15
-7.445447169178932e-16
2.565311681324156e-16
8.129427515518143e-16
9.144947380607092e-16
6.965729273265264e-16
3.4446119930051394e-16
1.7239672069237814e-17
-1.921968883518718e-16
-2.6179869977034545e-16
-2.212180308554708e-16
-1.2357471411462277e-16
-2.0273309065555902e-17
5.439618991835544e-17
8.766532766466181e-17
8.436468989311095e-17
5.895415907246748e-17
2.7477489186551213e-17
1.9777617748031074e-18
-1.1788660537946246e-17
-1.3838245923775996e-17
-7.835021351011759e-18
1.391570798322964e-18
9.780627219482213e-18
1.502382173907859e-17
1.664154636704147e-17
1.5460847984292893e-17
1.2877650504455503e-17
1.0212543928341322e-17
8.326658112563527e-18
7.521882527391885e-18
7.652116762737808e-18
8.333357645663783e-18
9.150813624678872e-18
9.799554672536865e-18
1.0139249326377496e-17
1.0177472929496346e-17
1.0013025015009643e-17
9.771617999596764e-18
9.556792805548679e-18
9.425774904978556e-18
9.388639834401046e-18
9.422487729173889e-18
9.490694667715225e-18
9.559373252829271e-18
9.606934542357048e-18
9.626303283439247e-18
9.621793840748916e-18
9.60358190348169e-18
9.582378810268634e-18
9.56589475887116e-18
9.557536773590981e-18
9.5569266973629e-18
9.561409260996536e-18
9.567716358400832e-18
9.573211196169077e-18
9.576478655979119e-18
9.577317890510287e-18
9.576358998098108e-18
9.574561367987951e-18
9.572793582659187e-18
9.571595921581574e-18
9.571132461333585e-18
9.571278077091903e-18
9.571763672180666e-18
9.572312964516208e-18
9.572731277289379e-18
9.572936273680411e-18
9.57294237344745e-18
9.57282072154265e-18
9.57265617034848e-18
9.57251578634544e-18
9.572434469154319e-18
9.572415882589035e-18
9.57244278388667e-18
9.572490078612902e-18
9.572535529357398e-18
9.572565640648257e-18
9.572576656607564e-18
9.572572155154336e-18
9.572559238899514e-18
9.572545025889125e-18
9.572534424348296e-18
9.572529413753662e-18
9.572529503198063e-18
9.572532791743972e-18
9.57253707903349e-18
9.572540661381227e-18
9.572542680618071e-18
9.572543081164758e-18
9.57254233260277e-18
9.572541090375762e-18
9.572539923145631e-18
9.572539167340891e-18
9.572538907540043e-18
9.572539042592592e-18
9.572539385371394e-18
9.57253975269953e-18
9.572540021018753e-18
9.572540143022457e-18
9.572540134402806e-18
9.572540045820518e-18
9.572539934264972e-18
9.572539842959202e-18
9.572539792937706e-18
9.572539784636342e-18
9.572539805321502e-18
9.5725398378974e-18
9.57253986783904e-18
9.572539886777319e-18
9.572539892847909e-18
9.57253988888365e-18
9.572539879806107e-18
9.572539870323802e-18
9.57253986354221e-18
9.572539860584136e-18
9.572539860967753e-18
9.572539863346166e-18
9.572539866245114e-18
9.57253986856946e-18
9.572539869805442e-18
9.572539869967365e-18
9.572539869399196e-18
9.572539868546238e-18
9.57253986777906e-18
9.572539867305381e-18
9.572539867165117e-18
9.572539867279556e-18
9.572539867519468e-18
9.572539867763962e-18
9.572539867935117e-18
9.572539868006497e-18
9.572539867992485e-18
9.572539867928814e-18
9.572539867853575e-18
9.572539867794478e-18
9.572539867764022e-18
9.572539867761187e-18
9.572539867776712e-18
9.572539867799011e-18
9.572539867818646e-18
9.572539867830472e-18
9.572539867833667e-18
9.572539867830407e-18
9.572539867824079e-18
9.572539867817782e-18
9.572539867813468e-18
9.572539867811755e-18
9.572539867812222e-18
9.572539867813921e-18
9.572539867815872e-18
9.572539867817372e-18
9.572539867818121e-18
9.57253986781816e-18
9.572539867817737e-18
9.572539867817155e-18
9.572539867816653e-18
9.572539867816358e-18
9.572539867816288e-18
9.572539867816378e-18
9.572539867816545e-18
9.572539867816707e-18
9.572539867816816e-18
9.572539867816856e-18
9.572539867816842e-18
9.572539867816796e-18
9.572539867816747e-18
9.572539867816708e-18
9.57253986781669e-18
9.57253986781669e-18
9.5725398678167e-18
9.572539867816716e-18
9.57253986781673e-18
9.572539867816736e-18
9.572539867816737e-18
9.572539867816736e-18
9.572539867816731e-18
9.572539867816727e-18
9.572539867816724e-18
9.572539867816724e-18
9.572539867816724e-18
9.572539867816725e-18
9.572539867816727e-18
9.572539867816727e-18
9.572539867816728e-18
9.572539867816728e-18
9.572539867816727e-18
9.572539867816727e-18
9.572539867816727e-18
9.572539867816727e-18
9.572539867816727e-18
9.572539867816727e-18
9.572539867816727e-18
9.572539867816727e-18
9.572539867816727e-18
9.572539867816727e-18
9.572539867816727e-18
9.572539867816727e-18
9.572539867816727e-18
9.572539867816727e-18
9.572539867816727e-18
9.572539867816727e-18
