0
-4.137006996886552e-09
-3.813872583845243e-09
-1.4240871468860957e-09
3.054167228025453e-09
8.626136187618965e-09
1.3180676374389279e-08
1.3882679079633213e-08
8.150052242574743e-09
-4.926918193298348e-09
-2.3166544364296587e-08
-4.05765670630697e-08
-4.8095478019981886e-08
-3.627671123228433e-08
2.794143009836989e-10
5.791569457642609e-08
1.2046348148311176e-07
1.5994886122983513e-07
1.435265735573515e-07
4.683928207784691e-08
-1.2905202644241036e-07
-3.4343733335545163e-07
-5.130067100964771e-07
-5.281806813830801e-07
-2.918653551212024e-07
2.254508950485319e-07
9.319267135476394e-07
1.5891918469034073e-06
1.8447704927054014e-06
1.339557486969365e-06
-1.190559263703474e-07
-2.365621267988733e-06
-4.750341372171901e-06
-6.178171440943878e-06
-5.390041818424292e-06
-1.4881456603123201e-06
5.411917135058849e-06
1.364989699993811e-05
1.9942533790013913e-05
2.0059562363127835e-05
1.0358794309683021e-05
-1.007760634274002e-05
-3.7409497903130205e-05
-6.216957575727955e-05
-7.066285448889894e-05
-4.9261931301831864e-05
8.83795365990194e-06
9.630533688740122e-05
0.00018708051685253712
0.00023834781626750322
0.00020191026259625997
4.481848368639918e-05
-0.00022554106440105198
-0.0005416741809956578
-0.0007743531094623843
-0.0007604707696702121
-0.00036375934912886564
0.0004424740604296709
0.0014985883971647053
0.002429122553533135
0.0027025514853313715
0.0018026345777597732
-0.0005083128746446538
-0.003910605050121658
-0.0073611853056221605
-0.00918767167647228
-0.007546923112750431
-0.0012334978070792748
0.009357709973005505
0.02150017468391358
0.030131323015070665
0.029000090285540053
0.013070230844411574
-0.01827716284313562
-0.05836223511902089
-0.09226994585569614
-0.09949108993478747
-0.06100527487673357
0.0299311020065002
0.1561393454308018
0.268721191523407
0.28836516676562146
0.11929880584578181
-0.12478993526927448
-0.48922898735029063
-0.5523863507905085
-0.41735871490054444
0.07125532843942284
0.4876277544973489
0.774710686381041
0.6029207479990228
0.154437421103036
-0.46020269715846596
-0.7606068173045377
-0.6484975935875011
-0.1737432369715469
0.27265164713598083
0.5390528635856948
0.47962718378780295
0.3239400933296251
-0.1368525362354169
-0.3433176888806138
-0.3466712652036503
-0.1851889849863321
-0.06948868464286362
0.01731918589742906
0.10561309900053853
0.2179773030458436
0.5499410542061303
-0.13863080598278277
0.2832363328945432
-0.46164910524697483
-0.4315875576618797
-0.4435804053544086
0.3349166109282217
-0.02326534315978063
0.5728053505093924
0.20698139599505386
-0.06213115637769748
-0.20704013682332
-0.22612462353238016
-0.13306092409699033
0.05274638228876796
0.1113078118500051
0.22329591793111553
0.1704140946915316
-0.06234011065442012
-0.28241519368110374
-0.4867141375692611
-0.26466158183263905
0.1902395128336272
0.8640019759939825
1.3109142536999612
-0.5413729114430373
-0.9670157044358774
-0.8075574256853011
-0.6478101020508165
-0.4192693422758295
1.5665319284629915
1.3707853846887899
0.5933609913484115
-0.22520922812648306
-0.7616899976905418
-1.2470646144247364
-1.215481263107609
-0.49582146677455274
0.34143450149042337
1.2952167077088776
2.238661248587946
1.062257282589378
-0.11188669086645076
-1.041467725215801
-2.032648880285601
-2.4203714513581307
-0.31350874060380357
0.9684533464022136
1.9812188860562865
2.0133600343503124
0.9771950845030772
-0.6231606541208962
-1.4394222224820443
-1.3723676248073942
-0.6601333335384039
-0.20603313164689865
0.43283932915080975
0.802636440671055
0.4816854374853093
0.41392678232610375
2.073049135565453
-2.131525579111278
-0.8145152080831184
-0.16454072050097593
-0.713331774535682
-1.9446416736549967
2.856293773925759
1.533015863523168
0.4021445109900013
-0.15601847179131925
-0.24876550039556353
-0.7799380415993713
-1.1515659873676731
-1.396806219770167
-0.17198285813587613
0.5859012110974791
1.3557862413556474
1.5236741975650947
1.5141372180416661
0.1940502914404709
-1.6492077199785764
-2.1865127932191575
-1.4364472181468513
-0.6175349983437073
0.6114343456897546
2.2370615049044162
1.349876013803984
0.8337643271208302
0.9294455219402273
-2.3176328451536143
-1.549778539956672
-0.376488164715543
-0.28635408532383294
-0.21539815561326528
2.4331114010080745
0.743623626917632
-0.15068475901386616
-0.4818862972964437
-1.439389004439262
-0.9612914761838649
-0.14890996351278799
0.8852751996153858
0.9475658967146393
1.4991319666793546
0.2289968242897669
-0.5191141646288374
-1.07242211620702
-0.9346446871878261
-0.9070469275284262
0.34763246913422186
0.8907383988325398
0.6562126473417148
0.38792594728597335
-0.009503598629528962
-0.6935037624380217
-0.28108699505415274
0.5691489307888304
-0.2197209416063207
0.07945753491096966
0.21689512586128903
-0.42070042125158164
-0.8054991789232111
0.32392110569074467
0.4426964499840068
0.41326198954815585
0.2631022223730755
-0.023383856593363398
-0.2955928591211092
-0.415043315970059
-0.23165153011516412
0.03189131970962819
0.18248002099639607
0.24725577730570916
0.05893869048102307
0.04308580074668232
0.01200512604820212
-0.0337601354277313
-0.09862896823715553
-0.18378844891371485
-0.08164199626985365
0.02444063441216251
0.1549317998567828
0.12607079418818506
0.14297461162794758
-0.0025569695976400374
-0.12842782742412737
-0.25469087700406756
0.004123949526323053
0.04317741480949538
0.06656164610004929
0.08289499991874466
0.10009306364240206
-0.07809371938347513
-0.05265043332332788
-0.027526162281974496
-0.007037994929927547
0.006123170947453387
0.011629492287366209
0.011122395145643206
0.007220822039625917
0.002490604777095857
-0.0012561010981783202
-0.003208136038783297
-0.0034213959541063506
-0.0024749072230944337
-0.0010953967681716192
0.00012406070144397035
0.0008595992829556314
0.0010582264374458584
0.0008544759446731822
0.00045931134139333364
6.610029584653092e-05
-0.0002033193277067189
-0.0003104145961289051
-0.0002814046800345045
-0.00017531596238307124
-5.3531936032773467e-05
4.021204461178706e-05
8.698502901731857e-05
8.945427492338347e-05
6.312173042810531e-05
2.6776756019758613e-05
-4.569998290434309e-06
-2.29793793397593e-05
-2.7462188780276458e-05
-2.173515293814302e-05
-1.1333653499907022e-05
-1.2177748665808307e-06
5.5630252736495926e-06
8.11904848338331e-06
7.20455869872258e-06
4.378860184639617e-06
1.2245408493158357e-06
-1.154353841054105e-06
-2.3006009104583534e-06
-2.3086630486635582e-06
-1.5926689341652235e-06
-6.402279871967065e-07
1.6594874947712976e-07
6.280475125294826e-07
7.262656877545631e-07
5.595123040093301e-07
2.7181240139911946e-07
-7.254497504404517e-09
-1.9498551802501285e-07
-2.61585905901907e-07
-2.1894260582435822e-07
-1.0335874087085099e-07
3.936560597467764e-08
1.632607984340253e-07
2.274445725664548e-07
2.0126345195136738e-07
7.256015109566892e-08
-1.41112366660844e-07
-3.8309475076967237e-07
-5.582980383632188e-07
-5.522600769319568e-07
-2.7192285006452155e-07
2.983982467363316e-07
1.0446570212406247e-06
1.7028887191012815e-06
1.9006582706598576e-06
1.2761933215577915e-06
-3.38028721754321e-07
-2.720231847539924e-06
-5.142453359080226e-06
-6.435033839555727e-06
-5.306209373192764e-06
-9.075207920260659e-07
6.4908755882694445e-06
1.4984039435153811e-05
2.1022036831990196e-05
2.0204467697582853e-05
8.955318722062807e-06
-1.3236266230051295e-05
-4.17851208145402e-05
-6.631180504679615e-05
-7.239460891336042e-05
-4.633064600032211e-05
1.7693678424260602e-05
0.00011015798507127701
0.0002019985866032832
0.00024758663347123044
0.00019759768381478508
2.1171581419218158e-05
-0.0002681652206443054
-0.0005934039418397721
-0.0008151518501433125
-0.0007640919740772508
-0.0003069843342821065
0.0005668990221609197
0.0016697289352504074
0.002593112887325137
0.002782545612292785
0.001727866918441339
-0.0007565986198151738
-0.004248369327044114
-0.007568545397261431
-0.008924363965120162
-0.006450328819790681
0.0008674306859208894
0.012077011028368861
0.02332276094508603
0.027523623773031258
0.014990003530886805
-0.025047212594952368
-0.10251014829634102
-0.025020449972239834
0.0023510063268317657
0.17617007483603161
0.09356226259671412
-0.04774276969850064
-0.24790004716500366
-0.10320827525727268
-0.0060877969166736705
0.25248417751127167
0.27978322923926285
0.08064371775630108
-0.1386109788583212
-0.3630719329458505
-0.36414743848359377
-0.10253585668636399
0.257943891660626
0.3290007961720824
0.27784991919123664
0.21894433742587321
0.22449924687714487
-0.04595689557055721
-0.5044198688994747
-0.7950780734892944
-0.4721317732763113
-0.005579377888641247
0.5849921990915077
1.0814965669098315
1.0244105910656804
-0.3053008306752769
-1.0737126553226402
-1.0629869041817324
-0.6454128531087823
0.4170284795804909
0.14300163523838066
1.2868415971877312
2.504981445586069
-1.8415676549344342
-0.8404749984470834
0.04806847795931565
-0.933681430148619
-1.7971035529109136
2.390310405765404
0.4602320674232567
-0.12334914487650686
-0.12804095260878326
-0.19658076392124027
0.13549030980990845
1.046256665663243
0.25424869105534403
-1.1404753043276807
-1.0133188544174676
-0.7884529494690878
-0.444133734416534
1.2487485863011731
2.473956376192119
1.3357047514485907
-0.9288774102220277
-2.08703021458626
-1.4253493478146029
-0.6878429663269473
0.12671325498784594
0.9013156154976631
1.0961807515574913
1.2467697678145275
2.30727689257356
-2.7360947791859545
-0.3870616208919207
-0.5291092779999705
-0.9284210108734665
-2.1871106639792757
2.4377935546303435
0.5601048219155236
0.7670797788256835
0.5392796206589797
0.41877002727007046
-0.16410150231736043
-0.41686285579274074
-1.29141359644681
-0.8052105424792565
-0.6074192128770962
0.19473502308096602
0.5558513429821347
1.5852543189504942
0.6505578305734863
0.526114117744071
-0.39630916866759713
-0.8407638571385286
-0.9504724103578992
-0.3960157002536671
-0.3176109376166064
0.4849062075432556
0.5189832707512032
0.14102259065793984
0.2950612988731921
0.06671512421661768
-0.1376849684584209
0.2148327250652202
0.012196397968505353
0.14007987665953583
-0.4708671015248451
-0.20491153646573804
-0.5401073328070505
-0.055387221699437626
-0.4688220121386597
0.4988925882341666
0.45074476204615954
1.2508591550448829
0.3947137034987987
-0.17443788229812243
-0.8049351797980432
-0.6504025251236609
-0.38572559851329674
-0.5510519231346864
0.46234334453334325
0.5858671789571314
0.22105330719193036
-0.4202615951926311
0.6334620761024525
0.08193710453239211
-0.055928275849706034
-0.029918908978634865
-0.13109770396759488
-0.2581671539707988
-0.287627871030022
-0.05586495419766885
0.042936132622880485
0.24457108445295742
0.19458442664484607
0.1284720420296071
0.05954256189465701
-0.022108490411007698
-0.14057084519238092
-0.11963693882003533
-0.16901775613893624
-0.0767312052100536
-0.010622220757580125
0.07149055544409753
0.20682618381685747
0.21359034424755052
0.08355220838272395
-0.015421182631145423
-0.12745044341689707
-0.2918160761164732
-0.12782927535330296
-0.027385586440258545
0.041997950386920876
0.12515701071850374
0.2632376108105186
0.07988117338870879
-0.02540567836704213
-0.07493579284399263
-0.10346252713745514
-0.1460602275011735
-0.027937431066276264
0.04066778794481395
0.06382307818221417
0.055028880534407784
0.030831605611697312
0.005411390996299403
-0.012443692883330516
-0.019801651827976777
-0.01819573556761123
-0.01143218777644148
-0.003536454590936676
0.00259426602699119
0.005682849680503625
0.005874923708516856
0.004169501747446783
0.001792693862769414
-0.0002690502287987271
-0.0014892049455330367
-0.0017968435522604839
-0.0014316115026129647
-0.0007549385043305322
-9.24757549768607e-05
0.00035450906677924894
0.0005263756197857754
0.0004717058361168873
0.0002921663472813164
9.078307449698383e-05
-6.140128109700036e-05
-0.00013639741018748463
-0.00014243629119111738
-0.00010757517090945484
-6.217408408332191e-05
-2.6295765034842528e-05
-4.81595121844275e-06
9.946945187808103e-06
3.0387461580571642e-05
6.401327774850566e-05
0.0001058632583157814
0.00013627406343699
0.000126078587067618
4.9183045801976584e-05
-0.00010043425797886243
-0.0002933469147135871
-0.00045909575514104325
-0.0004982189470143923
-0.0003156042369613755
0.0001292897938879612
0.0007704537323975732
0.0014061445025852824
0.0017199764310368917
0.0013709295112157647
0.00014782367129194938
-0.0018505042047222788
-0.004083296222389782
-0.005577618138250162
-0.005158166729681732
-0.0019139728507395245
0.004185582014637933
0.011732968042493847
0.01767503951824423
0.01773452727507889
0.007578364462331377
-0.015458203727998505
-0.050658186728095286
-0.09304550613301463
0.06593592904304665
0.0360734341862997
0.025134582049097482
0.03607350891422591
0.06593607469267407
-0.09304530640653945
-0.05065797522741918
-0.015458053885270075
0.007578359016665259
0.017734285065425768
0.017674540251417483
0.011732301831761716
0.004184972804043754
-0.0019141973646663918
-0.005157675302516762
-0.005576237398358523
-0.00408118873498378
-0.001848284501615331
0.0001491287067534845
0.0013701469098877817
0.0017162803696602863
0.0013996650217223516
0.0007627678067674443
0.00012348431603083387
-0.00031557715169795735
-0.0004889873865629475
-0.00043986657011509025
-0.0002677934873871839
-7.747879951631237e-05
5.671988025109029e-05
0.00010553315443633813
8.14717552413377e-05
2.3927922614381557e-05
-2.0424696542810538e-05
-1.6393226640981892e-05
4.5735147540891154e-05
0.0001438288805958201
0.00022745446641571864
0.0002326312000996104
0.00010682127618639576
-0.00016079396623459164
-0.0005135858134647943
-0.0008198526012785348
-0.0008965072966219781
-0.0005703004140106451
0.00023151283837444657
0.0013880963387038882
0.0025334828776253336
0.0030957219450085138
0.002459997716282647
0.0002474171764030427
-0.0033605664102796776
-0.007385377504816805
-0.01007006180853713
-0.009293915287893062
-0.0034117473552928903
0.00764220411411451
0.02136204195110373
0.032317775344305404
0.032944222570675405
0.015677617820761776
-0.023922298752878088
-0.08412808517868246
-0.155657354693863
-0.0234050024816651
0.1283261647248018
0.10854738936776065
0.11330635611384901
0.1236604382912366
-0.09043474422147467
-0.16135549197213753
-0.11370833157411574
-0.15748867430397626
-0.08799839004983767
0.10686813880348155
0.23491505067812293
0.2892260111114159
0.24529752693785523
-0.13051716926568094
-0.26250780308293675
-0.14369211871539558
-0.32018196145062783
-0.29066999878729904
-0.12543813163203113
0.0973122741198936
0.24713531856528612
0.9040557368600032
1.3451592063920552
-0.632855797489478
-0.4554217170900623
-0.6927744837649318
-1.1922920598113569
-1.4495500781603932
1.1658712486863738
1.1357757953440677
1.2978544573121895
0.5676397510067991
-0.09188066059579456
-1.045240133525179
-1.1204123194588682
-0.5354659810708582
1.9567719730780122
-1.5070051271264875
0.29457394093768136
0.4429216156086283
0.04505690935081899
-1.4014934716751142
2.3643238054175892
0.5566129867585217
-0.6452438562821003
-0.862867854728355
-0.8769876049328398
-0.3987836507384285
0.3284205148282147
1.0949204995746589
0.47115700509295505
-0.6450226305921645
-0.6650214249372043
-0.12452006357201559
1.1231071498822462
1.9369180333837117
-0.6533814633676233
-0.5630648852548295
-1.1602927958300058
-2.000312843333355
-2.0212660098476376
1.7815078206087005
2.018911333086184
2.3589228241534235
2.4285721088848686
-2.186830715585641
-1.6443699968193664
-1.2872498424856869
-1.0984389319486627
-1.6222051480219482
2.421046108097526
1.0394974717715992
0.23497604093180843
-0.3234126485526833
0.2189555837380942
0.8812745257364373
1.487854277467775
-1.6396572873978548
-1.1595368672832498
-0.5897362642927122
-0.6265599622341009
-0.7272130194768316
1.8410246138525432
0.7045220189673211
-0.12755605069316558
-0.35715230654921054
0.14509652468962475
0.12421791647174271
0.9651762653945081
0.7523390230038979
-0.44476092110897253
-2.67762833925088
-0.8455475824341186
-0.0719681772373725
0.8570294854314866
1.8075946384957968
1.2039320371499782
0.16543620220485097
-0.7026570152264937
-1.6711944734337894
-1.6303899772504764
0.9520057425578037
1.0392141232853984
1.0064784631373722
0.21718445005245232
-0.3847622741058956
-0.660648307895368
-1.0519514837495119
-0.5629822698754944
1.0363454845297315
1.9896633458032753
-0.8695512634316398
0.0723011008595934
-0.381555300216652
-1.0194129066140527
-1.4099196319727072
1.6892634198743437
1.5047270718237784
-0.381387363279332
0.15814377588513737
-0.1866487966296467
-0.5235682130723293
-1.1151077467918857
0.4493400956336277
-0.1459789728514122
0.23000650720957705
0.5119029503978145
0.19447379610190144
0.5044947713719141
-0.0029501209143741915
-0.423428185132396
-0.26607789638392304
-0.6150904082353338
-0.3045314965046439
0.2846659118962657
0.6064325185995969
0.12003412841651065
0.4633084293857998
-0.16028543644280488
-0.37754748646744596
-0.2292261011006309
-0.15093766427643118
0.03994551547688063
0.14735474059737505
0.19089047449373225
-0.0038050937058835867
-0.013755949652952685
-0.023585741776600118
-0.02636643108794982
-0.0216933958964342
-0.012688650740363048
-0.00325593462298095
0.0037076656528342716
0.007002173513954644
0.006955917178509747
0.0047996299217144996
0.001967083429611813
-0.00042115676391235146
-0.0017911372869466996
-0.0020943086013902445
-0.0016305911053311336
-0.000827635386812157
-6.109632347201865e-05
0.0004430726158774662
0.0006239034334764036
0.0005437281207425555
0.0003234070959545174
8.312339447061878e-05
-9.485377834495618e-05
-0.00017790105653308947
-0.00017498081225241377
-0.00011857294506900433
-4.590900057534432e-05
1.4383247345143161e-05
4.804721955204887e-05
5.4365347387463744e-05
4.141060690239657e-05
2.0300802335390975e-05
6.135381102643915e-07
-1.203465151207231e-05
-1.628492787653535e-05
-1.3896180809767315e-05
-8.051541831821941e-06
-1.8427350237031018e-06
2.6604299260112464e-06
4.680166992707093e-06
4.498736940885625e-06
2.9811172760350618e-06
1.0912712262601774e-06
-4.4479396769305887e-07
-1.2780226533963445e-06
-1.4067159307280248e-06
-1.0494915065866124e-06
-4.962002718807985e-07
8.617125271717693e-09
3.253436396782671e-07
4.242887351444917e-07
3.5457715931899844e-07
1.9988771223962267e-07
3.96722162982366e-08
-7.406653676373322e-08
-1.2291224370472367e-07
-1.1544924589285889e-07
-7.467883339215236e-08
-2.5561442451951543e-08
1.3481470885604071e-08
3.391521243215036e-08
3.614004669879298e-08
2.61143303937283e-08
1.1488401482005489e-08
-1.3797122502429817e-09
-8.937286868999067e-09
-1.0560760812694793e-08
-7.763157960340025e-09
-3.0496886895469815e-09
1.1341001762034863e-09
3.124468467722444e-09
2.3806051630271924e-09
-5.013623893879068e-10
-4.0266503960403845e-09
-6.243062974299903e-09
-5.353922709982909e-09
-4.4015528031125413e-10
7.859464826121992e-09
1.6971017996186875e-08
2.2632416142703023e-08
2.0014114754078393e-08
5.705657386183424e-09
-1.9864764874630836e-08
-5.048474950545538e-08
-7.390266627999372e-08
-7.436870452067488e-08
-3.8351768792031025e-08
3.752884703163847e-08
1.3896901859368324e-07
2.307794848920814e-07
2.621107370968511e-07
1.8242036599917525e-07
-3.34471917654858e-08
-3.581355089251678e-07
-6.947837048864421e-07
-8.844212181538676e-07
-7.482609288876948e-07
-1.6430487795643135e-07
8.39572905299284e-07
2.0123747138410496e-06
2.8741685782399904e-06
2.8197272409509046e-06
1.3440696542310691e-06
-1.6504896704609444e-06
-5.569793073584341e-06
-9.01908476589243e-06
-1.0025680334734378e-05
-6.675694153745143e-06
1.908634261142159e-06
1.4534965257364891e-05
2.7326916854857588e-05
3.4076517629435765e-05
2.7950285171290318e-05
4.493829234457002e-06
-3.479204139731862e-05
-7.973436450084816e-05
-0.00011146787407343152
-0.00010668690943327573
-4.655363199499969e-05
7.142486080696846e-05
0.00022268044808354298
0.00035198375634459735
0.00038286411181095157
0.00024296445871964292
-9.791503065425729e-05
-0.0005884678213559854
-0.0010738585703846221
-0.0013119320505015166
-0.0010418439173772603
-0.00010169310149798354
0.0014344209549835916
0.003156269379639967
0.004325208887254242
0.004048733464749168
0.0016329228890767436
-0.002957451237006689
-0.00869555368945933
-0.013378695663777364
-0.014031840027610975
-0.007938573256094365
0.005825274434977053
0.02478152818545281
0.042042436276588574
0.04663354936435919
0.025573554969885236
-0.032550935631135015
-0.1336906714017678
-0.07600550473702841
-0.0509340405329173
-0.0483435293828257
0.13554322822489692
0.2907718248994102
0.1911768597724059
0.00017670834595282317
-0.11502673776289701
-0.3651266105702416
-0.3238514659571785
-0.12421520273777859
0.13027782571766788
0.34188836258720684
0.39052933953939734
0.11167528309329405
-0.11191416934299638
-0.14292106791463427
-0.27118635939776786
-0.19237961625933603
0.009026148524546137
0.2688376603634824
0.1452495137788475
0.01795362951902074
0.08818122252932982
-0.018993819446690572
-0.2520824376859686
-0.334673085920434
-0.17562574173983847
-0.09018839501725143
0.1707318870233324
0.39186838763207843
1.4783903044919613
-0.3334354723778043
-0.03476139442200235
-0.3800086226612323
-1.221296570308116
-1.868597598430204
0.7029683581286916
0.794670881818362
1.4936204362201249
1.1860731382148026
-0.0898466954378421
-0.6348297731321559
-1.0314265933216156
-1.068353484225879
-0.07942626388228405
0.6808345014051409
0.22222032257808613
0.17832418346358545
-0.03897619206076239
0.32776407705846183
0.5727395070729906
0.5463186781391465
-0.30006672253851047
-0.8553303820637573
-1.2972748853565188
-0.672530926074713
-0.12451079658537334
0.8324044600794019
1.4159938989874827
1.6946224713023776
0.3576610771301192
-0.44408443662153924
-1.3991795479662685
-1.5154860382079098
-1.2281103300568272
-0.1740643716022445
0.7547174642369259
1.7004401097096298
1.1142658521565096
0.4650104342263189
0.014269728217310408
-0.5368095556442606
-0.9503528573102261
-0.7410458958605232
-0.6899156246701426
-0.20909864609141324
0.23498997319611728
0.6527370804059788
0.8441860843823566
1.1265133627339803
0.7029553551584377
-0.7161911160904267
-1.4516679514818949
-1.3825580801463322
-0.6989659657035735
0.0958382711401203
1.9353752150762908
1.7197427671565393
1.0650925321250233
-0.6973921125579908
-2.071432911778155
-1.9234963939707428
-0.43146793681054324
0.9150617138441499
1.6630950838971732
1.7235511210531478
0.31904798229912307
-0.8203189493778706
-1.6149100434615504
-1.3755541520754444
-0.5626540907348535
0.6122564048259908
1.7465665854606356
2.5975597821036667
-0.5383862630204208
-1.1964778057226992
-1.0729675565809975
-1.149327774733301
-1.6536595887357792
1.114405444325278
1.498237128472694
0.7689729958567877
0.424902945625347
0.7432698148337078
-0.7989365684004324
-0.0425556741043939
0.17290474871247238
-0.4678544187886745
-2.4625383353704624
0.14510665218217064
-0.07042686858740246
0.18111258170380293
0.9649637679621668
2.7866428367282445
0.7087864904562097
-0.6510738303612496
-1.442697798122107
-1.6587221928529359
-1.4147922005181837
0.5218203877098794
1.9385911550096586
0.7342717273977806
0.2590194886429032
-0.5320679431486961
-0.9013168491249545
-1.1350319890463214
0.8508790395939174
1.2988228718328658
0.19687870787255876
-0.12147763975889009
-0.3577859726644572
-0.6144710021302212
-0.7611617697248141
0.3833452942355161
0.44664688770436267
0.2803649179647149
0.13211698787101558
0.024345064717804035
-0.0531534552753144
-0.13712771023666934
-0.07612174883742573
-0.11364367176033753
-0.07498972415795661
0.038848395650372736
0.049531546916680505
-0.006302349444879372
0.11238394255241593
0.04090064339617816
0.001804043406496505
0.0023545939763124878
0.036412931952596005
-0.1104860365352627
-0.054858296391815234
-0.009871887489999075
0.017672302816770062
0.027563854681270095
0.024287189724873304
0.01425452726146197
0.0033352289693332517
-0.004631984800357326
-0.008210393929928169
-0.007889731514908295
-0.005206212656873498
-0.0018707207763213327
0.0008318511149096377
0.0022874697410941148
0.002497848460528407
0.001853365241068477
0.0008682240103588804
-2.5628168338843156e-05
-0.0005831519517219915
-0.0007540796599866113
-0.0006271112196178738
-0.00035124459182771294
-6.718154634046768e-05
0.00013349492307243848
0.00021883753842409794
0.00020459466878670527
0.00013178312154129424
4.461829768897235e-05
-2.4447727265223445e-05
-6.052517755538277e-05
-6.447951727526715e-05
-4.6875221478182285e-05
-2.1119399363761678e-05
1.762888644275069e-06
1.569169767828021e-05
1.9611933087070092e-05
1.597692384421511e-05
8.694904366406227e-06
1.3759972719118197e-06
-3.6840298009998084e-06
-5.7369313856100356e-06
-5.2469613776958205e-06
-3.3008029986426175e-06
-1.0401193058348414e-06
7.146382417211903e-07
1.602098786679444e-06
1.664054171468572e-06
1.1843611606552867e-06
5.115266468258114e-07
-7.370912124166692e-08
-4.210264086227481e-07
-5.095011044399031e-07
-4.066073970738836e-07
-2.147123447522436e-07
-2.6340432998485418e-08
1.0106311146408788e-07
1.501619484184374e-07
1.344040966526375e-07
8.252259978768842e-08
2.396223787742057e-08
-2.0563494975454546e-08
-4.232472080308433e-08
-4.2896257808605724e-08
-2.9882036960503904e-08
-1.2329744236311973e-08
2.6207125426202454e-09
1.1262955153153081e-08
1.3218875492507927e-08
1.033419479066786e-08
5.286194687944392e-09
4.434730373045225e-10
-2.75927742132866e-09
-3.925655571778401e-09
-3.4398356694560046e-09
-2.060097065996828e-09
-5.449792027397349e-10
5.833457980688148e-10
1.1150912313890211e-09
1.1035457767214736e-09
7.51839553589939e-10
2.9457215689381247e-10
-8.689905872976626e-11
-3.014573579465976e-10
-3.434978690092455e-10
-2.6327083866692465e-10
-1.3069941169619119e-10
-6.350658129598643e-12
7.401558816673925e-11
1.0148866001542302e-10
8.692733922107565e-11
5.031529148227255e-11
1.1178933052964157e-11
-1.7335643508867157e-11
-3.022402860404532e-11
-2.920154497066901e-11
-1.9708078181570637e-11
-7.847653970667572e-12
1.7630421956707505e-12
6.9026842374123195e-12
7.582254808639789e-12
5.248723604922047e-12
1.8247704994369283e-12
-1.0698282583259722e-12
-2.5500854846552595e-12
-2.544427473254584e-12
-1.6095519762230125e-12
-6.020254200308165e-13
-3.153114993908274e-13
-1.1652879266978377e-12
-2.988325834210464e-12
-5.0074533218127616e-12
-6.0117619210950965e-12
-4.762341542934004e-12
-5.707282212442893e-13
6.101884773798415e-12
1.327329174435603e-11
1.75872953415838e-11
1.5196756422272357e-11
3.3761298298816476e-12
-1.7499084399332432e-11
-4.2357924899541765e-11
-6.122534799265064e-11
-6.130206710737024e-11
-3.16355794228277e-11
3.04135027034702e-11
1.1305137548763314e-10
1.8749148548260544e-10
2.1228179431855967e-10
1.463831262329109e-10
-3.036683327620624e-11
-2.952011862158138e-10
-5.687281022466835e-10
-7.211910572619915e-10
-6.07182666104799e-10
-1.2821989135701846e-10
6.914857511542624e-10
1.6457448867478224e-09
2.3423790759966737e-09
2.2885400337222416e-09
1.0751625233937588e-09
-1.3728105510789766e-09
-4.5655700988939425e-09
-7.3619621115607535e-09
-8.153808750034643e-09
-5.387373010294808e-09
1.6393318551962453e-09
1.1936208097892948e-08
2.2326873686348787e-08
2.774505490271282e-08
2.2634387894870798e-08
3.4022338885945952e-09
-2.8669995188390907e-08
-6.522929008386608e-08
-9.086298717783392e-08
-8.659677154098196e-08
-3.717827692246052e-08
5.924593212117379e-08
1.8243979827640654e-07
2.8722904796623435e-07
3.1128899393719476e-07
1.9590466042802715e-07
-8.299820404456316e-08
-4.828823409275825e-07
-8.768987431848908e-07
-1.067463036540261e-06
-8.425717085405619e-07
-7.191204020762706e-08
1.1815015104543574e-06
2.5801689105186027e-06
3.5191108644987816e-06
3.268760527611368e-06
1.2621930440471022e-06
-2.5310809610733065e-06
-7.2787258652818794e-06
-1.119496101590162e-05
-1.186721730354041e-05
-7.081288192579122e-06
3.972332878153036e-06
1.948418176927944e-05
3.4397429979447897e-05
4.1015113340828184e-05
3.1260923028973074e-05
4.391777163852109e-07
-4.8488837022266846e-05
-0.00010191990896660332
-0.00013613592675187024
-0.00012312164697713977
-4.1877034827464764e-05
0.00010716148386427921
0.00028989333523906453
0.00043581881392691657
0.00045165439767401666
0.00025407864241573837
-0.00018342496027900677
-0.0007845300314450954
-0.0013479874320241746
-0.001574285299694016
-0.0011561889466999203
7.440375268573397e-05
0.001983017587363067
0.004023552252520985
0.005269046471737579
0.004648373957791745
0.0013918733738948008
-0.00441244065348834
-0.011362456285473058
-0.01666972662385783
-0.01673395870562095
-0.008465282724554973
0.008845514173432153
0.031679121762213436
0.05132801649229207
0.05472106949489569
0.027530015711972482
-0.0408032095467796
-0.15158329848326632
-0.09322579647276447
-0.041694210435630485
0.03409850227868161
0.16321742635746303
0.1632174263574631
0.034098502278681886
-0.04169421043563007
-0.09322579647276388
-0.1515832984832657
-0.04080320954677914
0.02753001571197272
0.05472106949489572
0.05132801649229196
0.031679121762213276
0.008845514173431986
-0.008465282724555125
-0.01673395870562106
-0.016669726623857874
-0.011362456285473062
-0.0044124406534883295
0.00139187337389482
0.004648373957791764
0.0052690464717375885
0.004023552252520985
0.001983017587363061
7.440375268572443e-05
-0.0011561889466999299
-0.0015742852996940221
-0.001347987432024177
-0.0007845300314450958
-0.0001834249602790059
0.0002540786424157398
0.00045165439767401775
0.000435818813926917
0.00028989333523906453
0.00010716148386427953
-4.1877034827463984e-05
-0.0001231216469771386
-0.00013613592675186897
-0.00010191990896660232
-4.848883702226628e-05
4.391777163853498e-07
3.126092302897295e-05
4.1015113340828015e-05
3.4397429979447795e-05
1.9484181769279436e-05
3.972332878153077e-06
-7.0812881925791255e-06
-1.1867217303540537e-05
-1.1194961015901887e-05
-7.278725865282213e-06
-2.5310809610735607e-06
1.2621930440471195e-06
3.2687605276118195e-06
3.519110864499698e-06
2.5801689105197966e-06
1.1815015104553925e-06
-7.191204020735994e-08
-8.425717085416488e-07
-1.0674630365429599e-06
-8.768987431888119e-07
-4.82882340931502e-07
-8.299820404654331e-08
1.959046604300932e-07
3.112889939446417e-07
2.8722904797851707e-07
1.8243979829027863e-07
5.924593213071999e-08
-3.7178276924457224e-08
-8.659677156023853e-08
-9.086298721487895e-08
-6.522929013076783e-08
-2.866999522775607e-08
3.4022338805408397e-09
2.2634387940271946e-08
2.774505501022145e-08
2.2326873839031855e-08
1.1936208246725994e-08
1.6393319245968307e-09
-5.387373100633726e-09
-8.153809048310203e-09
-7.361962591470154e-09
-4.565570629354872e-09
-1.3728109000121424e-09
1.0751626333134305e-09
2.288540814656738e-09
2.3423805325648687e-09
1.6457466932847532e-09
6.914872204978618e-10
-1.2821967904388085e-10
-6.071845450734065e-10
-7.211953153666631e-10
-5.687340219391161e-10
-2.952068145992935e-10
-3.036922749466703e-11
1.4638702330416327e-10
2.1229371379039425e-10
1.8751020966913658e-10
1.1307162643127737e-10
3.0426186542371084e-11
-3.164110570085164e-11
-6.133364976673973e-11
-6.128254644693449e-11
-4.2427418895501335e-11
-1.7553762725885894e-11
3.3718131355519094e-12
1.5274160159150038e-11
1.7755706589898976e-11
1.3502537911264116e-11
6.314299587033953e-12
-4.895961437157175e-13
-4.928676156112837e-12
-6.487227793378421e-12
-5.737161455102825e-12
-3.760232673256241e-12
-1.6234769630059746e-12
-5.188717800206511e-14
6.72038647953737e-13
6.338761709015975e-13
1.2541088915633838e-13
-5.220808509428759e-13
-1.0556356781890027e-12
-1.350722273543386e-12
-1.4029052832719417e-12
-1.2851217855418126e-12
-1.0965217668764285e-12
-9.21923657344096e-13
-8.10629217615633e-13
-7.740938944683233e-13
-7.962542048723451e-13
-8.486433727820475e-13
-9.038232402484231e-13
-9.435624094321439e-13
-9.611399690042797e-13
-9.592138895845692e-13
-9.455477015847054e-13
-9.287145554746123e-13
-9.151265539932263e-13
-9.078289648886383e-13
-9.067871370828498e-13
-9.10028440462597e-13
-9.149691264984926e-13
-9.194444466528802e-13
-9.222297934336281e-13
-9.230772867335186e-13
-9.224343550560353e-13
-9.21048856080596e-13
-9.196255396891002e-13
-9.186221209005963e-13
-9.181972790416617e-13
-9.182710017172985e-13
-9.186371969147226e-13
-9.190742618724457e-13
-9.194198809378801e-13
-9.19599865849317e-13
-9.19618923745622e-13
-9.195302141410413e-13
-9.1940097776271e-13
-9.192863977034358e-13
-9.192168202351228e-13
-9.191974136721639e-13
-9.192158036465894e-13
-9.192523744960137e-13
-9.1928904537074e-13
-9.193143446239995e-13
-9.193245596590047e-13
-9.193220450139166e-13
-9.193122599355345e-13
-9.193009258103303e-13
-9.19292145818125e-13
-9.19287719760126e-13
-9.192874287735827e-13
-9.192898449503472e-13
-9.192932206243398e-13
-9.192961507688187e-13
-9.19297885282276e-13
-9.192983223690488e-13
-9.19297802200418e-13
-9.19296838543574e-13
-9.192958948177128e-13
-9.192952580819694e-13
-9.192950142729026e-13
-9.192950952245748e-13
-9.192953564538773e-13
