0
5.914026936427594e-07
-0.09139220899300655
-0.17902776764008943
-0.05638866870232338
0.08623383469977562
0.05904021368873322
0.06827984878864911
0.11258943797251202
-0.017764321144017083
-0.1381738254381464
-0.06474912786608786
-0.009451465991115161
0.02265068661284566
0.03327102511120489
0.028624850949069823
0.0163768145681843
0.0031016603367324492
-0.007047553396463087
-0.012426592464969324
-0.013166479382331515
-0.010212316767676097
-0.004633889281425339
0.0025510153789429944
0.010103909908771445
0.016149011454941447
0.018017982402364782
0.012676084274462993
-0.00221464187635827
-0.026916583232306224
-0.05859556388918693
-0.09145396686355223
0.08150921740276987
0.06546123656200117
0.060741454638310474
0.06166536983983762
0.05830552947947366
-0.15900313799601665
-0.194304031727162
-0.042585781921158625
0.10953330930471757
0.07888774506263145
0.07885043474201733
0.11373880257712991
-0.022903477908825055
-0.14558371601209247
-0.07123743796296465
-0.01342343558991238
0.021259044175519985
0.03358569077007943
0.029581850503935782
0.017314952878251536
0.004013184179501409
-0.005654144771603584
-0.009968699908081366
-0.009551073089767553
-0.006277364111595986
-0.0022200669728326865
0.0010731738045505412
0.0028658467838212024
0.0031566799051212357
0.0024008657537178757
0.0011935061659285406
3.221437947062262e-05
-0.0007925288046029958
-0.0011911656776619369
-0.0012014979377488846
-0.0009051534728769993
-0.0003777403978307952
0.0003103512987136789
0.0010546000174134222
0.0016725807469865671
0.0018977928811331772
0.0014428872935142087
0.00013601602364033923
-0.0019059859100180167
-0.004143468808116909
-0.005616345667557823
-0.005165579754189624
-0.0018935619371922025
0.004222962670316615
0.011775176600376252
0.017712876287327217
0.01776348237761987
0.007598263419339159
-0.015444753814259696
-0.0506476045382574
-0.0930346286738616
0.06594914201659864
0.036089814450411616
0.025154023061940763
0.036095304229637956
0.06595914084629675
-0.0930223458080865
-0.05063672745135389
-0.015440142240574252
0.007591782714671049
0.017743261828574598
0.017681009403532327
0.011740367066568207
0.004200273427776054
-0.0018862687399620714
-0.005114721036795169
-0.0055217722366735856
-0.004026369233116151
-0.0018108874291609181
0.0001495892040455088
0.0013210071295310228
0.0016219391718964565
0.0012893260808649728
0.000690456575970288
0.00015584165290064133
-0.00012480759424847738
-0.00013292956969412865
1.0892206940698518e-05
0.00011943269448922803
2.7432766757744375e-05
-0.0003273490084648202
-0.0008531933045222737
-0.0013041504303522293
-0.0013446826940526054
-0.000678741173527896
0.0007815865688790864
0.002762266964664935
0.004566081946981598
0.0051827268362653976
0.0036128948368453293
-0.0006293253368473939
-0.006978761142846577
-0.013490087272252899
-0.01700273280196664
-0.01401300325989769
-0.002252108240663901
0.017362705610823898
0.03908664704126833
0.05190285983142966
0.04103989041538836
-0.0083434699804622
-0.10601915858008192
-0.0517335870067271
-0.03245915546488754
-0.023359796292744196
0.007299641187793983
0.09052866883230232
0.0485554031732614
0.08891496720615506
0.0026469824412454013
-0.032796005100510346
-0.04696620706380887
-0.06848020417030802
-0.11846277422718503
-0.007535064311720887
0.06291440477412281
0.0962364269144282
0.0952948366631909
0.05930127967321232
-0.015561059269230602
-0.13195568909966623
-0.08579472676774827
-0.062280325644493706
-0.03607025550350215
0.023737449718761593
0.14527088740474997
0.1452838466882889
0.023731881698516755
-0.03620339830669914
-0.06264935898413758
-0.08642274279722552
-0.1327102292623448
-0.01613597736503864
0.05932074235725166
0.09627534871800153
0.09827747821416886
0.06564063355998496
-0.00506157922020973
-0.11759903971498467
-0.07056591441345286
-0.05264084780557183
-0.04126467129601087
-0.005937558950137573
0.08454002333490053
0.05313047366485838
0.10694393028691611
0.03368621243100837
0.0036470070050046597
-0.02313774353586274
-0.0867105708611502
-0.21730176547524827
-0.029039289804493496
0.08074883999434466
0.1270206243716869
0.13002034257486816
0.10946130401279897
-0.11752536773819018
-0.1345820600146441
-0.12280462329632692
-0.059218600061901494
0.08072538346780199
0.11684242982550663
0.056592319134151345
0.0895543177276726
-0.013405364778609003
-0.09558895545835762
-0.0058525007830397
0.011550572707926365
-0.07400624700236037
-0.07367833974105659
0.02238080098023954
0.04212263775269159
0.02523524283326377
0.015064255301317636
0.05074695517518609
-0.038983286900544784
-0.03960989556799217
0.04779940023724266
0.007415771765088146
0.01141287806588051
0.024469396850957104
0.009636026653480779
-0.06519971105148478
-0.021426131939450678
-0.0657435360454239
0.010815776246153347
0.03058954567084713
0.024383089852868044
0.02536223431654437
0.06331286150449278
-0.0395601393153859
-0.07086414876452926
-0.02857738292238668
0.079465444940039
0.03685727294761735
0.02089627113047886
0.006191513768451622
-0.03061372629836956
-0.10603283021123142
-0.026377270011990236
0.012819082597032532
0.024178651046821695
0.023448390688290903
0.02370988921861609
0.03067758779321734
0.04055233994450259
0.041203733431014467
0.01659484492079201
-0.046611336711442325
-0.15227794534885034
-0.09043061223117015
-0.03753845470863136
0.037835555010770655
0.16553686403317786
0.16392773221007967
0.03357916563341866
-0.04282162356866769
-0.0943818773957627
-0.1523971706249555
-0.04115138114031448
0.02757845095008872
0.05500155650197859
0.05167318243251346
0.03197743623103283
0.009056989914844715
-0.008328498573767672
-0.0166444807270375
-0.016619360300080602
-0.011378006340631876
-0.004544808935356697
0.0011029702987700757
0.004221020804893063
0.004815611690335453
0.0037526858607156103
0.0021487319846623517
0.0008703301701681292
0.00026622172828436974
0.00015672605801664419
3.289255451633649e-05
-0.0006248779012714923
-0.0020189333658370296
-0.0038112258947520005
-0.00510601887130664
-0.004701719316382101
-0.0016037849304200112
0.004312162545204731
0.011709563380109882
0.01756969331413392
0.017615846665258197
0.007493921732748791
-0.015488978437130879
-0.05063972867758535
-0.09299597076751556
0.06599536069423836
0.03612626390569797
0.025172412263794918
0.03609568374194608
0.06594704699759137
-0.09303922383682403
-0.050651237074379026
-0.015447304333085957
0.007594058535388889
0.017754041418503348
0.01769653688091979
0.011754629783074927
0.004206172134502878
-0.001894912671365524
-0.005140417592959481
-0.005560549835594107
-0.004066174948715013
-0.0018327569213140462
0.0001664318228134927
0.0013902216188412728
0.0017394014813691082
0.0014249312153113726
0.0007878742471813632
0.00014499577091970622
-0.00030126004480923567
-0.0004840123214792883
-0.00044306681903964816
-0.00027334992124424093
-7.507735755151034e-05
7.94341648855129e-05
0.00015807206872485842
0.00016417994150937662
0.00012249779181012596
6.359216335503521e-05
1.218341809540511e-05
-1.8422804708001756e-05
-2.630500004427321e-05
-1.7358766835172918e-05
-5.983422089331403e-07
1.580032529394555e-05
2.6759819426064402e-05
3.078438065491699e-05
2.916042582487015e-05
2.4577196097980182e-05
1.9785697196939058e-05
1.6675869630624736e-05
1.589506255337989e-05
1.6943040527504906e-05
1.858784874456994e-05
1.9433435957623688e-05
1.8492619392964566e-05
1.564103353523396e-05
1.1835267482729563e-05
8.985279954434927e-06
9.40955298730809e-06
1.490173717541306e-05
2.560455489630764e-05
3.9081382521048664e-05
5.011271429616811e-05
5.171233858908725e-05
3.7564283650546514e-05
5.512736943178597e-06
-3.898866357161862e-05
-8.117704570516338e-05
-9.88734940094236e-05
-6.911812534310532e-05
2.0969069978183176e-05
0.00016199711396625997
0.0003140139065070782
0.000408463352877139
0.0003653713589698061
0.0001261304140051362
-0.0003052189175444316
-0.0008276197656761347
-0.0012364904688463053
-0.0012644480014513888
-0.0006765977719721116
0.0005949195164575331
0.002320681805216138
0.0039147845190291635
0.004517185076780518
0.003259280203684215
-0.00031171993817024626
-0.0057666394533955586
-0.011492370688175586
-0.01479975783699267
-0.012629902451854346
-0.002866550468138493
0.014023685382455593
0.033610417050204816
0.04715604227928271
0.04299824319681445
0.0098637360539133
-0.05852643772160056
-0.15914293932278878
-0.07773742843889615
0.009006268153754231
0.12719353630952565
0.09732697803274058
0.127169606035479
0.008954471495424263
-0.07781895813475578
-0.1592449353938329
-0.05862145226122384
0.009820771398907767
0.04305796119630284
0.04735129350574395
0.03392766000194061
0.014380985920262816
-0.0026198184462581627
-0.012678889413905657
-0.01529256871055652
-0.012444972555537323
-0.006977726026195533
-0.0013354115627213822
0.003035880590807231
0.005669075268468629
0.006674097755956742
0.00626425336255244
0.004474506444000424
0.0012056368656465104
-0.003436922258625262
-0.008694480113225388
-0.012878958200440724
-0.01355300125346863
-0.008330851668862035
0.0037707092077830257
0.020802232419349757
0.036804290923083315
0.04189579253870183
0.02401013780241761
-0.027823217007865976
-0.1195540231969495
-0.049085739778141894
-0.0056816124678224925
0.027560578394828932
0.06895730722273255
0.13318923617363465
0.0281944160852155
-0.04462512872909884
-0.08719013659854945
-0.10049408257869281
-0.08200021231733517
-0.02667129412294443
0.06821480221349027
0.19647325327446047
0.13814640905142728
0.059808185346078985
-0.07842512059505971
-0.1107144971639908
-0.2524552296031259
-0.09171356151316236
0.010835033280546918
0.11263364897143513
0.07344700796762894
0.138301583793091
0.12477488382474264
0.018657096395853733
-0.02074059444989408
-0.04736727407280157
-0.11145140928037862
-0.24405365937590193
-0.04801298700282235
0.10186428226218551
0.049617535553226594
0.043198361452482806
0.11865602483253372
0.08809754584531952
-0.06543077834397854
0.014941214424026641
0.06986844083625371
0.03842683807578043
-0.12585056305064415
-0.241381864875057
-0.0913968955041028
-0.026266559036739013
0.024280730056678593
0.132093946210231
0.35051296943693444
0.09992356755068517
-0.03607065277822663
-0.10272596168195408
-0.1578138052809603
-0.2531721145032735
-0.020687699235095294
0.13317013807174807
0.02391261805863916
0.07966671473141948
0.13035041489058424
-0.0006804060553354953
-0.10036697157432486
0.03500330583977182
0.003919885550461895
0.004784823027741913
-0.1599978121873778
-0.08265509493445573
0.047578793374482745
0.03858181127598713
0.08787940798337383
0.17674987459443825
0.06900841769054618
-0.08392560209399692
-0.1325390328643049
-0.11653456169287618
-0.054172891936987724
0.06303601433820637
0.06921431600897052
0.017715928709966675
-0.028285128376212276
-0.006084694982075278
-0.06321382182184042
0.03421399625556501
0.09551018524512996
0.10303458309835527
0.014686916786969817
-0.028325873712808793
-0.08960570593528083
-0.024248881556014942
-0.06744819354056629
-0.02789337977702701
-0.08759832153032766
-0.008223157447550887
0.057634044117426925
0.15315235207820133
0.10590364202760046
0.1220572099314209
-0.011794540639519697
-0.11990487911494817
-0.2252796323674847
-0.1394119853205725
-0.05854515994075356
0.03151989116157273
0.14387915952125716
0.27736387263352824
0.20824613168921075
0.09196904074124888
-0.12377105639193882
-0.2783199637940855
-0.377618440750619
-0.18302460676541482
-0.015565464482498648
0.22419460105223876
0.42706565007734293
0.24749365695944953
0.08745361746973705
-0.10244388167748648
-0.2059390784365242
-0.3153811838263489
-0.10686927086491689
-0.02427816672201996
0.12430360461519423
0.15929570965218082
0.11657446609438603
0.034445200086273345
-0.05530588253178281
-0.13110372872166728
0.018720683128670965
-0.0019884270743659805
0.0049355855093538075
0.03362241638111087
0.07557358156417764
-0.07870819628533332
-0.03778682673232291
-0.007510765641997452
0.009943344268165202
0.015840460416434058
0.013689538069539705
0.007682139067212187
0.0013718633104113896
-0.0030566057721740313
-0.004885705117926583
-0.004506308009479752
-0.0028643098269946817
-0.0009466943076133632
0.0005511121987685285
0.0013393611420259618
0.0014721892870267943
0.0011920673857570422
0.0007643458889003213
0.00036235772344103614
3.0061441266514287e-05
-0.00028248256053706384
-0.0006386569037023098
-0.001029837373801928
-0.0013257882927487966
-0.0012915830003580504
-0.000681048520927433
0.0006124663658376078
0.0023994167966012022
0.004107894986215945
0.004848292783431964
0.0036787879190759683
5.181480239407793e-05
-0.0056773170798094935
-0.01189617468474274
-0.015800556760283
-0.01409306923567232
-0.004344814217428828
0.01325060367072179
0.034337239196845885
0.04990149412617533
0.04758845585580217
0.015117178463757727
-0.0547977970891834
-0.1596329771359691
-0.08460265240758758
-0.004468170180489475
0.11003600846773566
0.08295348077159133
0.12439520082654153
0.02578277146420236
-0.03903439365936978
-0.10713789467303338
-0.016686045051596043
0.0030167530825631677
-0.061170029639928826
-0.0030838224388997654
0.0013398345221404464
-0.011309059830229236
7.745323139621938e-06
0.07176614998903962
0.02792948388763343
0.07492636747252127
0.0008385764975959374
-0.020957454326216866
-0.024682599676632944
-0.043564073800589395
-0.10215389774370194
-0.011643279315646154
0.030686911818439862
0.03806916860979481
0.028326888012423543
0.01746236325142172
0.01462504083051747
0.01965857506969941
0.023637337501347312
0.012098131407510544
-0.02994266642157947
-0.1126248108179599
-0.03724793913782509
0.004923738145241631
0.03060048112856317
0.06001881693563318
0.11195801357241149
0.00017710935702852575
-0.06762491133137997
-0.08862477554009203
-0.06293272100647804
0.00746197797232468
0.1181600271166449
0.06094712266633988
0.023085550801061953
-0.011433599664437574
-0.05866266534389292
-0.13082920333093528
-0.033779425777936634
0.032816359865199714
0.07246662949690337
0.08763368762452306
0.07668474117952374
0.03399848165654884
-0.046300806918566945
-0.16442478316858922
-0.1097161874980798
-0.05925457356458731
0.018016348932011643
0.15240837481932856
0.16301812208461963
0.049897802510897454
-0.007769748127576084
-0.04653757052734156
-0.10837616088902871
-0.028724516956479887
-0.026732168588926526
-0.10051600872416018
-0.028635566325068296
0.022738540872666815
0.0891104570129249
0.19682783196345266
0.15596275694960404
-0.04033850950355169
-0.20985567326636423
-0.17154687338640578
-0.1368118067754206
0.09414738495746064
0.12969682258445236
0.1800886001535363
0.050783852896824036
-0.060788134410903
-0.16406249900254288
-0.07139857185115187
0.005839876951543573
0.059176055503520494
0.08276102970942609
0.0724055201594004
0.02564064541361394
-0.05643609757970751
-0.16634918559384274
-0.08850062372652205
-0.0005398230173264345
0.12152708556891686
0.09601651256698658
0.1291220497731803
0.012374491962705056
-0.07465512613385493
-0.15748865545517646
-0.05865326956185453
0.00834807129179952
0.041019651067572056
0.04585968504977064
0.033987804108796975
0.016526235557784145
0.0013493491909352389
-0.008112764554627363
-0.012198785756546562
-0.013199117259218962
-0.013309063511860189
-0.013153588151703493
-0.011394648116618394
-0.005556709552507686
0.006188297415965173
0.02289151520096904
0.039209719716029046
0.04517797100703237
0.027946200675775034
-0.024610284891097636
-0.1193828214845357
-0.054333903327417436
-0.017398187938362727
0.011092639591076973
0.05301758611740063
0.1260329654328583
0.03859867764519552
-0.011543364503933456
-0.03484966863435544
-0.044492401189055036
-0.050144510855192635
-0.05347015380060109
-0.04709708684337599
-0.017647835284387584
0.048014949972336955
0.15550071678046773
0.09752675002081394
0.05318794890280415
-0.006972798191406741
-0.11134058268549243
-0.2765713407405707
-0.10042583862835586
0.03840405354091095
0.17290532133801267
0.13573426649645287
0.14769536453724003
0.011432021692827185
-0.08753785319373227
-0.17364918268451304
-0.07163635132317842
0.0014534405874927485
0.03989560771322105
0.04825169482682838
0.03724510593275957
0.018824315074946266
0.0022807831964098647
-0.007645922104000138
-0.010663547133106988
-0.00941823510618544
-0.007408499199797897
-0.007091414807150865
-0.008735712528019433
-0.01031163902430989
-0.008441513915761307
-0.0001717752247001454
0.014934432369811484
0.033109653501217716
0.04591973932144281
0.04168327721383504
0.00890944206665935
-0.05895604367655872
-0.15910954654952972
-0.0774259515609106
0.009391909253224659
0.12750315042828028
0.09749366582876985
0.12720174519676614
0.008905143677312669
-0.07788830383013352
-0.15929324810687745
-0.05864170346602253
0.009804855177706885
0.0430090445116374
0.04724296189223893
0.033767562889131644
0.014222964299091104
-0.0026829668225403927
-0.01254600004724707
-0.014904220987823916
-0.011839027925084428
-0.006326581501893147
-0.0009371370593542022
0.0028337161451724895
0.0046135140813360846
0.004786758130456082
0.003989094588219837
0.0027018264304900282
0.0010885199381436325
-0.0009039289928286904
-0.0032648384208859983
-0.005617702804422638
-0.007077165463727265
-0.006408601540494885
-0.0025352420878549777
0.004709555321585933
0.013847602134095726
0.02141472186897158
0.022381941886173904
0.011520625630309967
-0.014479870992975936
-0.05480304810381699
-0.10322369148117405
0.051270468642722854
0.021610362894701664
0.018215842992069454
0.044550077669790245
0.0944102770000187
-0.04779133187125001
-0.003469830879224347
0.006138517495445999
-0.03327633391333431
-0.12368188066708984
-0.052499346682953155
0.005257285809034527
0.08069219901237605
0.0023433710922490933
0.18794233046206316
0.03947886009301187
-0.05669874829805925
-0.12492207154019176
0.0075626444491326125
-0.08180209232682949
-0.005931063131017476
0.03311107515073573
0.04196363880721746
0.031888860412458836
0.014490894187833704
-0.0014007709458008263
-0.011082299341998367
-0.01371068138864771
-0.011034985865424903
-0.0058438934243963655
-0.0006906731391058016
0.0028240713981805836
0.0042013416730666145
0.0037911984028590005
0.002367860533870215
0.0007305433285757567
-0.0005531583496157987
-0.0012328728053764167
-0.0013270599985949435
-0.0010080249179809633
-0.00048570018064149855
6.743169156902013e-05
0.0005380719853979208
0.0008541171066415045
0.0009549846677047539
0.0007788802457679978
0.00028384385343116757
-0.0005003764220821794
-0.0014138552653191695
-0.002140572694028874
-0.002254935482215357
-0.001361743200205925
0.0006878709931551697
0.003571679568244957
0.0063731309883753315
0.007682524515106892
0.0060042833723023695
0.0004469179844688355
-0.00848189537191975
-0.018308815649374165
-0.02467383963313857
-0.02240031293460705
-0.007623144120445312
0.019422622690504616
0.051878134524805025
0.07529084549232379
0.06941607050201823
0.013303633595970775
-0.10711567776714385
-0.09121275720538062
-0.11882100383241992
-0.15129896293551437
0.06028903776739344
0.16134525711834946
0.1784143082760602
0.1079062801070597
0.11359292180344673
-0.06528482950343012
-0.09724636751882329
-0.23830449209386906
-0.11485131331716388
-0.1155069950197005
0.005205924860290776
0.11253158807365955
0.2713481814659967
0.1271130780577227
0.09430774982342399
-0.044082265864518015
-0.12670069937953005
-0.19794242404771537
-0.09224365763690816
-0.024053643884813375
0.013640029754214716
0.04271388251668587
0.08843911953927192
0.16765985914908285
0.0809396964369271
0.01145121390201288
-0.06914530234329413
-0.19032993841428153
-0.17220398396333658
-0.019191353438411274
0.07966681454500828
0.14461491583670777
0.1968029075785303
0.0519789820866384
-0.08088386917951264
-0.19616091491065085
-0.08630990714378894
-0.13878030963420035
0.062187816960811826
0.1290406024567766
0.26273735800994835
0.04741787467166249
0.051465506497522684
-0.16446316866075522
-0.23543697132294253
-0.18153424584168748
-0.003352525543395977
0.11420524894105683
0.19188733448483514
0.24494895084885404
0.0766172355746402
-0.12045600880308015
-0.1554478454209529
-0.22778498609244766
-0.11872321975084374
0.009371781244948287
0.20511882073561938
0.11461760722594887
0.16772920667892327
-0.03075925121971579
-0.10251247992454224
-0.09025051609289234
-0.04855778947497236
-0.03430068220686172
0.10114495982581641
0.11742147308672216
-0.010774301244366138
-0.09042634967411066
-0.10803190803874196
-0.029901184848574333
-0.006293551936533582
0.02045705472677231
0.10534853718147263
0.0903493354544687
-0.0028979673418232316
0.024566243390781672
-0.048154501150521944
-0.055146869306211196
-0.03546076296080511
-0.025648332679946574
-0.05470115211530431
0.05808663403587913
0.10293556336973635
0.07845824878154774
-0.009023526833390992
-0.1452971071574417
-0.10822276490891473
-0.06971100329534387
-0.0010004727571819954
0.11940228119655574
0.29798582934876916
0.12270871679453853
-0.03327349810978027
-0.20069314974599473
-0.19998010831393748
-0.2300971803066737
-0.0660924153321102
0.13242072449211653
0.20441042628363565
0.16863951570679261
0.21063227786730493
0.08118790177684909
-0.09195643376785302
-0.18259762136257085
-0.241830623801102
-0.27968815798555335
-0.059533259251797206
0.09233635721697568
0.26502801530360653
0.3371128851987769
0.15575830967996962
-0.07202638803226478
-0.17421567229364004
-0.1984872440840453
-0.19403410936934562
0.0025225773315526575
0.17325026209326744
0.11732836792251916
0.045039818525195785
-0.02886134135792745
-0.09016096748656585
-0.1284527902626994
0.060304595330014865
0.07127251898459162
0.08888214864377868
0.08729211253899864
0.03460686415695746
-0.09913391662445512
-0.1321363195860628
-0.06257055807167332
-0.06526919762693639
-0.09541314014556054
0.10115238399891029
0.1737568532018927
0.1533609887033717
0.04427287714348331
0.02406695164628537
-0.14838677547829
-0.11989584693784054
-0.12969383416997043
-0.00039425556691398487
0.06449301274884703
0.07688440440725001
0.05683007179839197
0.02484380086784531
-0.003632362122949041
-0.020563643889849492
-0.024766067766539685
-0.01958422874305868
-0.010102421803590039
-0.0008854484955906739
0.005266052648527171
0.007543308571029625
0.0066489204451109585
0.004020815997228109
0.0011121699652025315
-0.0010684926712715471
-0.0021092087840976783
-0.0021043665442044457
-0.001439536593575092
-0.0005644140886518844
0.00017090706614352665
0.0005885025824805399
0.0006748618901285352
0.0005247179793998312
0.0002717550324381712
3.261864754319438e-05
-0.00012319834998247525
-0.00017770730710970974
-0.00015111706612849454
-8.150359082254068e-05
-6.374866339143972e-06
4.88165158033278e-05
7.418267259826231e-05
7.276741903823532e-05
5.484782110962715e-05
3.20730543154087e-05
1.3327974063138802e-05
2.9778221119950087e-06
1.166914160754323e-06
5.323820844266954e-06
1.1960588602451956e-05
1.8096967606339722e-05
2.2003257963928805e-05
2.3280384629849266e-05
2.2495647395986507e-05
2.065091752788879e-05
1.871065008511831e-05
1.731491951875417e-05
1.669899955025169e-05
1.676869139449383e-05
1.725069035058584e-05
1.7843528663693072e-05
1.8321815508312206e-05
1.857844639290167e-05
1.8614452770167812e-05
1.8498954645467225e-05
1.832274466919511e-05
1.8162335618535438e-05
1.8061783843924645e-05
1.8031281669081282e-05
1.8056581018821215e-05
1.8112108155439674e-05
1.8172202046218465e-05
1.8217759159998433e-05
1.823829788363525e-05
1.8231157212211137e-05
1.8199914410990825e-05
1.815336648639852e-05
1.8105128169346037e-05
1.807273232835707e-05
1.8074672674185993e-05
1.8124443585670757e-05
1.8222260355605553e-05
1.8347283390582725e-05
1.845491246399559e-05
1.8483953890340383e-05
1.837627528713479e-05
1.810672647838964e-05
1.771456249680162e-05
1.732164770500851e-05
1.7120641320396195e-05
1.732142500037409e-05
1.8057852603492165e-05
1.927772401555378e-05
2.0660490902362402e-05
2.1619391063354673e-05
2.1436008690402564e-05
1.9537841313897285e-05
1.586510112067483e-05
1.1197775534294564e-05
7.258687020406306e-06
6.411731712201299e-06
1.0869029133539187e-05
2.1512665785980848e-05
3.668799718713642e-05
5.154668605801045e-05
5.8582327624181205e-05
4.9786914003485474e-05
2.0306179107764486e-05
-2.7337601561379705e-05
-8.020706560436965e-05
-0.00011528031083126456
-0.00010494317686066869
-2.7932622581301623e-05
0.00011649786623165332
0.000296301572909781
0.000443396894537252
0.00046630238984745123
0.00028163701747329825
-0.00014008821122449982
-0.0007286581135519117
-0.0012908835586268057
-0.0015344205321258322
-0.0011542597480047588
2.438342830134408e-05
0.0018845013526354439
0.003905897943929732
0.005188083523066756
0.0046742541947980675
0.0015828112969158718
-0.00404578731118326
-0.01088984492771605
-0.016253631817931526
-0.016603324096094215
-0.00884128237896511
0.007862976615293529
0.03023103793325886
0.04986664334126541
0.0539678191955612
0.028276417098819184
-0.038044316162924384
-0.1469910951311213
-0.08798268538230362
-0.03798165037521505
0.033601143955735206
0.1563727696714447
0.14980779323670546
0.01705355138096118
-0.05592589795486324
-0.09587331294313818
-0.13470568321570384
-0.0021077032987203573
0.07938185397310653
0.09627329536035015
0.044136380918694346
-0.07274338774843937
-0.041373958211630285
-0.040286389056943844
-0.04115510849282839
-0.012595879271942584
0.07410548197495574
0.038668164839584754
0.0868598116343238
0.008722221309707326
-0.01915210331546962
-0.027797554079867774
-0.04823645479769921
-0.10434810575796676
-0.008347824520297205
0.03997794056576076
0.05050385082910983
0.03791097621661355
0.016694190307282274
-0.0023934378279597693
-0.013780033121560642
-0.016609132083794786
-0.013119739785518246
-0.006737495202151615
-0.0005392353577695551
0.0035894384134431074
0.005106975163711715
0.004490283443176319
0.002710404546824121
0.0007468405645478933
-0.0007219893763233011
-0.001420358037698932
-0.0014136863989742743
-0.0009630533763467808
-0.0003720273214861577
0.00012355332139420337
0.0004042275886757048
0.0004614163967567212
0.0003593746163887009
0.0001884068419286039
2.714242985678736e-05
-7.769418833970287e-05
-0.00011413519783102065
-9.593606572423053e-05
-4.883882251525729e-05
1.8572872569630514e-06
3.902219654954866e-05
5.6036410849659134e-05
5.499501908014786e-05
4.28538657952005e-05
2.747537504669357e-05
1.4843894513353414e-05
7.88936761550432e-06
6.695466234308354e-06
9.518824297574795e-06
1.4003663394436182e-05
1.814129935949359e-05
2.0769026604028233e-05
2.1621984053377133e-05
2.1086002067657275e-05
1.983831701707854e-05
1.8529369675124674e-05
1.7589822268079937e-05
1.7176983206600204e-05
1.7226146595580206e-05
1.7552306433260234e-05
1.795202775987536e-05
1.8273651098480387e-05
1.8445568604850663e-05
1.8469153329794698e-05
1.839152796527217e-05
1.8274068652904388e-05
1.816803153513297e-05
1.810228643728716e-05
1.8082536188804972e-05
1.8098046813599894e-05
1.8131031484075238e-05
1.8164787399075166e-05
1.818850619412518e-05
1.8198479425698252e-05
1.819664707385936e-05
1.8187917475038746e-05
1.81775457519951e-05
1.8169367051351293e-05
1.8165122010797302e-05
1.8164684064973975e-05
1.816678665497526e-05
1.816983966564163e-05
1.817254682546216e-05
1.8174203251309086e-05
1.8174696350335046e-05
1.8174317867298464e-05
1.817351554895916e-05
1.8172686476228857e-05
1.817206549602398e-05
1.817171372175078e-05
1.8171577814387387e-05
1.8171575589443e-05
1.8171665512283417e-05
1.817187160670353e-05
1.817225542673691e-05
1.8172847977833766e-05
1.817357239505204e-05
1.8174198347394657e-05
1.8174366949032882e-05
1.817370683879765e-05
1.8172027921101427e-05
1.816953524385984e-05
1.8166965722790065e-05
1.816553533282342e-05
1.8166614757272874e-05
1.817113847697656e-05
1.81788861704258e-05
1.8187917853296792e-05
1.8194530715222625e-05
1.8194061307521602e-05
1.8182627631741443e-05
1.8159497376401733e-05
1.8129278110878608e-05
1.810274653032279e-05
1.809511821439103e-05
1.812112520231257e-05
1.8187474642568735e-05
1.82848851090984e-05
1.8383380186647948e-05
1.8435049354703144e-05
1.8387249753388647e-05
1.8205802897148563e-05
1.7902555884049697e-05
1.7556257681393902e-05
1.7312582123954312e-05
1.735118240845105e-05
1.7816877316939264e-05
1.872806283236139e-05
1.989426651807606e-05
2.0888782133858033e-05
2.1121840929502265e-05
2.0036614050108923e-05
1.7402747428272754e-05
1.3619380626077433e-05
9.883821131920788e-06
8.064770585295613e-06
1.0171092205426238e-05
1.7443160284816804e-05
2.929552652162986e-05
4.2545676553540005e-05
5.147501545528648e-05
4.9175078923079934e-05
3.0261516897328102e-05
-5.58775537046608e-06
-5.053553598394756e-05
-8.77117669762846e-05
-9.428450367750649e-05
-4.925155401823932e-05
5.514700197974054e-05
0.00020191795964772156
0.0003433213699936117
0.00040655014763626735
0.00031505928396741633
2.4116851085961937e-05
-0.0004386879025450896
-0.0009450630257045958
-0.0012707790438697022
-0.0011504601075641304
-0.00038441242969742667
0.0010249954974224612
0.0027575310629698456
0.004148999831092218
0.004319933610043012
0.002485650520110653
-0.0015997801445953085
-0.007207072135682491
-0.01242359324307015
-0.014412464344668264
-0.010291121045885011
0.0014259576855439324
0.019169212677335266
0.03707117411896175
0.04489124070051699
0.02967301762496959
-0.020866138333360804
-0.11404239410010894
-0.048567527501836655
-0.01324998817423637
0.01103521505969865
0.046530140398286984
0.11260072184796405
0.020750720687683334
-0.027624107528317194
-0.04020388727372068
-0.03022279789621731
-0.012016617733020492
0.002854851668163092
0.008005673776766078
0.0029070620477532503
-0.007948427018675978
-0.017054209995315255
-0.01670654186944236
-0.0022121062317081415
0.025128601875194948
0.056154747427692615
0.07413935193186476
0.05803995593749603
-0.011329806992315608
-0.143567944659063
-0.1320745306713936
-0.15175980441688078
0.036717994824638445
0.07641895931698407
0.2004734000691095
0.22049526969793554
0.12211038069508783
-0.1298565190882239
-0.17803400682304468
-0.2562776479538999
-0.17742075633784554
0.0697442631745572
0.11310038798078383
0.18292973902662957
0.2971621505538287
0.052571956168260936
-0.17456451520171604
-0.21929896950860153
-0.11509993829549874
-0.08315084407206413
0.07211510717749146
0.16083494537961257
0.2016703806559516
0.01586676454686868
-0.17583569065568427
-0.15342384006649337
-0.09731215796763486
0.009823865926406168
0.17835008840738037
0.2061027179521313
0.0755168206451303
-0.043701489200477756
-0.18625071606411361
-0.1802656416616171
-0.03828525356125671
0.04617768003427108
0.09556398043182789
0.1406993752065797
0.012211195275810272
-0.06606333073642713
-0.08043279264689883
-0.027986567437094753
0.08427447566050116
0.04106307775896369
0.02126155792050647
0.0015369435876806264
-0.039106374684953545
-0.11491548982412968
-0.030680298716117146
0.018027938710194445
0.041513812195790985
0.05069724853697677
0.05199376490465051
0.04436728681050511
0.01974720238964682
-0.03327719554396524
-0.12386333025072192
-0.05366010278152056
-0.014126634745661625
0.012340268524390635
0.04782933646737074
0.11266142743040367
0.019823717929696574
-0.027979699083547135
-0.037935495049466424
-0.023995699842242924
-0.0024095193724047942
0.012710535503215097
0.012910435903802444
-0.002376653930420149
-0.025057833352628022
-0.03924749731147989
-0.02397484614005479
0.042289225079886195
-0.024197875990280983
-0.018511213835378806
0.04809487101559955
0.14612678254679756
0.030006222412291172
0.045200189014813645
-0.0603147547259737
-0.12270739502780476
-0.15090614434595742
-0.12115642660927987
0.019946587164409557
0.1441331342591246
0.12496742793578662
0.021133295660990134
0.06429850609284908
0.054540978416804754
-0.036119322544909634
-0.0536920930572278
-0.04878160438174138
-0.06347664006378807
-0.12200077626781046
-0.0274110286773216
0.03511765169298342
0.08989032228852444
0.1603305769126683
0.060457577192328166
-0.008863092694905136
-0.058069960128147635
-0.10305073530367205
-0.15847398746917957
-0.03356972470628951
0.06785826051859388
0.14379079926477736
0.18945488210359923
-0.004727022310100596
-0.05065861840449937
-0.15618772072288983
-0.11789698684793029
-0.11695627432415835
0.07934120654263944
0.11039263459438393
0.21215416786880198
0.008053532265281549
-0.09587036860243513
-0.1107805790264381
-0.061349864256162276
0.01901220169965659
0.09246255098195365
0.12064009986589798
0.06929659989081408
-0.08563336115086802
-0.15137611840192264
-0.11363211542896874
-0.13693613276394653
0.0281879987311263
0.23228089446569594
0.11207757539978276
0.07904176252203533
0.11579811296116958
-0.017818801893311302
-0.17083143216112523
-0.18387109216436093
-0.0744539769463249
-0.029780168450262663
-0.009370812474524676
0.04349174886007226
0.1852542829626691
0.055558736807916315
0.06547128408338365
-0.006396703953879438
-0.00919500541412327
