0
1.1394847950718688e-07
1.1394848116347219e-07
1.1394848434438679e-07
1.1394848836725932e-07
1.1394849173824237e-07
1.139484924176764e-07
1.1394848850846528e-07
1.1394847927374861e-07
1.1394846617347676e-07
1.1394845342001763e-07
1.1394844749981224e-07
1.139484552966794e-07
1.1394848092999304e-07
1.1394852212000924e-07
1.1394856759711965e-07
1.1394859743772682e-07
1.139485878599173e-07
1.1394852070414171e-07
1.1394839564597026e-07
1.1394824070803412e-07
1.1394811490346792e-07
1.1394809714099606e-07
1.1394825888527301e-07
1.1394862461701293e-07
1.1394913249750644e-07
1.1394961474140967e-07
1.139498188097498e-07
1.1394948267216137e-07
1.1394845843119086e-07
1.1394685145517275e-07
1.1394511545408166e-07
1.1394403107116293e-07
1.1394451092972858e-07
1.1394722648085696e-07
1.1395213711606194e-07
1.1395809687846335e-07
1.1396277763303194e-07
1.1396313024168674e-07
1.1395646874233185e-07
1.1394200483917783e-07
1.1392233785380685e-07
1.1390414000961633e-07
1.1389723227536423e-07
1.1391157203980163e-07
1.1395242510900321e-07
1.1401504747988783e-07
1.1408121326905776e-07
1.1412037146351223e-07
1.1409754813680816e-07
1.1398801504983267e-07
1.1379542309819132e-07
1.1356647521283295e-07
1.1339289902891444e-07
1.1339237554710223e-07
1.1366560790096756e-07
1.1423683851276425e-07
1.1499752181330495e-07
1.1568274323699945e-07
1.1591101259984974e-07
1.1530460540500823e-07
1.136778981718884e-07
1.1124034849935343e-07
1.0872258779693629e-07
1.0731885806696728e-07
1.0836756134914391e-07
1.1277534543271571e-07
1.2031968753349593e-07
1.2910315203184871e-07
1.3551631046284347e-07
1.350228408093275e-07
1.2385711301852896e-07
1.0132729453654258e-07
7.194042550780124e-08
4.619885301252575e-08
3.8904342446498647e-08
6.435900983756131e-08
1.2902696296754893e-07
2.2379924675941459e-07
3.1944381618771624e-07
3.693315627826481e-07
3.223182055499401e-07
1.4532839105332377e-07
-1.4985639601553664e-07
-4.863676669159999e-07
-7.223536252228033e-07
-6.831680259523568e-07
-2.284041562469687e-07
6.590364573257084e-07
1.7929456802646458e-06
2.757570119468475e-06
2.9792668886556325e-06
1.9175614593996917e-06
-6.492445661867996e-07
-4.32978883607706e-06
-7.956679356558172e-06
-9.711375106442856e-06
-7.642449424260947e-06
-5.501578955664338e-07
1.098600625466078e-05
2.3860173277644188e-05
3.250434091591348e-05
3.020329248187394e-05
1.1738102739061763e-05
-2.317338465219905e-05
-6.687205526906095e-05
-0.00010292273288242447
-0.00010911988242465759
-6.50817117813918e-05
3.664654146617062e-05
0.00017941512124808315
0.0003166833466960783
0.00037760494291161904
0.00028783295356811023
4.125207078882384e-06
-0.000446292883248486
-0.000938243368729126
-0.001253422587305074
-0.001133904021586014
-0.0003861798646132543
0.0009862406139497571
0.002670519802158595
0.004019704034436057
0.004178629782989255
0.0023861058336959893
-0.0015931713580165075
-0.00704485624768662
-0.012104303723080561
-0.014011202191804685
-0.00996699266318945
0.0014594826066482822
0.018717939725110173
0.036067073288916375
0.043499228221174406
0.028344987079415834
-0.021447194816857622
-0.11316427047516235
-0.04582166944627636
-0.008906880364433873
0.015769082874756694
0.04956982362659313
0.11150952419792909
0.013747923653593615
-0.0403964862622526
-0.055642497616724414
-0.04212829902043029
-0.012520777146605152
0.019967017626859148
0.04238086110221152
0.04222012636598691
0.007894336764687784
-0.07000699971895046
0.00325312535285284
0.02857689023428347
0.014369395464994791
-0.02330458985684664
-0.0620798407035533
-0.07648921473809323
-0.04313192836420327
0.05280099656505532
0.21148323591244406
0.2157703823278447
0.034579481082586155
-0.16703129386465007
-0.21384630443746094
-0.30819047240963665
-0.025361896015486187
0.08000025678439564
0.25819302813824585
0.14526350606928884
0.14790328143263376
0.038300456967154096
-0.03911269779600559
-0.15145687690430398
-0.15741949449005951
-0.0903240904014088
-0.15000204645624535
-0.10635084317065292
0.08628409920348437
0.2685027345528401
0.256394285482183
0.2312471757300008
0.1440536810836023
-0.0646899765986725
-0.4356519054776735
-0.5626402301121866
-0.3781844619998018
0.038805773539007694
0.8333959964812633
-0.2672353253184625
0.80765299439143
0.45162065361675663
-0.21435890375779648
-1.1144313317301064
0.22063968364211728
-0.5130678267483713
-0.17669881455518266
0.40652300495923405
0.6321134162683381
0.49337072321131537
-0.028846749953083294
-0.35974105860039124
-0.5118636785776326
-0.466187604875442
-0.16607207323420614
0.06904346807678667
0.5135529288034913
0.6017048463684903
0.5061327727507202
0.1418399303194618
-0.2013204488399855
-0.6071885431397263
-1.0823544361745228
-0.5279295008227639
0.050614251582259684
0.695022287873646
0.8235743335292266
0.9651677221842975
0.3241217982672317
-0.41110805562465713
-1.0209379828728993
-0.8912398500761907
-0.3611098973759025
0.09817741818504509
0.8698288981763072
0.9576312973025964
0.5538456689279727
-0.5727833863007145
-0.664499017357618
-0.7484368815477781
-0.21540595549773323
0.18234970503632822
0.9127413141509961
0.43546771551824265
-0.020602430251755077
-0.26315425454030594
-0.32439749578336136
-0.23947864116152928
-0.026507679089902935
0.12371513339264804
0.04599362239547094
-0.010297188267106152
0.0033585387840712644
0.11971362471790235
0.14533749085932696
0.0574401394637342
0.009067679379403403
-0.05850563205416951
-0.19981579563922325
-0.2508637220502364
-0.021321299795780454
0.10413338855119646
0.15650822771248807
0.16974146526056233
0.17024716372470053
-0.027013245191254
-0.2151647475199496
-0.18771718905320747
-0.13165491524234457
-0.025868671648142345
0.15356824825887397
0.22363591010109157
0.18507737892993772
0.01852229982041251
-0.11172361084641413
-0.24795014386954167
-0.22822492271498665
-0.07983560980520699
0.1801921404526255
0.33898648058614583
0.1812423262833331
0.08789629401359658
-0.15720937287678866
-0.3549790615093662
-0.27946783659490937
-0.07423096456866224
0.13945127385043465
0.2442295761832975
0.30506581934599675
0.15300876057396295
-0.019225111054497226
-0.2485741921270168
-0.18402246481548074
-0.06746488026097226
-0.12022111871295747
0.06068490618128907
0.09638399642068374
0.013322618836690604
0.028519451907685196
0.13770589040809844
0.11004425192962163
0.09144975366248519
0.01638737990116264
-0.1746089694049985
-0.31696722363146673
-0.2101652352935207
-0.017157332694537206
0.12347709723157471
0.27645347895081185
0.28755251193847686
0.16878129464479102
-0.10349972249848308
-0.1773263827133189
-0.30600937510517917
-0.1292872558721163
-0.062029734762769316
0.10621471745295527
0.20256843453941603
0.25859313812904317
0.1009786360292552
-0.05046625598709897
-0.17733455035528775
-0.2537364181912185
-0.24032128803547026
-0.0865307848843652
0.2575082160138171
0.4231885927828975
0.2072335172132095
-0.03535555582712748
-0.18581524685400813
-0.34619372832957157
-0.22083616999775668
0.09821573744947605
0.3386332439562475
0.24973664838958867
0.0035503504125784136
-0.20155830622307558
-0.33519191333290305
-0.13130383345271512
0.10890556825159779
0.30628269320966844
0.18813104365216757
0.07278583359771072
-0.34208212908803115
-0.3876481959232106
-0.23169191938722128
0.311798631851318
0.5735238209301313
0.6277699291489381
0.10781084858344442
-0.35933844882844956
-0.7061890255633644
-0.7823939487978046
-0.33484674417606275
0.3791062297817869
0.7484162973290622
0.5511021141125709
0.30442327803575386
-0.1610624838226596
-0.4988649174920292
-0.422552600559552
-0.07370763358598677
0.20638158016490887
0.2962276290732325
0.3065860800758049
-0.00976485756125282
-0.4488620146447784
-0.34984994862124497
-0.19888353704665804
-0.04752658630490137
0.255193198759416
0.6249873879373904
0.31116196302042276
0.08371045127705842
-0.156056062137716
-0.34510457088807045
-0.4197776383431004
-0.28224486134486554
0.017018376693012777
0.27731065531559346
0.33098811320358923
0.22187739445015553
0.18905698949265493
-0.13808704942531172
-0.334181271259191
-0.367846551456671
-0.19573066272070694
0.03356405440668745
0.3659219767554034
0.625380348845117
0.4052351986597832
-0.12560752654348656
-0.6011182495751239
-0.6311167277115869
-0.5838726959458338
0.009210976652131848
0.6247368055291921
0.905099748491733
0.4221936185668737
0.06517562878767029
-0.34012345634991015
-0.5868988222631705
-0.6356214778378293
-0.17449234261307517
0.19474714034364768
0.343998882936825
0.38815978313796357
0.2511565371430876
0.041537904159892884
-0.15613162678699966
-0.27572848469709077
-0.2572212621686015
-0.03638007178711034
0.05720098201704382
0.0924023194240687
0.12240503121474271
0.1696040602354305
0.014872644214898121
-0.20577343403754111
-0.19690393980738827
0.1065078764405822
0.3536127072842461
0.5965298163228656
-0.4861144230960867
-0.3634604512720526
-0.4319806859930496
-0.41048491157764155
-0.3574655740422871
1.091072647452674
0.8753994452071193
0.27559738096489284
-0.2999955130025542
-0.49807390984107136
-0.5858224176350252
-0.41640197231597637
0.1901739203585494
0.44514576035972403
0.373436488578449
0.1921671191473016
-0.10373584699732198
-0.34405846502213216
-0.17629114774571397
-0.05529656678943074
0.16498543387237655
0.2362790682599563
0.11925423495625373
-0.011660667659338635
-0.16105283447231106
-0.3053872810881687
-0.19066765568469768
0.0610512789017324
0.1357680052420627
0.3063336698221186
0.21313633198419768
0.05365057890390287
-0.2156844799619778
-0.26681085617496925
-0.18200186528113735
0.16363401107445943
0.31587339870150943
0.2518360683666796
-0.010682460274655508
-0.4049004658227996
-0.41187972595697536
-0.4694055080958043
0.0019908908290001523
0.3576114247272154
0.8824562578804409
0.5571891376113868
0.2519601902493396
-0.4454600492048906
-0.574670628427138
-0.7399013621878601
-0.46229407974396414
0.03633479786864866
0.6149880837219251
0.571044846442841
0.3932566399393966
0.12898770585524466
-0.22412266017472582
-0.5036153878714938
-0.3554074411232864
-0.008145287271153778
0.14163683706783214
0.3312536006727105
0.22460334080544261
-0.09784281190498569
-0.34789677563729626
-0.23772223510953563
-0.09004386235101246
0.34786504836158794
0.48891695556191456
0.09564884803419889
-0.3201118647764535
-0.48640075738654365
-0.1532637976972414
0.32663310970511106
0.8170381031541554
0.4195572093590668
-0.4995205688443958
-0.6803837730803487
-0.7509439757681072
-0.6338545709799628
0.011260018958964908
1.315261282879795
0.9169677455116411
0.29891342858865905
-0.03530331403850512
-0.13462437043626113
-0.7358044587075541
-0.5830343636152986
-0.15677310449091408
-0.030039256282791856
0.14124861100635105
0.3989523889716687
0.24689302711635852
0.01251506668296114
0.016573139786115815
-0.044514619263441406
-0.10445303465921628
-0.12499480315214043
-0.09069793357033555
-0.004024397267325088
0.11800289275635559
0.24681504311090569
0.14763199856491982
-0.010849576100429147
-0.24311711267455313
-0.3341070510878799
-0.23344303758550805
-0.06183146930005408
0.26978182946169493
0.4336640057774658
0.2609475064731458
-0.07099577001761992
-0.034527826348573896
-0.1328115173070278
-0.27307117898865196
-0.14112273303232983
0.015185031841183808
-0.010318163453495868
0.009198519385915083
0.11649799205721677
0.15065274534130013
0.13083476410790845
0.04812641286650504
-0.1326123049502425
-0.06186688583275824
0.01095915158095841
0.05521375864794816
0.07412654193636391
-0.08556862989948774
-0.33227021619760927
-0.33921745240003337
-0.16696330595958678
0.10337302449160803
0.7339762019408339
1.304618337370998
-0.2888425517890798
-0.4054708974786874
-0.6072255083643433
-0.8038308829739417
-1.0178246019500976
0.8151280570826617
0.811500416123054
0.8876777869016642
0.1147681640760848
-0.3003869470231789
-0.40337703856149054
0.34057892166343984
-1.5167953732282786
0.01725886864313596
0.7789057994046571
0.4294498592316935
-0.5731549805232973
1.00057621784732
-0.06037562781079143
-0.6038795750183237
-0.29936088985265036
-0.019080024150746732
0.17607696530883982
0.24300872446380908
0.15707201775428659
-0.08884995329052338
-0.28461521657052063
-0.20353221820885423
-0.006417598205169777
0.1494281568360436
0.2982938664611514
0.2562154921199589
0.01845101221050559
-0.23370381986026
-0.3196830305075519
-0.24668379030436222
-0.0037928117010245055
0.23372134822559434
0.2923876890208142
0.18725280857295867
-0.0859168338235376
-0.14959144589342147
-0.23593042655789492
0.024840446101355402
0.21470408048389444
0.13460865302354375
-0.19232585382183662
-0.12093066314635004
-0.1884039756329183
-0.12451892253644505
0.13247457881740943
0.41761742618674413
0.324979892927436
0.0039635063138529665
-0.2307385783922721
-0.27835586841202414
-0.22822742629913848
-0.14180551263936472
0.15394893826074896
0.26173638090177187
0.20245665374709212
0.003752088782939995
-0.10657564626236558
-0.10130162871425727
-0.1511767879131028
-0.02274012339955046
0.12086123116056234
0.1158211685147655
-0.007845129196525826
-0.03105270908002619
-0.1483752023143459
0.03120508636443577
0.08505448277416001
0.17930307134129111
0.0737712235973123
-0.07015659607201173
-0.28008305295064834
-0.16502490835516925
-0.11372330816972727
0.09916295398131625
0.300867424356379
0.3078562933317568
0.11934065906706724
-0.07888033249055458
-0.3012392115069662
-0.3460714296111116
-0.18467368835684986
0.03766685984349393
0.18748766526860686
0.32077519702731255
0.2612231421273848
-0.012259227869102465
-0.16414835200666927
-0.08797583272986877
-0.08444003816702737
-0.03881455925352934
-0.003301534776850235
0.01239642744506671
-0.15880211400155142
-0.050090602023461016
0.023302455361176578
0.14404836044927743
0.17301684914358395
0.13509768002401046
0.014650720952579502
-0.03807748260913157
-0.09169235624038201
-0.21441493108540194
-0.05675134315023226
-0.04093447894399665
0.04057609859888901
0.018347851827697773
0.13424327314850004
0.029072162545538186
0.13371187172795976
0.06638668399474974
0.03667125213354086
-0.1456821548704772
-0.2612601649814826
-0.2762148410306079
-0.14664296137212665
0.16698676828756653
0.4797445817535597
0.5654483105443666
0.15296389952561848
-0.25922558910247057
-0.5736589794340415
-0.46141066738254144
-0.3409262299045649
0.22200541040610303
0.4930805635682294
0.5367725953806631
-0.01363330898485594
-0.17159667944548493
-0.19441227575597586
0.03462948757763112
0.03179895460600212
0.13937265727726056
-0.052006605345529325
-0.28905275086132043
-0.45375417503908905
-0.1770969514936475
0.13090652965239336
0.6403010597858456
0.4608798855436938
0.21609306731038744
-0.15950441721482472
-0.39906756716640873
-0.46752075274689947
-0.12428585699810658
0.10403757565687181
0.3365869707143328
0.7394936779157791
-0.8784376314482519
-0.2715514469832361
0.23485758319730868
0.132141937251133
-0.4890892027960358
0.842106611503837
0.16205381893990575
-0.3337185976856642
-0.28623788881223966
0.038944610705044895
0.1664859270556229
0.024593966685208492
-0.044508237028453045
-0.07712709875551002
-0.0841231035068809
-0.05140039412421605
0.054660909046039916
0.07777637080426902
0.06073995288335602
0.03585086777314551
0.01928435461692096
0.010553834224937744
-0.0033124811864515716
-0.04047274570707072
-0.11616231547645194
-0.036223059571818816
0.005846066816589722
0.02767389995255339
0.05348192793783067
0.10813599617672266
0.01185007757351966
-0.023184595865957936
-0.19434551846236953
-0.10960546725711214
0.01053025736049457
0.1301388418114106
0.19627823315830695
0.34249668483205997
0.10070913847470576
-0.1785662709847517
-0.5026269685025841
-0.41899645274662306
-0.21380131729492488
0.06851804496222447
0.38723600679834286
0.6605831304121131
0.32984018825152855
-0.05451744544285709
-0.2197099221362852
-0.33591920864576164
-0.37260164780947413
-0.05995384129155818
0.1344747678462358
0.2108992412727929
0.027113742374710138
-0.12120330963584704
-0.12442089491218232
-0.08363307230323834
0.06669408171927901
0.34193630084005167
0.501767911629458
0.26102059569327246
-0.08171839511422423
-0.6036811338269262
-0.7192972267082515
-0.7605335640184954
-0.18907165411455587
0.558937995156616
1.410439557372098
1.0018595597194326
0.46102418894345204
-0.5624829194561981
-1.2281233939741354
-1.42600687443346
-0.7256576557638097
0.2226161959638469
1.2322005354331194
1.2941549630798672
0.6981464198287042
-0.006615424223407062
-0.5969132585126884
-0.9178280088396809
-0.6084966703463719
-0.24057655326106986
0.3114005522877547
0.464605559689188
0.2980059596485475
0.11458057864434622
0.009944245482833836
-0.14544290867616455
-0.11057210892627736
-0.06918903184653681
-0.02155650796969062
0.02334152602239301
0.053487458443336855
0.057602544613892706
0.027985823821191042
-0.036879399028138235
-0.1301655679552541
-0.03605817239825073
0.06818492691611912
0.007119275408545973
-0.0001743296187216404
0.05213601305171006
-0.04988957407986643
-0.14388666029418587
0.10854343722451365
0.22644369245161314
0.3206324898013841
0.11253766448298808
-0.24067832812664666
-0.520612594204238
-0.43161230337659745
-0.20428575928078668
-0.023273191672828163
0.5251177889682996
0.5987733305932934
0.45699090455390556
0.04438978886601079
0.00785069830218026
-0.4589857062594324
-0.5588595384521848
-0.44088448651480316
-0.17363587637124067
0.051263959677177694
0.48914474721475193
0.5997272413485155
0.4101286017779092
0.09856010812780426
-0.1953276968752389
-0.5390010206326183
-0.5689176653043311
-0.4625705604683972
0.26753465828881506
1.356555877904705
-0.8444962100901542
-0.0018998635256989127
0.5763218225547584
0.1285244303534705
-1.1604299717572941
0.8499399601006051
0.06965991070846457
-0.40648739193277256
-0.28440327734767296
0.34212217731554906
0.602052868000928
0.056621958861172876
-0.49136638337647265
-0.5911158352388017
-0.5472244530432677
-0.039320453051161726
0.8430412320512792
1.3618673382451851
0.10666856197135276
-0.40104703048083407
-0.6745003178599948
-0.8148866445444628
-0.6736372820924983
0.5591085239517536
0.7368170724774555
0.5214979229335733
0.1503731695973513
-0.1803021508621425
-0.3098420778482347
-0.29263699101458623
-0.17437471991039274
0.024465629918161386
0.11270798975128608
0.12113659416673431
0.0887876732642399
0.048995813690146085
0.019898106789744813
0.0015782663057973098
-0.020385645074131323
-0.06690169094382639
0.04435927045664156
-0.09246119709104689
-0.06638532106748357
-0.04975267949067214
-0.004106404116133305
-0.09096887459497499
0.11490798387299417
0.2136172271370704
0.17399401884182059
0.13717091258293057
0.03110101264484477
-0.2066642694967508
-0.40477071927193287
-0.3415598888183439
-0.14425403942559364
0.09322905608179106
0.4783050934341844
0.48467016566612964
0.3276451196975261
-0.04012820218610167
-0.31103344390187615
-0.5907011990731407
-0.3659033816857611
-0.08542890829726114
0.23949113300353642
0.41824734892656446
0.45810428809576825
0.14840291943203304
-0.1397477851798431
-0.23785473999570683
-0.35592617444194274
-0.26125849298222414
-0.07021941230298599
0.1423317310086071
0.11828257290710857
0.18400993853405082
0.22077838411123962
0.2467776283714379
0.01601559054633141
-0.1659215568510855
-0.21455585998811336
-0.23671282377553482
-0.3079351177366474
-0.06396377352067294
0.29230075147681295
0.37305462671640255
0.1860288421896058
0.12229907775401826
-0.04346541905918908
-0.34159998248039486
-0.39161493949512083
-0.1906978236497488
0.08708335489644194
0.2803889903134741
0.4250226664857678
0.74264863378327
-0.5585124134948388
-0.47020911132342735
-0.3655287041913089
-0.1872770966816305
-0.45282955450808526
0.923551390409984
0.5994212990623194
0.177962538785973
-0.20063663445793165
-0.24613230408144907
-0.28949425606041795
-0.250370170984246
-0.012090692065622504
0.1895184240074595
0.16350215159329523
-0.04820202230776075
0.013673996005377987
0.010984225960106581
-0.003493988245098788
0.006159388370235315
0.05529192209969154
-0.06104095790899673
0.03588491764668054
0.11549154376840445
-0.052948792096265844
-0.09044314349496943
0.0002900564980659433
-0.16032850658926942
-0.12963146694062286
0.1500252394628371
0.13907170207275704
0.08704548541330111
0.02157946666797431
-0.05690845059278876
0.025941678683186465
0.024743079862478857
-0.11659971469357805
-0.05581207735041913
-0.04552973022665262
-0.13050162816755068
0.05119691411476939
0.264731625482581
0.2762422850796362
0.05532650919738293
-0.21628013063670115
-0.33239210786989537
-0.2525518879559304
-0.10125364479730208
0.22076093057152962
0.41584155850001125
0.1667838228102906
-0.07955649439722233
-0.11750378531603893
-0.17702436699099156
-0.11160335126149303
0.21566523956000755
0.14491874714540143
0.0307346709071873
-0.14820136819824709
-0.1821795588564027
-0.2291833442870941
-0.02211948185495364
0.11500277432971
0.24537081093528024
0.1987860867223012
0.15953278265884166
0.06761574567579383
-0.1663048832523766
-0.23689034878279935
-0.2189836919776469
-0.1497565382071775
-0.02379065088114512
0.1980991006234804
0.1704438318595025
0.14234112653633577
0.1416926833323146
-0.03077206722230443
-0.19694702296846364
0.01070967187014073
-0.03638644085329417
-0.15128006874211053
-0.12624341545838663
0.0644840832933926
0.0548048957278467
0.0728640931515727
0.12784735424783514
0.20227365416772755
0.05308964678091069
-0.17784576771980345
-0.14655268335174604
-0.08822156474609252
-0.002786808911769706
-0.04889182412335285
0.05242055796822672
0.005422572615994565
-0.07856883300020646
-0.1022105606028904
0.19764896049804304
0.23455056521714562
0.1660831268248101
0.0999020508409011
-0.08765480338616755
-0.3244731297957345
-0.31489000569586634
-0.12000085563097161
0.047894867643328266
0.21607285676092775
0.23235656167657417
0.14435559929811767
-0.0155635923067446
-0.03564848379884157
-0.12097768555001238
-0.08432276827254953
-0.13658097657656693
-0.08076608571952613
0.08876804931128815
0.18301319146643227
0.21432062939112975
0.19574127176119666
-0.054152659687402994
-0.5026462710726577
-0.29612826995618535
-0.16234045178417997
-0.02590386937215265
0.16506582149040638
0.8104350339405788
0.44079758966182736
0.1231356593705795
-0.10657074487688266
-0.3910004416024595
-0.9966013303666
-0.47730749239983306
-0.2736106018076888
0.24827549268921467
0.9279080501883524
0.9360531228266773
0.32099733891939525
-0.004922188491051012
-0.4350412676768594
-0.8076271539887956
-0.5382803960317392
-0.16909579129862412
0.25108445239152793
0.35466258099392267
0.42253474241328565
0.14664926446868154
0.0015640608592204408
-0.16834397370613263
-0.14698469729622807
-0.13588184157111596
0.05829524564133103
0.032924063011467136
-0.006769348065476424
-0.049151781344104584
-0.08174939709969388
-0.09956202864589091
0.08574704342389937
0.23877721505860186
0.29958018107767975
0.19311996691028566
0.050390014085141564
-0.36242606824103296
-0.6159008073724048
-0.40266152211994843
-0.14627636237406752
0.16364932711864905
0.5180988815342586
0.8337274679419894
0.3158985501192298
0.05399711976700285
-0.34822416563693653
-0.5177127169784178
-0.6521067276739704
-0.27535477993160407
-0.02286330677500163
0.34172262308104595
0.48798495007552395
0.4758217907187543
0.3258896115468683
0.014610117526264624
-0.3056530522707308
-0.6712374975686821
-0.4731254723322831
-0.24028339146755678
0.15093117384732724
0.44407498490200736
0.7598197905384861
0.3608537946744933
0.03890382246428239
-0.47174506771797853
-0.6618742207119531
-0.4117512232045923
0.03204169629877706
0.2594959547553047
0.482790810232217
0.5157155704746085
-0.04065810132608728
-0.399004956411135
-0.375053713737883
-0.17341253271208623
0.020923236105623775
0.24082487215318554
0.32694917774562626
0.11538471888622916
-0.17108772186319166
-0.32591312246110987
-0.15788758435258904
0.10983232241560557
0.23914309725904975
0.3768375179135386
0.05898661626086809
-0.1776088075235582
-0.3789187143349866
-0.35865455855136574
-0.09236271648894845
0.2752200262511007
0.41182232229363147
0.17610002045637763
0.001961474663339975
-0.10575674294640171
-0.1646541154785007
-0.20223501536770797
-0.04396839571975864
0.09330633905701309
0.0012733857718621494
0.07519938128608486
0.10774702964482434
0.08512015253122972
-0.012149985195706696
-0.0034188458715354616
-0.09887102331501942
-0.09047686008221062
-0.14670958628896652
-0.013917487690183195
-0.02526110447149404
0.08444612325104885
0.16198995671031804
0.2223448089923914
0.04339686749505472
-0.028695768287757734
-0.06453991704878714
-0.13142395426913578
-0.2745766263787691
-0.10603546887954313
-0.005048116894614419
0.06996634107952296
0.16208387973955246
0.29630871629379124
0.26740898308324806
0.04044648408787294
-0.23544936231577354
-0.40515925523263635
-0.286642724257093
-0.06020997975061405
0.12717184272438992
0.34445893869735544
0.2535778254221863
0.09032911949259546
-0.14407006533848649
-0.07928384789312468
-0.1634505500929371
-0.047946164168992646
0.025355278246297495
0.03135545032767359
-0.03685791084552207
0.028847784408032876
0.045922994352515796
0.03478520709249426
0.013491647372590076
-0.005493006190714423
-0.01614999856266187
-0.017843112321608776
-0.013230023645857111
-0.006067892864986275
0.0004348893207768142
0.004449924267028751
0.005606834105103634
0.004580889848758321
0.0025019005696453474
0.0004333003510815402
-0.0009440604547482041
-0.0014207018696114058
-0.0011729321910209194
-0.0005864304174455225
-6.67250403909356e-05
0.00011031346689030075
-0.0001183054738012119
-0.0005926678960218313
-0.0009894110885472747
-0.0009400680682148025
-0.00018796139003156165
0.0012526127585531838
0.0029897868232567058
0.004265663095324901
0.0041399026043679905
0.0018540354664994523
-0.0026934135031334914
-0.008524344495426012
-0.013445087090764326
-0.014430369478167933
-0.00864763454828026
0.004991387102048974
0.02417066993376947
0.04208493725945341
0.04767785823657416
0.027667523434599266
-0.029857878793444023
-0.1314142525244658
-0.07554966806721823
-0.053607075183859924
-0.05460887014661358
0.12690161430038874
0.2832697856553557
0.19070706905890508
0.01433769852088795
-0.07826725831593194
-0.2990059702534
-0.4240364110239807
-0.18939236232804396
0.09797548519919767
0.3354732065992519
0.3947879394661705
0.2982336005431926
0.011531422413552182
0.2567301919193839
-0.8591587466768111
-0.4108854402284887
-0.030397100850910363
0.09930125629168632
-0.16966572537654176
0.8232054703908787
0.3190179981520305
-0.07781457808769708
-0.2001778249920721
-0.30395075598519794
-0.24698459589049165
-0.07111128649996364
0.20646690115541755
0.19167879448841657
0.10581799403677077
-0.023252919591882203
-0.1674616144462614
-0.1020313262395694
-0.007738713598058281
0.12658413154032064
0.10144396810523572
0.10562114711892373
-0.08166976231398945
-0.08521206807866331
-0.12659425978424632
-0.018226488091137857
0.03914391434688535
0.05485155656981388
0.04389124293311335
0.02177401581029807
0.0005452672083236558
-0.01308027506528922
-0.01751563270995213
-0.014740835348934184
-0.00829510664182791
-0.0015673886513763251
0.0032162629338451927
0.005261473063602726
0.0049260047736090435
0.0031830312105089772
0.0010899565839189115
-0.0005734275732401773
-0.0014468815755486332
-0.0015483864258428327
-0.001129855513184962
-0.0005127776649950379
3.753435313567315e-05
0.0003740248486205158
0.00047031436919627614
0.0003846058462760305
0.00021047324957118002
3.469413391971191e-05
-8.73124507983507e-05
-0.0001372494085831084
-0.0001260131298743171
-7.957380153938674e-05
-2.5341077679461032e-05
1.691167428283248e-05
3.840872740166201e-05
4.006949257762917e-05
2.866117799184331e-05
1.2540934831090429e-05
-1.5340360444595342e-06
-9.925947899255227e-06
-1.2105140894200644e-05
-9.673751349004704e-06
-5.083206956535212e-06
-5.579110801683436e-07
2.5149897882952916e-06
3.710649955828707e-06
3.345586901647307e-06
2.106728368762875e-06
7.012128884543235e-07
-3.714848205507919e-07
-8.98989978280025e-07
-9.167969151774857e-07
-6.062116378355225e-07
-1.8437758051456e-07
1.7643043659490755e-07
3.8587766144957983e-07
4.3355351358649747e-07
3.629427266771539e-07
2.3837875198307778e-07
1.1784318435863335e-07
3.781331068104659e-08
1.020983963349546e-08
2.7644566503432875e-08
7.203222088379653e-08
1.2260818268942614e-07
1.613890187230854e-07
1.7603704178861218e-07
1.6119815346579513e-07
1.194176443425303e-07
6.191506159637536e-08
8.368686669167714e-09
-1.5887045909599678e-08
1.3382439076754113e-08
1.0870519378571583e-07
2.5899479142193266e-07
4.2145909791498534e-07
5.238152104418304e-07
4.820764924791515e-07
2.3449908786058792e-07
-2.1548406471090437e-07
-7.632476898833126e-07
-1.1957069157785173e-06
-1.2331748028055243e-06
-6.283324745918418e-07
6.93245997580625e-07
2.4961244701821406e-06
4.171167765516713e-06
4.8187750260370824e-06
3.523560828364844e-06
-2.037380564011029e-07
-5.937836321146915e-06
-1.201765896908941e-05
-1.564764606188629e-05
-1.3616946945252448e-05
-3.640721845532569e-06
1.3976372745948871e-05
3.498730525363061e-05
5.100740810094549e-05
5.124488291241926e-05
2.6422022760204673e-05
-2.5773741084711893e-05
-9.550739505010634e-05
-0.00015859243062150825
-0.00018008046255337976
-0.00012523816303997075
2.3210177566024736e-05
0.0002464349662066963
0.00047782258865738914
0.0006080658693289867
0.0005142482605837279
0.00011251573571629724
-0.0005779280782838953
-0.0013844630937434417
-0.0019770488978575786
-0.0019394254583931336
-0.0009240238950095393
0.0011372686124318534
0.0038381056794551207
0.006223938874608488
0.006946578773205823
0.004703691828009083
-0.0010880300299704133
-0.009583318462216708
-0.01809491816968713
-0.022362002427202692
-0.01778614213404346
-0.0016321475652107404
0.024247203101168596
0.051056670206258606
0.06221979067566725
0.03502377375769049
-0.0549967460339064
-0.027764973643304002
-0.09227413724893009
-0.04228724854035778
-0.05577761293338903
0.10150259096107805
0.06946133105999905
0.08636073170556736
-0.016883394465721496
-0.019462742116647093
-0.11073626502354533
-0.08904660505972971
0.039063380017350345
0.05852922298400919
0.14510381841105235
0.06611266664085462
-0.015907913580063156
-0.1367879944108305
-0.12357092472479082
-0.1897669783638947
0.06452180133076048
0.24748466570925456
0.16819882526451121
0.031157888041278326
0.03593492475194341
-0.2179051427529605
-0.32381884091453184
-0.0639028399854878
0.1895161841279609
0.26654683525179074
0.19053140515898423
-0.02804928374036143
-0.19192156016240292
-0.31303538668178454
-0.2085387573043121
0.0994326515644633
0.3799631084514158
0.38998537214662243
0.2779811864863647
-0.0010019808900025673
-0.4613306977670177
-0.8635733123653009
-0.505899243735597
-0.04084401812588511
0.4821705481218981
0.9616318595435817
0.9986236706447359
0.28359085862439104
-0.3742641547460592
-0.9828029705628328
-1.0923461644454502
-0.5410541402744106
0.1572408274266293
0.5785903827091432
0.9234715989456254
0.7478541498436581
0.11755741072273616
-0.3994664332396657
-0.5053676516051646
-0.5254867224979602
-0.36355596022915426
0.12447785221902734
0.33216451299523614
0.2849453213725634
0.21500804948917418
0.14067148333360216
-0.14238796005825782
-0.2573615044709658
-0.03458821123401596
-0.09861645127982334
-0.05956965646566012
0.08878256721853534
0.1650512719725898
-0.006783970457076762
-0.004149756927014029
-0.010207137377435057
-0.015194243857982117
-0.015489176240490763
-0.011530021171023364
-0.005590981427967774
-5.636477430182343e-05
0.003545954530768489
0.004796485669447424
0.004148217791434001
0.0024805896323573935
0.0006731047863463658
-0.0006688947302482044
-0.0013035736849687394
-0.0012958690239881032
-0.0008856335033959243
-0.000349325142075319
9.91906855265369e-05
0.000352083545652981
0.0004021219330084216
