0
-6.126492278620642e-05
-6.126492278203454e-05
-6.126492278040724e-05
-6.126492278360338e-05
-6.126492279284755e-05
-6.126492280709451e-05
-6.126492282222687e-05
-6.126492283130103e-05
-6.126492282632871e-05
-6.126492280160737e-05
-6.126492275785717e-05
-6.126492270559409e-05
-6.12649226656332e-05
-6.126492266480853e-05
-6.126492272624238e-05
-6.126492285579578e-05
-6.126492302916114e-05
-6.126492318633059e-05
-6.126492324044754e-05
-6.12649231050273e-05
-6.126492273679419e-05
-6.126492218208848e-05
-6.126492160604493e-05
-6.126492128016327e-05
-6.126492151024573e-05
-6.126492250560224e-05
-6.126492421989148e-05
-6.126492622557093e-05
-6.12649277033366e-05
-6.126492761850077e-05
-6.126492510588975e-05
-6.12649199946087e-05
-6.126491329524266e-05
-6.12649073875892e-05
-6.126490564258355e-05
-6.126491133632655e-05
-6.126492598051677e-05
-6.12649475533438e-05
-6.126496944491568e-05
-6.126498105167088e-05
-6.126497068395971e-05
-6.126493069652035e-05
-6.126486360369305e-05
-6.126478673725481e-05
-6.126473230549921e-05
-6.126474015518577e-05
-6.126484256792343e-05
-6.126504396014964e-05
-6.126530253281918e-05
-6.126552404584699e-05
-6.126557782295752e-05
-6.126534000267222e-05
-6.126475853505298e-05
-6.12639205145167e-05
-6.126309002179466e-05
-6.126268070841391e-05
-6.126313875711147e-05
-6.126474187686443e-05
-6.126736465538536e-05
-6.127030638053691e-05
-6.127230244234906e-05
-6.127182025238602e-05
-6.126765898862264e-05
-6.125973395022201e-05
-6.124976613100388e-05
-6.124148216305451e-05
-6.123994189822866e-05
-6.124981866179072e-05
-6.127287179940778e-05
-6.130538827503743e-05
-6.13368361836986e-05
-6.135109718585831e-05
-6.133116738304915e-05
-6.126702314719509e-05
-6.116461251492382e-05
-6.105219433450736e-05
-6.0979361670171236e-05
-6.100498446438962e-05
-6.117358193074173e-05
-6.148505305546681e-05
-6.186882741597487e-05
-6.217774095929494e-05
-6.221610384808412e-05
-6.180797415718275e-05
-6.089532760412348e-05
-5.96350960422939e-05
-5.844659575016031e-05
-5.7957176679757475e-05
-5.8813802008441945e-05
-6.137559686220003e-05
-6.536979469322986e-05
-6.965939215002528e-05
-7.230185547249595e-05
-7.10388821241143e-05
-6.422605187121497e-05
-5.199954350453237e-05
-3.7242537822256857e-05
-2.5758777232567924e-05
-2.5107557635830804e-05
-4.1897343934572685e-05
-7.797710320634191e-05
-0.00012676253938033216
-0.0001715860331729499
-0.00018805809597742762
-0.00015160499144319903
-4.947228127631644e-05
0.00010612906556123167
0.0002695493914576387
0.00036478783473741877
0.0003053291174204878
3.067544573983438e-05
-0.00044873955180106006
-0.0010155232735962483
-0.0014410936664844593
-0.0014337812668174807
-0.0007459221607668251
0.0006786175909458374
0.002565761204274235
0.0042549284594128
0.004800794897326161
0.003274825219424567
-0.0007659364682861403
-0.006776759883899807
-0.012918324311450877
-0.016211040537419986
-0.013346092775035479
-0.0021432920467249757
0.016669764300268924
0.038014553833991424
0.05220314478860141
0.046586742229550504
0.00927230406302397
-0.06588370771231115
-0.17483905639691516
-0.10188922133423962
-0.023010437471017414
0.08598861000476686
0.23908271010861867
0.23189901435816085
0.040238397537086315
-0.17289279345188185
-0.24390987596498473
-0.1944623720462509
-0.022590548418592538
0.09716567142706814
0.20532800172440183
0.1448494094323796
-0.050535142362637245
-0.16341515415976463
0.005462021712330887
0.0392895219019522
0.1095767411075761
-0.018082414821577537
0.02272063617505036
-0.19400816895154613
-0.08156848257141729
-0.039018358109186746
0.14611821160573416
0.09220681501390152
0.21786579416181143
-0.060705251512896574
-0.12832434389044267
-0.16698163971215943
-0.1531214420135292
-0.05944126724973384
0.13780729161480196
0.24846126653198697
0.2601036754045571
0.13700425887203163
-0.17120802446088537
-0.3135107463059426
-0.3208615716857103
-0.1971208678534322
0.07718372880652923
0.32890744414568385
0.3709359166410984
0.18532813165405124
-0.08075268414083595
-0.10351510944329899
-0.1590514494916284
-0.09581289458253296
-0.1118085069705461
-0.14331415270918063
-0.06851926748364978
0.07415078853974659
0.05675657039611649
0.02801549258574025
0.2826453165699047
0.2412519025981295
0.046092769384915216
-0.02561242900151066
-0.133867175829855
-0.2409194970057121
-0.2786411029949107
-0.12694733612306694
-0.008263522826412004
0.30234486902514207
0.2569227211975556
0.11255193976612655
-0.0851700865608045
-0.10963035032721445
-0.1527171787507786
-0.020060600184723956
0.07436469423352121
0.11253837995941378
0.07586090218682155
-0.05123828531894278
-0.07742072018132369
-0.20166747461706752
-0.2138080862979009
0.10035135776484684
0.3506483164420229
0.3354067190181593
0.2412672868212096
-0.146660129748678
-0.6267319343278793
-0.3631733233529404
-0.2794576253816936
0.13077992163764507
1.1772107103352856
-0.4592985791669509
0.048356896116367086
0.26448781279217104
0.09928786297549155
-0.7685838288137853
0.7377503207416297
-0.2773675431535405
-0.4605188526991905
-0.4009385267813415
-0.03904423921553718
0.5091707118498365
0.519288646006416
0.2295417684817185
0.027521066322596058
-0.1424603560432081
-0.35530469963494343
-0.27492442748782026
-0.1300807526543405
-0.10521367144956476
0.05094204506186016
0.20265565432368488
0.1988591761923005
0.24946824518176935
0.315335509908783
0.11663885304651449
-0.24160891262693565
-0.43484454309157355
-0.6877810507807193
-0.3599034524528254
0.2449022959740396
1.2474712051829033
-0.4457273323022535
0.6271287784869348
0.4741676534061743
-0.5356073789875787
-1.4422652543020844
0.5354950504259864
-0.18389154846429437
-0.15100281518722633
0.49033351291075505
0.5724662297669205
0.28086852168902143
-0.0509826659392206
-0.3261824512260944
-0.45496115012393734
-0.3237445973600253
0.024976467658364435
0.19548036577145741
0.22585764945953035
0.16679903066011156
0.061290763296320896
-0.06808045587527269
-0.02184861623187983
-0.017904863818387295
-0.08083942452060049
-0.030345942816517174
-0.07194572358938824
0.00790998332471661
0.04171143340364486
0.0764261342743217
-0.03374595212998942
-0.03574273860309697
-0.08597818255529119
0.042039753570025
0.1516023190908718
0.019529486712311687
-0.0027473738682661226
0.01702422433769195
0.0026110671190658495
-0.11748355522182402
0.0030934707280668304
0.13892705949781545
-0.10162857420884694
-0.2772967549561609
-0.12220881291632722
0.03814314638188959
0.06552156323830435
0.3875660832095573
0.38414150125461466
0.1884846731653482
-0.0941076161745265
-0.35430292290361476
-0.6445634556263539
-0.557010730847377
-0.22448899325550453
0.45324451578320973
1.5684448616170652
-0.23125400677157712
0.44429119544943285
0.9475245811095986
-1.9614731342167775
-2.065588223714906
0.5353820489257813
0.4081483198274428
0.12845243697191236
2.006812125074976
0.8317578266264877
-0.1421094821948035
-0.9540286566026931
-1.4619496333817412
-0.6656298914456078
-0.06054058950795353
0.561688189190725
0.8734940002579313
0.7563094063406813
0.25769567954727346
-0.22132587186769026
-0.5070797574013072
-0.6154226220683255
-0.31569213171703087
-0.11424299615624915
0.13427215289054656
0.19145253685641303
0.38817056717701853
0.38253203422053245
0.3375361865363256
0.12700132760790114
-0.23063469465478056
-0.5203396003268473
-0.47669814533106347
-0.34593418205930515
-0.07621874409323093
0.26112568268581227
0.4276706926806838
0.3668203697740883
0.36284312918922434
0.022582347456308174
-0.11626004369529198
-0.3557721903665951
-0.39971441394954516
-0.3209084913376085
0.0549417164700995
0.14531414905661796
0.39126680701174654
0.23223435884372465
0.08618478684220958
-0.057600515552892875
-0.03195162750523424
-0.27586503700030085
-0.21667991601399117
-0.05777798634016361
0.023615436903523898
0.06833302890515477
0.32084449774261714
0.2147466964382437
-0.036175426720416404
-0.23888044323207208
-0.21592697856092735
-0.1992209151279636
-0.02737289268202288
0.2520578757720608
0.37875106402545317
0.2805367089806312
0.0845781967704859
-0.2603542070532116
-0.5563470744118979
-0.3343619411969686
-0.04879383859894575
0.10580255465191553
0.35856501293869814
0.3166382796827355
-0.07752136279885945
-0.17565501222897506
-0.03486612020692993
0.39032461320327844
0.47382018339436816
0.15945795762125795
-0.5870513560114335
-0.7266798911731024
-0.7118461664976734
-0.28173020546174066
0.5072257007380895
1.2255990844432654
0.811965379723637
-0.065614080852599
-0.6141706181078767
-0.6901843097033581
-0.16111445534387644
-0.6743960967852748
0.353483652981073
1.1277321785081058
0.05635876840432043
-0.06424644782694551
-0.0501841090709184
-0.31804491785062733
-0.6685696351096534
0.32355136405540885
-0.29296635579013414
0.5386939939886838
0.26212602223578785
0.08988889656090625
-0.0030635353325980347
-0.07217987015454301
-0.1855692959449917
-0.2027034454315345
-0.1571874163391727
-0.04906017960507139
0.15190475863464023
0.29479870295066984
0.23396088582256
0.019128699236858518
-0.3077173160995085
-0.3105059439546184
-0.157199369662563
0.1775257416993137
0.3043625666301799
0.2101968682329415
0.053679327029795915
-0.030408031296626697
-0.3185159650826545
-0.28223319234051103
0.024907172712463496
0.17334428839371097
0.15598472846548225
0.18287189370866277
0.07656208140509392
-0.12942217699286784
-0.3903830742353856
-0.25273734055736763
-0.06320004633853718
0.21415173448273248
0.3774934655853649
0.5726153352533246
0.09350084036249647
-0.19723705638691255
-0.4317348504216577
-0.495476950666215
-0.19544409778470656
0.15142930663696633
0.3068512640717882
0.2825087907581438
0.10424828528180903
-0.22177261828406078
-0.3363975283829099
-0.14814917011842557
0.15160025630019033
0.48037920231848297
0.4684526366878804
0.4809172845395369
-0.3400891042751418
-0.8200582067397177
-0.6996713523847412
-0.4045415941521959
-0.050398746956831914
0.71655392367464
0.8589872126694019
0.4908309268711748
0.04410508861841973
-0.32975752980135653
-0.5290189461126661
-0.45731001805359534
-0.18488956928169878
0.07084739787122196
0.1418291266029681
0.28851092845795884
0.37323033811624207
0.2395552294812178
-0.0946298703283193
-0.22936443635130427
-0.3661039296248399
-0.2923659617323809
-0.1767000821865839
0.22197201428954483
0.33380739099723483
0.3554759678155075
0.2367635414838231
0.08443139207740745
-0.21543160954134724
-0.36298542990680477
-0.409884648130312
-0.13672779220549267
-0.05108562303039817
0.19295004026965903
0.36037114518409524
0.397467382089767
0.0023204050597905733
-0.18901529302032527
-0.19991227853562898
-0.0991345366226181
0.0175305898178464
0.044443269890025464
0.07973333794603839
0.03551859044152044
0.04565476430858831
-0.1286982619015947
-0.09661757404997338
-0.03978333040498104
-0.12107134419624177
-0.09923918553476879
0.05274661145673065
0.33070256844852625
0.49040307329128835
0.45369424242656725
-0.06744332581704025
-0.7334786829223985
-1.139845102569353
-0.5969903405209461
0.4594230003101176
2.0295886635089184
-0.5013434190538614
0.39649258399472437
-0.017179816082819203
-0.7428618334777527
-1.8195509804646934
1.2927802648052658
0.717662524626954
0.5575511616788266
-0.10713586165025728
-0.4055002693310706
-0.45151576696101076
-0.3183950631634226
-0.22488452238805332
0.25949672167404597
0.39242150244185925
0.4296453793663214
0.0011036356098112078
-0.09880591369053524
-0.10472106323283349
-0.062220780310189946
-0.20622092413188245
-0.14384221557945978
-0.04731711929725567
-0.058956217564530414
0.09370397440244614
0.277872621125404
0.33786486147980893
0.08670799765729315
-0.089406000373888
-0.21555776324280204
-0.3083377780552797
-0.3612294599771814
-0.14282577206934113
0.1897752425685309
0.4671753953638053
0.48418223344627676
0.3888924645075984
-0.10774658693041442
-0.5030388630627034
-0.6651297100277809
-0.4032465592965214
-0.05947371704224673
0.4733151230333748
0.514430255553756
0.35446106895861634
0.026418439247679934
-0.1015532008091332
-0.3118675139592858
-0.10927213098407022
0.010559423849955465
-0.013676866637526
-0.19535973973961004
-0.10017202315237268
-0.05943026751669738
0.006682090464313465
0.3619293364158636
0.43109292377700287
0.18964895823361008
-0.02889756886282114
-0.3094296615505049
-0.5238605355428876
-0.3045478069249673
-0.03367468748256089
0.1466823765373974
0.30769640208878996
0.30079263372077825
0.13129793307777837
0.14876278442687835
0.05806453239396009
-0.05127867803488688
-0.26575468158665244
-0.6101010787460769
-0.22320275849003987
1.0437178678054977
-1.3955647546284695
-0.1050264257070939
1.1198821672520285
0.8003660018809423
-0.8604604692600095
1.217488179723451
0.01986982208788471
-0.9074971226711264
-0.9948305112589435
-0.39656835920351086
0.23081103131572392
0.5159621443453357
0.5346344859270019
0.3655955699504751
0.05897609123323956
-0.17314276031941098
-0.34513884336284684
-0.2748004483618679
-0.16112555054893185
0.027464897462450052
0.15092842725995145
0.08399783840455112
0.0976183012362228
0.04262580354858786
0.1412551425744133
0.7893162904351726
-1.0315335771846426
-0.3361536076373623
0.07880316940942984
0.03857786099787057
-0.6201267710421208
1.1302140826816067
0.2861810710404504
0.0009073410393923431
-0.21229460491984428
-0.26074591787890755
-0.24544669387427426
-0.03683407824657682
-0.06122565767530852
0.09927780251238924
0.09566313687720258
0.19498688681427243
0.06350743258863824
-0.04543021854499288
-0.09691889756203619
-0.07440600384332269
0.02340424034922199
-0.013853074206255582
-0.005444140836021945
0.022329092755290672
0.037818377186915414
0.00649861561809851
0.09501459885860218
0.07708853356881062
-0.059329406640605244
-0.10553440140400096
-0.22925405457239453
-0.17900544533148052
-0.09772073536922762
0.05553287999536438
0.28125182601845505
0.5218345950846957
0.4608434658599905
0.34625885952160307
-0.16304898072264815
-0.9391079366761302
-1.3357718027849166
-0.5721891248180121
0.03637963269029356
1.0042824097398892
1.5825908096748518
2.084541332530122
-1.3389008290222904
-1.2638849323289534
-0.9180704614524177
-0.5016324616487725
-0.7387252260295799
1.726752436287123
0.900640908377722
-0.002744288823691362
-0.3891878262856411
-0.2899218541184712
-0.14819051295770685
0.0009329052921798897
-0.05337680978029389
-0.0913595277509892
-0.06688048719860008
0.08016502117230807
0.20767734155032547
0.3571123770835898
0.14664478473105833
-0.22546419723395303
-0.3692528256462425
-0.289743381674344
-0.17986171939788953
0.1756850659056434
0.38715496558770757
0.4446041092157173
0.11031283577189065
-0.07490463664198106
-0.37220360076769815
-0.4197645191366429
-0.2134337905789468
0.09819574010187335
0.20183182420934415
0.19547621355564587
0.16171326208468073
0.14784770155691487
0.5590725044877136
-1.0344017072546
-0.08080047534867889
0.17109518679001165
0.08370440593866836
-0.5668239517997901
0.8043583127524719
-0.01743726203882899
-0.05303415363649901
-0.13101591810434465
-0.08410030423096794
0.05733757460472244
0.07166671124614753
-0.04944148362527161
-0.09890989499696294
-0.054845688358327045
0.11607155646774968
0.0528854514706142
-0.006343648507933618
-0.030657567642856223
-0.0007028714296592112
-0.11139701449635375
0.027133407027637696
0.1905917816226153
0.14442320889451354
0.051570415226414694
-0.11624882717722208
-0.1665693751641054
-0.2786596020223172
-0.20604416121132468
-0.09235799622785047
0.1008221061808894
0.16107164190359094
0.3985404196867637
0.6387514452458717
0.6453820277303555
0.17643160113320397
-0.5344379213809618
-1.292992857787411
-1.287093085771577
-0.8871346051595059
-0.11961485615744565
0.9964932929550934
2.2879744404295232
1.694180483075186
0.4127999191113923
-0.45050410824218523
-1.1416819644462728
-1.8740317149935026
-1.462161038106901
-0.2275631299743702
0.5987376466337765
0.9864428746507973
0.9676294310784176
0.6994932465336966
0.37038521903823257
0.5714659623577641
-1.4671872606649548
-0.5970340104239303
-0.05987772467427953
-0.21551506922029337
-0.9073506100477334
0.9298061672382572
0.22840876213978603
0.13054089319545095
0.3341547200475173
0.4600275433026636
0.24864724079832248
-0.21294032911322947
-0.6434838472608544
-0.5156497443936269
-0.41888755374616216
-0.0511446009524586
0.3572248043339451
0.5960682547053585
0.22141487917257555
0.11270233354768029
0.053389285584030124
-0.061898164014287424
-0.19863480621079052
-0.14191337776983062
-0.05543202430541648
-0.2497335087521982
-0.1661979138516172
0.020888404644043748
0.18634942718980083
0.22650763303497531
0.23072152841775007
0.0604432830512429
-0.059198284554836236
-0.13516820528762688
-0.1938165901549121
-0.0658833014767621
0.025309594669334218
0.0696644998713423
0.07033422139445393
0.04013478887131931
-0.003203872369255844
-0.04146421884316841
-0.05987520308249823
-0.051252244778381195
-0.02106112460944336
0.006653783941039348
-0.016268583464911078
0.035138375722183667
0.26211848681840066
0.3543863608667135
0.2131937930900735
-0.2163334580821169
-0.5105925312213833
-0.5428076846281575
-0.4818011479752565
-0.222944722868957
0.35044038399336186
0.8894031408008034
0.7088576404964412
0.5491159838235786
0.18588039504636103
-0.31072359858598664
-0.8848296193049191
-1.000316242792369
-0.7746855768144675
-0.1638170219851158
0.5982367942257273
1.121149870830518
1.1735119276907395
0.42482887583006923
-0.36466712852492134
-0.9070149887620241
-0.923444793929244
-0.6859752448633428
0.010702683697726936
0.6378059561720771
0.8912821865585533
0.44327135083317526
0.10944752713517665
-0.15455617062652538
-0.42912378985605626
-0.592442622884141
-0.28608847611295274
-0.09898305013835988
0.2247634215764039
0.359186402508235
0.5637598793396634
0.25937941903705825
0.023416105400366205
-0.3945630189452173
-0.4443017662386307
-0.5474032948985862
-0.08424576889796977
0.1982223678923692
0.5613265662971894
0.44411829579013856
0.24207408188702947
-0.09474305846111307
-0.24302132152234132
-0.4753589528575862
-0.43087137783415436
-0.10007846159594334
0.16939754500887091
0.24879510885909115
0.39608089342383
0.42924660440193996
0.11623323640731467
-0.21416505178377163
-0.44480065960438603
-0.4375375862241506
-0.20909046404967954
0.07500260987008339
0.28675022485671886
0.509216168357791
0.20851611339523898
-0.18550695241714202
-0.2855857022955316
-0.3428693972174874
-0.23861160201878379
0.323457842500664
0.6245602147059948
0.5437659260781155
0.18265871499996897
-0.6979247012337851
-0.8388674709692507
-0.6590940158946893
-0.2642525029346891
0.30582601294364387
1.200421787408992
0.47477005473987477
0.02694189562277456
-0.026385839412585446
-0.1306633755945031
-0.23923205515823817
0.06023477496984765
0.021804613091017014
-0.39485175833691005
-0.48458131816060707
-0.389258887031369
-0.12590230440779673
0.3545216660061372
0.6920752924975122
0.6480589507083595
0.46219960566683205
0.05070839142473795
-0.3546266539070971
-0.7406053570704488
-0.8438820781298464
-0.3039034290646871
0.14667631699070346
0.45320996022720594
0.585704875887421
0.6828756675621309
0.014255955853723037
-0.22838785404632506
-0.5119586967784938
-0.327319036790067
-0.15470951981516903
0.15866882003277033
0.20474345716439715
0.20756135101793785
0.010015840049181504
-0.13962536606317147
-0.1986003664866458
0.061866324634089226
0.0495013805692226
0.14565358823834715
0.10368282227945938
0.05338271253149844
-0.08769787044747189
0.0023971595994411875
-0.1317328907141588
-0.10777681022461065
-0.09812289354164751
-0.03238992066308705
-0.010226664477709813
0.07819067402486662
0.12876867485131607
0.20313389670011214
0.11678526668802411
0.03913942574287222
-0.09458536348977944
-0.16345732177268632
-0.2394078760058259
-0.17132681808999264
0.02035603379159781
0.13765865321229148
0.19111316077958412
0.1843975299966369
0.10422068956310078
-0.08040184951586239
-0.009401182728576415
-0.1171904961411243
-0.2184957793700221
-0.3006434227250911
-0.12650700151243885
0.15159274169586834
0.3718882728400373
0.5463941781992276
0.4578120078102219
0.07644370681725461
-0.605472317259484
-0.9350258121872074
-0.7751360371989106
-0.3137927103394694
0.48846219275440694
1.0247336332567791
1.1681121556741925
0.42839753316050405
-0.04052540332679673
-0.7822031389559789
-0.9480896080480026
-0.808868332940216
-0.09672357884998388
0.20511960388323797
0.6282020547644559
0.5582002672561273
0.372408828668642
-0.004056088154267708
-0.11351768891652646
-0.35481209697786753
-0.3572029278175642
-0.15291628342598132
0.04086734256372486
0.02614846431752316
0.2167493306370696
0.626329685553998
-0.3405530672375211
-0.08958942447301066
-0.030413413264207836
-0.1675296459073747
-0.49437891400993184
0.4055347630098487
0.15041697318885405
0.14891628015865163
0.19206218935065342
0.053424796695271254
-0.10147249101418358
-0.300081298046236
-0.34894177345571975
-0.22822097435512453
0.10127366110245892
0.4805346595975906
0.5322651889794993
0.2488887570662281
-0.20390005789871865
-0.4686166400657162
-0.5716127750718466
-0.3059203373855248
0.16884537698974167
0.508526961629797
0.5570058220733857
0.12284190433315152
-0.028964844477195308
-0.3671642918141402
-0.37240828203076526
-0.3143320785402899
0.16254131211320816
0.24002132161175743
0.3175853227371582
0.0011516355748645158
-0.10371528107281318
0.009005071732854732
-0.046914048798051625
-0.03971786972618366
0.08959333634888121
0.03232828415279972
-0.2896327486476925
-0.33464376186487876
-0.16263655448766592
0.13412994260827213
0.39678287615651286
0.5728052792047731
0.5088153068020201
0.17183897806834977
-0.501553652612786
-0.7404323862793399
-0.6797293700515369
-0.32687726472240586
0.03237150912344422
0.5906903046238137
0.7542852980346645
0.47969342907349266
0.033539859422351284
-0.21385811760834392
-0.363723271444233
-0.3461209326545828
-0.27628014732752215
-0.02373725853241511
0.19922349549445692
0.23132462613445676
0.14524361523586296
0.02813305292613409
-0.03426617028305237
-0.16795009109441278
-0.11685111848408676
-0.0476595319301516
0.04494218740541846
0.13318480632615884
0.15408961315329253
0.21403404589916394
0.0025631015917618534
0.015013160904162992
-0.22033337426355523
-0.3180928701763036
-0.4233113616933329
-0.017370695967989947
0.056305268153289
0.3524405944135135
0.5818350304824281
0.3810455712977463
-0.09555942079007874
-0.3589259554491094
-0.35072976797064803
-0.4045217150551472
-0.016125592001523623
0.1688677732873137
0.3507513107742598
0.1611463874964317
0.04687052938232546
-0.1417301921131324
-0.15679127727631756
-0.15611181784811876
-0.10755437311525579
0.003005965730347234
0.1612697589292233
0.3161359719053141
0.3796131512134214
0.24008084247477418
-0.21064548077584902
-0.8429115892028475
-0.6600199264437775
-0.18767363869550163
0.3112928332230618
1.8025111898136812
-0.3578566127676025
0.15278544631082192
-0.3790590804686493
-0.6902137668923007
-1.5281622145444005
1.1471478070364254
0.5432115155185234
0.8070059002514322
0.40815725653999857
-0.2513136711082041
-0.3986118922422719
-0.6357708453692433
-0.690007182094922
-0.18804915672288428
0.3362312303889075
0.6052648319768136
0.5481687636192096
0.25797569544978965
-0.029288063269693784
-0.3294988346688052
-0.48631040695838396
-0.3416107689120635
-0.11391858704844889
0.40810628916168873
0.6584457931533378
-0.31953929573830175
-0.08417112047484884
-0.0004994466189301364
-0.24073781862263469
-0.18371806846578906
0.584231953902722
0.0673016601613864
-0.14076377958386813
-0.2551968689220119
-0.2975542011781219
0.10525948942039555
0.3190252934477859
0.29979184177545937
0.19604126870212188
-0.040804042841345506
-0.4386520482861177
-0.386511878513193
-0.22523563929201076
-0.05445914987153269
0.2436033606945411
0.5706193401789414
0.3810660350621909
0.06559750631430729
-0.2450277451508858
-0.45811277135534734
-0.2890992727240148
-0.035226985724405066
0.23950079026131718
0.3071876599052247
0.17141678931266757
-0.13895140832322678
-0.17455540510147452
-0.27025600642767217
-0.1537108088310293
0.03931058436254337
0.14388990593982703
0.14483025938044528
0.36403655549818664
0.46494206421902384
0.27904459176081164
-0.14700565753523412
-0.6939926826375934
-0.9204767907180091
-0.6416330921031493
-0.1513031115711481
0.5123232531073577
1.2743069564821532
0.7331710487186914
0.10400375100273897
-0.18693362838704478
-0.25609419709941184
-0.4815818106672557
-0.21192300272975115
-0.2887383466905223
-0.20070118576570764
-0.2770361434963787
-0.11955825451676648
0.3361192324310814
0.7464961137662072
0.4934407495064319
0.24353592422556936
-0.05577745809409318
-0.3448482535669215
-0.5984287954940465
-0.36966862083853225
-0.149746975217092
0.046143638261895895
0.2662556498888342
0.39214732326927426
0.3045356640144114
0.057766478447200356
-0.12997747027144513
-0.2709958334619972
-0.19317113489987053
-0.12430679662365558
0.11775119536335323
0.12701277158581242
0.10530194787796772
0.05642903289101964
-0.01777625550134542
-0.11808792970801073
-0.045951193975625214
-0.0009706500710347574
0.02043702947136202
0.024613780353549188
0.01896263838898956
0.009990189289790188
0.0019562492788413655
-0.0034645717778528165
-0.006579298139950574
-0.008521380572630292
-0.010058937153159432
-0.010836855856423635
-0.009356695755281417
-0.003754102501858259
0.006848245327394268
0.020901759467552183
0.033573164384733616
0.03711806558820423
0.022846383741922414
-0.015551902726335037
-0.07832298397686782
-0.15725447198579828
-0.0362725645472073
0.10419022379570818
0.08005153155980528
0.09639012272509304
0.14351726228698908
-0.0014490896625557776
-0.1675430268827536
-0.17998647669082052
-0.05136596618464788
0.022409997384421954
0.05999444881488894
0.08773590204963634
0.13126732467899926
0.008853933350805643
-0.07156443648222688
-0.11174637579252002
-0.12071229903408852
0.0873628221862475
0.09389469841273486
0.07596883101814215
0.007487542231067818
0.06272313785145898
-0.17786571532884482
-0.1212615146121115
0.04263711604871437
0.141920743269263
0.019729389325327376
-0.07150376170386295
-0.07754567691928674
-0.15124885975931715
-0.06272510227195043
0.19036195957066634
0.3755443996184661
0.22593371151824684
0.05190922212107368
-0.23624975319292527
-0.5008179924650003
-0.3543524252021214
-0.15263801274504998
0.19255757970345383
0.3846311950723672
0.5081561366134701
0.20327481980192913
0.0584806307448626
-0.37619682479896555
-0.36235805442681096
-0.3450167669870087
-0.13512605321098062
0.09047259717754651
0.37302911079901513
0.3481006709103328
0.2252101698682517
-0.020115004537330505
-0.23915856051046624
-0.29190426721776397
-0.22667978047249032
-0.06631072751070864
0.19436243718110238
0.18034731017529168
0.12289914207372611
0.04691388367779571
-0.03607534294748048
-0.12808485948316342
-0.0398125270482501
0.016179238207490745
0.03148815311125766
0.005606860674699756
-0.05305195378551779
-0.12881987149842625
-0.0029503703861602118
0.14039839889979425
0.10813702916989369
0.09478323080164942
0.08381139702649913
-0.14578972744628863
-0.2099083892739807
-0.11070871343792954
-0.03314261700376979
0.051419808834211954
0.17568692550313134
0.16500429630942834
0.028695332372077664
-0.04252246788171164
-0.07258439525535397
-0.09188652629431585
-0.12855469316348164
-0.0025083873620301146
0.07606527499827218
0.10442776272515687
0.08348078226044299
0.015052614716856774
-0.09821966883240567
-0.05073138861560113
-0.031203344787015568
-0.021414017492365454
0.0024681730534004257
0.06604667278505262
-0.008538787834728487
-0.007700544309299273
0.07006640129603016
0.013155321298483853
-0.0013096009867614056
-0.0030253968167595897
-0.022398730502519164
-0.08423648457523791
-0.002838437491494476
0.020276197077199715
-0.0044504767322052765
-0.05812841545654743
0.08138332615881047
0.03391154364249383
0.01242958555114958
0.020715787848152062
0.05376562995899825
-0.09934490434289946
-0.05124400315494148
-0.01223217733037043
0.012210023233948413
0.02180210767932874
0.0201030099771169
0.012349337217381528
0.0034450842610419083
-0.003301077407592254
-0.006541002957341496
-0.006545638474014665
-0.0045059574999493065
-0.0018151572995296309
0.00044309661077474434
0.0017195931086345295
0.0019743864027649714
0.0015018640467475643
0.0007158459197467347
-2.3558428263619426e-05
-0.0005027157136155116
-0.0006674944098316415
-0.0005817904034138319
-0.0003644740287791686
-0.00013227461933074846
3.586050262631379e-05
0.00010977932528523564
0.00010012396839694623
4.0679234978167154e-05
-3.012465539288616e-05
-8.280631363240637e-05
-0.0001033893035282695
-9.35727004018178e-05
-6.656288396585036e-05
-4.077076565138344e-05
-3.307285846387129e-05
-5.279279801933619e-05
-9.736960562102137e-05
-0.00015084200587341627
-0.00018643884642959897
-0.00017419629818364314
-9.321052158707919e-05
5.4116594010707425e-05
0.00023105205676972958
0.0003656167801005701
0.0003659665599940855
0.00015403217280456115
-0.0002883653595635776
-0.0008762034371060681
-0.001403572955234087
-0.0015751396710795805
-0.0010997696324343109
0.00016371112133622544
0.0020501745684148014
0.003992194120890298
0.005066815521259281
0.004245067559383347
0.0008391161257758923
-0.0049584725989937255
-0.011655905477592893
-0.016441336129487612
-0.015804885660072793
-0.0068784875961118925
0.010732453590341761
0.03320867556135741
0.05171734942191574
0.05339145658148045
0.024484986514214765
-0.04478727499376358
-0.15532060101618994
-0.09649658364006408
-0.048106378913819275
0.012375844191663186
0.09869568162334996
0.20463451458228393
0.09750030211177023
0.12026513125908198
0.003775076338781894
-0.1130796054336586
-0.26067387919036983
-0.22076074379936447
-0.12020975224164172
-0.040073363034494894
0.1611971112117104
0.2164585042625152
0.419626846186659
0.0055253082002785095
-0.05453723000321822
-0.24139678765626482
-0.06607715342206048
-0.24501025357352485
0.12067751046065599
0.15811023740369592
0.02764423319669168
-0.07823391376114498
-0.14018453443115528
-0.12059336076830618
0.02506099074624628
0.33573746133323573
0.23482979238601245
0.12685509035783546
-0.19701478858450475
-0.34679079615364683
-0.3212270758528707
-0.1024656818104266
0.13816251507067692
0.4251776924913059
0.3623272371696511
0.12348825607433424
-0.14304065102378208
-0.2977080013501524
-0.3876548384152336
-0.22950880672565024
-0.004767816792768816
0.33068397882289435
0.428386343572988
0.3301667855150726
0.060957533253918963
-0.36530237727330256
-0.531362448838942
-0.4041812627433229
-0.13433906521197436
0.32892106625974976
0.8127046316608726
0.49850992298422164
0.116841998650264
-0.43546457541584765
-0.6608569199057723
-0.6247663310287036
-0.13421677903091625
0.2591069227909486
0.8340008517395215
0.4662736684665487
0.0029094930760693726
-0.3457178014876128
-0.39590655172839906
-0.37221983248463525
0.10786309481685814
0.23912124103175783
0.2236945172606227
0.06153537940207267
-0.05749544322480726
-0.15638824500464055
-0.06872860244418391
0.16644914851652995
0.11076359682640843
-0.06730319114300023
-0.18659099583395553
-0.04907006795633313
-0.03905105623995326
0.07324571855223451
0.1247391564248371
0.1518321513068778
-0.014981356963805259
-0.15264541541870857
-0.04384092985674369
-0.07440001923890466
-0.03231888759645804
0.09050084966202375
0.09450764886554584
-0.031225436767649155
0.08947936630576861
0.02189357210994001
-0.0741844445743029
-0.03689863858646539
-0.09487648457415597
-0.06207679450795504
0.06366058202518622
0.09844214803178085
0.06801326820089161
0.0033477674071188544
