0
-0.001655225274594293
-0.008627286190347357
-0.012106477073016295
-0.009557409526338267
-0.00015775566677278242
0.014273991873422421
0.0287685557867528
0.03560170589076792
0.025963411873212914
-0.007158967335397931
-0.06560461686313673
-0.1435234423545823
-0.02723852079971968
0.1016913671813126
0.06086163860888596
0.060982322061499714
0.1020007892711344
-0.02688566619618617
-0.14332675608259984
-0.06575418089370405
-0.00775317121531046
0.0249990175295822
0.03456167406735834
0.028141585307127015
0.014613962393467558
0.001537683082086447
-0.006563700441999782
-0.008540643957063655
-0.005908282675514144
-0.0015915788112002124
0.001415971899183506
0.0011613851151332487
-0.0025753684636177394
-0.008110469383469772
-0.012274031124879821
-0.011432672178660019
-0.0030116909407006884
0.012796839047196114
0.031696616511618404
0.045030384936262595
0.041220409191619616
0.009064806873069013
-0.05775262283815338
-0.15647630456665093
-0.07344685421366938
0.013807321276510036
0.13054511700091945
0.09684908420924686
0.12096892563386863
-0.0031566720766328517
-0.09322280097398501
-0.17217231240857556
-0.061208292773468925
0.024709171305217124
0.0774707131777163
0.09339308432292154
0.07012363656793358
0.0052027650037614614
-0.10272405331946967
-0.05080654514040267
-0.02893611974447444
-0.0186892266027945
0.004763258676548553
0.06812034690379809
-0.005877618475955894
-0.0038599834305110578
0.07468348249861592
0.016786233783971295
-0.001450776934981114
-0.009609401837174285
-0.03622373497992264
-0.10235696824527327
-0.01733784700969386
0.02207387494835258
0.028930086524674874
0.02076827427159541
0.013460775688984225
0.0160150965599583
0.027650558286967556
0.037865074855555736
0.0295737763562136
-0.01528824292304292
-0.10906846886803495
-0.05260638380534226
-0.032444892639657844
-0.022397363549071594
0.010585469452013038
0.09781945914862883
0.06018460256069519
0.10216505224822182
0.010728926428055766
-0.04044323596677269
-0.08278571412636099
-0.14362504152102806
-0.03919837591623948
0.027755914580641156
0.06545758613332166
0.08725706185159739
0.1053294608528015
-0.07353907386037101
-0.04887034041747067
-0.02459637339623741
-0.005890941668815
0.0036882835916055815
0.0038269568286384854
-0.002351735061335888
-0.009312715448378653
-0.010998248626192805
-0.003173604170465569
0.014271075494618781
0.03571170788523485
0.04961687978559158
0.04041229412742146
-0.007530495521165462
-0.1045478167889204
-0.05061784053769415
-0.03257798762945645
-0.025116885799338975
0.004223840030819645
0.0872476906172282
0.046778869012647106
0.09042695977995834
0.008505132400564339
-0.023142531698021586
-0.036280789449316085
-0.061618778712707496
-0.12116080859632537
-0.02403277658635021
0.03297525278095051
0.06064369663648907
0.07044131262763621
0.06841726950229012
0.05238340730643348
0.013574580611627524
-0.05780091585415181
-0.16536942543294383
-0.10096569159182771
-0.043495657536423454
0.03647662010994298
0.1677105291902261
0.1683278169368694
0.03909881709515907
-0.03711363865366034
-0.0895424299032684
-0.14986436924149688
-0.04263888466377504
0.02070916063396687
0.04278524763101432
0.03659400242938374
0.019399328905498003
0.0063793441866338285
0.005841478070435356
0.016969896209249227
0.030403450845256193
0.031444522092803684
0.005237821605622327
-0.05729620469432167
-0.15456231628918396
-0.0724410579132579
0.013113395858168854
0.12924746254690575
0.09737968001422302
0.1258356710367545
0.0070314711195650845
-0.07962576060679075
-0.1604529905116953
-0.05898754146836434
0.010333462730769814
0.044305527650154206
0.049006789471298315
0.03547441499439366
0.015156018628807374
-0.003278133272746862
-0.015163724364548143
-0.019397641439329878
-0.017104374293913087
-0.010262604969280314
-0.0008769338215884272
0.009139575584232049
0.017606066027800644
0.021715843153118503
0.018167454340521756
0.0040366331035452604
-0.021777271254515222
-0.05715065170198636
-0.09626515472298817
0.06922873581437872
0.04744091710685035
0.04287938520105014
0.054119099503297574
0.07386886417192351
-0.10824444664632119
-0.10121044693687471
-0.10854001781386263
0.07338708192507391
0.05365056758765831
0.042669734978701856
0.04770867970613177
0.07006832478936352
-0.09498040808890437
-0.05582257535467627
-0.021042616445474532
0.0034786292850482255
0.015855430389524423
0.01778412454476524
0.013058688534337164
0.005856945869047791
-0.0005583086402251977
-0.004439549774339737
-0.005500635574271809
-0.004449031125226193
-0.00239185234939784
-0.0003416027624330703
0.0010639629565565958
0.0016209527442936377
0.0014615256223738389
0.0008884991650626943
0.00021974566256705784
-0.00031232281685971845
-0.0005957438197816696
-0.0006236041676503682
-0.00045463624768131823
-0.00017422068283654604
0.00013014242793992718
0.0003774954447463918
0.0004945363992824815
0.0004209638786170981
0.00012715582186066207
-0.0003570079208867713
-0.0009146744299362471
-0.0013367356432697722
-0.001359809451858349
-0.0007571359420866111
0.0005309367327346398
0.002269282854746703
0.0038696274276404474
0.004472358929100816
0.0032108924535061583
-0.0003652008296206279
-0.005824890531923081
-0.011554035226539524
-0.014863144454842454
-0.012693357616910046
-0.002928543973703846
0.013964558417689938
0.03355528369102483
0.04710532309329635
0.04295102773798113
0.009817267265474036
-0.05857672531138786
-0.1592024265181428
-0.07781024919913228
0.008919965147195553
0.12710001790747347
0.09723963410821071
0.1271065526973355
0.008932409995202867
-0.07779377846580411
-0.15918587151327254
-0.05856628483633368
0.009814259594652881
0.04292883671909516
0.047063666368876135
0.03350290892960158
0.013920470816186803
-0.0029382742098766515
-0.012644240166954689
-0.014745259315661466
-0.011385448875666997
-0.005659087259281329
-0.0002853579398299219
0.003115617970086496
0.004147287926072413
0.0033415316755641814
0.001680494747423554
0.00013631303063074896
-0.0006504558837028558
-0.0005133450602788922
0.00026210874869591613
0.0010862490538877275
0.001295370706866047
0.0004186036143733457
-0.0015740911636774218
-0.004117012050946185
-0.006074079009215645
-0.00601747689210272
-0.0027725927042613566
0.003865820495361382
0.012472538066489045
0.019712259633681103
0.020765635725260925
0.010619664037518508
-0.013957210293674945
-0.05236535225828215
-0.09898644272543179
0.05625600070354051
0.025304728444420152
0.01801884959689309
0.03829644210879795
0.0818061462784088
-0.0636823063466699
-0.015289220622273267
0.009816828529613096
-0.0003391562826443037
-0.04842174881379845
-0.12607180029078863
-0.015422050519835577
0.1061502030121605
0.05925417785918323
0.0560186457251833
0.09641039316806878
-0.03120777693638274
-0.14557133623109472
-0.06600053473043152
-0.0065681823804583095
0.02694016842768094
0.03669648968826483
0.030056756270546096
0.015962870399762942
0.001951620514758508
-0.007464612370694762
-0.010986620654297952
-0.00970606955330721
-0.005864706527994194
-0.0017112984567773744
0.001236778892427638
0.0024472114496476706
0.002229140291645948
0.0013602730917679567
0.0006578040895571728
0.0006271120537366217
0.001270139718372922
0.0020889614439273496
0.002282130461324762
0.0010943580680320712
-0.0017638386078410579
-0.005758355831625619
-0.009402765064849694
-0.010518093778242145
-0.006960220124091032
0.0022694113048640227
0.01583253640056464
0.029283485313666875
0.03528721268417158
0.025217772678577787
-0.00794034577346896
-0.06614839834290696
-0.14371994868665688
-0.02712305769120482
0.10198956861852247
0.061178097966072605
0.06116875850746202
0.10196418788438213
-0.027156691648287507
-0.1437496034971993
-0.06615946381623293
-0.007919918305871791
0.025274958408778553
0.03537253024316142
0.02937073090192161
0.01588031673604389
0.0022322195298940983
-0.007112430426792727
-0.010776420505810591
-0.009701230210603486
-0.0059732279006573154
-0.0017409435491808933
0.0014814781732336876
0.0030539186451483645
0.0030882839104158944
0.0021366379480933675
0.0008567624629010181
-0.00023222176687044438
-0.0008610767657308207
-0.0010027845340949931
-0.0007920941239373245
-0.0004241295597751631
-7.13851959294024e-05
0.0001617490603589538
0.000246527705138979
0.00021103036891950027
0.00011052948153568936
2.5602816549309616e-07
-8.182198578406484e-05
-0.00012050947250116944
-0.00011975799397824308
-9.438300148880795e-05
-6.14162371864899e-05
-3.393131072451996e-05
-1.837709597340824e-05
-1.498708865899572e-05
-2.003157113850977e-05
-2.8544601377352545e-05
-3.6486039736666996e-05
-4.182296341881305e-05
-4.4511701811976746e-05
-4.57035245905531e-05
-4.665050867041174e-05
-4.7781816052676655e-05
-4.830432952364e-05
-4.649790910867367e-05
-4.065251365485596e-05
-3.0357243935079416e-05
-1.7641659219984863e-05
-7.357452149321935e-06
-6.262841685586918e-06
-2.0605665979634562e-05
-5.259615515595019e-05
-9.689552258614122e-05
-0.00013885763249019524
-0.00015638419143909813
-0.0001265469100889805
-3.645576487757866e-05
0.00010453137701909766
0.0002564984320549451
0.00035091321052441556
0.0003078069159176232
6.856092176979588e-05
-0.0003628029641383732
-0.0008852423994818927
-0.0012941751920203391
-0.001322197111148172
-0.0007343746867692015
0.0005371948289546369
0.002263115973548521
0.0038574701561882294
0.004460144046445625
0.0032024100887982705
-0.00036866786190283414
-0.005824021972217225
-0.011550538532004367
-0.014858878357647317
-0.012689770081178317
-0.00292647134761459
0.013964834771677336
0.03355388530747973
0.04710266005105436
0.04294777100337726
0.009814361071663072
-0.058578121480678876
-0.1592011771287475
-0.0778056997514832
0.008927409000773382
0.1271084311669364
0.09724556709174488
0.12710577854506697
0.00892151300548056
-0.07781526357195338
-0.1592135098171045
-0.05859006267657531
0.009808259065694831
0.04295385609396529
0.047125363449002436
0.03359216546896035
0.014009304544502825
-0.002893875095103311
-0.01269193638621646
-0.01491499304105409
-0.011664403351648808
-0.005973182635054201
-0.0005001972034273225
0.003163528902055986
0.004586859056967679
0.004183487551474447
0.0027434885028870585
0.0010248018124097969
-0.00047563871119889813
-0.0015527193935084068
-0.0021843963535901996
-0.002379450866775192
-0.0020753146932402954
-0.001145105608871921
0.0004806748764164532
0.0026303253517599777
0.00474319071547137
0.005871997096844656
0.004920446330709427
0.0011216619886073274
-0.005356407090967796
-0.012918518266251155
-0.018480592761197463
-0.018124977902597973
-0.00857118297951958
0.01077685170958396
0.03585285355370292
0.05698005428097943
0.059926539149697054
0.029474735058649178
-0.04495074178205051
-0.16327997439442118
-0.11102819482903717
-0.06027975737058896
0.023548504053873254
0.17063825691238058
0.19523201832139722
0.08840579595457375
0.018741983514818726
-0.05849313891308322
-0.18655604666318135
-0.192160755002328
-0.07586035562325429
-0.011696598795631478
0.04351865246884208
0.134576085092633
0.29164162226421464
0.11958875849576152
-0.002839234728012108
-0.11352916926061593
-0.250933665073203
-0.2381028303086512
-0.07352568735762591
0.0674265943515182
0.2213066003685316
0.22072397658334686
0.08069668746237431
-0.0072602163632695185
-0.07146003883524837
-0.1489744337228798
-0.07196834484829664
-0.05664197542620722
-0.09848354782883645
0.024964772934753632
0.14522582599314543
0.09131395206196498
0.07976868068833867
0.10992823854792512
-0.033972191398891655
-0.17496181193232868
-0.13314349882107132
-0.11752468208119085
0.07668723623448333
0.06441630036445055
0.06261933680390369
0.08144600978919939
0.11837550088588439
-0.0423156217057053
-0.024460315321729945
-0.05106515318459789
-0.1347556020703587
-0.07114626209593122
-0.0377751318298533
0.0006137931138307103
0.08190903648585622
0.23497282205215406
0.07067966967964065
-0.020963664620733284
-0.06658326961811002
-0.09996480708708817
-0.15125424282637898
-0.03898830702084223
0.03237987199087052
0.06924625553114133
0.08203146825801853
0.07813455467495926
0.05780326610063081
0.014627223034739659
-0.059642821869619014
-0.16813877086586282
-0.1030911804960307
-0.04431139345784711
0.03666074543717124
0.1679158548811766
0.16745660343232852
0.03655132457546591
-0.04095145651808832
-0.09313746899437327
-0.1508567377986317
-0.03869128394670773
0.03067142280349064
0.05731670630291321
0.05103303368464629
0.026372919845804275
-0.002055789654129759
-0.022827265288470528
-0.02926591600948381
-0.01983312431739083
0.0020547979648734044
0.028493698334340598
0.048043157455422314
0.047647889079625555
0.01584324547933664
-0.05311240481968038
-0.1554511848023839
-0.07633785508777698
0.007895549364759178
0.1236158376230362
0.09172968801554535
0.12068972735516802
0.0036090744312407834
-0.07932839362950843
-0.15432007155696992
-0.046124259351876584
0.027983163634102054
0.06076135122836697
0.054257764648544995
0.017222130189618712
-0.03779129588220651
-0.0968939244042528
0.053007007479704764
0.02211342666518895
0.01579239223798753
0.03341619548107127
0.06868869621697203
-0.08831323514892203
-0.04790776587880876
-0.017550355607634502
0.00016897669566027222
0.007539966593096027
0.00989298134451298
0.012722029412876503
0.018848861646876956
0.02662364424709773
0.029856525065287007
0.019713649886936267
-0.0117915855010139
-0.0677563040158704
-0.14337569290578175
-0.025571008446690198
0.10394532736528338
0.06291455659893837
0.0623140003746923
0.10235159257650078
-0.027565387403207926
-0.14490100910815634
-0.06787726104370406
-0.009832225505336405
0.023779590438303515
0.035077397165958174
0.030997772114575106
0.019709290358506236
0.007687117660978196
-0.0017071191575342554
-0.0080353522340366
-0.01244885598545064
-0.0159723268116114
-0.018195061644242047
-0.016965369998590298
-0.009333186457661182
0.006461138722298414
0.028613979793474777
0.050013194447351514
0.05820941440142759
0.037843781221475165
-0.02455634460775532
-0.13464391528135305
-0.08540475060710333
-0.055827400561751776
-0.014537295854062202
0.07209634402580763
0.22992973725149318
0.06881846448819533
-0.020495047776005346
-0.06311358319114409
-0.09178870847232101
-0.13720607089758843
-0.020436792725139305
0.05010384111053384
0.07702572104910692
0.06944105335264526
0.03815434184342243
-0.007362595719472315
-0.059540212407333745
-0.11159968617305498
0.04369800621052167
0.014130872986154239
0.006576945420440707
0.0247116702871593
0.066946492302861
-0.07445538612113038
-0.012669719251549798
0.03586872858008173
0.054715847557215
0.031327955661011965
-0.03887543499525664
-0.14927104394030927
-0.08112974273376208
-0.006455424999239588
0.10524114252626689
0.07791143834814429
0.12078557602626952
0.024187327069114233
-0.03891831669548429
-0.10607291345923985
-0.015464238928333734
0.0038735424191738703
-0.06081572484702617
-0.00304320381521335
0.001407410664421835
-0.010938350123060998
0.0007108342395166225
0.07250085930357875
0.028125983783987535
0.0739607505931521
-0.0016379728989095721
-0.024674694638262558
-0.028543311463172683
-0.045738325756260634
-0.10059076448125265
-0.004981567763621665
0.04202988732659498
0.05106675030733859
0.03733849209867773
0.015564181534883946
-0.003541452894091995
-0.014599149485818615
-0.016982673497647392
-0.013113252998521143
-0.006511437248275718
-0.0002639212720275585
0.003790979397281433
0.00518060805175466
0.004442965260115913
0.0025859047590983003
0.0005982753680597284
-0.0008532900959171295
-0.0015153141087216368
-0.0014754236723206863
-0.0010093109287875083
-0.0004240261508735342
5.192224743396848e-05
0.0003137620379532955
0.0003692905093610885
0.0002940346603489147
0.0001780548574348559
8.424785412001633e-05
2.8971970813206007e-05
-1.3210920166780436e-05
-8.599474110397934e-05
-0.000219004097156248
-0.0003990892778870563
-0.0005576664239840328
-0.0005836096377904681
-0.00036460435785706037
0.00015043112364073998
0.0008875388079394742
0.0016124600969584563
0.001956213882649283
0.0015224994383134178
7.026663441625366e-05
-0.002275432791078258
-0.004871840909788806
-0.006575190330812926
-0.006015672029471504
-0.0021470329274665806
0.005035951265803021
0.01385894266333674
0.020752327233067292
0.02078301645385169
0.009066042210024603
-0.0171778449704685
-0.05659713182268759
-0.10270920953959704
0.055183419115210026
0.028951519697383903
0.027309250295120723
0.051848776317124576
0.0951785765948241
-0.05777435769090375
-0.025392381241747343
-0.023236980245103317
-0.05827199754177405
-0.12559289029942827
-0.0090888468885801
0.11384990404717811
0.06505237569828752
0.05839228166044834
0.09548849930878338
-0.034126327090946616
-0.1486571471254376
-0.06752831024028823
-0.005460127623616168
0.030715468706838396
0.041939436576469036
0.03447140907817095
0.016717092150430282
-0.0033137521912829713
-0.01933707248459094
-0.027098349473590824
-0.024278667622565815
-0.01063113475340638
0.01139869635690619
0.0358643798162956
0.05307700659774034
0.050796290354039465
0.017320706622977636
-0.053941292627536414
-0.15991546771671566
-0.08552813616803538
-0.005511177738310528
0.10925308526868495
0.08258849136862718
0.12440432341791488
0.025993653842050067
-0.03883095815121333
-0.10710549210303538
-0.01688599923336398
0.002647825511371438
-0.06153544295096243
-0.0032182902175120335
0.0016314986902628422
-0.010531918284949836
0.0011051385542926383
0.07276347261167468
0.028222379658001347
0.07392151473158412
-0.0017500374030077097
-0.02479567738055774
-0.028628770388182283
-0.045770979104131006
-0.10057757835370375
-0.004944617204880243
0.042064449117157024
0.05107848273763583
0.037319446089847545
0.015521798245943075
-0.0035858164677653004
-0.014616339491698766
-0.01694616561438295
-0.013012199565768448
-0.006362694365537196
-0.0001176094581075736
0.0038582598242932983
0.0050885954952790465
0.004144863483742769
0.0021101921372098146
7.766071706751958e-05
-0.001187261563636754
-0.0013891907671165307
-0.0006841838888191785
0.0004432134554718962
0.0013582898624696729
0.0014788124521384618
0.00047975725057762504
-0.0015313345158897494
-0.003922021459571305
-0.005596964427651404
-0.005275862338150812
-0.001994498088304372
0.004262865628120849
0.012008778380387173
0.01806815260072664
0.018041369305446267
0.007526937953477947
-0.016100674071709894
-0.05194575956694629
-0.09472890964781881
0.06445365669909046
0.03563657084908904
0.026557390685320002
0.03972053689045931
0.07128375215475437
-0.08766151267015233
-0.047879273709789893
-0.018160021745944888
-0.002424355856129694
0.0011846251336395032
-0.0009680527864643488
-0.0009111297975851679
0.007329031949755437
0.024479706287903472
0.04416763613172743
0.053326201154500964
0.03529322129726353
-0.024757165073439537
-0.13343774363684013
-0.08409667095981875
-0.05549236816125662
-0.015582146211789188
0.07012304077856842
0.22823022950974914
0.06893477052603991
-0.01733789908711925
-0.0567589266554981
-0.08373739293685917
-0.13071500575730513
-0.019825968396694288
0.04105556074270877
0.057373564385368045
0.04340370180745673
0.016472119909594136
-0.00811148721891608
-0.02032274624351737
-0.01675834002133259
-0.00044405648164489554
0.020418579017703054
0.03451870294388294
0.030253466235476967
-0.0008619139885231971
-0.06078283740102476
-0.14266624503292658
-0.031097191714838622
0.09442925549212573
0.053402495525131266
0.05765741478922697
0.10684903933687695
-0.012038140931181714
-0.12083594704729901
-0.04341306059838028
0.0015497613113360233
0.005834031029138669
-0.02639657938679758
-0.08028429995865051
0.06500243814576108
0.02969659524800028
0.026728174663619597
0.0568830512086683
0.10752848373417222
-0.044283256350880255
-0.024827636924793103
-0.054733771629371014
-0.14091649763676914
-0.0723878271681906
-0.02188657255846902
0.04667060803872526
0.1671479409979679
0.16042318750008297
0.02792966841362403
-0.04805565140404739
-0.09770840850706
-0.15346940271548906
-0.040458928935036914
0.029164204419569788
0.0566337436256041
0.05278155301537739
0.0323480743751873
0.008780760213868519
-0.008974973466287353
-0.017328605892863808
-0.01705870824887225
-0.011411061088334042
-0.0041678328728782105
0.001729949165104581
0.004802073573546131
0.004988734331895178
0.0032057542084675387
0.0007686148672157239
-0.0011151026169181199
-0.0016874176479328884
-0.0007997718381686019
0.001086754997922988
0.0030380168933818127
0.00391032122815616
0.002728859467023501
-0.0008665844305140679
-0.006221975395258337
-0.011496269858216904
-0.013919319480052055
-0.010615229655447677
5.809075235520824e-05
0.01697585493066316
0.03511680060301771
0.04556822382669675
0.037239347011883486
0.00031979226919393955
-0.06933093998797304
-0.16654724978523086
-0.07602594928701402
0.024324556523608473
0.1562781665003632
0.1330097679845901
0.15341103905758377
0.002037444961391272
-0.14481328833338428
-0.30951627813893257
-0.10466197360288541
0.07011229707645958
0.22481828780368235
0.17191786531767264
0.11989585654197038
-0.12865624979471674
-0.17392456523255945
-0.21355261534659362
-0.039305670612487284
0.1615164850781324
0.20038167970495196
0.08088080999215694
-0.0048812339742141525
-0.07473890245158797
-0.15059277000929613
-0.05118377965908957
0.013229919273636495
0.04242771446029934
0.04414932429207164
0.029981107038829863
0.011159907650603103
-0.004298757049623042
-0.012639675505062627
-0.0138374392512325
-0.010175170403472752
-0.004659373619503995
0.000202917260966107
0.0030320803428915276
0.003634898797955418
0.002675941327238932
0.0011862320975279449
9.733384329336576e-05
-8.26256820640699e-05
0.0005969852747854721
0.0015860776349416374
0.0020553948043927858
0.0012364712743959583
-0.0011933593387830736
-0.004790235946612791
-0.008227485153367225
-0.009522024465378597
-0.0066777415776419664
0.001318853029642539
0.013408175894119327
0.0257116236553135
0.03164071716540209
0.023230510967631828
-0.006338087210896608
-0.05966452372322555
-0.13270692558760824
-0.014357141751955287
0.11127498842680139
0.06045688185125096
0.04510668160655921
0.0697635077706147
-0.06871253506515543
-0.17925534052742617
-0.07429681706099744
0.031096723672898022
0.11815245670020798
0.16289140960103576
0.13695919712617313
0.01294709005548099
-0.22603085453977279
-0.17574192795612834
-0.20431935407198662
-0.05428749922737838
0.1456024675036124
0.2617875897344341
0.13696830923930095
0.17789811202195444
-0.04550308589102052
-0.18948226253109815
-0.11832061686025953
-0.0852679611328812
-0.1188458365538528
-0.01840536046694196
0.04050424650943413
0.09348493867982137
0.1719891831247811
0.09063575912465018
0.04135203459139739
-0.0039028161563937134
-0.08309433108578729
-0.23052156250905406
-0.0645849386591977
0.018868976443882447
0.04570503549654843
0.05611242523112499
0.09372012725645375
-0.005174677890556492
-0.01942954088512605
0.05350344979692613
-0.0013702532825535308
-0.011834205007871315
-0.01133465200816635
-0.031157483377019526
-0.0937206782066881
-0.008568013743445572
0.028031616392966814
0.030009529813072172
0.01608958764957444
0.0037203896142091538
0.00392423265654962
0.018178306222173597
0.037954012999488626
0.04712949323499734
0.027031232840357283
-0.03680890076807656
-0.14793887188417815
-0.0947155419487835
-0.05072286028420241
0.019209042347812958
0.1486655220607546
0.15833697919118492
0.047915906731136174
-0.005585229895173021
-0.04227799362803283
-0.10846193883606443
-0.0439167578820997
-0.0712938475673152
0.00956116330458253
0.021252886589912624
0.003068626226385291
0.0016202815038889181
0.06022692632943903
0.009333816035823346
0.05989336448301332
0.001011287829857934
0.002317335522784334
0.02058228109723831
0.009267663985805093
-0.07091256059138
-0.04269247205021352
-0.10651345180828456
-0.040127870368654554
-0.004148030898629418
0.04754787708188363
0.15532493464424552
0.14298570533905094
0.012140494392502678
-0.056473408228597075
-0.09553464448576489
-0.1406110531718864
-0.02045255193557073
0.04892277842642
0.0653871242253501
0.03809866048283754
-0.016934506598407034
-0.08144503802529339
0.06120520903580235
0.02311353621426901
0.010112974458314685
0.021550799602930187
0.05170493523473896
-0.10754178700423019
-0.06374434149170306
-0.02193969127394884
0.015346274339313444
0.04615286258994904
0.06636736765337574
0.06801541212594878
0.04005334068745379
-0.027933758911069504
-0.14021521559927985
-0.08992432647125455
-0.0572623174503161
-0.012563309773179604
0.0761380696022989
0.23353720016799676
0.06920349668106014
-0.02529231263479249
-0.07309901390111027
-0.10424296307662739
-0.14673334089694065
-0.020254286617322592
0.06549204772213202
0.10814409918097061
0.10815659479700972
0.06549542563696882
-0.020344103355726804
-0.14700120296487038
-0.1047105412012695
-0.07367088909189362
-0.025740691111334982
0.06919170598633777
0.2342437492500169
0.07764803810018697
-0.010520973493666042
-0.055386821327891106
-0.08924251071664849
-0.14175851366744338
-0.03222183300619083
0.03358316542601031
0.061389092298829294
0.06297622263000242
0.04995662048817636
0.02936890329375206
0.0024948299852696897
-0.03318225800905396
-0.08024381837868541
-0.13788744529060537
-0.0006474664670292685
0.13996230085933517
0.0918250038772787
0.05884218850701689
0.039944872046557625
-0.16887360887429279
-0.17085421502296413
0.03440473112628428
0.05101323522129916
0.08394307908597816
0.13510145701430137
0.0008045301260349582
-0.12783521569436215
-0.06191680738406542
-0.010911300273006595
0.020085512351090847
0.031058632036218045
0.026038974321473476
0.011305802992514227
-0.006270580589907631
-0.02035035240504727
-0.0258428201262548
-0.019619970358240632
-0.0015208250551766009
0.024454241370892804
0.04934379712503435
0.0596986465536704
0.04005980481454969
-0.022521957619074454
-0.13297630284884243
-0.08376708379917251
-0.05381501882135237
-0.012167020733094776
0.07408983874850221
0.23016954984394836
0.06580278747659395
-0.02752659961482596
-0.07324531748049869
-0.1018641811906014
-0.14211953667277658
-0.014626054326127291
0.06998473635332757
0.10881810073699462
0.10269444905130158
0.05325598259100909
-0.036960711815731365
-0.16172088461271755
-0.10772174636209438
-0.05351323010326634
0.027458980047884034
0.16010619409708876
0.15988442915892878
0.02745215205736362
-0.05168542834711009
-0.10244388192609956
-0.15266198347227852
-0.0262210374203017
0.0606376616478788
0.0992714703424313
0.08637903308754956
0.021872169703617085
-0.09148604537358282
-0.0466510160897811
-0.03044083697882999
-0.022984498421110777
0.00048508642674244463
0.06560207354367072
-0.006320931579461869
-0.0031287770169830214
0.0750828098560473
0.015525251977121129
-0.0047963605677320935
-0.014116920154864113
-0.03966179193344502
-0.10182584662726223
-0.010478894134230775
0.03556735062331369
0.046033150076857716
0.03479901725050142
0.01540869051582703
-0.002131493096668834
-0.012633522448444628
-0.015275696751861169
-0.012100464235704819
-0.006252205069703129
-0.0005608748853603554
0.003235899548833491
0.004635717394604357
0.004073517445111548
0.0024401031615026345
0.0006355322756207299
-0.0007159511241201179
-0.0013599145496316694
-0.0013556286074553872
-0.0009425726859233793
-0.0003996735885946295
5.611473935325002e-05
0.0003146856128441817
0.00036786658812950517
0.0002745279137836431
0.00011759915050358065
-3.063104754381392e-05
-0.00012715166798020705
-0.00016088764966947178
-0.00014441645582481097
-0.0001013438070221127
-5.4872367660582994e-05
-2.069695578763596e-05
-4.862842382706635e-06
-5.441973312658766e-06
-1.6106650649425923e-05
-2.978321365084808e-05
-4.119705659151899e-05
-4.789070357707406e-05
-4.9923341939019935e-05
-4.880718141102671e-05
-4.630066000919665e-05
-4.353989810390389e-05
-4.075189829801192e-05
-3.7544534684712296e-05
-3.3566926162370656e-05
-2.9209859388741283e-05
-2.59859003566762e-05
-2.630431486185243e-05
-3.2541485411858955e-05
-4.5586408939064286e-05
-6.335638932590776e-05
-8.002423998827222e-05
-8.673414376162504e-05
-7.42782472732041e-05
-3.7511770587843786e-05
1.9689761738958383e-05
8.107257647552611e-05
0.0001188276126190329
0.00010060527214093438
2.846262030320035e-06
-0.00017248521057156957
-0.00038404271564047463
-0.0005486117611380201
-0.0005578191531289635
-0.0003169374683195977
0.0002005238571525703
0.0009001947925441273
0.0015432841090836434
0.0017805913410557093
0.0012607853922331827
-0.00019726509045783072
-0.002415849197263482
-0.004737057778352852
-0.006067966893800553
-0.005167805858322704
-0.0011784329067941008
0.005717163986959735
0.013749191622845682
0.01944608348859707
0.01822999377354665
0.005802207479189081
-0.019954650423963903
-0.057234854857933795
-0.09965562725034241
0.06255027709409078
0.03946189416930326
0.03751010828747319
0.05633145085561379
0.088031020852131
-0.08045801260372867
-0.06255457991109632
-0.06658698951790477
-0.09204592808041258
0.0707455432242441
0.03726774511678313
0.02302130365837017
0.03750032103763262
0.0800379909118413
-0.0611450408832019
-0.006443996816998553
0.020304378456370356
-0.0017530236250751783
-0.0844344136234342
-0.026356794061197196
-0.011836616294185967
-0.013400960512251956
0.002473276561880976
0.0676948229723954
0.004865417187394271
0.021569696397849895
0.10828372814411068
0.04077131129551506
-0.013236697066562872
-0.08461512640776388
-0.19351128253644295
-0.14354855924245208
0.07781660222331686
0.09249905129234433
0.12114834716130413
0.17315964908565104
0.041657846358563795
-0.09433887526847955
-0.06142012589413841
-0.08041481074066817
-0.1567405644817447
-0.07639130122784639
-0.009444284276096039
0.079777962189867
0.21943665779141558
0.21899124410948678
0.06499496899698283
-0.07377427598655496
-0.2334770616290565
-0.2399230579853224
-0.09743817049919024
0.013255193514919498
0.1273383247812205
0.2819147084500414
0.10184913158986574
-0.008799793460548308
-0.06687366564625742
-0.10271158002484677
-0.14910498924604593
-0.031231968894765552
0.03905785857847055
0.06358715013884164
0.0540528791896599
0.02649855722283466
-0.003682233318359838
-0.024967626928644904
-0.031054003176805012
-0.02094456276444958
0.0014954445913836734
0.02816382097116342
0.04770264909390584
0.04733391392172683
0.015901648755710967
-0.05218281923795171
-0.1533021553854447
-0.07311969687953788
0.01129421027710636
0.12560226388013335
0.0904325760649611
0.11477057082919112
-0.006731606553124318
-0.09153929090617291
-0.16339692832319802
-0.045685060250964735
0.04327268037610549
0.09177598482927139
0.09403005566879487
0.04910965348971095
-0.038837979208804795
-0.1591285630179357
-0.09337082346725052
-0.016667798737982843
0.09774129286973852
0.07130785746973067
0.11306197197745042
0.015491201804521001
-0.04480692903126433
-0.10182990250081318
0.007992319058615624
0.05443784564278712
0.0206502395990641
-0.09238163882542953
-0.0648023047931127
-0.06099160356817221
-0.03700199565359976
0.04862423463038302
0.2231681966964388
0.09081756174328053
0.030010164697132614
-0.001248170922531745
-0.05318886946510365
-0.1689050191738061
-0.17082228344503894
-0.0536525631629461
0.013601721817539554
0.07717746808020971
0.18326773382749664
0.16330715237745166
0.024890078894848983
-0.048865603893591285
-0.09196330782888383
-0.14350098352811333
-0.03555533872550254
0.015103535671516684
0.009520192570107895
-0.03646126209321715
0.10107589721904421
0.046159282762789494
0.016150699065963156
0.017942549270443767
0.047844098336901585
-0.1053251774003356
-0.05537693423164617
-0.014007590542950407
0.012239170061022611
0.02262101843540832
0.02083326422452321
0.012645609663897502
0.0035904442456680887
-0.0026046690073428433
-0.004606513479784181
-0.0032101339046698755
-0.0005190483791957868
0.0010988509901720775
2.641520678943216e-06
-0.0039971995745656606
-0.009354196507951705
-0.013080351103509202
-0.011687494817348194
-0.00269021822654268
0.013654403444608025
0.03295939626878005
0.0464224729751049
0.04229002245941196
0.009237517177423011
-0.058998788340250914
-0.15932947848214268
-0.0774604263794548
0.009885098615022144
0.12864004972660006
0.09901140571543639
0.12843154294637393
0.008927859809742526
-0.07989265446987555
-0.16356673424838233
-0.0643970187919329
0.004578264315391767
0.04124192811560887
0.05184508628149004
0.04612646471966935
0.03252220964231819
0.015334042814184892
-0.0053955540254465905
-0.03172574372667958
-0.06467711519863711
-0.10176175209567827
0.06347600517659142
0.03952436848381065
0.03341579568241638
0.047356118433422925
0.07710568408630128
-0.08708024549470152
-0.057326972927145954
-0.04421132295219336
-0.053716463354510094
0.11384959089380185
0.06304901493031603
0.001617176871879303
