0
-0.0028842324440133404
-0.07816242809180003
-0.1734175815653503
-0.10185094767300962
-0.06579110841649949
0.1415837080235495
0.13039685095293418
0.10742177373387342
0.07236315585158597
0.019217580926869114
-0.25788864907213743
-0.15753312758687882
-0.06668151245095516
0.03781473714435683
0.1819497843443279
0.1847109989927981
0.05029252090592873
-0.033988564827353726
-0.09327214735030949
-0.15646305941605315
-0.047157384164787625
0.022281388629838028
0.05185905473382529
0.05091424317560535
0.03298712717732627
0.010878961922984764
-0.006561755526508856
-0.015460379162631134
-0.016147619233650084
-0.011439301150843916
-0.004813031545196994
0.0009334079570768267
0.004311761250881339
0.0051308834790702125
0.00408258776046844
0.002200983892369437
0.00040844103248597924
-0.0007428133878299161
-0.0011229176015041258
-0.0009247910990442042
-0.0004918505775354364
-0.00014542724549165462
-6.126845173081829e-05
-0.00021882844712532907
-0.0004263493340518012
-0.00041005528865791993
5.584133720784113e-05
0.001013177747418285
0.00222370648651432
0.0031633346272784317
0.0031469439849553605
0.0015907857407815337
-0.0016371006614578315
-0.0058956611527287575
-0.009648539172531072
-0.010712816283523647
-0.006972076385798972
0.0025214171825757112
0.016357422328121114
0.029999154107784653
0.03601326980496496
0.02569716175741675
-0.0079759665584003
-0.06686870658310713
-0.14506522982565778
-0.028703938669215903
0.1008934680219908
0.06146002673922665
0.06356018363574457
0.10658458862103684
-0.021211167477639275
-0.13855274935382317
-0.06460979120432322
-0.01278699677976547
0.012796403430878735
0.017172704077068935
0.011286676380408658
0.007094287977721082
0.012621364917020688
0.028376562542951324
0.04614834539753144
0.05076984125656229
0.024810862209473355
-0.04472902026214443
-0.159674802723933
-0.10654207258523632
-0.05745475785550812
0.022975263469693114
0.1663551463963475
0.18864989757253015
0.08250353338296902
0.01733412469742182
-0.05209275488735777
-0.17127224121591483
-0.17077829505595304
-0.05573032711609653
-0.0036644248303048434
0.02850661904169144
0.09095522283751306
0.22546346952675067
0.05309951121751748
-0.03116417412889315
-0.05571201425383676
-0.06312318192417751
-0.09816819056365252
0.003185243643649624
0.020966471143672994
-0.04656951422624278
0.014619192370553792
0.028489729818871837
0.021296908494120727
0.014050442981990457
0.016716199861053455
0.025409102247748644
0.02325465295254659
-0.01500414357910437
0.08482564205463637
0.10631089195638807
-0.14745365389996182
-0.24624022585676225
-0.13111342368735504
-0.1218250415457795
0.06642822238820041
0.30044192264807745
0.40771456626665137
0.16454296075283975
-0.10105302515908719
-0.2918896084411927
-0.3161645016742328
-0.2637848344266058
0.007130693240423189
0.27049021106774296
0.3225448430500278
0.16988014721048664
0.022684388952849063
-0.10307906443385323
-0.1765101905056579
-0.34175026163080413
-0.1143098395726217
0.011368857312395366
0.1429449217903108
0.16474838197572883
0.31413766564124795
0.1680727467971147
0.04536136739259167
-0.17506414092666966
-0.2249751202048325
-0.2157313286602707
-0.21476601046652433
-0.03638835592107022
0.1514589502398858
0.20828148217616058
0.1975663859667219
0.16719436905478147
-0.06020796105279319
-0.08529333611775926
-0.12119541923921032
-0.17954208463250282
-0.05926366934971468
0.057700523135050835
0.0027614985183612994
0.011021119916479721
0.10935592421181999
0.10649671823776666
0.18874825491824318
0.12342856551761627
-0.33045474495730354
-0.20789321979155817
-0.12579018526743568
-0.07866237493448226
-0.044485289368848165
0.4015863656208865
0.2717082046295073
0.15535319178896023
-0.18010390679477356
-0.17814840832878043
-0.27630453924300435
-0.09122334213440318
-0.011728654049614408
0.19830198508467575
0.18988356678714366
0.21703387264579674
-0.07196110319799388
-0.23813504300494734
-0.2521435146591886
-0.09542123978299695
0.03455277277090839
0.3152489036642769
0.29076440487691235
0.07043565153400302
-0.06114081978872643
-0.022774323977622454
-0.30905682514222865
-0.16439247042761546
0.033487451179677205
-0.024562848661643863
-0.19281853281175823
0.10266432449639613
0.029848749284754575
0.31613827794111127
0.22136668645383023
0.12528523541717737
-0.0668877095570863
-0.10230159538946733
-0.3479362466539911
-0.1565163594455875
0.16098135815128137
0.1515374905798295
0.024521775746636318
-0.15360650365998121
-0.07224839916313856
-0.19625517510376456
-0.19123393020588078
0.2482011521962234
0.5731594570883127
0.7666203912717471
-0.45156348654949946
-0.3995716850734382
-0.3963480280673902
-0.32641154881385137
-0.4200818112274224
0.7451159100811688
0.6259814828450336
0.08926299272334569
-0.20713621948238786
-0.42225590013693526
-0.3325996147662196
-0.13219893454715972
0.36315694641512564
0.5093451421692755
0.4322897057463641
0.03900039550870141
-0.3567024804484773
-0.6005717608441804
-0.46998459781823754
-0.2656081885699427
0.17020778094550781
0.6122271941538755
0.6022166855077611
0.2079163490671233
0.005166862064061431
-0.312649340126759
-0.5045476872646232
-0.3446200919075099
0.009248839907296788
0.233288802724455
0.4433799596976319
0.3954257985634205
0.08858700460507755
-0.4254444324137756
-0.6316108535123375
-0.3493364902520173
-0.14906930873174296
0.20944375739843624
0.5244841626671214
0.7011060140048981
0.31943289156766774
0.03534904819844131
-0.3846186753810166
-0.4046228172543962
-0.45553017327075856
-0.2851190106143492
-0.1359589904975453
0.24544164635769136
0.3748458294691675
0.3855876134385015
0.188481721320368
0.04803006210126991
-0.22089590079670518
-0.23958691219199663
-0.2440774751986323
-0.06546125348503533
0.08145150285026749
0.19956793512448992
0.10392246009458785
0.01389927589602119
-0.05278730868685705
-0.08291614153228156
-0.06824573905366833
-0.005406446062038613
0.10366235699425029
0.050890547707813365
0.021986392873134385
-0.0018630981412598219
-0.040397409984717095
-0.10984567188328308
-0.019323031541611857
0.030530747884088875
0.04628496255768598
0.038634269958641984
0.01896955819096468
-0.0031042166158175948
-0.020769476263634925
-0.029807204032831356
-0.028000128182778104
-0.014917562318045155
0.007543056984387392
0.034112565284562774
0.05542349435983972
0.05863924368979995
0.030157292459383235
-0.03977159350022485
-0.15184392668515054
-0.09418431565872751
-0.04275715359223693
0.03333914561147937
0.16292515628170143
0.1633500665233533
0.034496888895561684
-0.04121363735559435
-0.09280480004823961
-0.15129299413835867
-0.0406478383108972
0.02758984768076852
0.054740080665788005
0.051353558822215574
0.03173912042363229
0.008946894378478717
-0.0083310428558171
-0.016582497919537146
-0.016516310513681166
-0.011217354384512431
-0.004279559058075522
0.0015138732383197016
0.004763732413573618
0.0053825185858235635
0.004138736980630906
0.0021016606073710076
0.00019653328024949617
-0.0010316419555053316
-0.0014487537283676636
-0.0012226908815927654
-0.000660175153135701
-6.017306823954331e-05
0.0003764661155368808
0.0005736034251638252
0.0005577522918063408
0.00041210979657241905
0.0002297897600902725
8.113373454187811e-05
1.259475891302259e-07
-1.2861677368228129e-05
2.1159923991755536e-05
7.422056041897962e-05
0.00012270635514876103
0.00015317278699705344
0.0001628458136398105
0.00015658076453850599
0.00014250404649597328
0.00012816934937866947
0.00011825304578615711
0.00011399109534832589
0.00011397187608593046
0.00011562606924096545
0.00011674929766231141
0.00011655175215236867
0.00011595273283587284
0.00011706726452613922
0.00012204716792028615
0.00013163704018751959
0.00014396856774748722
0.000154191879512556
0.0001554490958635262
0.00014135954045827256
0.00010960054960576023
6.544646186350004e-05
2.352949468661773e-05
5.970459644492185e-06
3.573634455940379e-05
0.00012575415337296632
0.00026669037998061846
0.00041863754350446227
0.0005130590345693105
0.00046997428557188733
0.0002307514782797955
-0.00020059770036484837
-0.0007230355349338533
-0.0011319784895661461
-0.0011600160602311207
-0.0005722057225287158
0.0006993641563994213
0.0024253034319557517
0.004019692062849163
0.0046224065715091914
0.0033647012665901947
-0.0002063816366561089
-0.005661791052062613
-0.01138841445778481
-0.014696889097762357
-0.012527892793965932
-0.0027646144792022173
0.014126825955242669
0.033716188956548085
0.047265403477846156
0.04311093847928649
0.009977718647403641
-0.05841503724808487
-0.1590389639226874
-0.07764487283721012
0.009086718540018534
0.12726676399614828
0.09740425904876132
0.1272667638353388
0.009086718289582608
-0.07764487305229746
-0.15903896395909317
-0.05841503699584272
0.009977719205445698
0.043110939218558054
0.047265404119978524
0.03371618912041579
0.014126825283710717
-0.0027646161332243076
-0.012527895177327447
-0.014696891452624448
-0.011388415603603468
-0.005661789721970387
-0.00020637705069955783
0.0033647087357286066
0.004622414914204037
0.004019697673366193
0.0024253019591006933
0.0006993522149497846
-0.0005722283232139128
-0.0011600443683702256
-0.0011320018666833665
-0.0007230395980364604
-0.00020056923667133666
0.00023081732071280746
0.0004700667539414701
0.0005131480131062673
0.00041867715624982493
0.0002666324515993664
0.00012557061619294067
3.5444741916119585e-05
5.651774217139716e-06
2.3325060885097187e-05
6.552334363410278e-05
0.00011008414245996078
0.00014224758860764797
0.00015653871115190945
0.00015506307520717595
0.00014406522501637752
0.00013046195844003348
0.00011944129241282587
0.00011348434180796844
0.0001125913849369147
0.00011519712233243611
0.00011923373395048114
0.00012295350859416415
0.00012534225022158355
0.00012614751851755936
0.0001256608549818294
0.0001244215954698849
0.00012297265423010575
0.00012172984531842814
0.00012095860295856658
0.0001208079706336674
0.00012134096509195865
0.0001225204517419643
0.00012414920178287152
0.0001258052923163063
0.00012684136739623
0.00012651303536936081
0.00012425994013513678
0.00012008765309285961
0.00011491061837849574
0.00011065245202619325
0.00010990374509234876
0.00011504416295948163
0.00012694999174496597
0.00014368589374391525
0.00015982000314302032
0.0001670648752705874
0.00015669991772743205
0.00012361605737841151
7.093044888927672e-05
1.3226868626005093e-05
-2.3973849240840434e-05
-1.0441273069283769e-05
7.6600728192444e-05
0.00023692257025068725
0.00043404802167763487
0.0005921904163644173
0.0006107831590724935
0.00039965595990553533
-7.049508900340928e-05
-0.0007183383848509302
-0.0013277703562254335
-0.001576179103008398
-0.0011315823502196507
0.00018927732419737913
0.0022444510220537015
0.0044482839490283255
0.005803051314928318
0.005152412075862064
0.0016606448049007584
-0.004587469530245219
-0.012092167608429325
-0.01785603196725723
-0.017996841674251664
-0.00916640446692861
0.009438273820650364
0.034085555372594965
0.055476747463135356
0.059642711991342266
0.031315727065260465
-0.04060280675888842
-0.15705930585164604
-0.10486505077632827
-0.05720005718663121
0.020293490406503578
0.1590910521413375
0.1765599752500071
0.06838441185067316
0.008058574447855939
-0.045800442228712226
-0.13664916483947176
-0.09618689515065343
-0.13437128060072637
-0.036817754426068695
0.029442010702289433
0.10382190016189508
0.21802744221575399
0.18517948379856436
-0.0035714771371829074
-0.17369311603691337
-0.15568129254172147
-0.17243604277203622
-0.031000768687048486
0.07830749301360376
0.17592384747103482
0.08369361730479105
0.016584679062213878
-0.021338050511184342
-0.035854437718810056
-0.03779439951645538
-0.03694686722258484
-0.037092077482380456
-0.0338429127591425
-0.01593003945163539
0.03055415679134259
0.11643706529834395
0.04436707111140155
0.006314657120483506
-0.015306957967566311
-0.043319509413399376
-0.09988693991489958
-0.0011199212619127095
0.04621806440652136
0.04535255829209661
0.007953626013152554
-0.04873671976382923
-0.10552635753242597
0.05454350357486155
0.041759647310670694
0.05601406173281608
0.08535930162989017
0.10824034574366595
-0.10030455235850545
-0.15988475359605808
-0.07640067997550369
-0.037490391630313036
-0.013997490064084003
0.03261692414021904
0.13926652191954572
0.1303176215164678
0.010415456665964398
-0.0366624324721999
-0.0430865484121892
-0.04803954060190388
-0.08785882805884639
0.01185468667157677
0.04034781785045237
0.0015842486267641372
-0.08951648945515621
-0.013327423824260977
0.04712985996934937
0.09947280698956273
0.13808310892629463
0.1451299177792149
-0.1027607544642451
-0.22383155118030362
-0.22058602126927795
-0.07420744284308296
0.05273037659723156
0.20572036407226568
0.22418329054927588
0.12969358980073295
-0.07873516721929359
-0.2211618090983145
-0.12773438941681492
-0.028915218586360467
0.0511837570648072
0.09715466068830114
0.10182013172439418
0.06558817899997062
-0.002369962845939773
-0.08099041522372392
-0.13414878085515927
-0.11058162867222929
-0.14975545685273858
0.005308038485930106
0.19016708497188958
0.20095604232067632
0.18284538812246104
0.23086343093766448
0.005674395538037613
-0.2380659008481674
-0.41812495845877495
-0.19616301340142248
-0.16372589678405297
-0.047445723748314975
0.26883811867343965
0.5137103885937928
0.40155356346608834
0.8201782140982579
-1.1636035209563105
-0.8871360051162334
-0.4791306735416935
-0.0665549047524248
-0.2064192045160419
1.8683521600826454
1.012504496833307
0.3669688828213222
-0.39409017161887966
-0.975893062811408
-1.5644990862850705
-0.555022029086638
0.0637660704691632
0.46022678239755377
0.6622037319811486
1.0437107613915781
0.4319181494086225
0.060886273816245964
-0.21873216088006764
-0.4830131221582099
-0.4530049616766664
-0.4139668409398489
-0.3574217193679879
0.04205250971137911
0.4153496675836019
0.463250393921831
0.3131344706615431
0.08365156818227419
-0.13355625844415736
-0.2749428813051032
-0.296010921540555
-0.1619142399573153
-0.04540422976037614
0.06550947864219349
0.35382165261260806
0.36159639783795855
0.18848872373985442
0.1060990481553977
-0.21288608245010077
-0.6589650961931679
-0.4564291696404524
-0.15283334680278468
0.16650336016467904
0.44290332062059434
0.6007134545175256
0.31240250386266744
-0.014482377530997223
-0.22451646459919475
-0.38229614696252295
-0.3348512854939618
-0.28372115232753436
0.022577831404476514
-0.12717060053808696
0.3595852160858075
0.33950944827363966
0.4018868943316126
0.25778742298420576
0.5563012200111919
-0.8748719755546722
-0.7769385939495992
-0.4146501103107479
-0.15627004992117316
-0.0876574207632959
0.9447479750745212
0.6790942775536578
0.19287122105087007
-0.11625564133984437
-0.31882381855581743
-0.31900225808887184
-0.21222153334137178
-0.050230483810543
-0.023671805506834134
-0.06546225124758372
-0.07248823581321252
0.06068713691228135
0.2046853794683906
0.36452956930204095
0.26472322195606346
0.15696085578932545
0.05174290389251314
-0.2319632813468908
-0.611437197082435
-0.2953048382925683
-0.1638275060246326
-0.1829101272834097
-0.05098154985712951
0.3314473429780788
0.38664786472633195
0.7991762721482768
0.4883846125232566
0.024663412913694435
-0.31238860735639024
-0.6494795199730363
-1.034217085524499
-0.37547934467750893
0.17221233357239507
0.37752993702703347
0.4676939268247875
0.4536532299117626
0.2690592074524544
0.13982395134437897
-0.009962941969305625
-0.12095028718884683
-0.3437552235911301
-0.5842575561550553
-0.46636026726960256
-0.12440056641254091
0.172089768320662
0.5699002134368761
0.7776036156769993
0.4253484733309955
-0.14609026518114585
-0.4639398782104349
-0.6797208532995503
-0.32107973567997106
0.1438723355608879
0.5211206434600139
0.08594817832332823
0.36680398891988675
-0.4745344301051977
-0.4639008185104728
-0.43902917772572464
0.32017249624519184
0.45785150420314713
0.7147401813290586
0.3205376440253553
0.016016931975745094
-0.29549307035198263
-0.6795251258291958
-0.5050220579593666
-0.40262255983398215
0.14015553682892537
0.34591133153310194
0.28764163755343686
0.22059389851038042
0.32436693764342495
0.06884372643173771
0.009879536252801704
0.012953684986670697
-0.10323320490336242
-0.3151539105088862
-0.3480974690204902
-0.24689211317697074
-0.17120198500760825
0.1839354180034946
0.34931917875757423
0.437449664509945
0.30773479007732213
0.15228752344398233
-0.2940931935370799
-0.32517284105640926
-0.4279297040883815
-0.25448680302878235
-0.011254730504471983
0.332606763490324
0.42354747778390267
0.3000061826992599
-0.02235092761647149
-0.15110262334793675
-0.3052946690400756
-0.2990940961438525
-0.12982301452860365
0.22391368059863298
0.194014768589249
0.20973589509640989
0.08673866748539998
0.023618932033822294
-0.19301687766086256
-0.17811229368413461
-0.13793267255224306
-0.06527034732665453
0.057455274104620487
0.24854066091001897
0.11519456788320535
0.04495348463000898
0.004145947310931285
-0.055890164264765146
-0.1872262014822514
-0.03253223219103195
-0.015097923575617192
0.06583648110216025
0.034116931449648585
-0.06861747572751174
0.009303215297557184
0.12102851729854724
-0.08677976055912913
0.01979370768311442
0.05814304094115363
0.028182959062643113
-0.08586951015955119
0.08853555584901582
-0.08236468716197354
-0.03316079461779823
0.005198014877315908
0.008065439459104214
-0.042261744853174535
0.04247273941678214
0.05471548243572423
-0.010436295601810731
0.04432968071725443
0.01959252589341174
-0.07859972506081303
-0.03640140843508656
-0.031096682484226642
-0.03245578789887156
-0.006897791587193457
0.07624543473743499
0.038014486980080996
0.08474666442239664
0.006424999068786026
-0.02078792261579309
-0.02845600577799614
-0.04803016294099723
-0.10362235943840646
-0.007485368227203436
0.040691197767669635
0.05093304899890058
0.038059185978644765
0.01665093197656794
-0.0025118086997063943
-0.013876451059422723
-0.016629006019413393
-0.01305238202435553
-0.006603335335637714
-0.0003720255860652081
0.00375803836768006
0.00525650045918746
0.004613733631205015
0.0028114817000111526
0.000834864779655483
-0.0006370489868300919
-0.0013312302376936183
-0.0013170750646508092
-0.0008592070484502296
-0.00026336220768763234
0.00023400062897390903
0.0005139738118735886
0.0005691041188972476
0.00046478664723040644
0.00029212250341500144
0.00013007243779086206
2.529183281241495e-05
-1.055941409320381e-05
8.389961551477442e-06
5.60894576268003e-05
0.0001070633153253806
0.00014414876412287658
0.0001608140776396083
0.00015932288293497992
0.00014683426350717575
0.00013139749530170517
0.00011911026906440868
0.00011288427866320731
0.00011261124525052853
0.00011618372811555682
0.00012078357817762524
0.00012399980433758137
0.00012454773779901746
0.0001225346321576018
0.00011931202292713983
0.00011698568997592043
0.00011766537246552447
0.0001225744083411819
0.00013122171302165544
0.00014093785617661726
0.00014712510194703874
0.00014448374075024453
0.00012919591870422093
0.00010158970998409405
6.829440345483477e-05
4.256178736764584e-05
4.154464622929331e-05
8.010570120910485e-05
0.00016218287807164044
0.0002725340413102654
0.000373138682484297
0.0004087269702931084
0.0003240083179759874
9.090238981523968e-05
-0.00026183736585723265
-0.0006298135000014939
-0.000840529688011242
-0.0006988648939726182
-7.007228435474685e-05
0.0010188366091317957
0.002298644727170075
0.00325026586174312
0.0032159564376180614
0.0016436754271989251
-0.0015784975964181188
-0.005810511727130663
-0.009538341508467727
-0.010613598693784657
-0.0069500218480590065
0.0023938699320591684
0.016041036417554538
0.029530705259015938
0.035532419468038555
0.02543584805221366
-0.0077568052779162806
-0.06599328998112834
-0.14358055357013338
-0.026986474873114424
0.10213229508481377
0.061330617513102315
0.06133024709366048
0.10213132204501159
-0.0269876607067989
-0.14358139180527651
-0.06599319888596264
-0.007755397046216209
0.025438523924913775
0.035535689052146546
0.02953325759254055
0.01604119645829489
0.002390197076047644
-0.006957906280703894
-0.010624223059580738
-0.009548042652464629
-0.005813968961940105
-0.0015703889422704063
0.0016660567176231451
0.0032498548312440336
0.0032856539761204236
0.0023189450076599397
0.0010052883414846108
-0.00013043607507034344
-0.0008034657782645574
-0.0009634926168163023
-0.00072119700768851
-0.00025827700323050387
0.00024275765796423628
0.0006353906560895588
0.0008187649023100847
0.000737000336222794
0.00038406325531006223
-0.0001801062449611362
-0.0008108185221190545
-0.0012775199312345204
-0.0013032159872781624
-0.0006565045646332401
0.0007157305133085101
0.0025580430975466672
0.004247726791165392
0.004882103504434269
0.0035564941309150595
-0.00019205560301744523
-0.005898133554007809
-0.01185560771203726
-0.015239628257873991
-0.01286472780033278
-0.002593393391407228
0.014886563317616045
0.03451610833338274
0.04634594414232997
0.03674694256470569
-0.008430260342107814
-0.09933242731044238
-0.037613308388742474
-0.013700663071283778
-0.007085160662374638
0.010167646190192524
0.06759157451849751
-0.01022836593138153
-0.009238339951857447
0.07078390644663378
0.015946059846400643
0.0011092270704852923
-0.004596895209575423
-0.030802058624020995
-0.09919916215847728
-0.018968434097062482
0.014320973476438056
0.015990126611236
0.006527475975296883
0.00448955414570662
0.0198973902749646
0.049847459395879576
0.07771361850059295
0.07676987274296881
0.018127466260943387
-0.11852321215687928
-0.13443116170559416
-0.20558170778281876
-0.08429303079361225
0.09014735111416969
0.17402631833604598
0.20033575552658162
0.1651947993276756
0.02486357932961343
-0.09495515746028092
-0.0801145469775265
-0.20515849264647879
-0.11351444695001967
-0.00641973306030898
-0.043337662161851934
0.046859832914948704
0.14758496415413447
0.13437371666825704
0.05819779429339843
-0.06391110653924793
-0.04958643807086975
0.05568631642461107
-0.009619853287964303
-0.10909717593467404
0.10517425686445785
0.003593957047645681
-0.21446720010417158
-0.12014980122405716
0.13859354380464284
0.02442897451938507
-0.005729603551838158
0.08295711638747377
0.09095062500977082
-0.020857485222455167
0.07253155075545321
0.07300121450064508
0.0798537424374555
0.015183623552205282
-0.1504882654842416
-0.37847407163959007
-0.1548541051896575
-0.10134712485150332
-0.005254726143408564
0.13599996856079216
0.2652561166110231
0.2231369954884968
0.32448269580886335
0.1619137524344842
0.0387885970057255
0.026718422377115456
-0.3638667136005308
-0.5162617346602328
-0.46049461024939775
-0.26074753392613015
-0.04303649154164464
0.34198907513123905
0.43666822677136496
0.49615684724768505
0.4321544142459598
0.3957373449374248
-0.19652284302279946
-0.6015537377106563
-0.4727575929496154
-0.3905052494538093
-0.420506603056291
0.08937244857226133
0.47584418864686884
0.303512772506227
0.3038233099422298
0.12807329605870393
0.12675594181477529
-0.04096504499972846
0.028414472786887066
-0.06485469802177408
-0.2672144004172109
-0.4246264338416901
-0.25705985037860996
-0.1629278558480404
-0.05504226571423983
0.17849171212480652
0.40229866467019454
0.568783558877341
0.47801878492012034
-0.025262600706814145
-0.01524094256874782
-0.21830673770877668
-0.7343779838624749
-0.7683475776059477
-0.19087561260112063
0.261747480023432
1.152473985573345
-0.3112024309926661
0.2683953961854671
0.24028529042858562
-0.11264379337275968
-0.9722724124194447
0.6275915499870521
0.01768335987186767
-0.0913554086516373
0.004384493313727117
0.014163622599581975
0.06367027251009012
0.10467675967699183
-0.07751488723226056
-0.2602534883348768
-0.18551300698501355
0.030405462419497063
0.07963936508778818
0.24164608959931383
0.1646842826651873
0.2567884693829021
0.6905489425578147
-1.1791102045631554
-0.5912984398113715
0.038767017874632034
0.12201419741129022
-0.11963083479454524
1.3224124106496378
0.22343131797830096
-0.47865294733768005
-0.46865390235898297
-0.6283516407607017
-0.012418768222290447
1.164558325861983
-0.2708152716776583
-0.05597084281944374
-0.09892696601215607
-0.2862665903273106
-0.8965306351559038
0.7778740435611823
0.40248096346333595
0.3750983333584013
0.21449909433573422
-0.02844233376736066
-0.33785301423576025
-0.2877492138505639
-0.39907773148225867
-0.312535344946062
0.014878511339147478
0.4901039316643839
0.4498178706048498
0.22510170009193387
-0.08312860898851689
-0.21268239102920083
-0.3354293717929057
-0.24727630731899145
0.039342892419492695
0.2968499371519214
0.27982760778289095
0.12397996921339097
-0.04790581655757102
-0.11159689752947247
-0.12216584561960651
-0.2965520391549994
-0.004848513592428508
-0.1747602233883493
0.09041386042871037
0.08431653654767716
0.2680627599194417
0.2477459879675535
0.3668512859174592
-0.08228363624065443
-0.22976131193106922
-0.39033884136850416
-0.42885540725208937
-0.14073621274245324
0.14591151368997496
0.3482668223059399
0.3958441947581643
0.19880293060125048
-0.17265729424819062
-0.2943012037437912
-0.18239222910539546
-0.0832866209684013
0.13651111985562264
0.3984393700900431
0.2203972461371138
-0.07140879666973438
-0.32746979539423204
-0.5618032669269617
-0.34839546892515894
0.16709205225331253
0.4417684594560395
0.7059918443130674
0.5444154270848165
-0.10065690139128787
-0.5016960768995041
-0.7044694280607028
-0.4910678229226632
-0.16522243159872324
0.2314657068620179
0.4768029651949396
0.5139657479699938
0.20534021652127304
0.10971956807990184
-0.11064788999255305
-0.2566971176623171
-0.14373895951170823
-0.15091957349371987
-0.1812824837223865
-0.04070272373437624
-0.0389469332656041
-0.011365076199915794
0.04410398115101681
0.1225008441329584
0.16908276163336852
0.2471069555317229
0.12323416601303416
0.07417418618763048
-0.08647133514162851
-0.16701177464845368
-0.15149155119500346
-0.15909909823084561
-0.21830600217047086
-0.061403104880147816
0.05951419777710344
-0.061161184862448106
0.1737223553374811
0.32038991310624687
0.26088632093765424
0.18860733409930122
0.01644334700072668
-0.19492921559130486
-0.397244262939969
-0.31569847022311726
-0.22284745997768535
0.0673707060156354
0.18561970305497655
0.38052680078850853
0.2909751127928963
0.1284443721290046
-0.12419376703515907
-0.09792526275297454
-0.21358353258778795
-0.25847977709871217
-0.1730944263971201
-0.05375058371329802
0.028070386194133046
0.19463547825343963
0.328158200345143
0.2449277031789751
0.28625314842404587
-0.06979580028173916
-0.37868099679973866
-0.3909796511102629
-0.21782846104088033
-0.11115470206113352
0.13645263929066653
0.3750643308900571
0.27261856826301895
0.09240299380243484
-0.1196513077757319
-0.13596343304242045
-0.14007058451837046
-0.11732040146055006
-0.04901845666791055
0.08723833335992726
0.11165597014203031
0.033880137331502386
0.04613913936136995
0.12105167777585309
0.015470316409217973
-0.12031857026269606
-0.13057967417763539
-0.04300311543149843
-0.06201206044170123
0.031539735408276925
0.07459458826887501
0.11226381617404603
-0.01260572113245767
-0.06805723186664674
-0.038481726713635124
0.07327173279398976
0.046890982602307264
0.04863367970813774
0.038340052957647586
-0.02129372814549052
-0.15504255274854362
-0.1679117977584884
-0.04320054827267773
0.05265652337681691
0.1595526904353454
0.11107970921870738
0.12446316211425147
-0.003311864381477937
-0.09216359031649467
-0.17027656106972228
-0.06400887472588217
0.009723594224814724
0.0463102002968182
0.05163876960150036
0.03747084595024138
0.016358570226311306
-0.002105865262192752
-0.012947464061055122
-0.015547281349348258
-0.012187005570385007
-0.006245336810124659
-0.000704803627709055
0.0026947916974407746
0.0036260103887916437
0.002837980842875624
0.0015652081265366904
0.0009154040360458391
0.0014082803552270854
0.0027675368676972545
0.004009109442461369
0.003816108669030961
0.0011303248141403
-0.0041866414930604385
-0.010850746052752635
-0.01608831571850933
-0.016245729164711304
-0.008153934166899211
0.008968807403063465
0.031653340749314765
0.05121916261348278
0.054605956853594956
0.02748643447546609
-0.04070594532323705
-0.1512997823754842
-0.09275746532812228
-0.04111319671943127
0.03463892919867393
0.16350308895502874
0.16303572426962712
0.033339107204121046
-0.042927337451619314
-0.09454035886466781
-0.15232233643874693
-0.0402127105203445
0.029987890855688523
0.05897882619065492
0.05639579703974952
0.035598627302817036
0.009095735334843341
-0.014047449542215384
-0.028672845742639896
-0.032633364206336155
-0.0256506115724357
-0.008826275147458523
0.014893283020155346
0.039711643454301074
0.056378242742127334
0.05302616205051123
0.01802608599616625
-0.05554170608835591
-0.1653537457006415
-0.09756159873483457
-0.028772409716818728
0.06732368572868978
0.2106861860803624
0.20692595569520736
0.04463367800283159
-0.09999548699327808
-0.2528144580257202
-0.2303648224593262
-0.03302812998935299
0.15398858643798724
0.15256586380611548
0.18077988034396864
0.04458174377047905
-0.06434269162876557
-0.1642702761610362
-0.07545041546268498
-0.012407919476581653
0.020349274749911363
0.028176225310897588
0.022594202086024244
0.015956708323843785
0.016438471146438698
0.024831340677249746
0.03399629907702522
0.031173680383763676
0.0026722364834866896
-0.0602902451296254
-0.15650916657055292
-0.07264526304694897
0.014479292310027375
0.13130181214509273
0.09887005064228264
0.12559246124483714
0.004461675825230285
-0.08411638354851027
-0.16526842000181602
-0.061560013738784475
0.012787312093968217
0.05351511172406488
0.06412622753809114
0.051821496926672345
0.023863313862864312
-0.014155491036663269
-0.05796999558216207
-0.10319166374147562
0.055843934865969856
0.025934902761413303
0.013541193568993918
0.022776706714537538
0.053850871337245275
-0.09746134310190464
-0.03936481527942475
0.01693126919102332
0.05833443756270791
0.07128898318132487
0.0440641805550198
-0.029800898256731934
-0.147602820969422
-0.09491022176429172
-0.0463811853344132
0.029036337232244552
0.15955527901287947
0.16163562623436062
0.034373403366127805
-0.040286877870636895
-0.09149980224178926
-0.15015428047951418
-0.039968831405871166
0.02776647351232083
0.05454381580996902
0.05098254996499019
0.03137321371774724
0.008698293855358273
-0.008427915499415664
-0.016553169855886132
-0.016416281798642664
-0.011103784888431823
-0.00419283600625088
0.0015565680953294246
0.004765256946941243
0.005357518169572012
0.004104747529177563
0.0020725783023212985
0.0001796185688529735
-0.001035589557764474
-0.0014432691838217743
-0.0012129461419064405
-0.0006507629048995455
-5.388777935398615e-05
0.0003788346429411473
0.0005727713228645478
0.0005551540736379036
0.00040917775308230294
0.00022750607280972644
7.990011797025782e-05
-1.230127315994512e-07
-1.2430259975588923e-05
2.194680788284703e-05
7.514324612512693e-05
0.00012365942742875277
0.00015408563827253144
0.00016357794478350556
0.00015686460559497163
0.00014199070835822149
0.00012659136384909043
0.00011566145244017402
0.00011096774719617709
0.00011168354732624456
0.00011559894650489612
0.00012031793528420496
0.00012407388598096176
0.00012604928444710228
0.00012628207911532876
0.00012533966948928687
0.00012394752974721895
0.00012270493279831007
0.00012194443062206722
0.00012172611237825611
0.0001219189321075144
0.00012231176869999385
0.00012270866730850597
0.00012298437305987138
0.000123097423343356
0.00012307230325684762
0.00012296759049727687
0.00012284516845998783
0.00012274971537178973
0.00012270109127766982
0.00012269725993048798
0.0001227229654031557
0.0001227593443492387
0.00012279113293797155
0.00012281010454134268
0.00012281505051377477
0.00012280957964577003
0.00012279922359411673
0.0001227890057768164
0.00012278206160033797
0.00012277935415375442
0.00012278017170105074
0.00012278296471674422
0.00012278613675479529
0.00012278855949306855
0.00012278975264904074
0.00012278979574426756
0.00012278909771323585
0.0001227881484066442
0.00012278733612616075
0.00012278686383713987
0.00012278675394570388
0.00012278690762431414
0.00012278718015307406
0.00012278744290149254
0.00012278761752968729
0.00012278768194697587
0.00012278765654225054
0.00012278758222526056
0.00012278750013358544
0.00012278743872136134
0.00012278740954469662
0.00012278740986395258
0.00012278742874784285
0.00012278745348994426
0.00012278747422226607
0.00012278748594970923
0.00012278748831853176
0.00012278748402338007
