0
0.0005468997304215303
0.0005468985875915237
0.0005468923583771973
0.0005468811603552958
0.0005468676280678843
0.0005468570755960503
0.0005468564329701092
0.0005468717688697037
0.0005469047999117771
0.0005469495185979592
0.000546990670604768
0.0005470059052520273
0.0005469726713854355
0.0005468792146404669
0.0005467366370017124
0.0005465866920733102
0.0005464989992817841
0.0005465529083239888
0.0005468040419216198
0.0005472431120449669
0.0005477628210134559
0.0005481538519349595
0.0005481488088232708
0.0005475202833718005
0.0005462161360553214
0.0005444869228839963
0.0005429381106452137
0.0005424376929048986
0.0005438408054278385
0.0005475608364141244
0.000553109297180927
0.0005588130811091551
0.0005619514125147878
0.0005594885955532101
0.0005493872717722185
0.000532191933955449
0.0005122591765258082
0.0004978233473542624
0.0004991892774524882
0.0005248556427219159
0.000576278311438429
0.0006430650021678594
0.0007012197594154703
0.0007170726105042589
0.0006582576512285729
0.0005104204823754788
0.0002947467540759803
7.815001851704611e-05
-3.3162646729276895e-05
7.677565810797524e-05
0.0004822057815960321
0.001154835896294102
0.001918270630028329
0.002448977356422734
0.0023503250360250214
0.00130562165697025
-0.0007194154726856466
-0.003295843486754095
-0.0054740058894267776
-0.005949278812409106
-0.003498924791645013
0.0023679046602279336
0.010743678656003472
0.018958464210940204
0.022873411469087522
0.018068813194671456
0.0018604281610160851
-0.024369258340122303
-0.053492152581176074
-0.07281710239390468
-0.06713085833556198
-0.02477080834611483
0.05447986392107702
0.1524674097410575
0.23062635079571325
0.23657649116305646
0.12102817523375692
-0.13739010279527014
-0.3068649784111569
-0.48839963144639337
-0.7258331901168865
-0.6486933940432017
-0.14715573328761278
0.5357304180154832
1.5246064083801474
2.2853070299920772
2.088746098355574
0.1813971511068344
-1.560288485690477
-3.359475269450377
-3.9523636885282607
-3.783935992344149
-1.4408712360104152
2.702373525483639
8.93860209708874
4.363152770677185
2.27016300326967
1.1148769815182136
-1.779334381656672
-7.715118493554552
-5.339238518697034
-7.411835216836791
-0.18004311827313263
4.426209697937131
7.910110881542347
5.476867109780681
6.711908512682073
-1.3610516149337264
-6.021796080318327
-8.12681153875629
-2.735022187030284
0.7033421107585749
2.0813034391684275
1.9039150985562223
0.9897108447805469
0.32849560329523925
0.3974498136057207
0.9992366870767734
1.8514787297077857
1.9301473020331814
0.542715026844688
-2.3267223465466955
-4.895408262207599
-6.401605702633996
-3.7701969774576183
1.4392824215323463
9.475437750466032
6.609935561001801
4.952302611380045
1.6394718439471354
-2.3619070532383257
-8.762934630132918
-6.208907660941993
-7.751178343051937
0.07356877920398758
5.115265896996951
6.7609626533093525
6.008670545906102
6.927307523612796
-1.5198849608769913
-6.6607777921060904
-7.032547296132926
-3.246026242051818
0.6011244869262264
2.456675849514804
2.808637258867429
2.0449373933453776
0.7999567559764951
-0.22394905724233377
-0.9279540942210279
-1.1990709386241092
-1.0483824094480043
-0.5523875732657149
-0.027632239124359685
0.5570082170076534
1.150094448939181
1.6032852814347283
1.3061675744002181
0.6870423645673189
-0.6329280418565445
-2.8790633498734093
-4.829011704975487
-5.260074572698065
1.2233775420622277
7.819057588233782
5.736389599564563
4.75842788627888
3.694057536185258
-4.054191260628227
-11.924510263767578
-11.257529844398539
-0.22274078229769195
7.860729237429457
6.063481000697638
5.258079332897357
6.660375296618608
-2.525920849726301
-8.73735029767586
-4.669327418198101
-0.8737409261353029
1.5040592162517044
2.386634785623444
2.0630728060814443
1.0149510640631645
-0.24673471523086105
-1.0900083937590783
-1.4152939045323099
-1.0791164908359625
-0.11454261101949187
1.2441171584690034
2.1507201261538125
2.3863891026568074
1.6797075415061775
-0.4901554163302092
-3.6527532434194705
-6.358802244051191
-5.953171241075255
0.41955646170843425
7.9951676368776035
6.0854836022398135
5.691059025598439
4.0130205906337375
-2.464605450236269
-9.403931741366634
-7.1638697137366645
-7.928341017527921
1.5967434315944495
8.279885060121426
5.388239858928313
4.381810957778547
5.914126897877201
-3.029510601503815
-8.873288029204252
-4.4149384542711605
-0.8085192802984529
1.4794666600708548
2.290410232609142
2.022402088250755
1.2099944362945023
0.33052366150851825
-0.5078335252565995
-0.7873587077528523
-0.7361024604766088
-0.45557352975802895
-0.055044652860783576
0.18781704743853134
0.23661509355417426
0.2845652436732224
0.13453690643473543
-0.017768613671430282
0.008891893397186641
-0.015585895637433555
-0.12228551746729452
-0.13066861740130092
-0.03881405753448832
-0.020240136706327454
-0.028825914834954995
-0.01092529058531467
0.0781783780991908
0.05752438847495943
0.1079032364642273
0.16749743229902314
0.13835007105251163
0.10383548896965815
-0.046016140365622966
-0.38818426115823274
-0.7490339636743366
-0.7051657491889838
-0.007460566679471698
0.9777013839603664
1.629097984685186
1.6598176513150285
0.15537378284159264
-2.5408841388226455
-2.9260571241496294
-0.06905631982978894
3.3835732040120603
-4.282743949752593
1.3978480354937366
3.1014209062779963
1.373272484163091
-3.240225030135739
4.439309254751028
0.3506615469853073
-2.210241411637497
-3.576848117407216
-1.948370717009497
-0.137291188491606
0.7468788796088663
1.7067938549529722
2.2336479303682357
2.540641942469527
2.1261100860293056
0.49516135707578524
-2.3900727376296698
-4.819307383409375
-5.325197243758527
-3.8709445343288844
0.31430095127147145
9.50439037723794
7.004540240897996
4.241246386883949
1.1688611382974112
-3.181760951485514
-11.739688232002424
-9.845203388661265
2.4531914362759344
4.534779610075388
5.024280251651972
5.077991347873573
5.961488793046084
-4.126257180530688
-4.551391395006438
-3.35361126860643
-1.3132380972919813
0.49015094972818657
1.1637623025556119
1.1432999856609813
0.64664080562801
0.10462064736638438
-0.1812484552459212
0.07299448025909352
0.5085488084329195
0.7604413683966005
0.5489334516938185
-0.3884213257135616
-1.5493226238566424
-1.5400831966255253
0.5916694726312337
1.938145010141751
-4.3796718508407695
-2.2026971318753867
1.0236683714773829
6.405061454969704
1.6312784307981638
5.977227095111679
1.9252017212058137
-4.82250601220427
-16.472638541815687
-5.409530545503317
4.824072425851642
7.194274769216528
6.6285583848681675
8.100356566831685
-0.23112073207267342
-7.5360426645946355
-6.7585724062216395
-2.376266401068554
0.7334920552912663
2.0135778303222747
2.1421363677420597
1.6296279737880948
0.8030267290530682
0.05424512932529985
-0.4162443399232677
-0.7713779640785117
-0.8617484172220917
-0.7463798661062008
-0.6465127607735177
-0.35117186198212885
0.32862937793576036
1.0810456303957166
1.6285857589008257
1.7192347758723237
1.0031002892550858
-0.2038214594416919
-1.1046526815702429
-3.4263579161156232
-5.933171170253155
-3.1247469299564514
1.4579827858580765
8.182936322129908
5.683880948363192
5.611741800509378
1.9184065212790185
-3.31343474001146
-11.829385618561755
-10.792916145958948
-0.055809170975237125
3.9488200909045905
6.732724365861821
6.703950178121381
7.210833321919373
-2.315349270317189
-5.055382827957992
-6.024875772805526
-3.211462076971442
0.18565288097534877
1.9060669542344935
2.1679027612693185
1.6748639626557864
0.793062577702011
-0.021701536779449797
-0.5086526268476126
-0.6020906269171732
-0.5755286763170092
-0.3659405154350815
-0.10767512779952121
0.10764498661667579
0.24261145613088947
0.3041745600570581
0.1239679915243263
-0.06077418974273118
-0.019812264213731126
-0.13526291245233305
-0.2024471486169703
-0.0297584634770982
0.16041810388154626
0.13042330529961382
0.2286884837691546
0.1971197423645516
-0.014352960002909232
-0.2290612352370937
-0.42813997781866986
-0.5482539209967571
-0.5009219019759162
-0.015286620899288958
0.504490660857195
1.127477270300363
1.177115645441527
1.0697887706135059
0.8202984681987464
-0.8015521914354646
-3.7078584700315482
-2.988339074116197
-1.5284328722684881
0.020641553365407468
3.5496892030303657
5.567009305544058
2.5606853631985738
-0.25507456312304433
-2.181672798028542
-4.123570909592206
-3.2383824863921857
-0.47221500355721574
1.3432693360224472
1.82691534582588
1.473102274642884
0.847506187519119
0.2239182928436258
-0.3007811105392338
-0.6119951851705767
-0.526700490439259
-0.32037267489762516
-0.262389492621024
-0.18006373976309317
-0.05855788360518498
-0.07254619319352285
0.1630233214202331
0.5412676273540546
0.8313806606937846
0.8849207526543439
0.2909225972684314
-0.7241683938700497
-1.3734842739967363
-0.9989030151068652
0.1910107634045136
0.5107960143384848
-0.08708862530790135
-0.9576496780452781
-0.9455864847691486
-0.17692874349920723
3.9747023166244753
1.9920995802688868
1.2335791138902943
-0.31224930104512166
-2.162125386261173
-5.438223335167163
-1.4295313431434482
1.1071553219083947
2.2839551320869087
2.0991859678892797
1.21814011496765
0.1972856156641049
-0.6040301337014784
-1.0246112957865305
-1.0475841996407644
-0.7350956987139395
-0.1861115710795886
0.469055483848742
1.0470319096956042
1.288326562848726
0.8619686320618702
-0.18476240825201445
-1.7365209541406132
-1.5082648332573705
-0.5717115175744063
0.2581280069686262
0.768470128537377
1.4454418424756144
-0.04326794942882022
0.053424241564249804
1.9092712495322117
-5.303490681590224
-0.21692658665298264
4.3349482633821905
0.7223023464190985
-2.8533497492832214
3.9080793950708608
-0.6869474573853346
-3.999898807669496
-1.154353283471627
0.4110637282571798
1.3108421047190448
1.3155692571267659
0.8313654685016698
0.20144224437545305
-0.3429129183990331
-0.6810078585202319
-0.7707801779084354
-0.6137527605401036
-0.23917428516842942
0.2847249493072012
0.8214947694912341
1.141493538528768
1.1270869824011511
0.6252289102993548
-0.8553102434504941
-3.029890104703065
-1.9539009462039703
-0.41499695680823095
0.7780974111717852
2.032855713842275
1.5972013103994287
5.245458665845039
1.2817025404165587
-7.532801906906113
-2.9845313681328483
-0.44566524070183094
-3.4373686442083993
1.851326520903529
8.73940080264968
1.8323359918949378
0.3166414234355887
-1.9701109940423795
-4.521687591870935
-2.896151451061301
-0.11246917893513625
1.4172660026260397
1.815965334644947
1.3828438966705199
0.6218641432878835
-0.0834633648076632
-0.5231459737969476
-0.648399427126996
-0.520332292359425
-0.24992458282472124
0.048346322511906466
0.28008109984631163
0.3747075115180898
0.27925371464384147
-0.047671994516567055
-0.23630160512612858
-0.3016836378722585
-0.2408963811031315
-0.03734045809016636
0.1260303232554614
0.2484568255303808
0.09662606643804716
-0.1965532852454838
1.4886631826464252
2.5052306347947617
-3.693390908316243
-2.2849112508557714
3.156397160342714
-5.974481392494829
-1.030650630348338
6.906213011640023
3.8387039523457593
-3.0626398855846717
3.5561638556685233
-2.613329984526816
-4.102673587156722
-1.8291026448112806
0.2574486257776651
1.1988338041517461
1.535138925426119
1.1463132800420772
0.4942627602630871
-0.08589919865391543
-0.42654293636744794
-0.5087370079745521
-0.40874710731283653
-0.2377440590440562
-0.09616146915266904
-0.05329730501200398
0.047900137575804295
0.16883952802160296
0.24855797644136726
0.3859583157474948
0.642804449594607
0.27404904035968203
-0.2165187057656839
-0.4081726390521797
-0.9054948586668585
-1.9181484265473059
-0.700033820651451
0.74732154968932
2.52814513144346
1.1077941813204546
1.023155867663631
0.08464787487142622
-0.727576019543322
-2.7058322250242908
-0.8494413969071697
0.2554844732689792
0.48032260576772273
0.3232705364772979
0.6294100078000399
0.4958621464192337
0.19123512598862485
-0.0935596505498697
-0.2595600056049843
-0.2865291593843969
-0.20551199131036746
-0.07030230736431192
0.06350720943045549
0.1492016414008869
0.15152720011129356
0.045569021485364826
0.015684917816403056
-0.14419113417158796
-0.23022533897760755
-0.03107107237626352
0.06501011925256354
0.058742400531148015
-0.07256225735950858
0.016682485253001724
0.24159214242171534
0.9026218861755932
1.3189759672523864
-2.323071081918479
-2.519887419932941
4.580157601308307
-1.4319493959522083
-7.081869401493436
4.688797669164655
5.597622958313807
-3.8920571143553753
0.3741764112425971
4.875976454841596
-3.063153859043243
-3.507404522274867
-1.1440348274137961
0.22076923350819816
1.0715390205474018
1.105617363382556
0.7083291979716866
0.23051713066512386
-0.09563273906968633
-0.18840659814117866
-0.1006611816680657
0.028719022631586495
0.038106415173293336
-0.19547774798077677
-0.5113541811370431
-0.6488560286586954
-0.6680739867775791
-0.20809146925744765
0.6295162530292755
1.3985724232811263
1.864177436875006
1.831114278733753
0.6602270705198752
-1.9465879225657154
-5.352396979293747
-3.2683025918993693
-1.1904889948213722
1.9853425609600155
5.628689992429492
5.641300113446126
1.2641567053197496
-1.6898489978274913
-3.987973492753509
-5.01665077800904
-1.4505759320412448
0.9320512977092126
2.046529191379943
1.9491867131441665
1.2209623703021295
0.37389510432033507
-0.2644883427802816
-0.5757112876930501
-0.6036897934595552
-0.4729157653312854
-0.30762495626437
-0.17781449840618618
-0.08375894562052941
0.02271337604160196
0.19209090437260462
0.4243835561821708
0.6301204359498709
0.8234439342490668
0.5582671952375506
0.0056758449326911094
-1.1458731485962632
-2.4016652763882282
-1.4239577543899173
-0.2778110630758622
1.23887664740216
2.617043764861932
2.473492713862444
0.468508679223912
-0.6592263300759574
-1.7503623707284672
-2.027719885199504
-0.7154888992224606
0.06502436720867555
0.09484641204096061
-0.04026767342574016
0.08953703919211259
0.5812131306389343
1.2547831786959938
1.987940646739029
2.163494476380321
1.0403277496014942
-1.1789215281077638
-3.6553967143032144
-6.704964229891414
-5.7847646154851855
0.6602160119116324
8.725157282966581
6.297643377745653
6.252517958285908
3.9800529070722046
-2.684260121894219
-11.024446399353234
-10.334024395221014
-0.8032900867752715
5.20339233259054
-1.9489339015497529
3.0494203308137053
10.59643362424817
3.0666971011748347
-5.004605333313808
1.600352550817496
-1.832351169982871
-5.451660830143909
-4.402383320746008
-0.5767803841449242
1.5813766992028295
2.4485324537222812
2.6744703937976344
2.656189468148711
2.3538578695408554
1.3146046868176533
-1.1025779722629963
-3.578658821426262
-4.692985798438794
-5.33271342774012
-4.161317524251458
2.6322936541413386
10.598159803537046
6.69807319571618
4.412677821365786
2.0368035306487453
-4.4365380090049245
-12.811162268197732
-11.837840188925089
-1.090884854607554
7.688996451325004
7.653312175261339
6.550947756153871
7.577977634264203
-1.6179265676361996
-8.940631078482147
-6.990072127908424
-2.977946276793286
0.1751499885709173
2.064593530561402
3.1900222504895197
3.6427208287422124
3.450891349224025
2.3022793529803045
-0.11485812706983259
-4.40364506143709
-6.513473934270477
-6.724704325587887
-3.5006001018688027
2.7551252818850127
12.336446467210266
8.890493226497382
5.344702912530249
-0.13120179943925483
-7.751369766269829
-18.146220197197174
-6.326016223234338
2.542917319935414
6.052198664052115
8.492351663284927
10.916614742875531
1.2335909800031684
-5.292184080042622
-5.943152344979191
-4.626990070188324
-2.1622479286835676
0.8463638656998229
1.8717372321289485
1.7033150502885546
0.959943190915109
0.3857516057126435
0.21330321940435687
0.641902588599967
1.2474757097257787
1.3174075428448946
0.2837896019218616
-1.3943949839965977
-3.3745086748389426
-4.88905113192084
-4.999838316685281
0.7222242522472828
9.147725472767553
6.518421010430986
4.751408048268574
3.0708543850609025
-3.4060518258471517
-12.658280908958904
-11.768652661331792
-0.6055217216214177
7.878808473449182
6.3831338384231815
5.644431553810826
6.946248239602636
-2.263337505974294
-8.810917308977757
-5.010740997957136
-1.246193328850247
1.3097573925459867
2.364069065501104
2.198666804807848
1.2846540900024657
0.10771301445546516
-0.7423084067012315
-1.211289490902622
-1.176514340771034
-0.6338278052026961
0.29992296833550897
1.1690900871330325
1.5689974091201817
1.5769548374351487
1.2500793641065082
-0.21083912286591902
-2.8689679421762526
-4.101596562885312
-3.576388775117098
-2.413230795605644
1.0723755606147942
10.134311406687106
7.030963908229057
3.505099533262167
-0.19095024433466395
-5.767535840267538
-16.858517196569867
-5.338403236637173
2.3828701990927543
7.829763503596857
7.840934995538409
9.13519265527987
-0.07021590362226654
-5.2569910933480255
-7.6675137060120315
-3.815626389845789
-0.2623756282403283
1.9996777615052808
2.528581013339417
1.852429976804581
0.633133144976068
-0.3371176483844623
-0.8631575600965882
-0.7966047574517521
-0.22968367768667802
0.5435389432419236
0.8863611191085743
0.8989286374245764
0.32084454935152884
-0.1492782386658015
-1.3403327991817453
-2.539908056568535
-3.712693131587768
-0.8316765466246747
3.8937966538459343
8.96430068688129
2.219927576089832
-4.354472707064995
-2.2340211029386126
-2.849964043069334
-3.3113074825053848
-4.469191178879424
7.226245664933347
3.5098868811104973
0.02285374008117897
-4.120184428647597
5.5531070692428175
0.2913964068293437
-1.3450075033249997
-1.8713435974965145
-1.246626110062015
-1.6914138462698363
-0.21010036685611505
0.5616167221889817
0.6028682187182002
0.4961829994468347
0.820705254512341
1.4093090522998155
1.9143498804359613
1.7040415998250253
0.08008119786327855
-2.4322198823034014
-4.00911267939654
-5.178077475754548
-5.085213921050661
2.189699767811698
9.340495703900615
6.333063569857993
4.705777135773861
3.429261503207162
-3.8535974232804544
-11.547850387821347
-11.643860360999824
-2.144136287407449
3.656455099266529
8.266829302714275
7.285997177818373
7.974184360070699
-0.8516870476371374
-5.512330774979703
-8.040442231410033
-3.843822625955554
0.12201047550360528
2.1378068489614073
2.653518142933254
2.0597678149154173
1.0204130184941484
0.06473305087893871
-0.5136341354581077
-0.8540259851005986
-0.8576412957333945
-0.493513306249241
-0.11956802869086564
0.16053758868493412
0.30276678918804684
0.30189561722014946
0.3620702507262792
0.27483020967571264
0.014344838975683774
-0.24893988201467973
-0.3231504279784681
-0.5703409934485351
-0.0945471306557446
0.6502441168990786
-0.5670986161818619
0.2064036210012597
0.668550052457542
0.2330237395915363
-0.5808525986671835
0.6637742818674592
-0.047391525376367226
-0.33682487502035785
-0.3914212759852865
-0.33009546596039435
-0.39328264033926374
-0.15909087290331206
0.21828359408310424
0.7619911834631474
1.2387989676318247
1.359327628326128
0.023394256186051073
-1.7986878866603142
-3.3819395504741707
-2.8062277206249835
1.806092993952972
7.579955464464291
1.1562327831803336
-5.194692904037805
-0.18259234592836432
0.5465951551660782
-5.543653364670369
1.5287175723783224
7.838008451556859
1.52764401566776
-3.959875339193488
-2.3814842663094917
-1.3563904644458809
-0.05958740937270795
0.604610532157011
0.9435684711473665
0.763364658300681
0.4470534971381335
0.2624088014419958
-0.08026059533328933
-0.21860649602671567
-0.289780878879841
-0.2631549902844235
-0.27507025150212727
-0.18222119062095254
-0.14326342774689962
-0.03041707069667978
0.13441875777714135
0.3301983211274566
0.4882070185650735
0.2584003901873883
4.1995046158108335e-05
-0.2017104635542972
-0.300125884054412
-0.4448318411624602
-0.14697850660383383
0.13885512237318431
0.21365626931257045
0.11847357518139512
0.11280482236226669
0.054955217866203644
-0.010641438994094138
-0.0578852948545605
-0.0769320764743778
-0.06877572938007004
-0.03975942701418727
0.0018081811312056757
0.04642123340035009
0.08258881364790567
0.09645029537749511
0.07363908988310833
0.004073655976600685
-0.11154461128485715
-0.2566848775877316
-0.19953803531744463
-0.10238564093339125
0.060164019313804724
0.27859930259479093
0.49019277188806154
0.37493536887257856
0.17283188087695853
-0.2774165735498464
-0.48745652263892036
-0.67250461280964
-0.5269245817380547
-0.23465021594635715
0.48488971460936314
0.7086033732753894
0.8429477755841497
1.9838033043648091
-2.0812860498381736
-1.0314656078665956
-0.15362204992972878
-0.29599947308844626
-0.6555401784971031
0.7981790689104543
1.276623897474235
0.5273203933195353
0.013018620133121389
-1.2738166421879646
1.0333747491304592
-0.868034498170924
-0.9010335216707863
-0.08372956742518306
0.4649866553129644
0.4923044782521093
0.3643152096295159
0.022074329653249077
-0.046097588793540874
-0.21181958163666226
-0.09687322202999135
0.04631855757107101
0.15691452682838136
-0.014423464719933743
-0.09133023108985738
-0.26652673416071687
-0.3092627535757375
-0.388145518646122
-0.3084010839403804
0.24402130164370722
1.0673626510694425
1.240491768594618
1.7732611226371657
1.3212403437737061
-1.2501334363772396
-5.700619034466402
-3.1248174381154548
-1.6091528225232596
1.3371821591796622
5.227817303116942
6.841992095276751
1.6073689226898749
-1.3796169219722267
-3.8950263774764067
-5.1898386417841875
-2.4053275789020705
0.6659339769719059
2.014771477253697
2.0738879114656417
1.4860757556575934
0.6783751769957831
-0.08999433652976901
-0.5819513536454917
-0.7535787990556005
-0.6783538558639413
-0.46507420498362845
-0.2002745497284219
0.07067253505079638
0.32658640862750465
0.5332016881965421
0.6070900092790832
0.4006869761362784
0.12002595580173231
-0.4257831324578318
-0.35718155351189534
-0.8615176482506134
-0.7590934963241944
-0.31476845067447035
0.5020926172603712
0.5236556810454133
1.2839933352408908
1.1468617158988967
0.48601314733392775
-1.6760897930652001
-1.3892536110980644
-0.6915748972403484
-0.15588848854017395
0.3160383715556746
1.859823243787764
1.0024668762849844
-0.36579429563907556
-0.7852244106862122
-0.7911304554352653
-0.47080343372665623
-0.03630388619185914
0.37460924322629013
0.4724822693691461
0.37919690420519686
0.19665595630318866
-0.007512848596015318
-0.19516735363397633
-0.34058915350874625
-0.4131837477853018
-0.37209810461634024
-0.18006518923939652
0.16466245213882874
0.5890475537982661
0.9169165026571279
0.8715240427420687
0.32242926142865075
-0.22482758310568798
-1.316956345921055
-1.8558169229567238
-1.2572474276852397
0.10548632950337553
0.3729908734807142
2.218568316173513
2.0714675821070916
1.004611425063878
-0.6742852867773034
-0.92716630194027
-1.822784705984091
-1.1650421211710418
-0.36757548827919656
0.5943156112304881
0.9553894915021637
0.6828736461004252
0.38708921990776185
0.05178396957779014
-0.20021650381407036
-0.3071894018556673
-0.2469724697207526
-0.20993546313777817
-0.18022046896883717
-0.1329304722111722
-0.04782136824681878
0.26649994915745123
0.5488610190780325
0.6754995548519147
0.4746671301028992
-0.2311121509020566
-1.3643404581642744
-0.7342037795443406
-0.4052335134781965
0.09061584362601686
0.6994995600446385
1.3676327537537427
0.36756115874288237
-0.34730243719706044
-0.7506722288215409
-0.5218107367184072
-0.01189279986314789
0.18621527888357803
0.45895479343288986
0.3874259286205001
-0.03594566700640391
-0.385835654607056
-0.38070493441907716
-0.2660164339601321
-0.012131440229124388
0.2703157600093869
0.3020477645927648
0.20338866602107375
0.06927733104908126
-0.04256618537351858
-0.10967231391590611
-0.13335885214931353
-0.12457223836118278
-0.0936057663952221
-0.048020704994847646
0.0001375415592394407
0.01999521189940453
0.14511667119551938
0.26053887677764714
0.1996197355591739
-0.24521931192220126
-0.8972525146566165
0.4418727708438805
1.6392525528872803
1.4879477294924088
-0.6270004667436315
-2.6676578637486643
-2.3204863507522533
-2.2536463400615236
0.12181823324792018
2.407321626521731
6.760287819840911
2.1268659228093507
-0.5521064680526615
-3.3425575352072845
-2.7893365338028775
-3.777365352994211
-0.2992347048369364
1.4044815525154237
2.1380699238583794
1.741589381776243
0.8677065969663684
0.01672508610077545
-0.5362084315653597
-0.727327657101432
-0.6353959250177283
-0.3968571865690859
-0.1368344950883666
0.06704188082763377
0.18648454666254308
0.2200403622607336
0.36177511569937976
0.37672301053992974
0.19436353143136348
-0.07586377852077739
-0.3115362773834391
-0.7386676694298374
-0.30293124889936696
0.13660011769387992
0.38665163804500163
-0.12276873261666049
0.20947670557148293
-0.09269414490133515
-0.015937222026737183
0.5324789130052043
1.1439051860383556
0.75919026989084
-1.254555293460826
-1.8205673711769554
-1.4941023724525082
-0.46063550599657377
0.9972935878941538
2.183930600402057
1.8706690626237046
0.4241988173077405
-0.7865979325637854
-1.910109377428907
-1.0953703148611749
-0.3888686801490137
0.3182509879582802
0.6826854675431386
0.6570209961368525
0.4222784245329872
0.13219277880211056
-0.11514641700188627
-0.2769457845927103
-0.3463700763905231
-0.3288595143914488
-0.2273675534991491
-0.043733742778698646
0.20486286246061472
0.46324489872813224
0.6230781240686137
0.5286992478715743
0.21117571736412127
-0.2535259057444945
-1.079676944699157
-1.5276914131613109
-1.309211042992862
-0.25738806427626826
0.9467685543155799
2.6312718006725984
3.2340399685506287
2.307106627932391
-0.5485178483733859
-4.446497059954354
-5.964761659977913
0.4040811205222958
-5.186674187379621
3.221315564344393
9.429626379335744
6.549172512487828
-2.9506910233532397
1.4725404612244937
-6.024574913326409
-7.85000227777275
-2.8563349911944136
1.1426240654430673
4.591440429172074
5.6392395672758235
2.3724711175488524
-0.016645687962059612
-1.453544308094989
-3.019897817031968
-2.6987532781588355
-0.5348941213295229
0.5100984140780391
0.9820083628127101
1.0614061345809955
0.8456304898771889
0.43708779740146836
-0.12827133726201084
-0.5026022816935825
-0.6088429470118255
-0.40641743628453225
-0.2619429192295677
0.26174869128680806
0.3971064900902886
0.35278764656648204
0.09712049263093323
0.1547476552244184
-0.17969619508007167
-0.21443856895445992
-0.02864693818959726
-0.04604964820538666
-0.22298894970760197
-0.25672861407096553
-0.4162183435834463
-0.393088147856068
0.035585924737376436
0.749353955078011
1.4558443069715967
2.319000276112385
2.262816290758202
-1.4559066223482755
-6.85150807761117
-3.672121211119884
1.5927722797698705
-3.279721189591447
6.819700910571083
7.972695452372073
1.9924948218382204
-4.7926349436894435
-0.12164916388545294
-6.4413842870939595
-2.151312825715342
0.6209588171236065
1.856961774940766
2.1221902748661536
1.5586579612466926
0.6861324609522059
-0.12440599805147984
-0.685133332267045
-0.9522787821395715
-0.9540343346532179
-0.7282782424436145
-0.29956911215024307
0.2971853166531552
0.9620335816359826
1.4768155098360332
1.4910543237952014
0.7741427940054371
-0.46364260837138666
-2.2112580870788388
-3.3160875613400598
-1.828941793711628
-0.28092716646861593
1.3094104301764806
3.757087609794383
4.458410611053169
1.866139795252146
-1.2500224618022282
-3.974060424404412
-3.93496233886678
-2.643100906452752
-0.17356902169395277
2.7699150844636105
3.8564982621059563
2.0937319951883966
0.2587239052205656
-1.3470003472495207
-2.223744181771632
-1.1347302836064996
-0.37043167463818444
0.3336732207604609
0.6097786479386067
0.6149762319374501
0.362215213187662
0.053456448473829306
-0.16700589177873437
-0.23381547857537074
-0.16053410108363514
-0.026063237164818946
0.24609213740021046
0.31283063362311087
0.24035282940861663
-0.06412621921058667
-0.6229283927831951
-0.9706508706236445
-0.36045124954443236
0.2003772975269381
0.6922214218983478
1.2227415724995916
1.1915724814881012
0.3019535691046812
-0.576866650590543
-1.5168348493286898
-2.447983488047299
-1.1290867695923978
0.40146536579349407
2.703178692463242
1.7849199355620828
1.7943891133812049
-0.0026691574010792533
-1.3400058291563228
-2.996698015509548
-1.0326873209478253
0.12392594671005391
0.9033251803236314
0.9387896275617063
0.5637871360439846
0.10301496493920764
-0.21147497933472253
-0.2854274970942921
0.030572917532694095
0.36496169894403757
0.4723420586091002
0.09727836249530472
-0.5538170710019934
-0.7464157419371509
-0.5752977037244964
-0.36205679447227507
0.10061405019741498
0.6657441664650976
0.7312997547735157
0.3495948624398989
0.1716309898472654
0.24004594104050347
-0.1697856906717906
-0.47324001958133993
-0.2849574403859508
-0.33495778349806254
-0.4114766141187967
0.05817162169961234
0.18719636524913663
-0.02293325275034213
0.04741685418776482
0.16474790184236182
0.3861220960214443
0.6318406036174123
0.697001205685465
0.3043583313127008
-0.6107899556935029
-1.8068197255120595
-1.2662269564871553
-0.5816401703656919
0.38887565384745587
1.4119175638264299
2.3552699760770692
1.102525045049874
-0.054679256133715486
-0.9387888258379482
-1.552073065703552
-2.140942248430286
-0.9164603058100383
0.13267780271160645
1.3350651486567926
1.776740130201854
1.745593182990342
0.4361226089654204
-0.855126478888021
-1.6497166039393878
-1.1598018893341038
0.23969045384563675
0.30346389945379876
0.7608020940764794
0.5213839370684024
-0.14243847520642122
-1.0266478247891033
-0.6398216838965664
-0.46631400604177303
-0.04953891390408805
0.7168238646757736
1.5170038601697202
1.9962637693615384
1.6290472537738419
0.07961394356814927
-1.9742079122129268
-3.2230488215677937
-4.606633140118732
-4.776281460413
0.6293653480313135
9.150577746427832
5.860200048503841
4.494390225877209
3.5083834683499155
-2.316712769258609
-12.041223520372228
-12.148006860875203
-2.397988089952628
5.680095465137428
7.295703864178458
6.9104712574605305
8.048732573885742
-0.7676951418467581
-7.488176910589331
-6.904783953946783
-3.136223190702619
0.3641716938823651
2.157747242848206
2.532551409468743
1.871829073223262
0.7971953074752145
-0.022806606318836846
-0.3580904437463007
-0.6020744325856242
-0.690956171563188
-0.8010347183765159
-0.2621369267690747
0.08943573059451465
