0
0.005710048072095112
0.005884687820216016
0.0031551962384676114
-0.002812044371868548
-0.010944089007850991
-0.018472479946052705
-0.021313981254300046
-0.015325965512367158
0.0016661743649835016
0.027604123151573873
0.054642434037571797
0.06943241356654929
0.056092153172950174
0.0018510420269159035
-0.09597331052373094
-0.2243681388873498
-0.15372369354948529
-0.04407814562901631
0.1417144050050228
0.22171139558205066
0.38208455163087396
0.17454029455790315
-0.07249898276927991
-0.43113616251561176
-0.3476390975505467
-0.22316707995361496
-0.009998936968935519
0.17473700875768083
0.4232381062405056
0.40940666411733034
-0.030079676554995983
-0.3001025722686969
-0.2379578040039875
-0.09742559408458899
-0.13396120040095616
0.20413668556938253
0.2784232812633658
0.06017020842836433
-0.06878219333679925
-0.11265972127042227
-0.25764480651479243
-0.07068812913300458
0.09584900514797079
0.0936827291529839
0.1653927630272981
0.13335321123115343
-0.005036653276964609
-0.07423923608720942
-0.11115162320776355
-0.1532402700380489
-0.028625441063506594
0.04885865387654316
0.0790494786640444
0.07099597998644491
0.03743967112967572
-0.009389120509618615
-0.059662212160069394
-0.10598644201595434
0.05719120885465258
0.033780937103116165
0.02569243489880448
0.032535867959923886
0.052076926875092654
-0.1184573379279092
-0.0809567549262842
-0.036120601105575724
0.014828449836481582
0.06668538270881465
0.10675955106168737
0.11379859714073602
0.061363085598356765
-0.07398443778220103
-0.10163633642550442
-0.20702762404491226
-0.14751915857931097
-0.05746100639538934
0.13722410529296486
0.0983570872408017
0.2550665215250988
0.1907234366765374
0.04253426581459717
-0.08483506624187703
-0.09492097608287102
-0.2715112668683721
-0.2556666733110535
-0.03493160465738298
0.051894690398396295
0.09613503500356614
0.1929247272658652
0.21559126795058967
0.19847589212617311
-0.06712644080280493
-0.22379526269807826
-0.12998206726074302
-0.04020449373805944
-0.19014996763482875
0.009307536944393648
0.16877414891243947
0.11045872493247004
0.05636421027427638
0.01907522558740952
-0.002135921714368677
-0.01959678689213534
-0.05156575842094407
-0.11522606314041418
-0.020977798282454472
0.030155544708800247
0.04558744711889545
0.03768940642165162
0.019534044830614956
0.0014847581774969302
-0.010493506283866276
-0.014778411325700793
-0.012848194705810244
-0.0076104001674739815
-0.0019404474582839393
0.0022133709908402147
0.0040987235061878
0.003953332707940241
0.0025650859145995835
0.0008220636508232081
-0.0006031764159763967
-0.0013856378857471598
-0.0015221687620234033
-0.001213592137704458
-0.0007251588657407042
-0.00027715352001663233
1.0324255234260354e-05
0.0001195557755011004
0.00010151715153475924
2.895215061783952e-05
-4.387491210467839e-05
-0.00010211970796140954
-0.0001679444455766505
-0.0002784585928259106
-0.0004536551854867735
-0.0006676045255456261
-0.0008368703737453152
-0.0008369829631838039
-0.0005500426490282055
6.55850401690587e-05
0.0009066093080063746
0.001691442180039156
0.001997797621649666
0.0013924100768118936
-0.0003587927261321298
-0.0030575931152355593
-0.005919214986956332
-0.007618741569633595
-0.006632399714031621
-0.0018786111462072875
0.006478511501542188
0.016355728274324206
0.023598226457252697
0.02269883698403765
0.008500949524670882
-0.021432228322083715
-0.06460366804681218
-0.11268367173725014
0.047055631817215345
0.027760938709423772
0.03749858053339371
0.0742754055141825
0.12381928953534595
-0.03839586305953086
-0.04087004772479496
-0.10724863988215191
-0.047894790812127094
-0.05493413644386183
-0.1027571023310473
0.045867523336984004
0.22989973987780915
0.07972715661961205
0.010173887717779054
0.019209506675134196
-0.1077552075232019
-0.19045631509418504
-0.046765720441021105
0.11108986989302373
0.07627168970862948
0.044394290026553394
0.010269758556178916
-0.03388479630614173
-0.09836872144636959
0.005262876424840743
0.06574231933319265
0.07357881909033079
0.022811279320035308
-0.08665025113857441
-0.046509477551909345
-0.038637158229100375
-0.03606657605935634
-0.0070446848715765035
0.078478374990257
0.04165277829207356
0.08910068648794493
0.010846791831439457
-0.01728093861283864
-0.027356249864193525
-0.05105638170923354
-0.111915122886201
-0.020493466167172156
0.026146757088187984
0.04076493684306358
0.03959637442823273
0.03566548023643569
0.03397372246931897
0.029986776123918323
0.011755930064498765
-0.03509724948957715
-0.12123584938083688
-0.048511012501637266
-0.007884285037562187
0.018751900843266424
0.053532239534077174
0.11631829320298322
0.019522399052375492
-0.03417586903798005
-0.05080162937519485
-0.041729727590971065
-0.019719287834786086
0.004157433293812911
0.02202120779015759
0.02934754955551652
0.024529530975819513
0.008600175656100006
-0.01453462958932049
-0.03758854104613517
-0.0498170557412737
-0.03816534386125549
0.009976267908638843
0.10284642918249809
0.0405037197616733
0.012767944836056158
6.017246811732753e-05
-0.02281755553872932
-0.08104371626398922
0.006034894644563045
0.029293998211138626
-0.008185764758982257
-0.09181799445403381
0.0013331431156312866
0.09752728139767879
0.02049790861959828
-0.013793767664744647
-0.0004905233831617236
0.05341272339807174
-0.06914975917315166
0.00846847381587212
0.06166031852826905
0.07002909014516498
-0.17762498260737766
-0.07997241715395169
-0.022854846665083778
0.01712522418372659
0.06571509963766084
0.14304708292527407
0.05761360735996039
0.004633994318275954
-0.030448620033337214
-0.06471550023893857
-0.10973549838652015
-0.1661597799619671
-0.023490169480609068
0.13446093674332432
0.1204814696722075
0.1353187321389956
0.16385731923923483
-0.021300415059978078
-0.24945668384483474
-0.13849522206687975
-0.08422400916375988
-0.057256038467413374
-0.009395204530147968
0.11211295107134021
0.14696427982693133
0.1066364038473675
0.16702646784391872
0.07204132536853251
-0.052057812536796075
-0.27541123786338867
-0.24311121981042116
-0.1609860364405738
0.006103309341938776
0.12272439534186647
0.26241895023682654
0.2859778806407891
0.026222327589882004
-0.11604570669101164
-0.16517839300392256
-0.15748559612506127
-0.12799569036662098
0.09789808718433968
0.10623613366458463
0.0913525044530921
0.05115336231961763
-0.016176668092782346
-0.1128039701770788
-0.039891924145207765
0.0040614336325828755
0.023777483470132373
0.02626699250435858
0.01901915718136773
0.008273203669386997
-0.001910250176703563
-0.009580422355467674
-0.014109337776712891
-0.015230187458100288
-0.012455736091857456
-0.0052288932613816005
0.006174270925202592
0.019322602677063754
0.028480558154874085
0.024274594932369473
-0.005402962932450136
-0.07328468477850375
0.010071908205589081
0.03904876701559931
0.015155904429100872
-0.05155826891506873
0.05804847550329675
-0.028303877551993897
-0.07629956679545856
-0.048893951483843096
0.08776950644784084
-0.043159546042981674
-0.03712776043721356
0.08535476541258287
0.07565359453635863
0.059225030814223915
0.14441177787456932
0.03782103807089493
-0.13574590116523572
-0.21312152734631787
-0.17824173983215366
-0.15889164428732683
-0.037757237818359754
0.12350997160481485
0.25303277783857675
0.23910765026222353
0.31137820416884715
0.038928755553047714
-0.2540650199044262
-0.26072703400543373
-0.2619839733300225
-0.3058890966226133
-0.0028665555121491658
0.26243339893819745
0.3087077128435782
0.3354300937981381
0.1106656248524084
-0.024534656191445087
-0.13581226177881778
-0.2663659555806717
-0.40979433015049777
-0.09548743259525162
0.006821592612752112
0.06308962301528624
0.2377667475295951
0.25375847235645715
0.1607024815396366
0.12017330579145795
0.011591482410937892
-0.14299819746561082
-0.141891891105199
-0.16376676469913717
-0.13424432430389005
-0.10617577284055268
-0.05708768403380453
0.09699642328995263
0.07590794818726863
0.20494499860258059
0.18753992730714736
0.08740975362904785
-0.07656012832804364
-0.1235507305293614
-0.2966137772088058
-0.04710594727913266
0.17728751056032035
0.13909797556995535
0.013504409544493456
-0.0108014608509549
-0.13081210948700125
-0.12884623932638614
0.02601082722451361
0.17396436270421958
0.15897239334162583
0.02360319896341979
-0.19435697420978182
-0.2642745942987661
-0.16649739700787625
0.1003706288972698
0.30982814618065163
0.4003822370842781
0.27761753592913985
-0.17036986435448867
-0.4460323132478646
-0.41242212533058176
-0.27191566064327594
0.03734201075058066
0.4256031878938721
0.4228607878249118
0.14866888550698443
-0.10936649819924589
-0.3041026193405502
-0.22683445164510352
-0.10085044721257981
0.22429624585751418
0.2767461924860363
0.1673532509947602
-0.0004966522457276878
-0.11517335732947005
-0.4384563959908358
-0.19099046596920086
0.0521915648829953
0.15356838857236593
0.19532088995594044
0.2586423876918813
0.007498653955052653
-0.11867459512383656
-0.10325493547776989
-0.1453115278396072
-0.05206742354907848
-0.034795325301328325
0.09062785056927437
0.10001084230660005
0.15722600539596204
0.014063015830807917
0.015472505719275852
-0.09034957411123491
-0.1399749215024135
-0.14508440414219254
-0.08899588980358816
0.0687753159759771
0.18105624925304464
0.09850206048222533
0.057011025932220113
0.0710531705762951
-0.06563812265306905
-0.17337522327291477
-0.0771492036987781
0.0016735543628634108
0.05006837882185955
0.06407432640444864
0.04687759745576182
0.006168543232818212
-0.04792999636155377
-0.10417263649217699
0.048645128170678
0.02003990732090291
0.015746964524664193
0.03594528293092693
0.07477607853543078
-0.07828019324951553
-0.03537458265766437
-0.006560812855878668
0.0033658797245631348
-0.003528935966231379
-0.01867968348392859
-0.029248538336121746
-0.021802042562085722
0.013300932226246698
0.077982700294676
0.16454880715135778
0.05730508268686356
-0.061838454785730926
-0.2052327652192682
-0.17223974371223108
-0.14688125745479869
0.09723947326049907
0.18579529363926361
0.3309361928159404
0.12296840710403399
-0.06893162641056698
-0.28662922401016927
-0.16788840766408977
-0.13293647144987047
0.021597464703813487
0.11948258597838758
0.19476765112544175
0.0796834049971148
-0.0044740515023850595
-0.05067211612496864
-0.06381068612340506
-0.05505723288307453
-0.03586182096100316
-0.014014229011678144
0.007227743866852164
0.027283552410471763
0.045013624626739995
0.05587482186329076
0.05104744769605179
0.019349414588304772
-0.04842154605822287
-0.15433849402081157
-0.0898356584382877
-0.0360912006657788
0.030903703341977073
0.1320455893289415
0.27701375112675963
0.060341122828784705
-0.1358357578085087
-0.13296640191820505
-0.14502662727501625
-0.17039223764550995
0.009424217173444768
0.22340073191143278
0.09969942226304514
0.05425349031765214
0.08385904838609184
-0.033840284757801826
-0.13398069622815775
-0.05448569124116086
-0.026147136449087522
-0.06592934193060712
0.024921934426395075
0.058189098879279824
0.053030403103146745
0.029627797343240687
0.00417424230801394
-0.013659211193648366
-0.020731864678144245
-0.018684019877934523
-0.011504439018894204
-0.003348677423035163
0.002848100120619022
0.005847438710900725
0.005871432467622733
0.003995155672830225
0.0014959217486046267
-0.0006210719346890113
-0.0018374578228261178
-0.002105280917313719
-0.001689603188479249
-0.000971108779861551
-0.00028503836421600094
0.0001666121475605427
0.00032912663068639125
0.0002580363750099377
6.131510126580517e-05
-0.00015354812811780512
-0.00031288690970556946
-0.00038740546417121227
-0.00038501733136702874
-0.0003347116811744968
-0.00026977321990526333
-0.00021582545637218557
-0.000185654244164911
-0.00017993557843397958
-0.0001914722739051735
-0.00021032973128970548
-0.0002279391247823123
-0.00023926776142432492
-0.00024308970067584443
-0.0002409699609886694
-0.00023575152395032497
-0.0002301995328541542
-0.00022616771711239325
-0.00022435515240136928
-0.0002245123580308029
-0.00022586740110334255
-0.00022755831647071838
-0.00022893470279611024
-0.00022968256951256015
-0.00022979854026141527
-0.00022947692277264489
-0.00022897695927678088
-0.00022851891547369277
-0.00022823063012703633
-0.00022814229085515496
-0.00022821288069803483
-0.00022836801397154097
-0.00022853308569474774
-0.0002286535586579158
-0.0002287018536504115
-0.00022867514837044024
-0.000228589625092575
-0.0002284750031608367
-0.0002283701034122552
-0.00022831750098965361
-0.00022835446354007197
-0.0002284989919566651
-0.00022873349316069295
-0.00022899297579263302
-0.00022916745434113116
-0.0002291271271664526
-0.00022877233810736082
-0.00022809871772392788
-0.000227254289313157
-0.00022655543443803546
-0.00022642952754618412
-0.00022726955041423873
-0.00022922100215916032
-0.00023196675120583742
-0.00023461472435234383
-0.00023580359657663597
-0.00023410105660996686
-0.0002286682837803213
-0.00022001772322333414
-0.00021054485927979116
-0.00020444070756082348
-0.00020666866209548528
-0.00022096681849210332
-0.0002472946060990565
-0.00027965953569025103
-0.0003056157235080404
-0.00030865169690591845
-0.0002739677776216656
-0.0001967632849744348
-9.04062865701911e-05
9.608429166833046e-06
5.0308302176314644e-05
-2.279655141393291e-05
-0.00023974144010874976
-0.0005771119759322611
-0.0009385594571557058
-0.0011599471993037824
-0.00105088345920371
-0.00047328315361701333
0.0005602833978064925
0.0018054685579825481
0.00277227864302718
0.0028243985279376425
0.0014085423367474917
-0.0016236755185662912
-0.005706362380924583
-0.009422677046735292
-0.010709914356192786
-0.007507095068063014
0.0012098985978215863
0.01427650489067069
0.02754495021915044
0.034002462040231524
0.02520739852434387
-0.005987633550451804
-0.06210867980914277
-0.13843246670033565
-0.022535760159271733
0.1031449222741541
0.05629170259818958
0.04912637240427861
0.08457649969590554
-0.04435540647389219
-0.15212527538365236
-0.056610100098880844
0.024484425628222447
0.07552739767170855
0.0834308229159234
0.03802260230493172
-0.0664441910590524
-0.028538139574562065
-0.036813456786242066
-0.06864385485356385
-0.09213509975293714
0.12852397496683826
0.02527370045153805
0.018133597514176706
0.10948722597836559
0.08273587270141404
-0.09395030142562356
-0.05969141451377995
-0.05114785198887323
-0.0940104499764839
0.0017382840389586005
0.04170349954499486
0.04269437582071568
0.025927985600125974
0.010085966147604753
0.0060945802667453615
0.014700508572553528
0.027140526737429116
0.028613657018656886
0.0037705866458834824
-0.057093491245067185
-0.15297286779525884
-0.0702126220219482
0.01495058195924149
0.12962809908789724
0.09553014714583252
0.12165252691065022
0.0014082529118723513
-0.08470060365839421
-0.16222537998283454
-0.054815979331279005
0.02161941545691316
0.06090364551526662
0.06508495665085733
0.04123650980368361
-0.0014954517100147946
-0.05356417285473979
-0.10559788536720689
0.05118973960455528
0.023937511478151388
0.01639029807007639
0.02721625237302006
0.049343844784474705
-0.1291176374121428
0.07756448232650588
0.056192331233646337
-0.001571608057217314
-0.09579065973907981
-0.01621156990292508
-0.14284877814817498
-0.050111709988414056
0.08583746899944197
0.27859639328401825
0.1254391291851943
0.007052993236962371
-0.10573681745334682
-0.24055807833754253
-0.21238415654913528
-0.017918433720833075
0.1618886056351
0.15254504575457933
0.17454789382908953
0.03507238017974178
-0.07383895782451466
-0.17064491679254296
-0.07620278848201606
-0.006196876991642233
0.03296501134559361
0.04403979854407923
0.0357977862670831
0.018826313688471392
0.002026165755231923
-0.00927796651359542
-0.013542743796889821
-0.012028976180148598
-0.007347497651301635
-0.0021372495402814046
0.0017712714650470636
0.003629844873577688
0.0036073122682239236
0.0023990439027728712
0.0008159193727771249
-0.0005114545727237273
-0.0012634396149992383
-0.0014169351077723976
-0.0011437050934934227
-0.0006852845270134075
-0.00025213220700789083
3.0401591017509695e-05
0.00012965880605021808
8.157904929338464e-05
-4.580546216174613e-05
-0.00018521695310548924
-0.00029034732197939686
-0.0003418231073080443
-0.00034250800565683963
-0.0003078983028478831
-0.00025685183661518983
-0.00020575261117244256
-0.0001666645474279036
-0.00014804856908140645
-0.00015576497283233804
-0.000192467984558218
-0.0002548500363551901
-0.00032995782985264003
-0.00039326745145713235
-0.00041164769758664634
-0.00035322767847153537
-0.00020342389207089788
1.7454700701953165e-05
0.00024319476197458547
0.00036689302941074074
0.00026948692132376954
-0.00012884658991216952
-0.0008065274274533769
-0.001592139715750526
-0.002161674519723467
-0.0021093758152765274
-0.0010999800751197307
0.0009255356950084116
0.003561225857844504
0.005867629242273365
0.006527269810671448
0.004277888884255946
-0.001428986373833902
-0.00973912009812911
-0.018002162473620173
-0.02204912633374432
-0.017415244819279908
-0.0014980225743450304
0.0237891361395753
0.04974834213905705
0.06013509427661486
0.03284435624433857
-0.0557133699010111
-0.02435846496063795
-0.08077941397721351
-0.017182123072579006
-0.009616776749887125
-0.021601788919957496
-0.011470232228978163
0.058122192197073624
0.01072764876461178
0.04912653754410978
0.15308297759650005
0.08332659090558231
-0.008146569799163065
-0.16338465391027382
-0.20347043715174162
-0.11840342537521253
-0.06621402010283527
0.01726291663824991
0.2003648771818901
0.13492721841294467
0.23983808882694815
0.09452781705384715
-0.1552461322571334
-0.18133191940983046
-0.05251528822667402
-0.21631072797411588
-0.08890980293763821
0.14426916493749786
0.11876888486962302
0.07635866929824335
0.050871971423450305
0.059144165054895705
0.09928666426283037
-0.04400341050800026
-0.18961459347495213
-0.14979764506941573
-0.12409125142926239
-0.10054593142151654
0.13569878005500502
0.39011990654007467
0.24904902369875542
0.0785793653041482
-0.16524276230908957
-0.31798118538174563
-0.3880177851449315
-0.14653828564605706
0.06788201798401171
0.3307090053094667
0.3059746197814765
0.2242458654362175
0.07289911894953835
-0.19781587868156672
-0.25603397419494994
-0.1647956216355815
-0.16292392125899297
-0.05674673076764787
0.17567561275408308
0.17108599156901205
0.1648258555078803
0.17885504513074663
0.018639510029599713
-0.12055926358512803
-0.2417836518130777
-0.33555880620295764
-0.17698536326799202
0.06554092419419319
0.2117988604526694
0.44892525298989855
0.5189579365282883
0.12389461085860545
-0.24892238797457353
-0.4874132540581514
-0.6155357144422433
-0.37079389060533435
-0.010127668891836188
0.25468130678994777
0.6026518617026149
0.5488025277977638
0.30828156197065604
-0.007794642083691408
-0.16341847247405727
-0.5459959578608308
-0.5098174332983731
-0.3336713290125151
-0.005899055819195471
0.16003419022692442
0.4872621495286178
0.4897858481778998
0.23591693622928123
-0.06741676081504763
-0.2668861381815873
-0.43813117255398126
-0.2563763307571267
0.02598156883605064
0.18839069222345844
0.23841908655760344
0.20107757261563208
-0.09199931946755456
-0.20941075774572063
-0.12280940331211894
-0.008179798161455826
0.15217580336623646
0.16690009404169226
0.03401328694133583
-0.057515746119478975
-0.12292499059835797
-0.1756399555604773
-0.023142898803059548
0.13320401285727124
0.09463314237226816
0.06011182447533406
0.023095134306100277
-0.028313883185678835
-0.10794484543923738
-0.026588262268067032
0.012334288121551042
0.014851594553900302
-0.004226222336700495
-0.024316610780579746
-0.023593095221121258
0.015903376615677225
0.103652653662095
0.037799650533666115
0.00516723337789028
-0.015499963148846174
-0.04787053536357916
-0.1117563320208404
-0.01835459093426024
0.031471889995168076
0.04560338579479701
0.036797479005292455
0.01828034567064898
0.0003480627179644313
-0.011229520749950494
-0.015046993972401576
-0.01274497985014347
-0.007307073326246273
-0.0016054723272775674
0.0024644635597078106
0.004218612580583656
0.0039516361799265135
0.002484009097767587
0.0007116457035416062
-0.0007021826747603476
-0.0014488686565502947
-0.0015408154562138667
-0.0011898732102592288
-0.0006681285947622896
-0.0002009837017433979
8.596679387526518e-05
0.0001694384721322648
9.814289412327714e-05
-4.884201372968414e-05
-0.0001978814700103885
-0.00030174488680223126
-0.00034463559701982684
-0.00033557175086066076
-0.00029646045792783
-0.00025053284958411837
-0.00021461369844816557
-0.0001962278074905354
-0.00019466909382281238
-0.00020424364600285654
-0.00021787706645679978
-0.0002298274482683175
-0.00023698647636909227
-0.0002388814637023834
-0.0002368547836331377
-0.00023297868291311433
-0.000229141048573461
-0.0002265244251257138
-0.00022549631217555998
-0.0002257939031171361
-0.0002268375219232964
-0.00022802775467948536
-0.00022893961100420787
-0.00022939098783025523
-0.00022941025067046698
-0.0002291500915860564
-0.00022879425561073838
-0.0002284888398366889
-0.00022831056326422513
-0.0002282683237534635
-0.0002283253315196616
-0.00022842736042075792
-0.00022852606074138783
-0.00022859187767682094
-0.00022861636462908068
-0.00022860706484492492
-0.00022857928679051657
-0.0002285484787195678
-0.00022852536017748916
-0.0002285143160463798
-0.00022851435570367387
-0.00022852139613771278
-0.00022853067084888524
-0.0002285384671837047
-0.00022854289699752726
-0.00022854381535461892
-0.0002285422255097848
-0.00022853954438223286
-0.00022853700880134096
-0.00022853535597189674
-0.0002285347770876778
-0.0002285350582410455
-0.0002285357959028069
-0.0002285365923934925
-0.00022853717774152412
-0.00022853744696504585
-0.00022853743221360465
-0.0002285372423800617
-0.00022853700096019428
-0.00022853680218049577
-0.00022853669236543768
-0.0002285366730848791
-0.00022853671710117753
-0.00022853678744245474
-0.00022853685250637297
-0.00022853689394252165
-0.00022853690750762183
-0.0002285368992076862
-0.00022853687966102457
-0.00022853685909326795
-0.00022853684429297304
-0.00022853683775708218
-0.0002285368384884569
-0.00022853684359005135
-0.0002285368498660469
-0.00022853685492811706
-0.00022853685764360782
-0.00022853685802756786
-0.00022853685681654935
-0.00022853685497395212
-0.00022853685330629872
-0.00022853685226935537
-0.00022853685195483185
-0.000228536852195488
-0.00022853685271238589
-0.00022853685324289184
-0.0002285368536165841
-0.0002285368537745282
-0.0002285368537467088
-0.00022853685361002256
-0.000228536853447071
-0.00022853685331830878
-0.00022853685325132774
-0.00022853685324432423
-0.00022853685327745924
-0.00022853685332566886
-0.0002285368533683969
-0.000228536853394345
-0.00022853685340158892
-0.00022853685339472934
-0.00022853685338105733
-0.00022853685336729617
-0.00022853685335772557
-0.00022853685335376517
-0.00022853685335460548
-0.00022853685335829545
-0.0002285368533627672
-0.0002285368533664921
-0.00022853685336869775
-0.00022853685336925237
-0.00022853685336840388
-0.00022853685336654794
-0.00022853685336412437
-0.00022853685336164217
-0.000228536853359751
-0.0002285368533592382
-0.00022853685336085393
-0.00022853685336494609
-0.00022853685337100634
-0.00022853685337734193
-0.00022853685338114556
-0.00022853685337918228
-0.00022853685336911829
-0.00022853685335120306
-0.0002285368533296684
-0.0002285368533129784
-0.00022853685331213265
-0.00022853685333672484
-0.00022853685338939853
-0.00022853685346050422
-0.00022853685352571232
-0.00022853685354947645
-0.0002285368534960374
-0.00022853685334692185
-0.0002285368531200811
-0.00022853685288218834
-0.0002285368527440626
-0.00022853685283167986
-0.0002285368532328879
-0.00022853685393198206
-0.00022853685475733926
-0.0002285368553754964
-0.00022853685536154987
-0.00022853685435548073
-0.0002285368522772397
-0.00022853684952870028
-0.00022853684707533115
-0.00022853684629752356
-0.00022853684855114316
-0.00022853685448509883
-0.00022853686331120876
-0.00022853687235849915
-0.00022853687729667825
-0.00022853687330706476
-0.00022853685717384636
-0.00022853682979924632
-0.00022853679814912673
-0.00022853677533960688
-0.00022853677774299752
-0.00022853681880921801
-0.00022853690074118134
-0.00022853700688104671
-0.00022853709897214503
-0.0002285371234759425
-0.00022853702908675103
-0.00022853679331213134
-0.0002285364502816854
-0.00022853610679254578
-0.0002285359318562638
-0.0002285361095179726
-0.00022853675688150386
-0.0002285378275436505
-0.00022853903955797096
-0.00022853987766660846
-0.00022853971180770137
-0.00022853804098570113
-0.00022853481508531946
-0.00022853072127414562
-0.00022852727329560277
-0.0002285265452384681
-0.00022853047462943193
-0.0002285398283192962
-0.0002285531450681669
-0.00022856616241855935
-0.00022857229139964903
-0.00022856451331332132
-0.00022853858925117948
-0.00022849676258299522
-0.00022845041589782293
-0.0002284197661400502
-0.0002284290290595082
-0.00022849680627337954
-0.00022862365942913216
-0.00022878136245670815
-0.00022891010261358934
-0.00022892962342518455
-0.00022876691038192163
-0.00022839637729899013
-0.00022788000453060803
-0.0002273876202404816
-0.00022717580415820238
-0.00022751179364832285
-0.0002285479702239528
-0.00023018009722656498
-0.00023194974043332027
-0.00023306460565653524
-0.00023259521326254723
-0.0002298533361792168
-0.00022487120130015054
-0.00021880378115899117
-0.00021401127828525954
-0.0002135955263177962
-0.000220301814327382
-0.0002349590076612591
-0.00025495871590200153
-0.0002735456671142114
-0.00028073985635165323
-0.00026638315308660646
-0.0002250420527115633
-0.00016142778271168945
-9.39629455169373e-05
-5.366121430453428e-05
-7.615177640960883e-05
-0.0001868000517082743
-0.0003822503032002261
-0.0006154092354273655
-0.0007932675878045311
-0.0007960833782062731
-0.0005208687414909789
5.815041564498729e-05
0.0008320573789812027
0.0015328263397021752
0.0017732145505292118
0.0011686731138935774
-0.0004711555912153677
-0.0029353243697372083
-0.005481952829389534
-0.006895324910184621
-0.005810986159184138
-0.0013065406758453809
0.006373917995793247
0.015231911124861875
0.02141577859315045
0.019916782419580503
0.006139042988948314
-0.021972272883981295
-0.06201006597458024
-0.1064373006100265
0.055960280649140624
0.03642298663497109
0.041435264716197476
0.06873257182896814
0.10602089476215487
-0.066570338757329
-0.0707553093181333
-0.12301483826785438
-0.028870992075261562
0.019286837558190665
0.040185378867582666
0.05858029841808934
0.09927238960886396
-0.017646318569240278
-0.07917484421185866
-0.0796322119370859
-0.019905002425901184
0.09316006558223289
0.047012326358547116
0.024052085909711817
0.003598661583518722
-0.034645074472381146
-0.10648638580897489
-0.019983382271321144
0.025647025514290055
0.0385407267551968
0.0308295029591038
0.014803825836781598
-9.336951043381546e-05
-0.00873663417237329
-0.010238666086108416
-0.00677414296566519
-0.001913990376565966
0.0010016536001106926
0.00010061512097149183
-0.004363379498167113
-0.010022319858998773
-0.013107165298055298
-0.00981581151345473
0.0018652245225270192
0.020316472077451752
0.03907773165480304
0.04701619773071429
0.030382953376671195
-0.023340864914027343
-0.12078500191997261
-0.0589569600288039
-0.02428444104572571
0.004565351753154514
0.05062019855742301
0.13129903177265828
0.05258642706137859
0.006990060981232561
-0.023835653383828443
-0.06276076810588326
-0.1295496406028154
-0.03475747808712745
0.0227689636972121
0.05431323662940182
0.07688468005206778
0.10823874507301152
-0.03662241930213256
-0.146650945481781
-0.01439791167528712
-0.03575076489002052
-0.011071414981875135
0.05224920799564138
0.13717097671828057
0.016363357759823154
0.0552621155775794
0.019246689036905993
-0.11643743319221496
-0.15697327378467896
-0.08213780078697754
-0.04730745435924795
0.0077965876822522805
0.14447785151864456
0.20871362334115034
0.018116910790438544
-0.043788807176382095
-0.024502717807551134
0.008044094052087652
-0.019401771956648096
0.03074216767241791
-0.07915625279583183
-0.15313311899883153
-0.16042089017492334
-0.04319820225364237
0.0675363573011463
0.23175655806117912
0.2821573857896251
0.21465974852281272
-0.007909707884646951
-0.23937999667902704
-0.3268871277244963
-0.28992019391113316
-0.11061479568819893
0.06031198548833833
0.2841768780405179
0.40951587067948475
0.25236072785934416
-0.00992260437738746
-0.22863571205460553
-0.26206189019551224
-0.35148194888676854
-0.10480731624608046
0.10612033552943068
0.3347712557106642
0.24156312439323052
0.07607847664618107
-0.13386502275562912
-0.18471979362493898
-0.29421888511643685
-0.09754958334469686
0.35445493262966143
0.39621946527532836
0.1517690890815479
-0.05348155545163713
-0.27386775779137856
-0.5237151973113114
-0.3661456999790418
0.08185159535838965
0.3269589928351867
0.4668717251962899
0.3602263827788548
0.21154633724634553
-0.22264094723509628
-0.40952680727123664
-0.4083967351356725
-0.2453726131410739
-0.10501036384993238
0.25847610468292165
0.49625985116390486
0.4379807224960425
0.07512516893530109
-0.2382637634192599
-0.3690024966452512
-0.3810774092215306
-0.11596134878295299
0.2154264879980471
0.42836777170703966
0.1530356361697402
0.023684339513775726
-0.32705356753977893
-0.2693455996951999
-0.17703849982788714
0.16793613332206522
0.367768196250014
0.40228023246097877
0.030086194346902056
-0.19919925637746128
-0.32441231427930545
-0.3522526651200471
-0.24655404397070882
0.06613930068736029
0.2750997785836204
0.4555375793923768
0.2418161309565155
0.014227108455161976
-0.09583373137865521
-0.184885638410881
-0.3489821737062613
-0.25832665568103225
0.05686913369044115
0.20620072719974142
0.22744778987424102
0.1704418346464157
0.08365412673375487
-0.1924288999213063
-0.22565006955644884
-0.19023112963807565
-0.06711564660019977
0.15132580716826982
0.45431405903340466
0.20873403473169827
-0.03637798701142145
-0.13535227495213326
-0.3255390462651748
-0.4095483201894531
-0.1488930604562162
0.12619547452944058
0.2928441972232484
0.4061255745459867
0.2758485481341924
0.05921031695577449
-0.1273277602500829
-0.38134401514962146
-0.383243113679581
-0.17237450052059697
0.06110652037303091
0.16707241198351488
0.4144860860215646
0.2683788438378278
-0.02604932396775191
-0.2476176118628244
-0.19332469275556105
-0.2687425340027508
-0.08149570875887736
0.158623749204528
0.4344660948533746
0.31689078982980184
-0.03310965351376165
-0.25305148059905863
-0.3619967897260023
-0.3463248899074628
-0.15677628958409756
0.2794061083660087
0.4346841158780859
0.35526410525693614
0.043919817383717044
-0.14148781842519711
-0.2741257520620564
-0.2356758601466952
-0.09437813119148754
0.1092079405750649
0.16620118414119606
0.09508638836371784
-0.06686010704824942
-0.0729607516953238
-0.07585960887595904
-0.035542610608621565
0.073415182397512
0.2565750830276046
0.09853484222260812
-0.03215407901653059
-0.17233737754530415
-0.1510868669628679
-0.1790815613634314
-0.04508106092878285
0.07878572375373132
0.22497729743052775
0.21681178145644117
0.058902544080973784
-0.06434884049392132
-0.18209313107239575
-0.1257523068657638
-0.1183239340445284
0.03149471364787812
0.12894307960688928
0.18822799249302352
0.026310808065892515
-0.14157866685350995
-0.10376697045478274
-0.05246433351967011
0.01562703732208452
0.09777609189386237
0.1838858116073382
0.057459200897429466
-0.09967256904389672
-0.0994315162927636
-0.1391680869292982
0.0033272227900950887
-0.0313692593862711
0.0076086520697283945
-0.03200241369841461
0.07876762674589373
-0.06378172376334003
0.2960170464810316
0.47505222444701195
-0.23452282201976365
-0.14003055733274294
-0.11748818345496732
-0.3847641250678696
-0.4885545157050659
0.2884464767344555
0.10018090037704859
0.09676503090951356
0.3830261942963439
0.3890266069278188
0.2623490940884637
-0.11436028106416038
-0.2851529399976076
-0.574001376426179
-0.4456676869451698
-0.2885238356722849
0.174099099767102
0.44838714931683216
0.6245121134637136
0.53969732448526
0.3652539385744305
-0.7771266392060551
-0.5775400320696331
-0.49615556612063494
-0.33690944482036744
-0.04815130766534621
1.0512862473213966
0.6341112048854844
0.13334605332959215
-0.26795736765822215
-0.4235050199605856
-0.39628899844492743
-0.23148152572886466
0.05837903333648779
0.2917663979168322
0.30415027115083965
0.13037317868978934
-0.008080692510650373
-0.10667254444258335
-0.17335665774860137
-0.2208674175614877
-0.0611513015960701
0.09485830214119913
0.23265462750348276
0.1286210427722847
0.14856173614764112
0.053643646667188995
-0.18658445080691624
-0.37840337566545107
-0.09209963922800128
-0.060324749729689646
0.01072367871608466
0.21970400583161476
0.24465767920019807
0.12175912828575228
0.03492018139950991
-0.08091339387225228
-0.124437292601342
-0.005672591619028516
-0.02291918307243027
-0.2445417133537829
-0.09941163422553721
0.022416394992256273
0.15996072234143954
0.16653453170932164
0.2957108937584661
-0.0068129788103085285
