0
7.999934973751826e-05
7.999934974166387e-05
7.999934974880402e-05
7.999934975715801e-05
7.999934976331342e-05
7.99993497629606e-05
7.999934975249585e-05
7.999934973120713e-05
7.999934970330333e-05
7.999934967869639e-05
7.999934967142662e-05
7.999934969513978e-05
7.999934975613298e-05
7.999934984598618e-05
7.999934993716929e-05
7.99993499855175e-05
7.999934994234124e-05
7.99993497757949e-05
7.999934949634779e-05
7.99993491761855e-05
7.999934894945756e-05
7.99993489821319e-05
7.999934940867111e-05
7.999935024748015e-05
7.999935132447265e-05
7.999935224713587e-05
7.999935247118683e-05
7.999935148071289e-05
7.999934905888999e-05
7.999934556843788e-05
7.99993421092503e-05
7.999934040422567e-05
7.999934231180219e-05
7.999934898875656e-05
7.99993599128571e-05
7.999937216568064e-05
7.999938048004145e-05
7.999937847246314e-05
7.999936114114397e-05
7.999932813290395e-05
7.999928661544257e-05
7.999925211031567e-05
7.99992456924633e-05
7.999928682744632e-05
7.999938284432501e-05
7.999951827936169e-05
7.999964926718985e-05
7.999970867329112e-05
7.999962567298875e-05
7.9999358513274e-05
7.999893196355704e-05
7.999846372051797e-05
7.99981603428772e-05
7.99982670337258e-05
7.999896923030458e-05
8.000026652715539e-05
8.000186500707567e-05
8.00031517256299e-05
8.000331160819255e-05
8.000161181114837e-05
7.999781061018675e-05
7.999256158737257e-05
7.998761119740514e-05
7.998557241964075e-05
7.998913999138029e-05
7.999980984640805e-05
8.001644606847931e-05
8.003431308449184e-05
8.004532008995233e-05
8.004006086655062e-05
8.001168583329936e-05
7.99607615980824e-05
7.989929630871158e-05
7.985146284033258e-05
7.984874674093767e-05
7.991867407384155e-05
8.006894785772034e-05
8.027214596723368e-05
8.045884754051575e-05
8.052746749348634e-05
8.037565041377606e-05
7.995026607573346e-05
7.930216482085628e-05
7.862147111438195e-05
7.822472571574092e-05
7.847226448165999e-05
7.961605823265931e-05
8.161263845235177e-05
8.397303722468025e-05
8.574517799015812e-05
8.571427384288232e-05
8.284901172269002e-05
7.691629645001604e-05
6.905943476016797e-05
6.203359903542022e-05
5.97836044213426e-05
6.619033694874511e-05
8.312107544355634e-05
0.0001083405031656629
0.0001342310414526607
0.0001484229043260161
0.00013713183256327147
9.11312300930379e-05
1.2944608617677337e-05
-7.757793344999835e-05
-0.00014298536565321201
-0.00013646627737248123
-1.948561130133455e-05
0.0002144201755569663
0.0005178414923498809
0.000781588641580237
0.0008526408182256931
0.0005841130067817137
-8.879906760640558e-05
-0.0010692421864546607
-0.0020525996080678673
-0.0025559905421404993
-0.0020526909156622954
-0.0002060725506648107
0.0028545668563210542
0.006328068343925777
0.008747673236269933
0.008319867061959339
0.0036221143819292418
-0.005476186117438448
-0.016995134499872937
-0.026595194290054733
-0.02836127095166122
-0.01685622510091656
0.009785626483456225
0.046561340252211494
0.0794601893142591
0.08598102254198
0.03927592314870325
-0.08437073557360435
-0.0966837207513047
-0.1904422395366072
-0.1378438766311414
0.10393630660520085
0.1809917831126779
0.12871241766325206
0.161011696102643
0.06712235874323481
-0.18278359646237066
-0.2256151267141546
-0.09209135166590089
0.002557268072918146
0.060947119907703476
0.0993756772896799
0.1401244454694579
0.0038929087363105417
-0.09512297181471789
-0.15104412560520342
0.033789323452214054
0.04936449958984331
0.07861194882431932
0.09902791344359557
0.08658212667364139
-0.17780707910194996
-0.10072945266522203
-0.07063733424367984
-0.05716537812753296
-0.016959835169439837
0.09483961753141938
0.1105088399616458
0.03726332516260297
0.050449914235372616
0.09507566840738378
0.0963086861713018
-0.02258508935627767
-0.11853615742667435
-0.2087380023122732
-0.25894059672923725
-0.18545104832144885
-0.07302074818885282
0.1943097633760242
0.49775526724284364
0.4556107470330483
0.41371096639789906
-0.3397881642481698
-0.5390302830709207
-0.4973061208616122
-0.2728657361205876
-0.2566749550343707
0.6145918153734848
0.6279233931424741
0.2602967853385726
-0.04372855510834665
-0.2760727977917341
-0.4536151446917231
-0.20058929787159094
0.06510490924559227
0.3365220646091852
0.21456313715413078
0.10250248367406352
-0.19696178916198262
-0.2810581716965581
-0.3454976575293388
0.2140327687489844
0.7964657103999784
-0.4108116619167955
-0.03406100387830028
0.09120388775250098
-0.07045999592735502
-0.54402425000519
0.6639259566943998
-0.03115831321104838
-0.192246116555244
-0.16443784096497557
-0.08184850537138766
0.12200094580306431
0.3013494850224268
0.08610494488858525
-0.1258094272234676
-0.3699232423751819
-0.1115290499086906
0.36120151762636743
0.9471542832540218
-0.6527398316659274
-0.11475153416033491
-0.2702521314268617
-0.49138822359966955
-0.6933527649698957
1.043977097271087
0.641413021653833
0.3868092778792787
-0.08291503912665531
-0.37733620366816234
-0.5307847525421097
-0.37666004977336137
-0.13144536029839568
0.40476267071422806
0.43408492846453234
0.3432755836336524
0.09426599625809999
-0.17062442872001912
-0.5104450119587495
-0.16274026912995118
-0.12640926999183696
0.24270620327323558
0.22271697409441435
0.10750382868689497
-0.21448058363270742
-0.0801970243157169
-0.26941021874459553
-0.019241655120609893
0.365946630587408
0.5142486415659696
0.40221738267917845
0.19166500661337318
-0.3153791370112
-0.6159369571051224
-1.059746306719904
-1.2385603974245916
0.17631557891351715
1.5533825081058206
2.6028269499144203
-1.101953359339753
0.04659886964250361
-0.2832303560793666
-1.0988046662772535
-2.012974909311402
2.0062999922546125
1.0559400211355108
-0.10514392863310233
-0.4655368654707076
-0.3669435869555351
-0.30774201983577726
-0.15268911066012844
0.24610740449897467
0.6196874284956749
0.45330106808591797
-0.23193675503449185
-0.48195142315123213
-0.40035888272758563
-0.3352332949011206
0.13118274387230452
1.3902321564067819
0.22005107272958438
0.013804519642624871
-0.17481006420792408
-0.7792353043109618
-1.6815065165848977
0.1909125478650925
0.4215986689734295
0.6217231927183425
0.5306054531312814
0.7313886925133593
0.4076666477709318
-0.2469535355745068
-0.5709398298175334
-0.34718338367357565
-0.3112728860375133
-0.47964819739203807
0.08685207233232024
0.07962824535628017
0.10496934656908148
0.22567279383341818
0.29749422489226596
0.11518928671127589
0.1789168886648128
0.08612093278472703
-0.0521045678804546
-0.17660038047753254
-0.23794983925729116
-0.35824003738762933
-0.20698623879709505
0.0030863913372779547
0.3012548875862034
0.3323724494298941
0.33003587736413204
0.09990599163286178
-0.1813293788680355
-0.3530235330563859
-0.25123084651457644
-0.09238671168629799
0.1333379310526604
0.25787438140277136
0.12419385357004896
-0.025742823388715183
-0.15955886059692273
-0.05825508478206539
0.08364947367326439
0.06006934272954123
0.05674792253431654
0.05614651167398062
-0.15652885590717144
-0.18766718254317669
-0.03224097362623585
0.12486741593148548
0.10349870327903136
0.12124226147776783
-0.011989859153293841
-0.09586022519563928
-0.13813169883264592
0.04841881250453264
0.048815274747207274
0.0476603737435715
0.030331710879091683
-0.015609083675887599
-0.09859060061194425
-0.021412334995994545
0.01922201104863202
0.03151670308108186
0.026096773393410436
0.013198495923100535
0.0005304078851588914
-0.007660119170430526
-0.010341488476844319
-0.008685924552023282
-0.004823090099149558
-0.0007946544348118878
0.00206009560213882
0.00326586812771341
0.0030416332403054025
0.0019764641755382157
0.000709371833679785
-0.00028870133344577375
-0.0008007937360800341
-0.0008399498246968017
-0.0005633210856429676
-0.00017341558225812334
0.0001590929028730336
0.0003363797272654674
0.00034023826749372875
0.0002156153078592458
4.3442919775267e-05
-8.807264041786963e-05
-0.00010916008272413377
1.0461640413416816e-05
0.00024691404614534735
0.0005178990654473763
0.0006950371826270563
0.0006381525447283147
0.0002509541381437986
-0.00045327978439572633
-0.0013000653750601745
-0.001948699652041218
-0.0019636290015992907
-0.0009722993909657576
0.001117034907598241
0.003909295115156297
0.006436416106576468
0.007303214184812507
0.005128504346048626
-0.0007641384672850452
-0.009601567188852567
-0.018699271874538726
-0.02367871409601389
-0.019660853150483347
-0.003435063764706321
0.023859510309974588
0.05449341255933509
0.07359090550588275
0.0613373892233302
-0.0017535750771961272
-0.1275279928230307
-0.11322167466906256
-0.13789091782382715
0.03539005903165583
0.05125477983625832
0.14995996491218547
0.1555915801940013
0.06879577675692859
-0.13344854033277845
-0.0913065128866255
-0.051611727472249874
-0.057187114933717115
0.0611404868036301
0.08873343666571798
0.028001895851782727
-0.1030626905787584
-0.07411736291748569
-0.04758837955941152
0.014202014025337469
0.14077888977107159
0.14629853561826525
0.02605796797086808
-0.04152702322542699
-0.08785701303361121
-0.14455241067060962
-0.03487759918711006
0.030938551412883385
0.055501254795565606
0.05022763076341269
0.02975710565452999
0.007027871701088846
-0.009625241577268974
-0.01709121174202448
-0.016382794117971756
-0.010732491034388544
-0.003736943099581491
0.0019104761114724894
0.00493092877564521
0.0053390795037273
0.003962220945147054
0.001882637015454996
5.5621637165832304e-06
-0.0011586621595830401
-0.001509047548498393
-0.0012353032184384972
-0.0006520165227742018
-5.473990443581817e-05
0.0003651598668493183
0.0005419048876021129
0.0005096923293840968
0.0003553146964518748
0.0001717806266816384
2.7030452016684354e-05
-4.804203464763658e-05
-5.561687272156494e-05
-1.8121166350963262e-05
3.6200345092178506e-05
8.422936796403641e-05
0.00011330020807456912
0.00012131043166300133
0.00011349698448402857
9.810770966650015e-05
8.272367444368504e-05
7.214008175216454e-05
6.789414471991288e-05
6.898227892365297e-05
7.310618276962791e-05
7.786500560779307e-05
8.154165446474135e-05
8.338710588798457e-05
8.349843109823792e-05
8.247778427573793e-05
8.105913628695694e-05
7.983099613834495e-05
7.910633149442804e-05
7.89261887775088e-05
7.9146776881418e-05
7.955219900456565e-05
7.994825150309725e-05
8.021498775093789e-05
8.031680076237077e-05
8.028249356119868e-05
8.017259699871864e-05
8.004883942718591e-05
7.9954524148912e-05
7.990793487107733e-05
7.990601510731673e-05
7.993333553798875e-05
7.997151506864565e-05
8.00058943495954e-05
8.002833922635541e-05
8.003676870342649e-05
8.003293662089905e-05
8.002009891803343e-05
8.000167671846316e-05
7.998120563649825e-05
7.996307555318576e-05
7.995307997428383e-05
7.995777543167407e-05
7.998213951851711e-05
8.002590520569192e-05
8.00799746730373e-05
8.012507481637007e-05
8.01348477549973e-05
8.008451014621688e-05
7.996401004948934e-05
7.979170793463639e-05
7.962203458769198e-05
7.953977494793425e-05
7.963599427972834e-05
7.996681654239524e-05
8.050544218274691e-05
8.110716082640849e-05
8.151217132823594e-05
8.140677931526545e-05
8.054669996251124e-05
7.891774205941332e-05
7.687637296912732e-05
7.518920477168057e-05
7.489326706025614e-05
7.694190362585256e-05
8.168637224547886e-05
8.835326445379712e-05
9.477285915552593e-05
9.763793433377743e-05
9.347338495541771e-05
8.02513752658281e-05
5.9230735675912984e-05
3.624427195274878e-05
2.147912460479505e-05
2.698373455059897e-05
6.181046821488289e-05
0.00012581534792956942
0.0002043910008440492
0.00026727013917860994
0.0002743518258237728
0.00018975539860578404
1.951588361564e-06
-0.00025642257098322817
-0.0004990129803464057
-0.0005971242782374418
-0.00041855786528767567
0.0001092974120331659
0.0009291550196694082
0.0018067921304389225
0.002344022888159764
0.0020801977352871703
0.000683683816259143
-0.0018087362912932766
-0.004794762761643662
-0.0070738825530135985
-0.007091953300348072
-0.0035067704289690506
0.004010628140792494
0.013982741325039518
0.022709831869901408
0.024610770608634872
0.013521623497249034
-0.015228847604330503
-0.06264471311518756
-0.12485233742046964
0.006150843846410564
0.1395704609871256
0.08177169627216241
0.03312441367306118
-0.012494544256510028
-0.0651924133319094
-0.13486986008564966
-0.027552856284118757
0.055948628701184056
0.11865709165080239
-0.03556610931761591
-0.0048602082176632195
0.009258988093108178
0.0023702320515067102
-0.03081230305720363
0.10666622250528364
0.017602772150125044
-0.08604251079280581
-0.181346450630986
-0.03575099544788068
-0.012648636808075795
0.11931690731174681
0.17594365649370036
0.15018986608506965
0.011432582652834998
-0.0875978223578543
-0.19829950801161
-0.16267278158109674
-0.003770262683218269
0.07680380058534178
0.09445456400915735
0.07305487036661244
0.03614011639800285
0.0008665072667824187
-0.024025981583384245
-0.03676359192588967
-0.03922475998505641
-0.03366086612387458
-0.020926905106078718
-0.000845005741744628
0.02565847862378464
0.05383768361469482
0.0734777644471897
0.06982390482865498
0.027794935504024676
-0.06120254041379251
-0.19213807616401815
-0.14227821986657577
-0.07333569696715135
0.05889751393589335
0.08927678338396952
0.22717600992299264
0.2456674381300208
0.08120268825807483
-0.15427200021072515
-0.15136093287868047
-0.17794895500513622
-0.2586308453165871
0.034757743503401155
0.1790235148271884
0.08394687836647345
0.07029787280576676
0.047448005699835996
-0.10507399608513873
-0.15008013144022123
0.10108178103598649
0.18874817654482726
0.21240177319819345
0.04641901739103588
-0.036469832766843166
-0.3378629939242587
-0.30953554645030995
-0.14034074432713012
0.0405682238273667
0.14430993324396107
0.2925081180595646
0.18653885020469682
0.0849693381602947
-0.005098143317513601
-0.12214478390381828
-0.13379841825205652
-0.11641567904593265
-0.1373112712599873
-0.04420197559892865
0.1368072575242172
0.1966813475662759
0.13655652840157548
-0.03718724735818624
-0.11361721074413735
-0.07448949326127786
-0.09105795351676708
-0.12374969486969943
0.0735037005819554
0.14487292143463176
0.12294306060683698
0.021447163449281624
0.03330543465548072
-0.06533888079886295
-0.10677850570401556
-0.12227151440021895
0.0653057565191817
0.0446510269399642
0.014852763242691247
-0.01901152842822685
-0.05195764820682074
-0.08559536419641607
0.06607516428549506
0.17312527577932135
0.19062443340439797
0.06613264562612545
-0.04584650282827152
-0.1651582818224475
-0.26884158643237077
-0.2826930658458297
-0.08724395495354333
0.06040643064601092
0.29318948454309574
0.2983985066243087
0.2911124097428202
0.20603478692707805
-0.08856035602892019
-0.35841430185072143
-0.36243662291679546
-0.21636255566809368
-0.17186765027193465
0.18402151253335317
0.31197771826508963
0.2945650916909257
0.2121987568659236
-0.0711433950175659
-0.3102830632485947
-0.27316230194965396
-0.13428318059103006
-0.07338809078532396
0.3190242226517715
0.4331067839506652
0.23489192059763855
-0.1288675558261602
-0.31559596936949197
-0.3672705007125066
-0.2956913765771801
-0.08061138300899708
0.3172908767457321
0.5341179829376677
0.38186924048613385
0.039611184011654046
-0.33845479779297727
-0.40182297262877076
-0.3798794725051929
-0.06695531154521674
0.1772054748215507
0.4129199623186772
0.29993355954965956
0.08061057531756809
-0.2263992692193635
-0.22164067182206718
-0.11462075420851174
-0.11492197180822177
-0.029723361763284155
0.1312918523342487
0.14662967172852992
0.1746349673370601
0.15154438433777276
-0.0007796355200664472
-0.1578314718095147
-0.17038177765726678
-0.04399167846720954
-0.12684391686411747
-0.11047352522459751
-0.044705511745834606
0.0353009510877275
0.07504312520048832
0.16712179612355002
0.32651920790513317
0.28214166850657774
0.08885635199353846
-0.2410967453128321
-0.2947222652593143
-0.4151386090588611
-0.27181629970417254
-0.053377874725582586
0.11533308670228017
0.33850410071565995
0.5095956641477888
0.28084484494140005
0.052655131321621224
-0.21428648197934844
-0.3703000546886291
-0.4440136408576502
-0.2195623975805103
-0.03325660940000165
0.20875798616346136
0.3988079926724368
0.39448363075463905
0.19693111590812284
-0.05100253398093581
-0.24629748970954643
-0.29426629139789723
-0.2758470834083703
-0.22517504237485655
0.0756713304081534
0.2846514818153529
0.2766913042438715
0.11912643917335085
0.05435370310551167
-0.10590130118869098
-0.1755718973795675
-0.1831729112693407
0.039633352304368055
0.06575077301817175
0.07555159951635067
0.056405821388674476
0.0011413504726750171
-0.09299287868265167
-0.024635507793621638
0.011412048977584107
0.02323445902201258
0.0200959194331524
0.01051153081673524
0.0007778555701235159
-0.005633436638804766
-0.007821690325652466
-0.006640982687811564
-0.0037175638762485226
-0.0006291595548568627
0.0015793827607773197
0.0025280089754885094
0.0023746942633231906
0.0015668725319504505
0.0005941446134767197
-0.00018090553617872282
-0.0005897694145362378
-0.0006396538845751743
-0.0004468988246830171
-0.00016071720195371428
9.536218124300746e-05
0.00025256407133371106
0.00029819878078605154
0.000259020965442362
0.0001784018038125935
9.670360151235591e-05
3.9799959277322246e-05
1.6329610776076592e-05
2.1332793482018933e-05
4.27922792358742e-05
6.797271400803905e-05
8.765562602055385e-05
9.77223911375535e-05
9.85655575757487e-05
9.330966286822142e-05
8.583356948172061e-05
7.928390155645661e-05
7.536276927213429e-05
7.432752083525988e-05
7.544109927862524e-05
7.75670816525331e-05
7.967071598813941e-05
8.110424331376424e-05
8.166675777706244e-05
8.150274235371003e-05
8.093016746847256e-05
8.027762454191874e-05
7.9777962172908e-05
7.953084066532233e-05
7.952057031259668e-05
7.966336743082922e-05
7.98584885130366e-05
8.002587329501194e-05
8.012351342361603e-05
8.014657673598568e-05
8.011526067798866e-05
8.005930182404402e-05
8.000519990714753e-05
7.996914329627335e-05
7.99557480162889e-05
7.996086842733796e-05
7.997610776003727e-05
7.999299771614946e-05
8.000566536866509e-05
8.001171131043413e-05
8.001168216128273e-05
8.000781815677057e-05
8.000273258645676e-05
7.999845989527578e-05
7.999603387852717e-05
7.999553281733245e-05
7.999640599137605e-05
7.999787641540191e-05
7.999926622228882e-05
8.000017163894822e-05
8.00004882314182e-05
8.000033353647786e-05
7.999992888988486e-05
7.999949228450184e-05
7.999917161655304e-05
7.999902430343552e-05
7.999903260092011e-05
7.999913673649495e-05
7.999926898815272e-05
7.999937773734293e-05
7.999943767645631e-05
7.999944806577214e-05
7.999942395994266e-05
7.99993857069967e-05
7.999935061743106e-05
7.99993286039574e-05
7.999932171071981e-05
7.999932628711971e-05
7.999933620635676e-05
7.999934578600166e-05
7.99993516246838e-05
7.999935314177802e-05
7.999935202357978e-05
7.999935099276834e-05
7.999935236984982e-05
7.999935685904628e-05
7.999936292014599e-05
7.99993669896291e-05
7.999936465696792e-05
7.999935264796864e-05
7.999933111983979e-05
7.999930541366993e-05
7.999928620361096e-05
7.999928713374624e-05
7.999931970004257e-05
7.999938630784726e-05
7.999947384461756e-05
7.999955119980828e-05
7.99995742138877e-05
7.999949991012696e-05
7.999930837757016e-05
7.999902596635181e-05
7.999873913571573e-05
7.999858671467974e-05
7.999872186648495e-05
7.999924491955762e-05
8.000012325662598e-05
8.000113022769955e-05
8.000184423070192e-05
8.000174333358983e-05
8.00004042604128e-05
7.999776825324208e-05
7.999438160575018e-05
7.999147762859737e-05
7.999076761547696e-05
7.999387492106174e-05
8.000148389891219e-05
8.001245761421633e-05
8.002334101450489e-05
8.00287181364878e-05
8.002274301974502e-05
8.000177112049878e-05
7.996743318054078e-05
7.99288935066952e-05
7.990270634566934e-05
7.990894699559543e-05
7.996336205568547e-05
8.006709670030837e-05
8.019765519639106e-05
8.030626530072793e-05
8.03266624212431e-05
8.019759293025638e-05
7.989590960244335e-05
7.947009713195428e-05
7.905795536600042e-05
7.887053027842627e-05
7.913062093834444e-05
7.99698018748561e-05
8.131063116822582e-05
8.27834956318492e-05
8.373917775602101e-05
8.340651106917127e-05
8.120164225837385e-05
7.712448722913615e-05
7.20976103064581e-05
6.80471012651656e-05
6.75358400575137e-05
7.287007513188669e-05
8.481390498409903e-05
0.00010131760513595989
0.00011689454090541514
0.00012333019424191352
0.00011214708336008675
7.862999143212843e-05
2.6333447667096914e-05
-2.986999833668675e-05
-6.454993116891304e-05
-4.812258005481329e-05
4.0980389092742696e-05
0.0002010299903272276
0.0003943291281466046
0.0005449127569030659
0.0005537718975772023
0.00033427016596876023
-0.00013798056666687914
-0.0007769716585353042
-0.001364604929752005
-0.001581496439630362
-0.0011055551449021357
0.00023092874095475828
0.0022691811162272096
0.004412994369418946
0.005669204141860712
0.004907667167020755
0.0013401446991977452
-0.0048908608258151345
-0.012240127465025175
-0.01770655600022101
-0.017472066004900824
-0.008328144259433765
0.010338060267886556
0.03461887544324026
0.055148903800347066
0.05809841738563051
0.02859681666145955
-0.04384496306667872
-0.15952781616360587
-0.10487915078153888
-0.05330150066866611
0.028480011471821044
0.17000272285106074
0.1862361905366522
0.07079608854717735
-0.0035841952095078556
-0.07700382402862503
-0.18965876522068478
-0.1693315129800189
-0.023930195188962722
0.05826856163759388
0.10131577320280082
0.13077186636316163
0.1641378560840547
0.006425478797900481
-0.14772159386000272
-0.10694471953041465
-0.07487180624962853
-0.0446281522671733
0.0013961340448181583
0.08649725323171222
0.031402857062895875
0.045968668228412404
0.12389792431562081
0.04253182757278237
-0.03185332422787369
-0.13468045974637893
-0.09270534975270203
-0.11635177858690403
0.0024272860077163847
0.08609309578446922
0.16309355587404253
0.05855750074448916
-0.012368129009454769
-0.04658674421901873
-0.05078235338671154
-0.036693290803085955
-0.016222332445544295
0.0019379103238421041
0.013526293484023864
0.018075488140452844
0.017252425357791687
0.013120575324628281
0.007038773774215902
-0.0004960732762836425
-0.009189379515246707
-0.0179433370708785
-0.02414976197266275
-0.023879475070386978
-0.013285922729022093
0.008938013224433286
0.03877864946440226
0.06498873639437086
0.06935335750096414
0.03000262334032948
-0.07239876263391672
-0.047111274781722404
-0.08704988975217282
-0.16663496842823117
-0.04570214687613431
0.1205414377320279
0.16800540539129868
0.11114679432782748
0.13620850283171754
0.003384006398807148
-0.14216739633774605
-0.15381534241656206
-0.06684515788461809
-0.08706030250664225
0.012073506995797782
0.083330133650767
-0.007131765919936791
0.004350468805346051
0.16409396131587975
0.09075168531063788
-0.028125571407213515
-0.03199899097244345
0.022905735023164606
-0.123014958391877
-0.11991309780721496
0.00047144253073075413
0.027873331161588726
-0.029514083792880355
0.04746694437127954
0.07965910946194608
0.0814629912790457
0.05630280648642551
-0.003055111533328698
-0.10976251658842744
-0.07582132604834378
-0.10566358052232551
0.0070451581501296415
0.07837323702298872
0.12984196512020926
-0.01674483496398413
0.05706034192416636
-0.03450630866010906
-0.07985842131332861
-0.06765961606167128
0.014512318237693736
-0.020861002278839136
0.035250171404355574
-0.01654453866619731
0.011236534280510082
0.09040903160274817
0.17849539321004668
0.02514429588643056
-0.016624048913801058
-0.1766948904211138
-0.25612162327802795
-0.2226065317773143
-0.01682850692230607
0.23067604687659027
0.37717348073869467
0.2482857421282852
0.02938614160948838
-0.1285477979126753
-0.29124615596409237
-0.3192113518787481
-0.0504125623278802
0.10633553820299821
0.1665582603457937
0.15810630110675408
0.10848576521971899
0.03710076660466245
-0.04518868686701771
-0.13042454625334984
-0.20572052921449688
-0.04796512268794377
-0.024523203884215364
0.09940280941230106
0.14919859801133498
0.12950187752959977
0.01761504199360766
-0.03562826879458642
-0.09757992402953312
-0.04048814130516812
0.07333899672757611
0.004783680719540133
-0.052632729370525204
-0.06865916662768713
-0.1788804474142537
-0.09474926904703186
0.07951343270414073
0.22609590720815706
0.1941355673814191
0.18771186149158844
-0.03438079828023358
-0.14670473600261338
-0.23714967114294228
-0.18568241455786683
-0.048633821602614716
0.14768786132761016
0.2045510391122866
0.1434075812269507
-0.0017512954655946177
-0.18953390562648217
-0.17422752936944064
-0.10951577626996652
0.044664483899848964
0.1121020522957825
0.2902349145015889
0.14493005567996514
0.01426672319978349
-0.17775032728946935
-0.10081572346086069
-0.19760834933999863
-0.06952203370077356
-0.0735184944551394
0.06878807332002548
0.05237817860377096
0.1656762479743035
0.06937324006338294
0.1829282619373368
0.08228683510695152
-0.09079599052066134
-0.2108764861795998
-0.14817213601304888
-0.15179243252938207
-0.04187017356469601
0.18795542582133482
0.16021670006211552
0.10060202587121962
0.02758290223925941
-0.05210491050691956
-0.14202437651239128
-0.05098577207117165
0.01250721292831486
0.044080647500590514
0.04499558071043211
0.02203553449247491
-0.013216095138173026
-0.04521481992280403
-0.05564215958312678
-0.025527026460894775
0.06140076810730549
0.014600905380045444
0.03309767320683634
0.10383617652550521
0.0030820636683068624
-0.09905684655467337
-0.03210741298068162
-0.018708800721050717
-0.07014897537743928
0.014784758800277388
0.047592356806039154
0.04553674050982904
0.026496081406531223
0.004834986472959106
-0.010723077212179185
-0.01713203801761031
-0.015571609495121177
-0.009391786312862686
-0.002235637470909358
0.003197539118782301
0.005642201797196504
0.005163557058958106
0.00272792548421494
-0.00030647256888098715
-0.002625763127731639
-0.0032753837533039875
-0.0018703253949445492
0.0012764178481127523
0.005123833975617486
0.008037442964759417
0.008169529054450708
0.004112438575688577
-0.004276362569896752
-0.015148948222816453
-0.024451693613534824
-0.02664372947029519
-0.016579623875646265
0.007632079331673943
0.0415434368592826
0.07230305438963122
0.07901510274539404
0.03646992177840448
-0.07793426590429804
-0.07577061921628438
-0.15058218832089923
-0.07541120131623344
-0.0067693202192557434
0.10533364643711644
0.104179706422576
0.21442130532190426
0.03580068489582788
-0.0550821902722914
-0.09561379712034924
-0.1241680102082646
-0.16821511604036457
-0.03785120479244512
0.07328374369219108
0.18081413212436545
0.09980670060408857
0.036754653122934536
-0.013486432685832252
-0.06523127095667304
-0.13583313089076607
-0.03900260253578437
0.019598989166474415
0.04313724263438176
0.04118978315847735
0.025767029445550524
0.007569346421930142
-0.006331745478146185
-0.013066553615360913
-0.013161386733566795
-0.009048318227452848
-0.003569796914138299
0.0010722447102424037
0.003766154592891766
0.004422965020410538
0.0036058840498873843
0.0020901245312400568
0.0005262465972586592
-0.0007137738588931285
-0.0015173133352712833
-0.0019076774925862723
-0.001907060538388371
-0.001463506411568273
-0.0004817242888319477
0.0010524823753041825
0.0029131827730484814
0.004532692296194564
0.005052408285479613
0.0035836313132540038
-0.00034347218207413994
-0.006271239267884118
-0.012474679796340492
-0.016062875790615275
-0.01373119431939957
-0.0031757865945060554
0.015130587144926036
0.03644008570834781
0.05135757214950958
0.04734936253275943
0.012365256692712781
-0.060113518878395916
-0.16632513677681476
-0.09010974235377374
-0.005320931252085885
0.11701694309739664
0.09887609902322494
0.14643539474881068
0.046054431739434486
-0.03299766494675449
-0.12974069390135431
-0.0797069226654311
-0.10439076784987107
-0.0054944674954656705
0.034421456536504275
0.0456286101756474
0.06181628203344548
0.11083984877002494
0.008455978920628424
-0.04345091661198014
-0.054350798755998506
-0.03989076664651829
-0.01626427259698124
0.0040688461447046945
0.014465576160285891
0.014079583087271468
0.006390368992480231
-0.002942732002795329
-0.008290985761128303
-0.0059591764958688166
0.004442300661752027
0.019370892577467165
0.031745510630340965
0.03261524218819105
0.014115068114492473
-0.026791952233298215
-0.08494213780296071
-0.1455998557263672
0.01342857707003521
0.015783709261955176
0.0780153349816241
0.20157305690240404
0.16899615094470563
-0.053065297335932335
-0.1039675594585241
-0.21550243624555088
-0.20000032076462637
-0.0452840847830152
0.08105697349253473
0.2196362196570872
0.2044685475662606
0.05149545553752523
-0.04521644981683948
-0.10888755603453423
-0.16991909463179983
-0.05497742802994118
0.020521095038061224
0.05451505592383963
0.055551295287282226
0.03743301562247399
0.013809050035188598
-0.00551963979721709
-0.015956531877665676
-0.01748090428688542
-0.01290073100882198
-0.005906199689672534
0.0004169220434474322
0.004330563236747302
0.005491016184321212
0.004542750177812993
0.002553305499871184
0.0005241204882640794
-0.0008980562921556729
-0.0014929249381341878
-0.0013789034343866463
-0.0008519018302480502
-0.00022790972497289822
0.0002628928023460967
0.0005163903379200542
0.0005406982643460705
0.0004124149527184837
0.00022758644542717008
6.461546311418124e-05
-3.370614857945334e-05
-6.046205764745447e-05
-3.3592181253814894e-05
1.8830304342186768e-05
7.107447409695153e-05
0.00010691494015107568
0.0001212002232121248
0.00011739199197608897
0.00010332230212536296
8.714635578017113e-05
7.468104224442324e-05
6.845020712981041e-05
6.810744736438636e-05
7.159851170174359e-05
7.642900958757487e-05
8.060329485379772e-05
8.306252000699669e-05
8.366944083125304e-05
8.29116755403568e-05
8.152002374363861e-05
8.015266574435641e-05
7.921972570046659e-05
7.885082024660978e-05
7.896176159380644e-05
7.936104333973271e-05
7.984606281245384e-05
8.026159634956184e-05
8.051707552375868e-05
8.057629960797231e-05
8.04395870387078e-05
8.01344859088413e-05
7.972048905704516e-05
7.930073149458275e-05
7.902460898448779e-05
7.90639198542625e-05
7.95536834010229e-05
8.050623845064344e-05
8.172868168253537e-05
8.27905826594186e-05
8.309071537283476e-05
8.204948199168845e-05
7.94056075449544e-05
7.553068704728302e-05
7.16156896003904e-05
6.956200291951962e-05
7.14584425024338e-05
7.866136848403414e-05
9.07010021254528e-05
0.00010445239119666651
0.00011413356944012424
0.0001126122208331421
9.41365248471118e-05
5.7971005187853285e-05
1.1670772005733688e-05
-2.7829452641746968e-05
-3.7116685586021265e-05
5.922225754513176e-06
0.00011044831125590208
0.00026063772114890755
0.0004089776013438355
0.00048128736061660174
0.0003977964617004955
0.0001092108912725632
-0.00036130581205613796
-0.0008874921604170935
-0.0012423692589589189
-0.0011516302063922451
-0.0004013232588440722
0.001021746578953247
0.0028071361979705384
0.004286191139394874
0.004554164586633443
0.002779906467853379
-0.0013405327330065708
-0.0071264397584671684
-0.012674797966061264
-0.015088700329421608
-0.011333569326519837
0.0003280534126462685
0.018677796809930026
0.03831555827181727
0.04966904081762183
0.0408682148009377
0.0015279118398564867
-0.07244701395013206
-0.17487521399008352
-0.08839642209099467
0.01177199042441582
0.1497638749718748
0.1394059107829483
0.17716906613371503
0.04141426248097352
-0.10088946868088366
-0.28222018022243694
-0.12224842323138442
-0.02060747484168604
0.04219912705634203
0.09632952010398228
0.17034801674205793
0.08025630989409364
0.02403730676759752
-0.016448974630387605
-0.06725522609075256
-0.151139381219585
-0.07762692866361702
-0.03801668477099046
-0.007126336202814817
0.048907231025254405
0.16165464441723332
0.1502975011272201
0.016161931054676143
-0.05616580903271322
-0.09189550487238311
-0.1164132729482676
-0.147087552472602
0.010275720441860765
0.1593634248818965
0.10733624995248545
0.05825073241744047
0.009211329809433073
-0.04922682600874786
-0.12917070282225313
-0.040340286741407494
0.013634097924346299
0.03611812512297162
0.03569136306930758
0.022932592988252364
0.007291001034948148
-0.004904575295353459
-0.010975184878529765
-0.011237610796657879
-0.0077417526589494195
-0.0029765173021145874
0.0010662535248401473
0.0033266046160713558
0.0036702429219910397
0.002611399469731274
0.0009497266064502671
-0.0005436700305303862
-0.0013290320255710702
-0.0011887528401672367
-0.00023582825969615368
0.0011314008125395633
0.002318772704633895
0.002678473569646316
0.0017113263597048393
-0.000690516424953001
-0.004026915139864615
-0.007110608650673956
-0.008250320135376276
-0.005774274887899797
0.0011449192090205982
0.011570739440309246
0.022155443526685883
0.027197234170702182
0.01971612205627236
-0.006481668116149247
-0.054293322049777715
-0.12137999012710934
9.257682751292388e-05
