0
-8.887885044219345e-18
-8.673378178486277e-18
-8.027351461848204e-18
-7.017711294174512e-18
-5.930974478179167e-18
-5.257955701507274e-18
-5.570465819298696e-18
-7.286525591101584e-18
-1.0375092792680233e-17
-1.411071032289745e-17
-1.7027964942410642e-17
-1.7214176502603597e-17
-1.299239446755646e-17
-3.884654880418864e-18
8.456541198931553e-18
1.982602280388946e-17
2.4056686237509918e-17
1.4919991096928887e-17
-1.0840159760570089e-17
-5.017745721553558e-17
-9.158635133980398e-17
-1.1586219331737223e-16
-1.0109684540967354e-16
-3.190622705050055e-17
8.920136115379648e-17
2.326760816779911e-16
3.407935195344983e-16
3.3974894195970556e-16
1.6669611884247864e-16
-1.9292023988333614e-16
-6.701618101197755e-16
-1.098108451276557e-15
-1.2372478508701238e-15
-8.51376868684658e-16
1.7407244756024411e-16
1.7049708264156906e-15
3.2802415776523136e-15
4.149317284426184e-15
3.474003896714231e-15
6.906970244041828e-16
-4.052483061534619e-15
-9.555580780774806e-15
-1.3547647698308187e-14
-1.3184270403086593e-14
-6.1164931187921975e-15
8.063994542994263e-15
2.6497223949624357e-14
4.256738236118626e-14
4.6983199292304006e-14
3.0803937590129914e-14
-9.950985775122653e-15
-6.946126768987746e-14
-1.292853336605895e-13
-1.6012290918399188e-13
-1.2995201006637985e-13
-1.8230202927914786e-14
1.6731861716519896e-13
3.781040516840026e-13
5.248952590957524e-13
4.982065886486334e-13
2.1049761189071577e-13
-3.479476503453159e-13
-1.0590607914495227e-12
-1.6610052920291831e-12
-1.7937669233119826e-12
-1.1195900220103781e-12
4.976507200881497e-13
2.8083326827630803e-12
5.076203900532968e-12
6.158766872723481e-12
4.8345249303655045e-12
3.591047864657712e-13
-6.8909653623242744e-12
-1.4953209921027925e-11
-2.0325817084642773e-11
-1.8799917916416524e-11
-7.123396811536765e-12
1.4841076586849824e-11
4.224045055105758e-11
6.472639234403886e-11
6.836550627328802e-11
4.0425086741022414e-11
-2.3655051553105643e-11
-1.1327164599430572e-10
-1.9908213452143334e-10
-2.3658834186371304e-10
-1.792692144174078e-10
-3.331132931585026e-13
2.82627207459045e-10
5.905425575798906e-10
7.861512387127563e-10
7.078674088219171e-10
2.3529508227282706e-10
-6.275306357331049e-10
-1.681908461659058e-09
-2.5194043120423025e-09
-2.6013997447300977e-09
-1.4489700371177948e-09
1.086444781107861e-09
4.55807288922942e-09
7.798439055576172e-09
9.076399393820706e-09
6.62311028153201e-09
-5.181349323856204e-10
-1.1549033751976406e-08
-2.329103104124389e-08
-3.03701972860889e-08
-2.659133696575416e-08
-7.514407068052395e-09
2.6338602802233802e-08
6.686079901158908e-08
9.795309740037815e-08
9.881923416340733e-08
5.148816004723603e-08
-4.868965261008543e-08
-1.8301861275539484e-07
-3.051213126739643e-07
-3.477267866092824e-07
-2.4369561636094967e-07
4.081616917887366e-08
4.703524504190584e-07
9.174065267335372e-07
1.1718297625271284e-06
9.964287747502282e-07
2.2816110239359983e-07
-1.0984749639498389e-06
-2.653782999423904e-06
-3.804006777811466e-06
-3.7471712934420007e-06
-1.8106714241542203e-06
2.1421656249868317e-06
7.3336538413892366e-06
1.1924284462287909e-05
1.3302955368879702e-05
8.92591419043307e-06
-2.390541193102542e-06
-1.9097296929164318e-05
-3.608964513751688e-05
-4.515920568988523e-05
-3.723771189614611e-05
-6.366942262509215e-06
4.555973503276187e-05
0.00010517303583198386
0.00014755522353736218
0.00014181664166091468
6.285196641715249e-05
-9.29305830941668e-05
-0.00029335248506827887
-0.0004655606315887544
-0.0005083194073563192
-0.0003254194552697809
0.00012401085180423208
0.000773286269990716
0.0014186844857354273
0.001740461331740695
0.0013933537393406978
0.00016234274791577182
-0.0018551968904409928
-0.004115513028154925
-0.005637039467231836
-0.00523107918291734
-0.0019722488687715935
0.004179052089105874
0.011811281875970135
0.01784870942347365
0.017973226723781755
0.007802174978772016
-0.015368208479063708
-0.05082399968855945
-0.09353387232930961
0.0651784548273368
0.03526390390421949
0.024641659594679895
0.03632382584724845
0.06723772486123919
-0.09072318087637056
-0.04786625486709015
-0.013297112131500139
0.007683577648596829
0.01455072982939039
0.010884035952117023
0.0026244520731722475
-0.0040404684983136865
-0.0046159964272315685
0.0022786680236444225
0.014235672128482178
0.025328734362489103
0.027479420117628918
0.012876924431043468
-0.022992803427522846
-0.07867820771653398
-0.1458028240126827
-0.010990591956552909
0.13918509968901135
0.11175870320117998
0.10231371942562555
0.09411982853769028
-0.13747751285814863
-0.21698119353924233
-0.1606096964862682
0.028074460342718023
0.15703419732068846
0.24061830669220935
0.0941915615326105
-0.06794848996554494
-0.23052584836532095
-0.17353342099971159
-0.07078666033614091
0.10640679525557369
0.18086798061166753
0.16001268174882696
0.029865786580664654
-0.04410374920744654
-0.1090803198578904
-0.012556725570910041
0.010426374171116975
-0.05334516630311415
-0.19197463261926773
-0.17266686785435886
0.04677665989048695
0.50177041148906
-0.19475054791205898
0.3387452008769847
0.25484357381284317
-0.10831709770867616
-0.8046506883768896
0.1420519925046007
-0.24899674453178275
0.08239101104279797
0.02117636928316951
0.45326108122436176
0.8434193151705005
-0.776742593053914
-0.40773144651753623
0.12812759536167267
0.19842883117599147
-0.8323540665133199
0.7978018590572117
0.245557572858413
0.060660736533085284
-0.20982923605941745
-0.01074673551109657
-0.16532725686569885
-0.26540140685291713
-0.2708543113287505
0.07940246200758538
0.4475047106117524
0.475114012356073
0.16987080349117203
-0.09324821210492068
-0.35571517757433946
-0.45209189664054017
-0.39123980047616036
0.04813934493573776
0.30491382511393605
0.4118676982797201
0.3729709666184766
0.3538356314630556
-0.10801366581404075
-0.4755097728593203
-0.578218947174155
-0.38787247146100295
-0.2163391076028263
0.25966452090774517
0.5542660760238307
0.524771033603969
0.3396551467271449
0.2764102481244011
-0.0470794320696886
-0.6162132784295634
-0.7568014363543547
-0.48793311684414586
-0.3087189792053848
0.17452830991201565
0.5890473424810019
1.125165979405739
0.480363668743261
0.03825989018176847
-0.5112257206776071
-0.5213195198151016
-0.9302669499048392
-0.4203019832698631
-0.009783937278221475
0.52064518490502
0.9827445364616931
1.1406428447531827
-0.1008001564616235
-0.26880945280346435
-0.665092725149152
-1.1022958442931523
-1.2645481473411255
0.2855822595110064
0.6498535077226901
1.3050668035409418
1.0155538743720982
0.38197898987550316
-0.3540084000540222
-0.8531389812381266
-1.1945020126873263
-0.5976476424551672
0.22184328711911577
0.6534464952284851
0.75925296011062
0.42996780579690075
-0.049014598063786226
-0.4103545790074139
-0.398766008706106
-0.3579366508640738
-0.22329420672363934
0.2722429317224662
0.5812862469305144
0.3228228523060399
0.07192743976687173
-0.03497406933188283
-0.48077176473676225
-0.5431174535293979
-0.2761426957899404
0.29359796055040854
0.557164184290772
0.9077638626205433
-0.46864648407279685
-0.38990529616839875
-0.4641111219384909
-0.27612389998410125
0.41589734524001487
-0.1293850143569592
0.34495297942248776
0.47601207433493964
0.2721730563988666
-1.0823883756146597
0.5879788969077845
-0.13016308359108775
-0.42469590035906496
-0.454257189018564
0.24207952297353527
0.5240536089610857
0.42603037813044736
0.13997373418899875
-0.1864810332257261
-0.4363476813111241
-0.30103819290257117
-0.059642479044155296
0.23288766511192974
0.3474199504947951
0.0763178869779307
-0.17134304040944667
-0.1720713039080721
-0.0886526249887521
-0.07203222878447234
0.33388441260195123
0.18534385039628004
-0.0677896695053596
-0.3866243185455016
-0.1468484878845713
-0.1439123649420605
0.19920064521261394
0.42473401106924213
0.6403543121128155
0.5337845834734232
-0.996540618152901
-0.8028196603956104
-0.4576960544421011
-0.24954965403258184
-0.010573689334072637
1.4303081736525638
0.7903048666704368
0.09539294979377726
-0.32169667654580864
-0.5889388926179668
-0.6440798953376741
-0.38775292490873287
0.14158085001618256
0.36479889922535413
0.3377481783899851
0.31927672256629563
0.14588632502522197
-0.17845143594749036
-0.2767921688090057
-0.1840885397494807
-0.1311341065395353
0.0654512410799745
0.204654509504807
0.09581345016275139
-0.04915037551458152
-0.02225541698551666
-0.023019026256130573
-0.05921137876714418
0.05432286273363283
0.0981929949103633
0.052282870380908494
-0.09916402818330253
-0.16192116650926122
0.07278959950979726
0.030130506148623115
-0.04997700505692162
0.08258408077963272
0.0817888211681219
-0.20158519963602028
-0.12717328069026954
0.1278743970449004
0.16272401628522776
0.14964468169729575
0.0363114218147436
-0.04511486633657389
-0.16364423915340648
-0.17400307316524888
-0.10518477223731759
0.043161794371984155
0.0956369094446559
0.08964762204643532
0.061983250190313095
0.03786010535994857
0.025433973928784232
0.01671981648585051
-0.006034676949310786
-0.06086920913137259
-0.1566886871269096
-0.0871692364695585
-0.030401703426799806
0.04521903149740108
0.17078377838055958
0.16619014874725008
0.03324652068016932
-0.04469853400059419
-0.09666190277267382
-0.15423725467124827
-0.042157352898130364
0.027398737138411428
0.05539460935648476
0.05231456671640088
0.03260042152952795
0.009508923170415939
-0.008094453634717303
-0.01661389727602753
-0.016763849427023875
-0.01167950822632551
-0.004986871382125683
0.0005689911339273972
0.003712319076837743
0.004527875765152817
0.003919753479137784
0.0029457867179911276
0.0022820417681208758
0.0019710532853474843
0.0014984611584269603
0.0001460693160234064
-0.002508340996685158
-0.006129508191710128
-0.009409687357752673
-0.010280123102622375
-0.006629222658483048
0.002568339978521455
0.016030245378988835
0.02936778371736562
0.035285751247849634
0.02517478930467645
-0.007983911774163533
-0.06616645988569979
-0.14370395018125706
-0.02707820419154941
0.10205098722230273
0.061243139010418925
0.06122809909855031
0.10201369976485843
-0.027116563720987426
-0.14371565778385173
-0.06612774625025758
-0.007887222089384688
0.025310377605328914
0.035410953700785196
0.029411423178713106
0.01592211168328831
0.0022740124031440955
-0.007071396626672775
-0.010736474055203836
-0.009662326614805039
-0.005935059233373644
-0.0017030433460375083
0.001519649188913616
0.0030928850257481077
0.003128435039810431
0.002178065319746986
0.0008990910881530951
-0.00018992216281326954
-0.000820190609088987
-0.0009647761892560014
-0.0007578691897240947
-0.0003932844181975921
-4.1649519443323065e-05
0.00019448507541192282
0.00028726859830894707
0.00026374039134835096
0.00017558274095395802
7.217077803112987e-05
-1.5082292235523353e-05
-7.541255438026698e-05
-0.00011166291392824481
-0.0001293301532546463
-0.0001277428917137608
-9.774369470420482e-05
-2.7349486160394895e-05
8.655038961172474e-05
0.0002255359024339772
0.00034304656707949264
0.0003705598562080945
0.00024005785859767336
-7.997689856547959e-05
-0.0005458748055469755
-0.0010154390357214604
-0.0012604618688817528
-0.0010295298377978415
-0.00015900163620169894
0.0012949249480119843
0.0029561747649116945
0.004128860075962508
0.003955643256977908
0.0017483233174728171
-0.0025723090824446397
-0.008081028773843814
-0.01271909981273434
-0.013653362074264723
-0.008238251345119744
0.00452571315195825
0.022433328042799565
0.03906442247491524
0.044035726740284664
0.024969016219720284
-0.02899923611516206
-0.12319214238849345
-0.054555869545516916
-0.011713837371840344
0.02132625670422348
0.058579800521197045
0.10471230118091886
-0.05052292964700346
-0.033950934728967826
0.1142597422430305
0.14870148779872622
0.030844732275636007
-0.05680322239282614
-0.29820987130307597
-0.4383107023168508
-0.18956347544523222
0.1477787953496229
0.4562425558437017
0.7734121356508316
0.4791122043200796
-0.2937474558984432
-0.6264470395069266
-0.7733969185210867
-0.5324878105715181
-0.24292893267880217
0.7857231234768769
0.8248407321786396
0.6802774283796629
0.07031270946300648
-0.16049193948644433
-0.7958941037125034
-0.3885675538658876
-0.20890099555030223
-0.21945798071868342
0.3180650698667528
0.2077399058402541
0.06816792477250126
0.07961463568684145
0.3421982723765663
0.0537159474028807
0.11097924815854955
-0.06631618413436531
-0.09485714476127362
-0.17942839605085403
-0.26800390647912653
-0.2202949468734014
0.003367000606544683
0.1308794515911699
-0.05162492671144898
0.058881571086087985
0.23893850835323366
0.20225936943450717
-0.022132840844877558
0.3071658530310012
-0.13964623220851102
-0.1317651258676274
-0.23810427151302654
0.010915398605271012
-0.24853558548875523
-0.00143991104974221
0.04070081928974691
0.018913569785076155
-0.10482683545956385
0.21683684603025627
0.28425909855039183
0.12823136548032804
-0.29802559794041533
-0.11096490805976213
0.32501450495162737
0.8293422249501468
-0.9572435756645015
-0.33572081100079865
-0.12179488214148083
-0.43918281300666884
-0.5386223046834953
1.3610677751584963
0.8228823719069812
-0.049628924914075896
-0.4304975108759674
-0.5635223277180488
-0.33753610544074264
0.34203056096283835
0.5766926374992455
0.2925966722224349
-0.3449488861468486
-0.5202515007814064
-0.7653030423930587
-0.37544546151798297
0.35433031843911555
1.0808499454841185
1.1716543989500878
0.8942055509300434
-0.9513402701043717
-1.162433318652623
-1.0542457751071803
-0.6045484176986341
-0.44902706052124464
1.4693006054679771
1.2165921017590138
0.5848354444870901
-0.15908695239549314
-0.2763285039618432
-0.7170638516109099
-0.46089096935347995
-0.26142570176169216
-0.012927831466717008
0.2552776198671646
0.5624028979891224
0.1505353128232375
0.06281344577613933
-0.066618740047795
-0.21041808880569432
-0.3391649725654833
-0.01362639938357991
0.015699833404354588
-0.00013424546523900627
0.1762665146932645
0.1525996159294209
0.09622292429078635
0.13357764291339178
-0.03871254907081561
-0.13310060770893276
-0.045937736366718836
-0.23479154188741572
-0.3049387024606229
-0.009422142955668072
0.13693899357483452
0.23403333030943482
0.5717494573900701
0.21311139384833652
-0.40931090490884114
-0.48515859132099415
-0.414205264470024
-0.20024744443214948
0.5440166038974226
0.7847680064993972
0.25796328412249514
-0.12626412146109017
-0.4628436089310249
-0.6220536001503599
-0.2244692019803165
0.16745736167834768
0.23728288192891187
0.2874471090794264
0.2083365783333997
0.05462077023667621
-0.1645869032373996
-0.08108881369405484
0.0476629481528582
-0.04119105833210155
0.004101750449422576
-0.034267704020491514
-0.135041905579109
-0.238751570764551
-0.059199733402895464
0.09547102179772225
0.29634282606532714
0.16903297743343595
0.07867152432443823
0.13027362898617573
-0.014123999951396802
-0.10494164545737315
-0.06825178571940475
-0.17181463544447034
-0.40315131275045485
-0.26688720496969665
-0.0045013685475696836
0.16643059608275015
0.4031139465641617
0.5929282040711792
0.32801962501629556
-0.09147111269168863
-0.22558883066261337
-0.44438005377937767
-0.4761965193291558
-0.3716727431101969
0.10535731785241993
0.25856019552518306
0.4199521776606073
0.3056689682315343
0.18163646183778553
-0.15118308337564001
-0.15027290587318887
-0.10918720445566844
-0.12847353250685226
-0.08894314796177231
-0.03367060548391696
0.03843014598529616
-0.032165324178584816
0.02116847795205675
0.07352529917572301
0.1907738457341446
0.01592257843117991
-0.03762337154871275
0.014865145219346584
-0.06338625544674509
-0.12011371325333171
-0.003265816414326822
0.04752587707124822
0.006167198477028213
0.06223600209231075
0.020912308066127053
-0.09859433993278512
-0.06606374019743552
-0.045136069528826164
-0.00016356783997931106
0.09591683835195321
0.25496224790223276
0.0710979004063624
-0.07584397053694678
-0.21156855413591824
-0.15672592928833373
-0.11924705460924637
0.10693118855975393
0.13652796019874597
0.18403868468686935
0.055905839858965904
-0.05264178588374542
-0.15520088465430926
-0.06820316607567045
-0.004627704141531804
0.029876368788799044
0.03752696733198455
0.02634123977893528
0.006932619109190872
-0.01054533610510528
-0.018651952925498823
-0.014025181891258539
0.001972818259584137
0.023247661757538247
0.0397629566433793
0.03942866956105855
0.011201839424673322
-0.05105195426084172
-0.14513055022285284
-0.059144104738711054
0.026497641978036737
0.1338571371402813
0.08080751604931097
0.07569134517779726
-0.08448869164396952
-0.011867472237026515
-0.12287863751424168
-0.03310412929433585
0.046190994324960696
0.10908276954786619
-0.045857523142603336
-0.01710289070217266
-0.0015312883212130147
0.004613442837881481
0.00502772621608344
0.002824632180861977
0.0002088758073789977
-0.001603948729186384
-0.0022445733662154765
-0.0019097219534037612
-0.0010526123376983557
-0.00013225086989150281
0.0005340540791771025
0.0008149251756778246
0.0007358362037362452
0.00041687190662738105
1.095015087453042e-05
-0.00033946689138369236
-0.0005253444610643512
-0.0004823079408893725
-0.00020045254605408847
0.0002630460471482405
0.0007743770029070387
0.0011309885944028365
0.001102801696130484
0.0005134810262173014
-0.0006509523294588552
-0.002143305816838735
-0.0034224766644163256
-0.0037440915915917
-0.0024039607057297595
0.0008954718410809255
0.005664600014046841
0.010412060771921567
0.012799277073216138
0.010303349225299012
0.0013571650799572052
-0.013319179365852325
-0.029745048531511838
-0.04076250489665864
-0.03777232412583649
-0.014274449281222621
0.029395700855271194
0.08162180214471323
0.11746870952999196
0.10111088430219464
-0.0062708397014622
-0.03410256439114008
-0.1888160068759418
-0.24393541634514154
-0.13874415670693016
0.011737634284834623
0.09667464301330514
0.38477505762826364
0.30338102349606255
0.029173043682946424
-0.10555119854168861
-0.19303727951735627
-0.3239366826883372
-0.16418663083493099
0.0576688063067726
0.15000298377728716
0.14699745100315584
0.09279372298113571
0.02712256522771573
-0.023530658610041826
-0.04819546364804294
-0.04853252099203732
-0.03337391806770033
-0.013197239981563575
0.0038010073798656952
0.013440404181731496
0.015386628392300709
0.011839652134093081
0.005912841118400856
0.0003233225898564447
-0.0033121100407665777
-0.004578565802345265
-0.00395192411740936
-0.0023237329118326656
-0.0005705825479585408
0.0007140350584002812
0.0013013321641357559
0.00126515653769891
0.000848087314247961
0.0003235368941640983
-0.00010185792255346367
-0.0003298375395510825
-0.0003632604419749949
-0.0002693752951347163
-0.00013490752486789963
-2.9190507655290563e-05
1.6179451296446193e-05
9.78568541385301e-06
-1.1657848907861853e-05
-4.039526016741781e-06
6.13540223440842e-05
0.00017968324705693454
0.0003053675087930192
0.00036085824065208326
0.00026318823667154876
-3.548965036904996e-05
-0.0005046022757367175
-0.0010073508531818645
-0.0013095383916375254
-0.0011408137626417163
-0.00030805877536710613
0.0011646818636376264
0.0029229678124380177
0.004266364666628858
0.004294608091606049
0.0022373492094927604
-0.0020884329932787933
-0.007844910746827829
-0.01299253671109726
-0.014601261301960317
-0.009794727745201959
0.0027523943377685328
0.02114611843151209
0.039095204923849554
0.04598762005189219
0.028761943774716647
-0.024496022645449162
-0.1201669784652753
-0.055593193104521856
-0.018207411667362977
0.01180935266354847
0.05594222011984977
0.1308141439034635
0.04327171047633898
-0.010904177941939505
-0.044131275109566846
-0.07122431145707801
-0.10305777347924049
0.057839448200276776
0.018256472740309414
-0.008257508749748297
-0.006485187083344801
0.034240066832423234
-0.0859740035079629
0.017825414321073915
0.11348857723491358
0.15385519647307094
0.084133100683072
0.05472696881735332
-0.1625616410124344
-0.3597193291402304
-0.2854733332617019
-0.051432970549763195
0.047272297786057633
0.30159671329291915
0.5584721993241014
0.4028968715060144
-0.03899631664613767
-0.2747629291197647
-0.4066103783701685
-0.6935101571772142
-0.5300989283143006
0.3483826372165537
1.2371458370358088
-0.37796571142118485
0.5466654932239111
0.39999453897540693
-0.4724479562311353
-1.340868136877412
0.5391225467106231
-0.05414121397611935
0.09351008500171486
0.21940040577615752
0.16528304289260587
0.16130114007966503
-0.18179512063795936
-0.07086426611208427
0.07855711446645232
0.0539353484492957
-0.3443619866419486
-0.09873462821619021
-0.17816513922248312
0.0495401277072405
0.4004527308996652
0.4591440086527987
0.17335983124078758
-0.13616965344683532
-0.5523625504143638
0.26658480192628287
-1.0913671337250639
0.01243671458153183
0.4515389277722432
0.7035514261203469
-0.3829778572265494
0.9904743228668169
-0.026850172598366064
-0.5119536839910667
-0.5313953695436131
-0.305909812932321
-0.19163020651569118
-0.08676608836477485
0.3375922760136066
0.39316250562075794
0.33242359732519755
0.32426284841647524
0.25720377023037155
-0.02882697553840053
-0.49098628894976226
-0.8289702291248159
-0.6474224141688711
-0.2513511908011115
0.3208289745149223
1.0373753236195093
1.4096849554892124
-0.3487089388784098
-0.3241126234057995
-0.4669645464450305
-0.5359673818642976
-0.8457350772878585
0.7634978987961732
0.3274271227307601
-0.06407117183630968
-0.09985089704887919
0.1202124277704002
0.2613452157760053
0.342714972159481
-0.059271433986652106
-0.39491716295555507
-0.3186237023237766
-0.2688824676349274
-0.05878885964102778
0.5205273174809353
0.48800929246552316
0.06082335078932049
-0.350389459422798
-0.33813350490909455
-0.2917096985417159
0.005203737869937212
0.369874325446852
0.611759897342818
0.1267325212456524
-0.2999491759473031
-0.4823471130625706
-0.4215436746268547
-0.30204027294958813
0.297755087585271
0.7843368919737995
0.5286763246979818
0.2601909166534029
-0.3172795871570006
-0.6914242680575213
-0.7039406629170954
-0.3277190936723216
0.1289539110691672
0.5913857950125531
0.7737324550382
0.5402323390969119
0.08911574779412991
-0.8354757191171808
-0.7122516085126551
-0.4100888361304145
-0.17088342209933388
0.5854825156372996
1.041277407041995
0.5626981991757056
-0.10077876528615339
-0.594233775483576
-0.921982567941685
-0.6189451903528509
-0.14779854728001146
0.27047734292658987
0.8013139760074453
1.1382273141198205
0.46668951274508375
-0.13272180609101786
-0.8417288509668308
-1.0401540107520093
-1.0479548157079792
0.10228771617366499
1.0542457239544376
2.090288467013478
-0.3073713913324845
-0.6750377672783303
-0.9613835182996571
-0.9119220221047091
-0.8656779765186322
1.6245581115989625
1.5564711310456114
1.0507433373177193
-0.8440878720578211
-1.1077807489749047
-0.8828552117691697
-0.6186431708959261
-0.2516594053405413
1.1694705910564467
0.8272852363434303
0.2726330395236496
-0.019153611725671545
-0.2598049700458145
-0.32938908695359487
-0.1398089494227756
0.0043380001557805
-0.1643319113202336
-0.06168946237497583
-0.05477381553546356
-0.0790623283406154
0.13498917185767853
0.4337661185566328
0.21941764859829527
0.043399076352925336
0.017974039319223957
-0.15703363364820871
-0.360421562025876
-0.21963743183183138
-0.09466120893322744
-0.08155450166469112
-0.03545434392580669
0.19310493494340053
0.5188509429132923
0.39124283324638537
-0.017486201008614845
-0.20190638473592942
-0.29484423539978244
-0.431433662018693
-0.1181764021238902
0.18420030384231587
0.2620736649740467
0.1388053026877399
0.06045249692437587
-0.11672043538959938
-0.13468882732638893
-0.13919383996007575
0.11536366882897338
0.06050064359088325
0.10863560470285588
0.050762392610146596
0.05878320153978742
-0.10720330477530499
-0.08841483055288878
-0.11689387761597099
-0.00835251698653361
0.039562027878240244
0.04354021944440892
0.027194251520318534
0.012563421326362232
0.012961230396867017
0.02883764854966444
0.047508781067577034
0.04687451811018049
0.002489110758024863
-0.10355059864850295
-0.07433184871161348
-0.09332461756508931
-0.1253653752003052
0.07588712364844061
0.1556331735357691
0.1444757940317266
0.04843362440277842
0.04601442566501957
-0.10660865541114324
-0.0641257527588637
-0.0780348412859803
0.015923412816950394
0.005742659681985389
-0.09499143678724976
-0.05148019208638773
-0.017373517210390613
0.05227825153313772
0.18793417655227604
0.19629630117676972
0.05844131197310365
-0.06317677002137322
-0.2107342985424128
-0.21506070258268975
-0.08386136258417685
0.0012381540495218647
0.07783248222319679
0.18901909562869496
0.16830656671848787
0.028800015675156325
-0.039762540090526814
-0.06585190075088929
-0.08562240683720827
-0.1313237891994788
-0.022702531948734624
0.03618367912977546
0.05455607640813932
0.048701546674907094
0.034733024486106955
0.02290764055205958
0.015096465521506069
0.005772664620309102
-0.014194690928224717
-0.0524273224059114
-0.11048269892715804
0.01837815775109123
-0.05192369601337122
0.09549133620435343
0.07468186461588854
0.09185113351109957
-0.056887528873030516
0.015908024363278823
-0.10664706787533641
-0.04037257017113372
0.004346738086148993
0.02456538940215154
0.024224982395753592
0.011795889575652507
-0.002797818735757297
-0.011085782376053996
-0.008310211602456855
0.0051544738772481636
0.023342958228552042
0.03538302095464415
0.02749268438138092
-0.013797209592626989
-0.09779720433690546
-0.02631359256144833
0.007964494631854398
0.020655898775016134
0.032710238132308715
0.06627422868677756
-0.05943864452925811
-0.13154252726104682
0.05404708899000984
0.09117074063764277
0.16366054486536877
0.04833102531290583
-0.07885750139503306
-0.2349051687202998
-0.22349860777355435
-0.0340282686946811
0.15254084139915602
0.3531097213398781
0.172479300969018
-0.0004608236568320959
-0.18792906224249098
-0.21212133600544011
-0.2835632082641504
0.005000470589919751
0.27621377362871125
0.15885036350569934
0.07673241397279863
0.04117197267919165
-0.15033144586864158
-0.10992926151054755
-0.052940941664964776
0.007567821668108265
0.06325876737027585
0.11018737210733957
-0.052875445342488114
-0.02594190405184004
-0.008448349441414179
0.0007473147945211238
0.0034786803729808407
0.002160095612443824
-0.0005810313332918623
-0.002411522507733052
-0.0018060468737320977
0.0015462714275918134
0.006554527987727386
0.010883539140147154
0.011567826626981493
0.006105850619596965
-0.0061220028153031614
-0.02250452612485057
-0.03650742852724485
-0.03824148249805626
-0.016612353713245778
0.037229672746229465
0.12618079930651127
0.04478160151027294
-0.02049160994469834
-0.08789360375852333
0.024901227301435118
-0.09391520339366398
-0.04701123430943854
-0.027816788045587435
0.17646680934475287
-0.019970333908829234
-0.0062642982888722895
0.02219853077176566
0.063368362091037
-0.08963686209059422
-0.045389903976307586
-0.010970543755105625
0.010097280365633383
0.01823629652873989
0.01678103622802733
0.010269211941872197
0.0028430756672206217
-0.002744862286527043
-0.005396670515197676
-0.005361647619222629
-0.0036443060978763784
-0.001405791025443087
0.00045832308801471727
0.0015001259037923285
0.0016942425899462417
0.0012900498070266377
0.0006325826209360103
1.951865938753657e-05
-0.00037443455182660653
-0.000506959363888332
-0.00043275694752912863
-0.00025088568656633255
-5.759348182718667e-05
8.265807428296066e-05
0.0001456193545512845
0.00014004610816203587
9.284802440004918e-05
3.403079740841946e-05
-1.379713088746576e-05
-3.975752135270155e-05
-4.378627387111734e-05
-3.2681731868267786e-05
-1.5464441323232617e-05
2.5182990670858576e-07
1.0117610061920416e-05
1.3205152199125297e-05
1.1041062888459964e-05
6.228878490340018e-06
1.2417015626798224e-06
-2.301072300771904e-06
-3.825189875411246e-06
-3.596766926968382e-06
-2.3306717231490723e-06
-8.028016380067388e-07
4.142749279137764e-07
1.0551850417394542e-06
1.1316802667816836e-06
8.271951488553299e-07
3.7659517316386115e-07
-2.59488392447047e-08
-2.725625462426971e-07
-3.4361269113872463e-07
-2.814217223272071e-07
-1.5431665335237307e-07
-2.5772499125064204e-08
6.359889273934486e-08
1.0031589160292301e-07
9.226712192992967e-08
5.840312442411755e-08
1.8764484101831532e-08
-1.2167663376909133e-08
-2.7945446997514547e-08
-2.9214563634015186e-08
-2.090774108219977e-08
-9.132128277580846e-09
1.1663879579755052e-09
7.318949339541363e-09
8.929679570996801e-09
7.164350505432117e-09
3.813332130600685e-09
5.039191343568054e-10
-1.747209619080894e-09
-2.6267618395971524e-09
-2.3641976907039547e-09
-1.4608463696898903e-09
-4.337319996394066e-10
3.5141174233822357e-10
7.386235495794598e-10
7.533059227959223e-10
5.276961352691022e-10
2.203950296949288e-10
-4.2771063340835e-11
-1.959493595747389e-10
-2.3176923234435667e-10
-1.8216233312072486e-10
-9.397129061737223e-11
-8.866767630269213e-12
4.7747046030010285e-11
6.868005971984485e-11
6.050900253423691e-11
3.647061354021695e-11
9.888127522972168e-12
-1.0015014046793154e-11
-1.9485570947355393e-11
-1.9401866983169557e-11
-1.3298912551450587e-11
-5.290400820172722e-12
1.4265738663874567e-12
5.231819898682566e-12
6.0081300352984675e-12
4.6258417401297746e-12
2.308757027030004e-12
1.2271613645463013e-13
-1.2987452518471656e-12
-1.7931798167457183e-12
-1.5468713112144678e-12
-9.086711683785105e-13
-2.2151297462283826e-13
2.8234952460941134e-13
5.131166210933419e-13
4.991266286857961e-13
3.3463176575072466e-13
1.2620030290741253e-13
-4.5037334758292725e-14
-1.3934475801392374e-13
-1.5556800386513436e-13
-1.1732554205059504e-13
-5.6545483615595e-14
-4.577772283066686e-16
3.517132663686055e-14
4.6745420825223645e-14
3.9489881116971405e-14
2.2582562883012003e-14
4.840320585367511e-15
-7.897729428160892e-15
-1.3497385798990471e-14
-1.2834188717920595e-14
-8.415042973604086e-15
-2.9973645277090918e-15
1.3627547514915993e-15
3.694119547266324e-15
4.014834008587478e-15
2.9633251013508806e-15
1.3714443820385961e-15
-6.596176369048432e-17
-9.574061623714098e-16
-1.225424411883296e-15
-1.0154018646225485e-15
-5.683947175035443e-16
-1.1082638623423165e-16
2.1074300537786625e-16
3.459871001088434e-16
3.2116341260051424e-16
2.0279928512335688e-16
6.215742948053817e-17
-4.872471143261208e-17
-1.0620086263422202e-16
-1.1196245071431488e-16
-8.320561926116031e-17
-4.15747540799777e-17
-4.779547946395189e-18
1.7482270643712132e-17
2.3606451500922573e-17
1.7610048025843575e-17
5.814311335996945e-18
-5.972678587556374e-18
-1.4078651692185092e-17
-1.732785465997016e-17
-1.649080686219251e-17
-1.3329242420194594e-17
-9.68272209951153e-18
-6.866428900824081e-18
-5.453644255493065e-18
-5.369456001568376e-18
-6.1521742573356185e-18
-7.239346488089551e-18
-8.180150684982905e-18
-8.734975539484983e-18
-8.87256782966551e-18
-8.703256125041776e-18
-8.392550040810207e-18
-8.089264284716385e-18
-7.885245848794626e-18
-7.807655819860904e-18
-7.834256487416159e-18
-7.918487887706117e-18
-8.012919001366993e-18
-8.084357853146375e-18
-8.118972163075486e-18
-8.119492537119397e-18
-8.098278089501947e-18
-8.06992637987225e-18
-8.045899429812881e-18
-8.032101135305164e-18
-8.029077566144798e-18
-8.033814409242548e-18
-8.041984498410784e-18
-8.049779294540342e-18
-8.054906013080302e-18
-8.05674589456196e-18
-8.055932345021763e-18
-8.053693552119722e-18
-8.051251064860611e-18
-8.049441321753803e-18
-8.048596264217655e-18
-8.048625111037176e-18
-8.049197915873857e-18
-8.049936288974108e-18
-8.050549180078263e-18
-8.05089155886522e-18
-8.050956011625925e-18
-8.050824511802826e-18
-8.050610030158338e-18
-8.0504099235128e-18
-8.050281310813943e-18
-8.050238039809995e-18
-8.050262260803541e-18
-8.050321633882025e-18
-8.050384735016608e-18
-8.050430518502768e-18
-8.05045106798882e-18
-8.050449243093177e-18
-8.050433830107011e-18
-8.050414625568845e-18
-8.050399010430708e-18
-8.050390535641316e-18
-8.05038922148184e-18
-8.050392847918948e-18
-8.050398469648111e-18
-8.05040360087823e-18
-8.050406821702883e-18
-8.050407829405075e-18
-8.050407122551734e-18
-8.05040555124739e-18
-8.05040392294391e-18
-8.050402766321188e-18
-8.050402268813478e-18
-8.050402343488927e-18
-8.050402756921159e-18
-8.050403255779292e-18
-8.050403653133091e-18
-8.050403862356165e-18
-8.050403887300573e-18
-8.050403787866417e-18
-8.050403640739212e-18
-8.050403509312758e-18
-8.050403428802882e-18
-8.050403405614923e-18
-8.050403425927359e-18
-8.050403467430253e-18
-8.050403509399515e-18
-8.050403538576786e-18
-8.050403550561848e-18
-8.050403547931479e-18
-8.050403536873569e-18
-8.050403523931361e-18
-8.050403513832598e-18
-8.05040350868206e-18
-8.050403508268548e-18
-8.050403510981302e-18
-8.050403514826278e-18
-8.050403518188682e-18
-8.05040352019722e-18
-8.050403520722731e-18
-8.05040352014592e-18
-8.050403519051426e-18
-8.050403517970666e-18
-8.050403517235708e-18
-8.050403516948947e-18
-8.05040351703548e-18
