0
3.2922822952070886e-18
3.29216824455069e-18
3.2926808707812968e-18
3.293931284914734e-18
3.2957314947408817e-18
3.2975134420734814e-18
3.2983883502420983e-18
3.2973985746996756e-18
3.2939495748902146e-18
3.288313671625098e-18
3.281998995564207e-18
3.2777235549156995e-18
3.2787780012261023e-18
3.2877363154716212e-18
3.30477132488657e-18
3.326175826455163e-18
3.3439374752008538e-18
3.3471885779247865e-18
3.325904560500687e-18
3.276333635572574e-18
3.2064866725152613e-18
3.1390167036177166e-18
3.1085538566212027e-18
3.151590865676201e-18
3.289579892524739e-18
3.509630490623887e-18
3.750928740956008e-18
3.9068912055739635e-18
3.851125166710338e-18
3.48821937222059e-18
2.818747065538612e-18
1.99469585699721e-18
1.3324510142990411e-18
1.2522964556726597e-18
2.1315970705917368e-18
4.093914798795094e-18
6.8007999258942094e-18
9.350419468756211e-18
1.0394992012717216e-17
8.546156990694478e-18
3.0356310120030565e-18
-5.54625588219068e-18
-1.475290441887763e-17
-2.0409739199670107e-17
-1.7668545648216444e-17
-3.0057586281935044e-18
2.3272191994559102e-17
5.4956847838974287e-17
7.957164466849399e-17
8.088239073608847e-17
4.4716732803069284e-17
-3.285469148391912e-17
-1.3763644186962204e-16
-2.3378385338653463e-16
-2.68902068162309e-16
-1.9026094403225607e-16
2.941316701770543e-17
3.6372072321256044e-16
7.144455917484447e-16
9.182731974314683e-16
7.894898076129993e-16
1.9850452400878572e-16
-8.317104968507832e-16
-2.048388820888184e-15
-2.9601579819310813e-15
-2.9407025707135375e-15
-1.4590989681472592e-15
1.6031673388183896e-15
5.654420588775555e-15
9.272167040064599e-15
1.0421893649259166e-14
7.104478698514961e-15
-1.6380618813175203e-15
-1.464615370876566e-14
-2.7985027062633917e-14
-3.5273034672611333e-14
-2.9406401775001196e-14
-5.640952323817987e-15
3.470028921050029e-14
8.135751750024889e-14
1.150031832912489e-13
1.1150376697214159e-13
5.102368856184576e-14
-6.970469479162252e-14
-2.2615418983683198e-13
-3.6195723662781006e-13
-3.9820374729710445e-13
-2.592450726967483e-13
8.813190615971194e-14
5.937058427124204e-13
1.1001429820366113e-12
1.3583627790263758e-12
1.0970367101394859e-12
1.4339056422488663e-13
-1.4344452579607481e-12
-3.22118315984153e-12
-4.4575389492433206e-12
-4.21475482392029e-12
-1.7539406319681942e-12
2.9995823468621644e-12
9.033949446566727e-12
1.4118754749862889e-11
1.5196957202742812e-11
9.41164224607266e-12
-4.369878309830877e-12
-2.3997062200527662e-11
-4.3190274930701515e-11
-5.2238856508980585e-11
-4.079524047819835e-11
-2.60474550271306e-12
5.903636477934572e-11
1.273616768557085e-10
1.7257893305407317e-10
1.5899160261723255e-10
5.916376817493752e-11
-1.2776423146337433e-10
-3.602264615811799e-10
-5.500907209459679e-10
-5.790632137279117e-10
-3.394791922811846e-10
2.06468437933568e-10
9.67549536868652e-10
1.6935594172122921e-09
2.0063505802385977e-09
1.5119288131867973e-09
-1.4577110703433167e-11
-2.419930515858526e-09
-5.028839141990362e-09
-6.6737343982741485e-09
-5.984438286326677e-09
-1.945811641180004e-09
5.395890998079596e-09
1.433975067565909e-08
2.1408009777990453e-08
2.2028642980198203e-08
1.2153388862397903e-08
-9.443183297886225e-09
-3.89213002049749e-08
-6.632829432698491e-08
-7.695534896979944e-08
-5.582565838411495e-08
5.080274935826058e-09
9.883424643837611e-08
1.9829858708585466e-07
2.5776990823566754e-07
2.2472645647582244e-07
6.175421338659611e-08
-2.26245787609816e-07
-5.699118134228011e-07
-8.321891863191352e-07
-8.365822770927777e-07
-4.312420601470953e-07
4.2189422922381635e-07
1.5622999879103433e-06
2.5947022937595303e-06
2.947625660007082e-06
2.0527522775338222e-06
-3.7316765850985367e-07
-4.023262900562125e-06
-7.80924839172725e-06
-9.944195382857659e-06
-8.417648332775794e-06
-1.856672383745531e-06
9.427502707177192e-06
2.261532182280789e-05
3.231252481761499e-05
3.171410069484272e-05
1.5139081073576236e-05
-1.8517343734454988e-05
-6.258321343784983e-05
-0.00010138400028975249
-0.00011274197953531596
-7.513126377064283e-05
2.133528938949937e-05
0.00016327762717201856
0.0003071367337169701
0.00038312335517727797
0.000314384870291274
5.077770191904691e-05
-0.0003909201656009924
-0.000896433770360728
-0.0012537092199833746
-0.001200635676181129
-0.0005250927662703712
0.0008016530178552659
0.0025046585704082197
0.003965121685326132
0.004326758316499467
0.0027815462146113306
-0.0010018129975174035
-0.006435361664297111
-0.011766591984102761
-0.014269546182250497
-0.011040158842591246
-0.00037272037265636773
0.016588907523177477
0.034517991439657364
0.0436300931525972
0.031066740939595532
-0.0159707496263447
-0.10602971383716414
-0.03957500508856277
-0.007126510218738011
0.00964224707439864
0.03401566342296543
0.08880121974614971
-0.008962740323784014
-0.05178703981541037
-0.04344522271434978
0.0011887934679212472
0.057824575651166374
0.09600365326249422
0.08431719089689603
-0.002352363277063861
-0.1747553660831545
-0.2231231165507902
-0.11643590811224278
-0.009455831651135577
0.14321973404956712
0.37055091450223054
0.2726912622069723
0.01894737171309022
-0.24190347533867834
-0.362622965389399
-0.1778652872842894
-0.0922505745828033
0.11932103270423552
0.300449461827914
0.2971928771393052
-0.055336806617913264
-0.13872016432868858
-0.14891597553472702
-0.08943324300554092
0.035292716432446386
0.0231555083133995
0.07368660771636183
-0.015242774393891965
-0.05140558841116626
-0.051339984755029024
0.1584400856656012
0.14306867577791268
0.06463520451523873
-0.10884506149320172
-0.19274162560953187
-0.17731690310998893
-0.025792302894309834
-0.08149119172065326
0.11685855615123464
0.21607893497477557
0.23231481106386923
0.144083840101975
0.09843553772451755
-0.17050297857901875
-0.31629863947334214
-0.3574651322468636
-0.2665812875276832
0.023085015718610626
0.39457174684066265
0.7160399846736133
-0.18654209410139488
-0.14260386590009907
-0.032277431360848624
0.03306416671712528
-0.0617390682285488
-0.007138709896363293
-0.0451335825614782
-0.1550210108025892
-0.25241209141503096
-0.40369889782857704
0.34478124657964093
0.3281600688740328
0.22500698161145744
0.23188679253519087
0.2600608294091875
0.35763328703873176
-0.6473542791263579
-0.49474131811448596
-0.44755561816743067
-0.2706730527549449
-0.2414174070183284
0.8107804978476781
0.6495789053744787
0.3816442515856638
0.028989633637403926
-0.26833603885944457
-0.4238378420328248
-0.3642591952471941
-0.19339164451449803
0.02842115939967971
0.28565094383768297
0.19430098590838313
0.18299406759682493
0.07742058735068216
-0.10651102236104519
-0.1604341088053236
-0.07574637823114928
-0.03537860237257556
-0.009254442455063707
0.04472801161517557
-0.025355059156674947
0.025297396284209416
0.028146586705056206
-0.007228337325357879
0.10189452993166945
0.11154486367770533
-0.04284701711690388
-0.034892963483379544
0.06775461989821153
-0.1814811888658842
-0.19674363833755654
0.04444881930100742
-0.0036004580843277366
-0.06790750358770581
0.12490166900894151
0.2299988578423186
0.07068659292332485
0.0338186003568888
0.27593554792685177
-0.46171706720129896
-0.2344102924069317
-0.07828616972461214
-0.0037581673108727405
-0.20005996304378026
0.5518911572257659
0.264929670713335
0.1369983400545216
-0.04651445645431815
-0.2999203466353052
-0.4201979998602793
-0.17506856658433673
-0.10372533264399714
0.2679617246296039
0.4029411883233597
0.3292160707573321
0.027150172438240198
0.03365067547735498
-0.3381243805253715
-0.37128195384194973
-0.12053671997379367
0.0007188021852584275
0.01794982896894966
0.18014535069569068
0.3386211502359228
0.12831794054094994
-0.04193141648841328
-0.18795655744076933
-0.14020560894806433
-0.13069695480528415
0.017474605759598184
0.09504036871588499
0.10607574971638328
0.0645664450423784
-0.009200864247322162
-0.090919648562261
-0.1535176642854859
0.03121260880747587
0.08949351809458526
0.041216216038833055
0.09597430358150467
0.05132860095370613
-0.10587376830883599
-0.19594510719540428
-0.04262012798825075
0.12890561876071435
0.09175320001311932
0.016461233724157833
0.07171578729236963
0.028200364868896072
-0.13465663058638755
-0.020883251735793227
-0.01184613858211247
-0.06442479818281427
-0.11512704124051396
-0.09041550144390088
0.07809334093400414
0.23675015983063438
0.196132019662554
0.12550637756464966
-0.04146652621868286
-0.19066040364088846
-0.20594005732789983
-0.1492210053460047
-0.04844639762903768
0.10347646112697881
0.13993631570658582
0.10647504826079446
0.04669390376136437
-0.00754359133738278
-0.03984943593350476
-0.04767276934596665
-0.03745555878563546
-0.01905150499155724
-0.0012829133536956356
0.010474899159752532
0.014714496792205864
0.012844213246713778
0.007673260680809507
0.0020166197899822765
-0.0021882770556231586
-0.004165605344618129
-0.004117760854490432
-0.0028036987002952726
-0.0010982312356109423
0.000323142204291582
0.0011216039226926231
0.0012769969141489393
0.0009770752310117009
0.00048260303845132146
1.923230743541939e-05
-0.0002799622255548943
-0.0003819766029303754
-0.0003274154457122048
-0.0001907959378610608
-4.4856237657690327e-05
6.147298916332037e-05
0.0001095829264473326
0.00010585330876138975
7.048574386674462e-05
2.612810090665066e-05
-1.0086090038692347e-05
-2.9855107964311734e-05
-3.305414996634518e-05
-2.4771184922225858e-05
-1.1805947948477235e-05
7.905422331914737e-08
7.574504939865248e-06
9.955244762393862e-06
8.357333740969115e-06
4.740245243836717e-06
9.73444601602976e-07
-1.7135011687752558e-06
-2.87932364458739e-06
-2.719139987078285e-06
-1.7698904145377657e-06
-6.173679479829531e-07
3.0438864512598926e-07
7.927055885756822e-07
8.54501000681603e-07
6.271517323797618e-07
2.8774222132398837e-07
-1.673884451255496e-08
-2.0418034158947123e-07
-2.591246996511168e-07
-2.1310590044415526e-07
-1.1755446544657769e-07
-2.0449498078283698e-08
4.737600645331953e-08
7.55496369484504e-08
6.987160928559122e-08
4.455455460842093e-08
1.4689678175064038e-08
-8.788741544059706e-09
-2.098126071796529e-08
-2.2313157832537404e-08
-1.6409227885834135e-08
-7.74513322038124e-09
9.255819062831506e-11
5.196294604759932e-09
7.261363968866014e-09
6.981815186977602e-09
5.32260019241866e-09
2.9917891109933985e-09
2.7674220066558736e-10
-2.7676728580549354e-09
-5.934303560692262e-09
-8.518392608382278e-09
-9.247796975281325e-09
-6.638322001705331e-09
2.405059661210176e-10
1.0814081941047241e-08
2.228549405581804e-08
2.9664948047824818e-08
2.695825131687298e-08
9.578197222721116e-09
-2.2526274253907292e-08
-6.216902562092006e-08
-9.424353567969779e-08
-9.856598236580716e-08
-5.6884453845754454e-08
3.698976406314778e-08
1.6711638619799122e-07
2.904284323772422e-07
3.4220824118246807e-07
2.5541651802491676e-07
-7.612836286123429e-09
-4.195566354145219e-07
-8.638427749774046e-07
-1.1402948447474528e-06
-1.0152563637767494e-06
-3.1730922375534916e-07
9.421218716730559e-07
2.468270980261958e-06
3.663836388910315e-06
3.747740697217543e-06
2.033391335021363e-06
-1.6781116142076297e-06
-6.716881545446895e-06
-1.1370106908658082e-05
-1.3120810196250131e-05
-9.42149785404892e-06
1.0681007458613589e-06
1.711981442925911e-05
3.405149389278291e-05
4.4029667596850924e-05
3.810089883141842e-05
9.954144262044525e-06
-3.943532222349173e-05
-9.805735182199622e-05
-0.0001423808025932736
-0.00014226308202045057
-7.196770416848803e-05
7.459441577856027e-05
0.00026945938483019126
0.00044462468870724614
0.0005023203155814314
0.00034591075974034735
-7.182579167885817e-05
-0.0006967455920934099
-0.0013411803541104198
-0.0016988956367313308
-0.0014271177881195211
-0.00029408577106184163
0.0016426396493821591
0.00389726615960114
0.005547781102000463
0.005439046930693839
0.002619585767086173
-0.0030677411223568236
-0.010444153625676118
-0.016801595785566694
-0.01836406730579973
-0.011575787843318128
0.004900268763634943
0.027975752709880015
0.048569780863445454
0.05164032780587583
0.01847586521200906
-0.06883511856929563
-0.02181169922192541
-0.04067021989116161
-0.11200933506854727
-0.010359134178427237
0.0963546768320099
0.03881525869768221
0.03826400624760782
0.10105610193258271
0.017644739194935956
-0.03366997114112465
-0.07952613354616786
-0.14340117311984563
-0.03959265088253407
0.028620974051629337
0.06639721481512761
0.08206857070357482
0.08207614161069438
0.06874139307255028
0.04210330323208459
-0.1949975042387056
-0.23134726715305667
-0.0449627227746527
-0.006545277011406852
0.11136923271514929
0.3230481564611523
0.22140786581197405
-0.022264084380206686
-0.2495190414151328
-0.3003633825094164
-0.19995625951730664
0.04732869228606114
0.25412137468599416
0.2393057445642346
0.01629339061613669
-0.014028968157079814
-0.06324084072479269
-0.1495414335910443
-0.08967370770780832
0.1077761651114089
0.04566002042990652
-0.0619598756036247
0.007567359698423332
0.08173130580786725
-0.011105212236373212
-0.045340826175108435
-0.0012675859183895694
-0.06789013889924052
-0.04567153822300318
0.05102633631714936
0.1928791356430739
0.13767378134553748
0.03703319187825348
-0.15241588116762456
-0.2563487292328241
-0.2735404542251368
0.025051179491537973
0.08721450410519589
0.36340481227824634
0.29040115485317713
0.08199696717104718
-0.26927129606144345
-0.180918906655695
-0.26616091519304064
-0.12404805616605591
0.060964024342501776
0.310078170218642
0.23662313360810489
0.0347712432248678
-0.12417484793089258
-0.08664237162909007
-0.10549281603783758
-0.027066434443570885
0.11961797300432872
0.12960853986158322
-0.17563511173821772
-0.15034447151601343
-0.13154650619683875
-0.051591923446490405
0.14525678108723228
0.4863942445892801
0.16082220344246692
-0.07910259725510416
-0.10283272176964017
-0.17804726764417755
-0.34675443310498927
-0.21006718826967363
0.07238835834353499
0.1678409326615345
0.14562231805921177
0.25110668934517977
0.0874451010980252
0.011358723220215444
0.5446906167308886
-0.8014999684112543
-0.29784642994354876
0.027412732984489794
-0.0012853162973744776
-0.5140923118029816
0.782179154121545
0.1749909808341219
0.12008912883442063
0.027261185544587747
-0.13834031483449727
-0.04145559831028739
-0.1548223803417269
-0.13751069911073274
-0.019580388088014277
0.0035075970038857054
-0.03360595539600994
0.12159998197161884
0.12362229354038357
0.01381723492816921
0.009743581467881648
-0.09906755405223305
0.05120781030224758
0.4064870947870827
-0.493568022608027
-0.1023395555779989
0.14538461209748002
0.040421121978924474
-0.3998800380787567
0.4638163715483281
0.08480287941557207
-0.07865436993928984
-0.17129955786342094
-0.1475675382924026
0.021998857216260843
0.1440922921146133
0.19735575169036218
0.13181911870892477
0.0760773206289963
-0.04738401077159105
-0.3020335778547647
-0.3186769525677231
-0.0854468523350926
0.049027265204662676
0.15968016252672326
0.3218825120877501
0.18951171366048625
-0.01822367744100017
-0.11759525978999001
-0.1502664777588355
-0.1675440588090754
-0.015143709110941064
0.07713944825471189
0.09955419408973781
0.06164509519601466
-0.011036026234751983
-0.08113266644588976
-0.10443521601416544
-0.036410267535745694
-0.04092138571034604
0.09958572677084401
0.174872974643802
0.1421893067328131
-0.07082453247835443
0.0455425333750611
0.0018624760744055978
-0.06860420331254838
-0.19042561727501509
-0.13439471396424918
-0.2182882942104788
-0.12197035660139266
0.08507374359122152
0.5102051911421843
0.40809279240668556
0.165610164361916
-0.09248468838676553
-0.2784001617099231
-0.5057413875294372
-0.2565461634807133
0.03770864480549732
0.1961333780821063
0.2723533778114907
0.13076449059147494
0.024601780367815355
-0.017603119556499316
0.004874945298535448
-0.12947607296765928
-0.05396075321456925
-0.002450633820497549
-0.0005506215520894554
-0.06082573880625289
0.017688068789787112
0.046501778432313276
0.04268019889674311
0.023579200202557316
0.0028391714795899595
-0.011534692685513005
-0.017030641516080545
-0.015087063980117926
-0.00903753103653444
-0.002303519671139318
0.0027339108011132686
0.005103790093025387
0.005031264567026297
0.0034265291834983825
0.0013474295794544996
-0.0003862418410865771
-0.0013620555323343262
-0.0015546231129798377
-0.0011917555595254176
-0.0005906394725055052
-2.6205261801807254e-05
0.00033904038177722505
0.00046438287946624977
0.00039886176304527256
0.0002330160301471631
5.541227277212889e-05
-7.424660928940893e-05
-0.00013313649513188987
-0.0001288841279069089
-8.600486309664867e-05
-3.2055244035163934e-05
1.2076894767875228e-05
3.6236545296796185e-05
4.0226052735464444e-05
3.0209330012238106e-05
1.4452972379231913e-05
-2.392694807602833e-08
-9.180064966830821e-06
-1.211754726655205e-05
-1.0205918600897801e-05
-5.820701936501552e-06
-1.2321054966341819e-06
2.063855325476407e-06
3.525067305593778e-06
3.3774640556810166e-06
2.2568428811173036e-06
8.5548986230104e-07
-3.1507983100395274e-07
-1.0113193372638176e-06
-1.2218164394741402e-06
-1.0670501710300196e-06
-6.957828090338198e-07
-2.2085429064953088e-07
2.9050580142774554e-07
7.834589606615035e-07
1.169410918007251e-06
1.3026591141170173e-06
1.0072614697584763e-06
1.606248669502789e-07
-1.188589476035348e-06
-2.71914241416802e-06
-3.819883268876206e-06
-3.716024452758214e-06
-1.758253684412729e-06
2.177254448079132e-06
7.3147421312188005e-06
1.183292689548682e-05
1.3152749070134768e-05
8.768495604684633e-06
-2.472955220288239e-06
-1.901634724845023e-05
-3.579042760368761e-05
-4.466518534283308e-05
-3.668282574378936e-05
-5.992296752781216e-06
4.5463201032984606e-05
0.00010437906081445075
0.0001460508858608928
0.0001399320151286376
6.12960667263885e-05
-9.319954594989789e-05
-0.000291454762888186
-0.0004611739537637849
-0.0005021612247811034
-0.0003194967020187182
0.00012664245958239324
0.0007694194415815655
0.0014064529766032057
0.00172103800567718
0.0013721365037113948
0.0001487466733710675
-0.0018500478253643034
-0.004083276140453946
-0.005577879140640177
-0.005158523605937363
-0.00191427983097697
0.0041853998831158125
0.011732917737429283
0.017675083904163905
0.017734614798648823
0.007578452824026386
-0.015458136004717979
-0.05065814117265927
-0.09304547383024399
0.06593595517933035
0.036073450258051615
0.0251345714633343
0.03607344972768685
0.06593595421758049
-0.09304547500246062
-0.05065814219535798
-0.015458136411630925
0.007578453486826366
0.017734616766793734
0.017675086953765694
0.011732921015052526
0.004185401941920228
-0.0019142806791512033
-0.005158528608450163
-0.005577888235928819
-0.004083287225693179
-0.0018500566025299074
0.00014874585883779676
0.0013721486671949268
0.0017210646820900483
0.0014064894433224687
0.0007694534123053687
0.0001266557473976005
-0.0003195226479426354
-0.0005022363888397357
-0.00046128986121130126
-0.0002915779417207946
-9.327351284759627e-05
6.133632727959e-05
0.00014013296259176542
0.00014640675710008883
0.00010480439858789996
4.5788711824516556e-05
-5.9849730714277175e-06
-3.7181983881944885e-05
-4.5718808612565325e-05
-3.7201099759923336e-05
-2.029610531281012e-05
-2.9151242773720183e-06
9.867987174876077e-06
1.614687907243194e-05
1.6345839598554767e-05
1.2003939318386084e-05
4.8341340476234226e-06
-3.6226712484428283e-06
-1.1807220938240815e-05
-1.776458320043208e-05
-1.904269474797203e-05
-1.3227204712878643e-05
8.269121621799986e-07
2.1424419444360684e-05
4.287276885212084e-05
5.5683814652037284e-05
4.888977732433292e-05
1.4561698706456165e-05
-4.645670858875802e-05
-0.00011977278234004541
-0.00017658093163036822
-0.00017943380927060157
-9.566191427725184e-05
8.374082652910759e-05
0.0003259149846166807
0.000547998461561079
0.0006289158184488616
0.00044685359305371967
-6.11387709325175e-05
-0.0008339542210186087
-0.0016445203553871624
-0.002115337452169491
-0.001817121094088029
-0.00045011864352360257
0.0019333665879666167
0.00475114531011412
0.006871812582350938
0.0068557191159627955
0.0034887898532430695
-0.003484078869436396
-0.012672961949121573
-0.020773893972505564
-0.023101671133691395
-0.015149214691505715
0.004955701598150963
0.033706452482180335
0.06023606313033067
0.06630589667667441
0.029123565984556832
-0.07306977131945805
-0.05394341212223181
-0.11284979399248007
-0.031869349993497754
0.022363780286306895
0.09221143265854911
0.019736117798218034
0.03715862584129827
-0.04059314364922701
-0.019857262512170123
0.071702428290893
-0.011132839899376103
0.0762038314579572
0.07846365741989543
-0.047116114174494024
-0.11880106471331926
-0.12189126696007829
-0.20740256247846367
-0.10043428572661323
0.08191228644484533
0.20684836022342223
0.30350078984452156
0.35008948424025116
0.07695614802757843
-0.21345548796888236
-0.41524464161882524
-0.38717650295284056
-0.13218171367052026
0.00401132531349651
0.3149075181952248
0.30316863924560294
0.24969273444549428
-0.0077091304587363595
-0.08042726956728577
-0.22061172957577105
-0.10362509470989328
-0.008447294890233738
-0.0016421347067880172
0.0724665185187876
-0.004553831341518901
-0.02631824216795479
0.03421971877523327
0.018801287366011738
-0.023032955654966863
-0.041149634693141826
0.00809621530145472
-0.044671888416598186
0.012864165064088311
0.17186995869047067
0.20347899666395433
-0.1349654796721035
-0.08893722999173558
-0.09368985239126841
-0.16342798991727672
-0.08668835702201905
0.1701852972393912
0.052531229883510916
0.003330260346525008
0.050090946967935035
0.19645705767091876
0.020774665007641226
-0.11806148077746106
-0.06927546836751326
-0.07698198982068123
-0.16922430722877463
0.047620151427459116
0.18816856893744227
0.08252916090726355
-0.03130262120055527
-0.11485225682134928
-0.13571090242894684
-0.07380220203647052
0.07239599573764419
0.28127258094100943
0.7086209665389688
-0.5033495859112841
-0.20859380209968062
-0.23695180515219855
-0.38033292712473404
-0.5935494688571096
0.788037464434959
0.6202712829031206
0.5243635093476486
0.07720972062603124
-0.3757082032184013
-0.6902605909177896
-0.4913382080743838
-0.35477829562593804
0.38693061088054154
0.6175841702863658
0.6019301418811615
0.15897082795836748
-0.14418279960364752
-0.5767675357027711
-0.416439398847321
-0.12288460330967577
0.0760713346524797
0.38288957518211764
0.4183723406903085
0.008256506545060719
-0.22460897491141102
-0.26108647117274403
-0.2835324379203169
-0.0761106105021131
0.3696760421378705
0.4467013312325014
0.12743329957201552
-0.0315770005753915
-0.27506228780802255
-0.4297153426859761
-0.28937997322045955
-0.012788075919941948
0.26378006161002143
0.40385822143298256
0.44831791837820023
0.0034022517376866325
-0.1554710249454086
-0.46675770079724527
-0.3618579129772421
-0.2510986689337307
0.27653844782590586
0.44080484016691857
0.4527141412107295
0.10279825232362083
-0.2379545744919911
-0.4052103471993111
-0.4242819897406566
-0.09915876652286618
0.1859498731013164
0.4534504373755586
0.3152067552423746
0.1612546622924623
-0.2391424148192419
-0.32452485227039757
-0.3231013644619237
-0.03841927000895845
0.15497489660927566
0.3054442969517054
0.2723905110635909
-0.08522009149091594
-0.31630710633265213
-0.38195455795042116
-0.06024175235290288
0.24584157500970927
0.49949729026816625
0.4268636564319929
0.1264729437712902
-0.5065956195135239
-0.548148206467213
-0.4166304213889479
-0.06213032097546074
0.22125262282885194
0.5637447432449905
0.2811006952524629
0.04287862264721265
-0.14236398457291244
-0.12279670477666366
0.015486973953785819
-0.025841854771441405
-0.13220126374504337
-0.157229347291008
0.08599535365169658
-0.37806028917394946
0.09867733747763104
0.366844349754089
0.2580282617246805
-0.029715712172177413
0.2666657456112903
-0.11191485885656671
-0.22353324016655726
-0.2999185115312393
-0.3285369353781646
-0.049844666390588606
0.027607624796797906
0.19823316126973953
0.5264326274803642
0.4219260565964585
0.03367784728245381
-0.13382559019353307
-0.38701971831991966
-0.6048523785743316
-0.2103011876346052
0.037316514021017294
0.22694396432437317
0.46437986867510805
0.4378987539349599
-0.006057187909814684
-0.26963523951064694
-0.19349451122838493
-0.2372466530104093
-0.05981512429285196
0.0934798673782781
0.19513150682256886
0.033163844699816425
0.0063183993274778145
-0.08014320793100349
-0.016923860711596097
0.008002487722736144
0.008285142743257772
-0.002271253145518756
-0.01155531660847772
-0.011116983702662179
0.0020829711423319833
0.024554949448335087
0.04632861513951356
0.05272482935057478
0.028121999329280885
-0.03871899196426721
-0.14918314117802323
-0.09136304875078269
-0.0407471150834351
0.03417310363308642
0.16271746288961525
0.16250995772903448
0.033480269055152764
-0.04206332082809741
-0.09332228361941719
-0.15147727294156532
-0.04060215424135534
0.02772847906056271
0.05485599251702292
0.051380655522055174
0.03166327910497771
0.008791279368478438
-0.00852689831867159
-0.01678103112413302
-0.016692918544306188
-0.011363306156847098
-0.004398888752095244
0.0014103120627946047
0.004664155088572247
0.005278225124019645
0.00402569113367895
0.0019800351796518505
6.911089943273758e-05
-0.001161293261606866
-0.0015776786637860406
-0.0013492400739305325
-0.0007840375496670909
-0.00018198183915179845
0.0002556732683963379
0.0004528476420774589
0.00043638600503194267
0.00028988753383862187
0.00010679493718194744
-4.235754020821243e-05
-0.00012352442439731177
-0.0001363639261749171
-0.00010196622328146491
-4.84057498563655e-05
5.7823382017124e-07
3.139203191776925e-05
4.110031092839026e-05
3.442701122378617e-05
1.946934850019139e-05
3.934022499625772e-06
-7.122507014673652e-06
-1.1897423049920936e-05
-1.1208779157586042e-05
-7.277865800057931e-06
-2.521201328417531e-06
1.2746992735429094e-06
3.279029233941487e-06
3.524762046713698e-06
2.581136510819483e-06
1.1792041911351987e-06
-7.555855173715241e-08
-8.459345448827027e-07
-1.0695974762671443e-06
-8.775900696198901e-07
-4.824446938240635e-07
-8.19823943921156e-08
1.9696982740407543e-07
3.12053531792859e-07
2.8756525048602115e-07
1.8240042660348223e-07
5.8981483832836135e-08
-3.7502391578549373e-08
-8.68572856024081e-08
-9.100173713634856e-08
-6.524744276422775e-08
-2.860589416651191e-08
3.4986783694136995e-09
2.2721510193600907e-08
2.779939845605966e-08
2.234381785787433e-08
1.192449128322878e-08
1.6134203528785183e-09
-5.413899605627972e-09
-8.172166347656379e-09
-7.369139985217952e-09
-4.563149308963076e-09
-1.3647844691676526e-09
1.0845194510381714e-09
2.2961083874579626e-09
2.3467428803269135e-09
1.6470073409168282e-09
6.906788609921032e-10
-1.2979845187033284e-10
-6.084718261235826e-10
-7.216100906200254e-10
-5.681807307216562e-10
-2.939268596432607e-10
-2.874194585684375e-11
1.4801330508406732e-10
2.1369890777917125e-10
1.8862399847411652e-10
1.1394038503724885e-10
3.115566483175213e-11
-3.0940564539962683e-11
-6.058320398813322e-11
-6.044787134477324e-11
-4.151306073616182e-11
-1.6587445306622446e-11
4.356345677691953e-12
1.6249876662338275e-11
1.8708252453967944e-11
1.4430055616764166e-11
7.223418223958354e-12
4.1105520325359955e-13
-4.0275675617270706e-12
-5.5801576319138686e-12
-4.822505897793507e-12
-2.8393295794546325e-12
-6.991209885525438e-13
8.730766941807406e-13
1.595620728876227e-12
1.5552483847142663e-12
1.044738372757387e-12
3.9594398970674713e-13
-1.3803773598360244e-13
-4.3286399449791074e-13
-4.84433006591592e-13
-3.660031963569989e-13
-1.769379549462864e-13
-2.1342734352277777e-15
1.091373446026333e-13
1.4551244890664348e-13
1.2315494344960031e-13
7.060667462337787e-14
1.5341421579326408e-14
-2.440986523888043e-14
-4.1949404389812575e-14
-3.996543598767342e-14
-2.6246838648841575e-14
-9.381092943866956e-15
4.216808358367442e-15
1.1506847240970145e-14
1.2532437856446973e-14
9.274463872287907e-15
4.322031311320629e-15
-1.582568477000464e-16
-2.942733450419526e-15
-3.785933871237194e-15
-3.1378822675458257e-15
-1.7483365839372958e-15
-3.2291441716867033e-16
6.807254089983275e-16
1.1045268339344929e-15
1.0292899760325894e-15
6.617529979001426e-16
2.2387374581154035e-16
-1.2197193546523356e-16
-3.0174095145856957e-16
-3.2037028023370716e-16
-2.3123118064213953e-16
-1.0169864777904382e-16
1.3000848333429044e-17
8.254869477344745e-17
1.018405585058792e-16
8.331782001135865e-17
4.664417538782426e-17
9.921520843451618e-18
-1.5381089129753484e-17
-2.5567798370196274e-17
-2.301361653045678e-17
-1.3194237325318705e-17
-1.8398173850291294e-18
6.945286268121434e-18
1.1365265707777496e-17
1.1645000032698373e-17
9.217812404321848e-18
5.8347089078015324e-18
2.9016978314807234e-18
1.1680649306206465e-18
7.339158357145006e-19
1.2573792542712836e-18
2.2235320886287387e-18
3.168520732178539e-18
3.805446545261276e-18
4.0488394325878524e-18
3.967332696296001e-18
3.7056652319019576e-18
3.4115976377087266e-18
3.188726958528169e-18
3.0804020596392256e-18
3.0783331703188913e-18
3.1441417123911924e-18
3.2323781660083024e-18
3.3072912652066503e-18
3.350414356931888e-18
3.3599758040121554e-18
3.3453199948748413e-18
3.3199110412620325e-18
3.2956213121541066e-18
3.279613913381928e-18
3.2738385792265348e-18
3.2763383649495473e-18
3.283294643447237e-18
3.290901573742506e-18
3.2965481628772314e-18
3.2991936184110185e-18
3.2991152201632078e-18
3.2973377805236425e-18
3.295039542243953e-18
3.2931284234450537e-18
3.292058185470549e-18
3.291853732757729e-18
3.2922608495074855e-18
3.292927980652862e-18
3.293551604582104e-18
3.2939532380503982e-18
3.2940891700407315e-18
3.2940145953565304e-18
3.2938300792110913e-18
3.29363353565204e-18
3.29349066914828e-18
3.2934263155989535e-18
3.2934317073104597e-18
3.2934795482817223e-18
3.2935393305181763e-18
3.2935880268388257e-18
3.2936145239226732e-18
3.293618712225459e-18
3.293607478878013e-18
3.293589990496849e-18
3.2935739976339896e-18
3.2935639380238284e-18
3.293560769454398e-18
3.2935629491540716e-18
3.2935678332254417e-18
3.2935729054803716e-18
3.29357651514861e-18
3.2935780737954046e-18
3.2935778486557664e-18
3.293576565049503e-18
3.2935750119713323e-18
3.293573772676996e-18
3.2935731183692683e-18
3.293573038235006e-18
3.2935733463904644e-18
3.2935738041412045e-18
3.2935742138083923e-18
3.293574465306632e-18
3.2935745383017127e-18
3.2935744755892028e-18
3.293574346564587e-18
3.2935742158148766e-18
3.293574124744708e-18
3.2935740871793127e-18
3.2935740951823066e-18
3.293574129522651e-18
3.293574169819469e-18
3.2935742013196087e-18
3.2935742174312063e-18
3.2935742187818718e-18
3.293574210371551e-18
3.293574198407627e-18
3.2935741879258552e-18
3.293574181650381e-18
3.2935741799932464e-18
3.293574181775051e-18
3.293574185177194e-18
3.2935741885437136e-18
3.2935741908379264e-18
3.293574191738256e-18
3.2935741914758753e-18
3.29357419055962e-18
3.2935741895153444e-18
3.293574188715697e-18
3.293574188320186e-18
3.2935741883037177e-18
3.29357418853222e-18
3.2935741888444714e-18
3.2935741891123467e-18
3.293574189268613e-18
3.293574189305532e-18
3.2935741892554236e-18
3.293574189165874e-18
3.2935741890792927e-18
3.2935741890215876e-18
3.2935741890001474e-18
3.2935741890083395e-18
3.293574189032726e-18
3.2935741890597553e-18
3.2935741890800284e-18
3.293574189089705e-18
3.2935741890896592e-18
3.293574189083476e-18
3.2935741890753376e-18
3.2935741890684994e-18
3.2935741890646168e-18
3.2935741890638148e-18
3.293574189065212e-18
3.293574189067565e-18
3.2935741890697894e-18
3.2935741890712385e-18
3.293574189071745e-18
3.2935741890714977e-18
3.29357418907085e-18
3.293574189070151e-18
3.293574189069638e-18
3.293574189069402e-18
3.2935741890694154e-18
3.293574189069582e-18
3.2935741890697937e-18
3.293574189069968e-18
3.2935741890700644e-18
3.2935741890700814e-18
3.2935741890700425e-18
3.293574189069981e-18
3.293574189069924e-18
3.2935741890698873e-18
3.2935741890698757e-18
3.293574189069883e-18
3.2935741890699e-18
3.293574189069918e-18
3.293574189069931e-18
3.293574189069937e-18
3.293574189069936e-18
3.2935741890699315e-18
3.293574189069926e-18
3.2935741890699215e-18
3.2935741890699192e-18
3.293574189069919e-18
3.29357418906992e-18
3.2935741890699215e-18
3.293574189069923e-18
3.293574189069924e-18
3.2935741890699242e-18
3.2935741890699242e-18
3.2935741890699235e-18
3.293574189069923e-18
3.2935741890699227e-18
3.2935741890699227e-18
3.2935741890699227e-18
3.2935741890699227e-18
3.293574189069923e-18
3.293574189069923e-18
3.293574189069923e-18
3.293574189069923e-18
3.293574189069923e-18
3.293574189069923e-18
3.293574189069923e-18
3.293574189069923e-18
3.293574189069923e-18
3.293574189069923e-18
3.293574189069923e-18
3.293574189069923e-18
3.293574189069923e-18
3.293574189069923e-18
3.293574189069923e-18
3.293574189069923e-18
3.293574189069923e-18
3.293574189069923e-18
3.293574189069923e-18
3.293574189069923e-18
3.293574189069923e-18
3.293574189069923e-18
3.293574189069923e-18
3.293574189069923e-18
3.293574189069923e-18
3.293574189069923e-18
3.293574189069923e-18
3.293574189069923e-18
3.293574189069923e-18
3.293574189069923e-18
3.293574189069923e-18
3.293574189069923e-18
3.293574189069923e-18
3.293574189069923e-18
3.293574189069923e-18
3.293574189069923e-18
3.293574189069923e-18
3.293574189069923e-18
3.293574189069923e-18
3.293574189069923e-18
3.293574189069923e-18
3.293574189069923e-18
3.293574189069923e-18
3.293574189069923e-18
3.293574189069923e-18
3.293574189069923e-18
3.293574189069923e-18
3.293574189069923e-18
3.293574189069923e-18
3.293574189069923e-18
3.293574189069923e-18
3.293574189069923e-18
3.293574189069923e-18
3.293574189069923e-18
