0
-1.2685193567661922e-13
-1.574065151039716e-13
-1.2804040902866198e-13
-1.844595372920672e-14
1.639336998824586e-13
3.714652755356631e-13
5.164723353515864e-13
4.912015554365411e-13
2.0927230687641334e-13
-3.393480005113077e-13
-1.039084904375951e-12
-1.632807892742183e-12
-1.7663855500708097e-12
-1.106905727693124e-12
4.809428811780628e-13
2.753493177377337e-12
4.988212488869711e-12
6.061831593784804e-12
4.771312622279693e-12
3.804281398623155e-13
-6.746461131354261e-12
-1.4685154526444115e-11
-1.9994513609986498e-11
-1.8531841045885634e-11
-7.087271817984274e-12
1.4492901221054433e-11
4.1456588876389167e-11
6.364034667209289e-11
6.73371896495703e-11
3.9994866957084307e-11
-2.292791365864383e-11
-1.110736444949163e-10
-1.9564266368100596e-10
-2.328817625047304e-10
-1.7696707259471045e-10
-1.3850394473964777e-12
2.767929035900927e-10
5.800253750712854e-10
7.734162380601079e-10
6.979034297753187e-10
2.346210311817459e-10
-6.131903252763241e-10
-1.6509060720208224e-09
-2.477347119526559e-09
-2.562597673614608e-09
-1.434434751327782e-09
1.055464916597612e-09
4.470427006426843e-09
7.664430037364486e-09
8.935158844974398e-09
6.540046834962927e-09
-4.683181962566271e-10
-1.1313759577394326e-08
-2.2878601554137303e-08
-2.988103883317927e-08
-2.6221979909431467e-08
-7.516413743853947e-09
2.575067038730592e-08
6.563659543599042e-08
9.632662137758827e-08
9.73585518038271e-08
5.1009354459959647e-08
-4.73807053909028e-08
-1.7952931886512825e-07
-2.999057197049935e-07
-3.4235323751574405e-07
-2.407206126535132e-07
3.853430073479949e-08
4.6088700528577593e-07
9.012526805947041e-07
1.1530662739129253e-06
9.82787920067508e-07
2.293386823351947e-07
-1.074458203686146e-06
-2.60550639357362e-06
-3.7411807628743317e-06
-3.692312761722336e-06
-1.7954402472936597e-06
2.0872622968303713e-06
7.194965141799199e-06
1.1721527117195789e-05
1.3098864514738365e-05
8.820295559248867e-06
-2.2884804589768304e-06
-1.8717310703571053e-05
-3.545768108010335e-05
-4.444045161503252e-05
-3.673600746898484e-05
-6.455519032449631e-06
4.458191183189463e-05
0.00010327170934204286
0.0001451313726346673
0.00013976149547232855
6.239234658969326e-05
-9.064207445551274e-05
-0.00028784856832596116
-0.00045768741601295604
-0.0005005817444953834
-0.00032170928731529275
0.00011952740252305443
0.0007580629002203763
0.0013939897694681372
0.0017129678160078955
0.0013749862224431036
0.000167450086865833
-0.0018155061642007686
-0.004040725984503336
-0.005543641572839482
-0.005154296347196353
-0.0019595649753725735
0.004084181265594876
0.011593182638610063
0.017543340256182482
0.017680426634845803
0.0076735399538134874
-0.015173992315165375
-0.050215242703577384
-0.09256995305869306
0.0662286682064491
0.03593295857902318
0.02437860782453487
0.03471723927407437
0.06429934484185222
-0.09431879476079738
-0.05072979270766514
-0.013594949048998132
0.011582623569006993
0.023152544942239534
0.022664936320806982
0.013602625139982344
0.00023160660190114351
-0.013072492393974075
-0.022122521628905156
-0.023240640544110854
-0.014007227951992824
0.005444107853060515
0.030934710709008162
0.05334222085926389
0.059252598342280006
0.03381106567800777
-0.03441860014642557
-0.14793539352060997
-0.09642608138666511
-0.056903208645723374
0.0009966469487105597
0.10560446548591233
0.27295022257245727
0.09993642632659964
-0.03564905266283869
-0.16768692708219576
-0.12968483240240858
-0.14312882553192857
-0.010895298763284196
0.0820842464738516
0.16193002419702857
0.056092284456862804
-0.015274497457310422
-0.04420853826109463
-0.035547355732045795
-0.004257919982873836
0.029026763121525537
0.043134096036703776
0.021487861881282284
-0.04332141140452477
-0.14647370285983655
-0.07067220803043024
0.010281221468513832
0.12436862343016512
0.09275177997162774
0.12288262761325756
0.006170878528884317
-0.07877372921793013
-0.15870450033685232
-0.05723803693717629
0.011375944369363409
0.044276202573524326
0.04794553635180558
0.03381226630231531
0.013628302817123144
-0.0038073054125239204
-0.013975452597725977
-0.016262212322697978
-0.012602840947684395
-0.005930568553566054
0.001007587355063191
0.006246406125247168
0.008691753350592225
0.007957689871286115
0.004217625098421503
-0.0017825281486343139
-0.008583511045323082
-0.013943034314140818
-0.015106707391839428
-0.009615552116939225
0.003375988277900834
0.021612108195009642
0.03870665582005013
0.04430532156440005
0.02594398400258997
-0.027498769534179953
-0.12170017839946913
-0.05377720521437964
-0.011810927650067285
0.022239468660604084
0.06697924647139517
0.13542340684454934
0.030689041688191504
-0.05478141547380889
-0.13638715193695328
-0.03243312826785713
0.04082169314927035
0.07277965377146373
0.060752036802715514
0.0115829359107432
-0.05693312359362584
-0.11547597411756394
-0.12498282745426374
-0.0421912195181082
0.17104094392660224
0.13674080717092454
0.05187936413717905
0.08517706506778307
-0.01850165449118077
-0.1270394304706955
-0.10644568777915724
-0.006992794787151964
-0.053878026462846125
-0.04448822088630499
0.047712966308691755
0.06438043344128037
0.05135997376026134
0.04872653642231445
0.08429411207635613
-0.028186696706760283
-0.0865303044481764
-0.09514122872854888
-0.060108334580939476
0.013507184062878467
0.12150844602884055
0.058523145889055016
0.01601274401810443
-0.0180855039169477
-0.05777362830957543
-0.11646130635690824
-0.005015504206159197
0.06860393279522856
0.09836454210133994
0.07922217621566893
0.007779060542164714
-0.11495478028630966
-0.07983673918555867
-0.06720242711229948
-0.04798931895630297
0.010848644527978077
0.13783982855469504
0.14827412289418443
0.03869837456787688
-0.012880815631760198
-0.04077446736885444
-0.08146000727922661
-0.16311232011805862
-0.09849786138551064
0.1164499177149673
0.09838487394176076
0.06895195170701963
0.04725016681561041
0.04511366666436145
-0.13385328545976782
-0.09246357206415759
-0.03742086532244479
0.022070363161255505
0.07405576121358601
0.10306015311442678
0.09077063577708072
0.019700749004490963
-0.12023338692943542
-0.1242985749324795
-0.16812086215824112
-0.00868251479823731
0.007568793665766607
0.13112870426967066
0.19458649548307425
0.20180792779252615
-0.07462097170727877
-0.08641167336064128
-0.09542265203224784
-0.15734785579820418
-0.10871153489914999
0.03903638072600278
0.09741773159808789
0.09280364761417013
0.0560167671835341
0.0134146376339903
-0.018213052917776355
-0.032507856625871884
-0.03123162907426985
-0.02050378311372049
-0.00718731273348596
0.0035666396597511716
0.009309620193443292
0.010068209754850373
0.007424200181342266
0.0034467104249269963
-0.00013542944651305996
-0.002350937395059044
-0.003013320845120438
-0.0024923498580047524
-0.0013943111802086792
-0.0002837721157052326
0.00048150810840199356
0.0007915105845079021
0.0007314426845347843
0.00048372115073960076
0.0002293242007235985
7.882586313500152e-05
4.6092738564309095e-05
6.320919259914114e-05
2.567251632844934e-05
-0.0001484365121047524
-0.00046424447271465247
-0.0008203058533947334
-0.001020062386136542
-0.000833313461586058
-0.00010146283659602066
0.001140492632395498
0.0025732991762942104
0.003593584778521925
0.003454493093157006
0.0015572804986056345
-0.002162952485404441
-0.006893579331959092
-0.010839221712505996
-0.011552926215482246
-0.006811636371179764
0.004043698132471507
0.01862851968478194
0.030433539256804792
0.028737744104097473
-8.877100658389271e-05
-0.06995294894236206
0.008330091214742085
0.030253225570400027
-0.00010529977992824197
-0.0692074811853176
0.0451868904945405
-0.02847931435550536
-0.059721144795517225
-0.021407783402051166
0.1045029296816919
0.12233022527424875
0.02086527469058216
-0.024381740853596366
-0.04508243551641072
-0.07199895476105996
-0.1277140945761311
-0.022762283344927088
0.04357590623449365
0.07845620269395864
0.08897816510518519
0.07707654232835667
0.03821938552640394
-0.0353551665703363
-0.14817969638551082
-0.09477863678433773
-0.055871362687206036
0.00023239763102918593
0.11098802159903046
0.10985984424683107
0.01678297566754343
0.03186577040582016
-0.06615024514547166
-0.11696442201919668
0.027215292454606244
0.10909138957475276
0.07443656613819315
0.08093150224098966
-0.09269544835236618
-0.2389496150975042
-0.11836017966747463
-0.0638789313406826
0.006021657466675338
0.1678326978193766
0.27250419474478765
0.13075944518899768
0.10983027308517859
-0.05636963463655459
-0.2463009989123694
-0.12567469226879283
-0.12632746980794526
-0.23599314490900664
-0.0023280904781314234
0.24999789923787558
0.19458339801427718
0.07895109683270962
0.10832779998863218
0.0423620743704993
0.005451297248505447
-0.09242313909970493
-0.13007555269871526
-0.1516230663654829
-0.15158913400270257
-0.07297962125459728
-0.01935104633315006
0.12195603341685074
0.25158462101675444
0.23288475563293748
0.0769533452949691
-0.057781224757614325
-0.051902613451086044
-0.2021799137051977
-0.1969478954428735
-0.0969071139428227
0.07394468168132975
0.12637111980282545
0.09569398930980297
0.027998692945968517
-0.03289331716418856
-0.055105745453143846
-0.024333170944577615
0.054325608169485166
0.1580814797248629
0.05178765348466514
-0.10333425312259509
-0.13904207504642402
-0.07042527879685381
-0.09061607795941679
0.028022171359435685
0.1264564479270265
0.04779184968433996
0.02599438550523367
0.07789870691542913
0.00047823266427272893
-0.026387822597604305
-0.032944213270571954
-0.05070602875731947
-0.10437963924349772
-0.006782665477994435
0.04211763115726664
0.052381234841146845
0.039066164868592664
0.017053155875574065
-0.002634194874611371
-0.014313788970496963
-0.017157879908055333
-0.013514825805194424
-0.0069354995773347776
-0.0005886328024777206
0.0036050460967091617
0.005123263137649574
0.004495087656693145
0.0027456037440523827
0.0008800281285898888
-0.00044571185484929763
-0.0010283383224919652
-0.0010348155019434763
-0.0008145895806616778
-0.0006921415553362281
-0.0008090035612635878
-0.0010588925129817435
-0.0011326002361143836
-0.0006623981952415468
0.0005720174569617536
0.002441507382987464
0.004355333036565753
0.005325549753348824
0.004261406269378628
0.00047244336039188334
-0.0057486892215334205
-0.012702261813097407
-0.017315170984680384
-0.01588470784827338
-0.005593654367512572
0.013465525861286966
0.036389622451420786
0.052576759496641465
0.046696053823647186
0.0018724741283562283
-0.09544637180915976
-0.050454676812651277
-0.05683216201568612
-0.09716896774555808
0.05256288204600147
0.2157236074661203
0.007584884341376817
0.03083668635772855
0.07599570446492185
-0.07337794690907846
-0.23277190138208703
-0.00938912942643373
0.0015461096532736244
0.015398323127108907
0.05247799487979707
0.13072120923086644
0.05976496243491804
0.03873592124907681
-0.1415983570279711
-0.09362058865336334
-0.02720978911526123
0.05381504970383564
-0.048073222532809205
0.07320010296812472
0.02315422694513155
0.0028218327505253964
0.006393755219080464
0.021158159335989017
0.029793008211560564
0.014521980671427966
-0.0378390902811531
-0.1313924132449838
-0.058937913163040964
-0.0033698222094009464
0.05718023335715803
0.14199437016639654
0.06097042736890772
0.011109889572389552
-0.022314784971216004
-0.06049897587218391
-0.12396674116464276
-0.026348497260167983
0.028760789452234772
0.04718325973221288
0.040689190547770454
0.022502227581642227
0.0035383750309602737
-0.009613361913107646
-0.014858743859800596
-0.013447433016673635
-0.008282805417400734
-0.002378667093649893
0.002131714822808045
0.004339519123515112
0.00439311369192765
0.0030619022925666823
0.0012669038458227584
-0.000263133717485699
-0.0011489972454523172
-0.0013512540739460317
-0.0010579575867170367
-0.000542558932441397
-4.73195469870511e-05
0.00028075907078564286
0.0004007825376711967
0.0003517448986967876
0.00021102964316421538
5.6181953327958035e-05
-5.9328730905748155e-05
-0.00011393599469599697
-0.00011298013147662466
-7.715712340948411e-05
-3.0424075398421517e-05
8.665880597492922e-06
3.075570114091492e-05
3.521180196655744e-05
2.7104183874135095e-05
1.3522866196971374e-05
6.302415499595095e-07
-7.896738535433218e-06
-1.106013591191674e-05
-9.820912915163714e-06
-6.044419295481506e-06
-1.5875221899878886e-06
2.219336165784584e-06
4.674154336200818e-06
5.533574814666993e-06
4.779583666216098e-06
2.4980953241972043e-06
-1.0559952613064044e-06
-5.258972530477353e-06
-8.941043035907467e-06
-1.043235245076972e-05
-7.984824944610922e-06
-5.769297786876122e-07
1.1105991074413307e-05
2.393869098164849e-05
3.240917100248123e-05
2.990684584796523e-05
1.1330854155174189e-05
-2.3508364925336337e-05
-6.692231039008746e-05
-0.00010253811544595069
-0.00010831115071436327
-6.409078278332218e-05
3.7347888379698025e-05
0.00017923449939362824
0.0003151328542319655
0.0003745999898511809
0.0002839630525886142
7.495613860425781e-07
-0.0004472721254728817
-0.0009350049529844455
-0.0012451704102545411
-0.0011218531823877693
-0.0003741236259867792
0.0009923050286993493
0.002664068177088915
0.00399659464691791
0.004140527170633052
0.00234303034684616
-0.0016229318181873334
-0.00703895963479193
-0.012045010119987877
-0.013896785640020769
-0.009821884064691574
0.0015815560356867624
0.01874342865697213
0.035927341374187564
0.0431672047550047
0.027872568519273673
-0.02190903511388952
-0.1133826866614011
-0.04554976209459867
-0.007998259085505893
0.017228113894354455
0.0511652268005292
0.11251021777577684
0.013279437696106284
-0.043002964271328256
-0.06038766275761134
-0.047913284010689804
-0.016942673890754052
0.02042333977201222
0.05172576944795082
0.06413854277809532
0.04522891919646867
-0.014808420093042242
-0.11979100556891509
-0.06451121751951296
-0.033920794317987946
-0.005806822444188291
0.04325554322392914
0.1304782565692748
0.060690325105624936
0.023963093545370254
-0.0017097118872244237
-0.04328982124846162
-0.12342108634695878
-0.052131001424179625
-0.02234605406951712
-0.01076796220914804
0.016140203089487826
0.09293553492355805
0.045572219367873396
0.0842687993959814
0.0009512284058730674
-0.02810471112540395
-0.035450707656666317
-0.05373674365854949
-0.10781100174968057
-0.009954679007268137
0.04060720365757558
0.054315668948843064
0.045735786497015665
0.028132105152730735
0.010013618331829404
-0.0055312739190339225
-0.019005534507070352
-0.03129420400596826
-0.04054943600369727
-0.040529445098093336
-0.021214025922889714
0.02833145350836908
0.11582553998666525
0.04204726659193006
-0.0008073203494201377
-0.027877171503714278
-0.05802523424598311
-0.10946286003862754
0.003582179154910958
0.07210089835915297
0.09169948237195896
0.06148838000355521
-0.016124020374695326
-0.1343503583793074
-0.0806966987368222
-0.03717820389894993
0.016703655936992228
0.09863241254990504
0.21790185308380589
-0.02761139115570363
-0.05001535744452183
-0.06570742750077802
-0.0877630667207443
-0.11970775793442179
0.04667325081998428
0.02859628739381645
0.04575150381700809
0.1125754083614536
0.03224278378548032
-0.005505701799759688
-0.02210020996662941
-0.044448635869429494
-0.09790492650646912
-0.00020138276903746438
0.04199798915323887
0.03341528633226601
-0.01209759519943259
-0.07536156900599414
0.06370879817294085
0.021795330153644005
0.00872523418891402
0.02567777899256394
0.06560567373590076
-0.08413931658552525
-0.03767820594205914
-0.006215020082068957
0.005286480374756957
-0.0005153978396151877
-0.014089663524836366
-0.021580790789445303
-0.008544326666710891
0.03595567787141306
0.11596133286117141
0.027120341266497153
-0.042159031210499756
-0.10713658981720188
0.01786505893882563
-0.07678151208813697
0.005519653173872809
0.06664373125893289
0.11121613161133914
-0.056032971099355
-0.03181734824130554
-0.014434098926372168
-0.003041770209389372
0.003134705176683976
0.005204120066771233
0.004573485814349594
0.0026708567464736746
0.0006482787798278467
-0.0007931800066598366
-0.0014162900014748473
-0.0013344424581193577
-0.000842195835049164
-0.0002561594818757294
0.00019201138830988467
0.0003984843617345412
0.0003768690200641968
0.00021658426937716603
3.221303153111153e-05
-8.02207043499578e-05
-7.200546361584579e-05
4.659108751848831e-05
0.00021107852399143118
0.00032264421828292133
0.0002813154381511425
2.7942554054616695e-05
-0.0004144697787429262
-0.0009154397155966113
-0.0012462003115696148
-0.001138003801222397
-0.00039016848936288554
0.0009948199842174182
0.0026983750317640547
0.0040624905251029336
0.004219222195703984
0.0023981350656266647
-0.001635975893934554
-0.007154991826520266
-0.012266536976396398
-0.014174662210910478
-0.010050329497045351
0.0015451108067020712
0.019029147778012803
0.036581634455358655
0.04408141496750212
0.028746724502979777
-0.021529325724438192
-0.11397206594054025
-0.04738149747242616
-0.010893879339931453
0.014070812855329693
0.04913495847060162
0.11323195654474598
0.01794159426504531
-0.034498806069673545
-0.050133999959880195
-0.04011641766898245
-0.01702387182394128
0.007959473579027791
0.026449720007863893
0.03315432657923819
0.02579458876203212
0.005323658483425497
-0.02339854664662088
-0.050958657850324225
-0.06370633641526054
-0.04592815510941656
0.01588712181556475
0.1275867806656901
0.08269938135293817
0.0609887522484311
0.03183525259567581
-0.03774218140980807
-0.1726941394254248
-0.1809055266838155
-0.04931195791099455
0.05270694921393761
0.16347204849194014
0.11635090887429146
0.12922440559202047
1.2173558749010827e-05
-0.09046763420665083
-0.17007762514992844
-0.06520907790065948
0.007083995156990972
0.04224598299965666
0.04660395471806612
0.03270523484435415
0.013921723470338378
0.00017302671551634852
-0.004292967588148754
-0.0009709807928637801
0.004530975139895585
0.005137228788025787
-0.004781609426263427
-0.026995873827708752
-0.058279368193258435
-0.09119347897569291
0.08302323914577878
0.07015328344345609
0.06895238436718575
0.06941951583623258
0.054787526015672786
-0.19292356047540338
-0.0856981660615091
-0.023589819576962427
0.007396527015230874
0.03270448595049915
0.08292323779453485
-0.01404033880148335
-0.04005052642684624
0.008537323895679462
0.11942921061637993
0.0666695989365458
0.01667657307327569
-0.06283638312256347
-0.19331367767435145
-0.17852954075904998
-0.003562493845104693
0.15937201768319922
0.14023278110671158
0.1600118721030131
0.023792999906773776
-0.07942553207489184
-0.1707879556798293
-0.07276903454941372
-0.0014903669394819978
0.03708506992789422
0.04657742447702819
0.03661497727926267
0.018371648835813992
0.0009798443748433492
-0.010301132849440042
-0.014160970186355096
-0.012126963249451913
-0.007014527408302401
-0.0015642257970099262
0.002388668570632245
0.004153946441298057
0.003980122475352733
0.0026311179796070536
0.0009579470854962352
-0.00039917533207705415
-0.0011333738160832058
-0.0012445608051078678
-0.0009268851885332678
-0.0004369001110018877
9.33687556127193e-06
0.000288757071520309
0.0003755040582245895
0.00031329463281034393
0.00017623622226794087
3.4557856882911985e-05
-6.586403388370838e-05
-0.00010886690782660732
-0.00010212902054539748
-6.601923090784008e-05
-2.2584648365021607e-05
1.19405983952449e-05
3.0062702959503264e-05
3.215496204909918e-05
2.3452090561411406e-05
1.0632493635710525e-05
-7.944417471929912e-07
-7.776979037893474e-06
-9.770041768830404e-06
-7.98458344368971e-06
-4.365059874675558e-06
-7.137115065393829e-07
1.8191908235983612e-06
2.85458645958185e-06
2.619590009332803e-06
1.654046292977376e-06
5.273388299604615e-07
-3.5000744170948536e-07
-7.95996156102668e-07
-8.299809494552396e-07
-5.9268172952884e-07
-2.577299472643367e-07
3.456334599837092e-08
2.08724698523627e-07
2.5384117168378605e-07
2.0325111063649044e-07
1.0789218140020413e-07
1.3947405144055634e-08
-4.981677894114473e-08
-7.462831219101332e-08
-6.709910906226299e-08
-4.15014112511133e-08
-1.2483164686026059e-08
9.662177631287102e-09
2.06246362507867e-08
2.12237984712709e-08
1.5239416569399613e-08
7.083707211154764e-09
1.1127952596431951e-10
-4.111714366241073e-09
-5.662441728586028e-09
-5.566785379735363e-09
-4.954255250617702e-09
-4.404612407244695e-09
-3.699084954370397e-09
-2.0342313604250014e-09
1.3944240029616218e-09
6.6607208690481336e-09
1.253729601664382e-08
1.6412247552581803e-08
1.4930934402433005e-08
5.38468284620254e-09
-1.2459465013938887e-08
-3.475395875390653e-08
-5.3104296793183554e-08
-5.61080878128706e-08
-3.327931228363019e-08
1.9211071654780534e-08
9.276217612917508e-08
1.6336401508557998e-07
1.9449594705707246e-07
1.4787806920615367e-07
1.3286395371492656e-09
-2.3095207553338318e-07
-4.842601561297353e-07
-6.459633746373615e-07
-5.831935467791549e-07
-1.9658514706780656e-07
5.113065153778723e-07
1.3781053075338938e-06
2.068871492907304e-06
2.1410060605078626e-06
1.199884230111197e-06
-8.788193947294585e-07
-3.730970289472531e-06
-6.3999088823781775e-06
-7.4639903995897344e-06
-5.467306176654328e-06
3.827052516855334e-07
9.439641943017786e-06
1.910147869283857e-05
2.495778936897602e-05
2.1913635318651483e-05
6.303133989736185e-06
-2.1474457303922277e-05
-5.479197053938709e-05
-8.044545094015793e-05
-8.134395527049137e-05
-4.2676194963739674e-05
3.946692155026398e-05
0.00014983767989687767
0.0002504264146857657
0.0002859811349573451
0.0002012279838706768
-3.190249167257421e-05
-0.0003846529432687551
-0.0007526275388677878
-0.0009633344878294484
-0.0008216577598922556
-0.00019285445794554824
0.0008960615134808794
0.002175872046187419
0.003127490739907488
0.0030931744264322885
0.0015208832188133529
-0.0017013010515364473
-0.0059333238712272
-0.009661155232824029
-0.01073640275155508
-0.007072803471858486
0.0022711200277116222
0.015918317645745927
0.02940800173478139
0.035409698846864096
0.02531306776079001
-0.007879683133529838
-0.06611627730534125
-0.14370361534678347
-0.027109519164327092
0.10200940491340253
0.061208021443264975
0.06120802144149347
0.10200940490888759
-0.02710951916938768
-0.14370361534939965
-0.06611627730272163
-0.007879683124330737
0.02531306777526733
0.03540969886202946
0.0294080017432459
0.015918317639361773
0.0022711200010905436
-0.007072803517177148
-0.010736402803923914
-0.009661155270412433
-0.005933323866885914
-0.001701300983079293
0.0015208833548197814
0.003093174602117804
0.003127490891682244
0.002175872085355486
0.0008960613553778539
-0.00019285484989483158
-0.000821658328244249
-0.0009633350548661184
-0.0007526278243716959
-0.0003846526431260014
-3.190141387395036e-05
0.00020122975953729984
0.0002859831384706038
0.00025042779092369547
0.00014983738653286872
3.9464134071173665e-05
-4.268155049725158e-05
-8.135073012965991e-05
-8.04511301688666e-05
-5.479311937048091e-05
-2.1467879989018503e-05
6.318680522698521e-06
2.1935695462889354e-05
2.4979272179553563e-05
1.9111461941429096e-05
9.426530998103814e-06
3.395568433959447e-07
-5.536662390521181e-06
-7.540586218579559e-06
-6.450198563510044e-06
-3.714901251371047e-06
-7.657940986918974e-07
1.4104412481856127e-06
2.4019388481719372e-06
2.280827211790373e-06
1.4082004564376995e-06
2.3915213765610806e-07
-8.123013415524635e-07
-1.4384491740712509e-06
-1.4583087793328184e-06
-8.284500995660503e-07
3.343685387437487e-07
1.7254674822615295e-06
2.8537616793079203e-06
3.118449973559581e-06
1.9909846955335013e-06
-7.129816415901318e-07
-4.55129828415084e-06
-8.301309490129307e-06
-1.0093176815244739e-05
-7.939563232639884e-06
-6.357287906100978e-07
1.1196944995546346e-05
2.4356083598687528e-05
3.313407795314296e-05
3.067178381466659e-05
1.16665914637756e-05
-2.4112820488027325e-05
-6.876906680168859e-05
-0.00010544881873499099
-0.00011144867954478997
-6.60070866027021e-05
3.833745945561547e-05
0.00018434925266133938
0.0003242534951468954
0.0003855531805937999
0.00029240528575014656
1.053018213360225e-06
-0.00045998821379479354
-0.000962034093838183
-0.0012814996567417562
-0.0011549745154751953
-0.00038584930662630205
0.0010201747209248897
0.0027407821710463656
0.004112697721246491
0.004261663590949265
0.0024124225904244246
-0.0016695156015772746
-0.007245876724863717
-0.012403345816277746
-0.014317823347077555
-0.010134502777772314
0.0015943865988192047
0.0192643470485837
0.03699463259945048
0.04457214489540257
0.029118887511160027
-0.02152758254895319
-0.11455640193660427
-0.048604124116510466
-0.012522919698961875
0.012602042648180557
0.04864317736627131
0.1145268569313026
0.021423324374239584
-0.0292734030123664
-0.044720334448877824
-0.03705750829931702
-0.0191644633740016
-0.0012919863051754723
0.010602621289396433
0.014813595519039182
0.012697156228923508
0.007076168619914073
0.0008523210237975065
-0.0038486216657677313
-0.00596723156817754
-0.005402946068563542
-0.002738760530180273
0.0010232297543861595
0.004649359972789824
0.006829099367132062
0.006396033726922591
0.00268680116727372
-0.003994183791005812
-0.011976659543204008
-0.018176153500162318
-0.01868490908312223
-0.010138890693207952
0.008318206159830852
0.0330576884486053
0.05489523577177672
0.05990572151830595
0.03270053456792688
-0.038162793515308005
-0.15416611427579432
-0.10269237480608619
-0.0572595864055013
0.016698713930959633
0.15163636980913175
0.1666378499235313
0.059424614594340994
0.005021489859191798
-0.03800064587221581
-0.11566061577756377
-0.06502851569049264
-0.10340579547158102
-0.023575685591023264
0.003532125509105534
0.01970393377565763
0.06668781570168411
0.1737682559762924
0.14962673520671563
-0.018772363301541594
-0.1599149100626865
-0.10658114446720225
-0.08425136386146309
-0.10349482503833574
0.04118848080874288
0.1664222738104494
0.09168404017986513
0.03154769446151012
-0.008450446577097372
-0.03122367892938117
-0.0438647458997766
-0.052034955416005
-0.05556103658059608
-0.04713220082811106
-0.014800652897995056
0.05244056799200459
0.15806592989209883
0.09325216315697923
0.03647484780149708
-0.041580216416463804
-0.16918523871935448
-0.16420555999450143
-0.028110521998401097
0.05412025640064757
0.10836964266642102
0.16279026314842926
0.0400935785412848
-0.046316756232131086
-0.0916561381901213
-0.09612791681713065
-0.061127200525862596
0.01241755079849999
0.12292052154273604
0.06541381228713034
0.029381204545881445
-0.001053609500629112
-0.04417481097062178
-0.1160855683485891
-0.026473010265306796
0.023470433073425105
0.04024711342138784
0.03499474185079613
0.01963485855631407
0.0037027967020222693
-0.00728209140116539
-0.011813139331525386
-0.011228702325954026
-0.008078337936792706
-0.0046617114214296184
-0.0021513506204659427
-0.00043673906458697363
0.0014091626556308567
0.0043028633610568655
0.008309342602732087
0.012143559657528875
0.013302270586717643
0.008956594468064006
-0.0025099556055950567
-0.019731722373500356
-0.03703605189914692
-0.04433300222810809
-0.028775407397703578
0.02183580183982839
0.1147561571346566
0.048684530238300244
0.012511146087275108
-0.012669201103142127
-0.048739255307514044
-0.11464105208632017
-0.021552122319151996
0.02914169891478794
0.044618477596075096
0.037040175332303825
0.0192915665707186
0.0015958994637720026
-0.01015574600545311
-0.014350515754373221
-0.012431247366050004
-0.007252395862235881
-0.0016432349990095634
0.002471994807881474
0.0043397643059089885
0.004178886196605026
0.002754943009340777
0.0009460737444945379
-0.0005613095540735917
-0.0014026205985369078
-0.001520179172182273
-0.00106855922703285
-0.00030532111056716713
0.0004918440013422916
0.001072049435814264
0.00123710042537558
0.0008695577793725462
-2.3171267672727593e-05
-0.0012567465954032432
-0.0024417508849221975
-0.0030244375811867685
-0.0024320548215288557
-0.00032176358869511883
0.0031263004720158464
0.006992906830388992
0.009636787453581685
0.009077150784192715
0.003769097173615815
-0.006380829594251243
-0.019121957451069094
-0.029607376945488418
-0.03129268385003905
-0.018239231040594165
0.011443309162664398
0.05195137936673214
0.08745032640644032
0.09269724498562505
0.037681208575537854
-0.10405022956609426
-0.14550346435086065
-0.07826552210721546
-0.06993367042231195
-0.06884726436656215
0.1845671067261085
0.14305662352630633
0.039076197020995976
0.07694718141271385
0.03299406330850304
-0.1367521790885798
-0.0840989081179959
-0.05557650434149923
-0.0825684189867203
0.022900818832116168
0.06643641171946378
0.06524193799973602
0.04049352531561308
0.010765699671517451
-0.011833031747429076
-0.022481589229468524
-0.02214965548237239
-0.01499459398228213
-0.005800481885315556
0.0017960125584634951
0.006044561662157352
0.006936903244389127
0.005545847200914688
0.003243654123261702
0.0010977420943295815
-0.00041021560733743605
-0.001340119536280671
-0.0020242888133943917
-0.002722590856100569
-0.003353364374553002
-0.003417558384980212
-0.002172381513987053
0.0009691876074443859
0.005922833609270583
0.011480209418298155
0.01511469710979927
0.013165660511127539
0.0013286634452520157
-0.024911858281467924
-0.0705662603534386
-0.1428987599586892
-0.05502124400658425
0.16948556576175344
0.29347889225782225
0.2685293564348645
0.04567602903726348
-0.20574423951268167
-0.47675065941042233
-0.5043723824682974
-0.1736545609194533
0.26006707459170797
0.5336095475327567
0.5361361957050323
0.28277544537887006
-0.08730705531461619
-0.2872304240308261
-0.44232876644637315
-0.4490834952884363
-0.14808562039072895
0.08024282321671838
0.297762056772444
0.3775975573254753
0.37325888680096075
0.09976203309885603
-0.267499207358164
-0.3784490839817116
-0.2872306459029208
-0.03456546742044947
0.15974142710637443
0.2937752630128945
0.1748741429550734
0.011851073889078525
-0.18783472308604474
-0.2161247242275531
-0.061050398934965305
0.09412248596833717
0.06772667637820323
0.07389085661349126
0.11716507182062283
-0.00966268938902609
-0.12348544407686315
-0.04546502783162813
0.005464746051412007
0.017875567030016245
-0.009468945925710534
-0.06780954175669002
0.05889995379183356
-0.0105250600411612
-0.059838977901272676
0.11972636819214873
0.12635884895949176
-0.05245302628009639
-0.036634831183824906
-0.0477086353563161
-0.10248306788598083
-0.008545860451677606
0.036970954082669184
0.0452950148321211
0.031797407721133056
0.011415225893194944
-0.004818155443828193
-0.011434425269360572
-0.008431853463190678
0.00010243496981018671
0.008078887585491053
0.00973519219622101
0.0018593338052427747
-0.014433019510893659
-0.03279131005139939
-0.042073901765418364
-0.028474982265691333
0.020804214307390673
0.11320403415593262
0.04728752464406861
0.011648240822071318
-0.012925127728733108
-0.04853196506861624
-0.11420663568526442
-0.021111254061745084
0.029447497411184496
0.0447427762724624
0.03701209459816013
0.019179446528733296
0.0014711911080881094
-0.010243513529025161
-0.014383866465311519
-0.012421607641368711
-0.007228210917821046
-0.0016346256164907224
0.00244733139245795
0.004285698838597804
0.004122358057774275
0.002738334652543016
0.001010829382561936
-0.00039664492939585485
-0.0011633213321057562
-0.0012856942327921523
-0.0009622935051506104
-0.00045767705739070366
4.269612417689286e-06
0.00029519137300271274
0.00038719787327933403
0.0003246632871207046
0.00018385058034447394
3.742064907347455e-05
-6.690120164003774e-05
-0.00011204861088935642
-0.00010567559980667618
-6.8690766043236e-05
-2.3869430453256164e-05
1.1933923335833848e-05
3.086683769690415e-05
3.3221391390247e-05
2.4351952055756762e-05
1.1146365769758807e-05
-6.850363953784701e-07
-7.957609958942235e-06
-1.0077864057171436e-05
-8.276897264295288e-06
-4.55640922164263e-06
-7.815082114987938e-07
1.8507121163908805e-06
2.939121006204315e-06
2.7113070300437442e-06
1.7217059745925536e-06
5.586753979532081e-07
-3.514283288308317e-07
-8.177019989735348e-07
-8.577512173312508e-07
-6.156233278408721e-07
-2.704526522500757e-07
3.2284220654053514e-08
2.1377054549030058e-07
2.6194490594726377e-07
2.1074562757997645e-07
1.1263402643997048e-07
1.5432864356326895e-08
-5.088244006382268e-08
-7.697627038093303e-08
-6.94836956416088e-08
-4.307607434137647e-08
-1.293473538651251e-08
1.0170237637186726e-08
2.1618312396606302e-08
2.2120815362677873e-08
1.5540937275461775e-08
6.531534816742803e-09
-1.2057617763872883e-09
-5.725462328128308e-09
-6.799907783663957e-09
-5.35936734524665e-09
-2.7766948119446623e-09
-2.7669379340865045e-10
1.3914340278879527e-09
2.0130388446675123e-09
1.7786358117750931e-09
1.0756962159773196e-09
2.9548975492528856e-10
-2.903182869437908e-10
-5.704531029175186e-10
-5.698234704548625e-10
-3.9173961514682174e-10
-1.569046517612285e-10
4.061144167904484e-11
1.5292391090597062e-10
1.7630286525143346e-10
1.3611998371714865e-10
6.824910446346004e-11
4.022816658324999e-12
-3.7870010882808884e-11
-5.2568345065515464e-11
-4.54763544783814e-11
-2.680824248341564e-11
-6.636660649157623e-12
8.196212861918572e-12
1.5025810577664596e-11
1.4661781631595393e-11
9.85957851973878e-12
3.746620005159561e-12
-1.2895255121516074e-12
-4.073926236825778e-12
-4.565307549853725e-12
-3.452576834832954e-12
-1.6718404570905584e-12
-2.3718145914963642e-14
1.0265511628821461e-12
1.371013692777179e-12
1.1614543388435602e-12
6.666851557884767e-13
1.457536928129639e-13
-2.2924407905370746e-13
-3.94900787486919e-13
-3.7637430226690957e-13
-2.4705047831089947e-13
