0
4.202865140913337e-16
7.625734770807089e-16
9.313318231175574e-16
7.426729349812759e-16
8.211535589934381e-17
-9.987105672025506e-16
-2.2110906326369984e-15
-3.0338996565853686e-15
-2.8355230498196445e-15
-1.1209966759289045e-15
2.144749523348845e-15
6.252671578404521e-15
9.667134608485172e-15
1.0302923064855657e-14
6.233879807430886e-15
-3.2655256554137114e-15
-1.6665761421870682e-14
-2.9627106655372507e-14
-3.550722539599403e-14
-2.7298123199941998e-14
-8.675767020791779e-16
4.133524373051278e-14
8.766672547249554e-14
1.1769026169908275e-13
1.0714406226477688e-13
3.7677556974288973e-14
-9.067404926382142e-14
-2.4883545232927783e-13
-3.7616432202117217e-13
-3.9201448192031717e-13
-2.2386898207616878e-13
1.5220375386286285e-13
6.715555491341031e-13
1.161403855007026e-12
1.3632176405000215e-12
1.0103551819290715e-12
-4.523766896228871e-14
-1.6912317621950869e-12
-3.459137992202556e-12
-4.548461103356226e-12
-4.0284918748499e-12
-1.221397590964999e-12
3.816952117477318e-12
9.898655275923319e-12
1.4632130936785757e-11
1.4902081852336814e-11
7.984703117123683e-12
-6.8827421837437986e-12
-2.698776749231913e-11
-4.5462298827579985e-11
-5.2255356734880475e-11
-3.72389075839648e-11
4.8455790531458926e-12
6.8969218908022e-11
1.3632290570488965e-10
1.7558831811467707e-10
1.511114307288207e-10
3.7956899178862315e-11
-1.5958188697112216e-10
-3.9313340277033775e-10
-5.685020526858064e-10
-5.654917887307248e-10
-2.820494741126488e-10
3.0491073832026126e-10
1.0822952117744913e-09
1.7775226648872628e-09
2.0002856887791455e-09
1.3665695527167664e-09
-3.0844577945658357e-10
-2.80368414762192e-09
-5.3655288766938176e-09
-6.770115970346921e-09
-5.653530769229459e-09
-1.1026805371289178e-09
6.6330455589239795e-09
1.5589939507951705e-08
2.2062682234784488e-08
2.141950822442861e-08
9.847086874876323e-09
-1.329515276968604e-08
-4.3317768783967126e-08
-6.941864526341871e-08
-7.645848908717162e-08
-4.990432106132603e-08
1.665648015522161e-08
1.136426124435067e-07
2.1091732394268895e-07
2.607093407648786e-07
2.1091980980428413e-07
2.8285714554118522e-08
-2.7429459271897494e-07
-6.173244479997318e-07
-8.552305753672509e-07
-8.097513722853426e-07
-3.388142017193191e-07
5.724433908112398e-07
1.7305124514242616e-06
2.7079321786724425e-06
2.9181575951819e-06
1.812282356547807e-06
-8.286034351242387e-07
-4.593990216973624e-06
-8.280921069899408e-06
-1.0026870034395648e-05
-7.84479485114008e-06
-5.301146972451821e-07
1.1291485754447075e-05
2.441006330020697e-05
3.311335303027612e-05
3.054945465115362e-05
1.1442097686036518e-05
-2.4394569838632966e-05
-6.900975710212224e-05
-0.00010551158297637827
-0.000111202063943325
-6.539315691251577e-05
3.9230953107462056e-05
0.0001852464330979314
0.0003247162262159122
0.00038510234065470476
0.0002907330462825368
-1.7258015363104136e-06
-0.0004631470808513117
-0.0009642374564793736
-0.0012811074551297213
-0.0011506736364454524
-0.00037749052694210575
0.001030827542578367
0.0027498108491954194
0.004114710193696112
0.00425159571524276
0.0023882241860145284
-0.0017041209675200185
-0.007279875493577084
-0.012419630769498983
-0.01429808740728491
-0.010067564641586587
0.0017029360932370734
0.019385165164968167
0.03707529915409286
0.04454960138143148
0.02894433943695563
-0.021856338096204457
-0.11496684484007297
-0.04894137458246274
-0.012578255250957305
0.013019585279610207
0.04960239189586809
0.11586955308873004
0.022710509669471926
-0.02870826580741324
-0.04557517570356582
-0.03973649037298829
-0.023409443886334168
-0.005927473785393714
0.007618868011017811
0.015881206995047647
0.019589458183702287
0.019692688703820058
0.01617402418406879
0.008044764344364406
-0.005476219078412341
-0.02309350900238083
-0.03974383601430241
-0.046058447643201446
-0.02969341597138469
0.021413798615814328
0.11470666922129745
0.049209687020592766
0.014026975452936734
-0.009858720235332512
-0.044853007907998725
-0.1107192213866856
-0.019430465680159305
0.02732877171054683
0.03739722685225807
0.024782382141906693
0.005149400488326822
-0.00843602185372437
-0.00861335696057566
0.00467987303953914
0.024198394725121614
0.03695879974405924
0.027314168045863188
-0.01882193968777454
-0.10948284127191112
-0.04327492258392298
-0.00853669304207187
0.014294589382418895
0.04769285642767137
0.11113399336269521
0.016365285860904993
-0.03458214752365473
-0.04829117076885004
-0.03669496942171881
-0.013227990629611858
0.010259028808375436
0.02524561881748816
0.027148514578512938
0.015370310424995062
-0.00673059504096948
-0.03190327812077465
-0.04953064381111624
-0.047254700963095746
-0.014062868262710585
0.05555924913913167
0.15776341289378792
0.07772679991294378
-0.00809893560924045
-0.12578099285656813
-0.09567655300648134
-0.12545939090604047
-0.007418756623102776
0.07876829694333061
0.15902881538157349
0.05669273331390052
-0.013618463415812139
-0.04810045037946372
-0.05202061299593606
-0.03579900555680134
-0.010950273020676034
0.012722604940849043
0.028321098641121468
0.03191558983659401
0.022319849125439467
0.001231240914098351
-0.026159916169404586
-0.05061914359313433
-0.059287868926932
-0.037872917785492774
0.025295310652135392
0.13433080147211135
0.08196731763324329
0.04903545745931625
0.008469510594218167
-0.06681577526302326
-0.19480861380198605
-0.1777690009203871
-0.0013254239752495535
0.1596664599773327
0.1306059126678366
0.1264999808971642
0.1459994221189282
-0.027119293466352435
-0.21563795735746208
-0.23757669078929206
-0.09727570417311353
0.01676723967177436
0.1263223869553097
0.2530962426061278
0.20904612106187664
-0.0076463701668125425
-0.20899839567055672
-0.2083068270691628
-0.21115743415906874
-0.011638678869201342
0.20400958207230196
0.2484106977762131
0.12393029634110649
0.01871560366481167
-0.08970143493974898
-0.22494693163887677
-0.20125063346527516
-0.01703285825466464
0.14433906579362243
0.10726018301650216
0.09378953151886404
0.11540306777579372
-0.030128317477566738
-0.1561160521768782
-0.08052149089362796
-0.018984356030312906
0.01980845122683974
0.035195460188665664
0.03262527244600562
0.020312543731589625
0.006044140699549592
-0.004867109082006665
-0.010208451216904326
-0.010357426085174367
-0.007184911655400167
-0.0029122484985726472
0.0007135068800270829
0.00279069135353884
0.0032337250702090693
0.0025004877158234713
0.0012507924456762569
6.725024324842442e-05
-0.0006981365006734824
-0.000950729080076408
-0.000791811734534335
-0.00041995175787482177
-3.800141556939521e-05
0.0002097344677733862
0.0002641590811731527
0.00014827255940648898
-5.4791337264439085e-05
-0.0002331250919190809
-0.00028103064897118
-0.00013413136238563762
0.00019991211671818287
0.0006233563026605818
0.0009548495506359918
0.0009716165533686128
0.0004902687983537323
-0.000527323113016542
-0.001877533226011688
-0.0030790676851406985
-0.0034501438990049375
-0.0023270115555715553
0.0006007981416925451
0.004935056025965352
0.009356259007391931
0.011741677985983554
0.009748315704506998
0.0018440268395655429
-0.01146098505466339
-0.026674268470571773
-0.03731059088420501
-0.03536915909759352
-0.014464599652630469
0.0259101502405102
0.0763188475662128
0.11543602314427352
0.1120965028926843
0.032207629531655076
-0.15056860354225002
-0.24377428826891118
-0.22966274545218363
-0.06757008150029015
0.09365416905583858
0.2965948945936959
0.3570112386067698
0.25489107529162197
-0.059492741242574
-0.24485492419573837
-0.34050811108917756
-0.3414900516776208
-0.18794020540925865
0.025546684409868632
0.22241236941362644
0.507446470740281
0.3338395867039242
0.08588744460387819
-0.11658312725777617
-0.19429627594925264
-0.4744957894959545
-0.2592467880367666
-0.006533179451105174
0.2713687938437544
0.19504928594655915
0.19868347657340632
0.11327824916455116
-0.04165716577540068
-0.2570680978902536
-0.12735203046383545
-0.04280869560856652
0.013973185227804455
0.0662305864816166
0.1371500782418386
0.04321916000376084
-0.010076326929788215
-0.028546661039673994
-0.025800162857147292
-0.017539812210450152
-0.015691727336255325
-0.024120117135416865
-0.03708014468783672
-0.04088921139466343
-0.01857962773557548
0.04352669477867667
0.14923362484122857
0.08832211566200678
0.03696994794982188
-0.03657231221888082
-0.1625384668272118
-0.1598089071561825
-0.02956352255506966
0.04499936228436091
0.0928938809387497
0.14608175076554408
0.03044682995292563
-0.039899040909151195
-0.06380059919685184
-0.05058294739467651
-0.01585682260588222
0.022614244414697962
0.0481527930637484
0.04763217713373222
0.013660763855496316
-0.05337047626801941
-0.1440036905621978
-0.04038693721153814
0.08016638864633639
0.03901239232089403
0.0491665717042226
0.1099727648851068
0.005558842978434515
-0.09213849769102536
-0.016607979998136076
0.0017042700253381495
-0.056802722032701765
0.0043764224059154155
-0.0004705249150931744
-0.04143876775614591
-0.07861664141379855
0.12984459390993228
0.01878841598463587
0.00830544563332318
0.0992349171870692
0.0732640942065515
-0.10224050689874181
-0.06594288129393788
-0.0532483041028241
-0.0888616601875524
0.016713924420639147
0.06623026676915075
0.07146884070218441
0.04794812969751367
0.010752697713336923
-0.02732018826360265
-0.055482885161835395
-0.06380192474384318
-0.042709853513851974
0.015835680944535465
0.11570651968375277
0.053772707128122973
0.018651438120437923
-0.007767319781133163
-0.04614504374278546
-0.11431512788000818
-0.02276420693689047
0.02733273203790494
0.04299504428308087
0.036041474361788006
0.01900333427869958
0.001853142358734267
-0.009626915059084092
-0.013810451878793034
-0.01205407577201342
-0.007106032400467591
-0.0017071871079428372
0.002272009659462763
0.004097707440597302
0.003983553174078999
0.0026746405105632872
0.0010182352094177554
-0.00033992455648240244
-0.0010850990135594935
-0.001212075677061563
-0.0009142573196646887
-0.0004499796139702988
-3.555965049384277e-05
0.0002112844917578481
0.00027738019612892775
0.0002239684053559469
0.0001403332996499152
9.920747419512438e-05
0.0001266086427218318
0.00019277194739075783
0.00022554310875595214
0.00014288461562076454
-0.00010364376770896798
-0.00048754075552354337
-0.0008851638501214395
-0.0010898707823864967
-0.0008731211435813458
-8.811455698378898e-05
0.0012102934957180283
0.0026779180710276773
0.003686367698372631
0.003471260639666849
0.0014330706845798148
-0.002469093778315926
-0.007370935595764734
-0.011402773227644806
-0.012031439560016437
-0.006940822159069778
0.0046522810388203864
0.020608138044957525
0.034980175960999185
0.03826526133266482
0.01917272076176683
-0.032268882325789394
-0.121189289778426
-0.04540707205309051
0.004633121926220162
0.04313068785021054
0.08443632187808568
0.13886909880462103
0.010909771071745754
-0.09935712704051086
-0.19255134132037202
-0.06652871936029311
0.08440812477779307
0.06685972692133234
0.08375117964632275
0.13065224357706498
-0.004566366439845114
-0.13805191267235256
-0.0837175452448216
-0.047298846497959464
-0.02353459737107556
0.002168917787298053
0.048197500940267084
0.12947433125546254
0.05129763319147715
0.006649679526467698
-0.02202184910490665
-0.05733954901818399
-0.12004983432360083
-0.023233511484244622
0.03035535973005436
0.047292588081295744
0.03980974806751523
0.021263446329443825
0.00245460155191838
-0.010262855199251492
-0.015031597574270004
-0.013264988383436687
-0.007932440217700652
-0.0020312481953503043
0.0023689945161870694
0.004433164633682455
0.004366704834995851
0.0029677831358309397
0.0011593007335230347
-0.00034570925819144574
-0.0011899838245447505
-0.0013531423107029422
-0.0010345163543238661
-0.0005104002939824465
-1.9675049516324608e-05
0.00029692271657735396
0.00040463588236826946
0.00034660241169556105
0.00020179710824119344
4.724506671150238e-05
-6.527960646376387e-05
-0.00011612375781244378
-0.00011208609189162025
-7.458182690131096e-05
-2.7596308647821963e-05
1.073842534784567e-05
3.164789742725307e-05
3.501404552685978e-05
2.6231819173959585e-05
1.250091086496024e-05
-8.308874003804346e-08
-8.024005479681895e-06
-1.055915630360549e-05
-8.890151378947824e-06
-5.082588798145195e-06
-1.1007888618240786e-06
1.7689294970237121e-06
3.067176573288964e-06
2.9922098745343786e-06
2.083164045008147e-06
9.126871059906779e-07
-1.1206990660282844e-07
-8.104011551769847e-07
-1.17745102024377e-06
-1.2797712058742566e-06
-1.1595513703578226e-06
-7.939411579178495e-07
-1.270401697939316e-07
8.408538731804092e-07
1.9509363490382222e-06
2.8310850739612793e-06
2.945370874787735e-06
1.7757904192507996e-06
-8.889109429147345e-07
-4.648554255269294e-06
-8.318728956418323e-06
-1.0053584124595942e-05
-7.87359333937936e-06
-5.697918145877861e-07
1.1246146858255344e-05
2.4381302238673378e-05
3.313424540374184e-05
3.064876849494286e-05
1.1624067324436466e-05
-2.4168010171066303e-05
-6.882442222269706e-05
-0.00010548509568850887
-0.00011144276522357713
-6.594009542421734e-05
3.8468106644121605e-05
0.00018451800832563757
0.00032440171878487926
0.0003855978898309238
0.0002922654602447053
6.906504695271763e-07
-0.00046052415053345237
-0.00096258092574524
-0.0012817948675881933
-0.0011547269847029125
-0.0003848661335783004
0.0010218360824012806
0.002742696807611419
0.004114069278377497
0.0042615010674481105
0.0024099157181885064
-0.001674492129483107
-0.007252303899062948
-0.012408898269144559
-0.014319257062066484
-0.010128720576792424
0.001608723479610852
0.019285138546593295
0.03701537876547724
0.044582595351703495
0.029107916159049913
-0.021567002678408255
-0.11462135640351873
-0.048677423074706794
-0.012573283524472192
0.012612746222704321
0.048745118241183875
0.1147227523497834
0.021671164736031936
-0.02906561303178113
-0.04467825382655958
-0.03729807405028513
-0.019733200892742067
-0.002099122784313848
0.00981645632841312
0.014448018034820976
0.013176567382233426
0.008655150375533875
0.0033919262417579908
-0.001040220810628037
-0.004113705194888226
-0.005963898893500048
-0.006825221353686256
-0.006599037290343591
-0.0047733881142140114
-0.0007596609304950685
0.005467046594323348
0.012695771106796464
0.018136635364491126
0.01773567460724537
0.0072881241617855745
-0.015842604150823544
-0.05098338024594321
-0.09323361046154521
0.06589122912426296
0.03613206326603768
0.025240649387086114
0.03617935780382661
0.06601417091375628
-0.09300235481492476
-0.050645047103145636
-0.015467144515131502
0.007551416582837232
0.017688752343740673
0.01760935044830579
0.01165368799296606
0.004112799057729825
-0.0019461041260967148
-0.005110442147452112
-0.005424034922163579
-0.0038337679787870493
-0.0015686010091326822
0.0003441255514364566
0.0013356996077053622
0.001335466635231626
0.0006578317226182263
-0.0001853008001503358
-0.0006841636387495853
-0.0005036080871774071
0.00039511624737066534
0.0017037572291721567
0.002811648889825938
0.0029666364330445485
0.001551257644772973
-0.0015732331655294541
-0.005763257101960336
-0.009488002886774087
-0.010585417960830562
-0.006967252890949982
0.0023005149565905156
0.015835331465035452
0.029187815207247614
0.03506633416154418
0.024924936665556736
-0.008163382386683047
-0.0661041451841383
-0.1432316362302901
-0.02613990081460648
0.10329338808124468
0.06236144798428688
0.061590109817034056
0.10098498636899306
-0.0298538317745914
-0.14781852304586746
-0.07037862906951477
-0.010291255957931206
0.026984898204294335
0.042659106138656123
0.041815459759709156
0.030239648517462643
0.012406856822120713
-0.00866993283112398
-0.030008389247818464
-0.046667494926390815
-0.050517981892353826
-0.03082794362363419
0.023051967265012088
0.1176691153661238
0.05176688887749939
0.014741591157710478
-0.011672337979308712
-0.048833408944453406
-0.11539619650635566
-0.0224903469971712
0.028379661991011308
0.04420495015002645
0.036975698879112076
0.019468110610037954
0.0018706508187837961
-0.009903054183684167
-0.014188698135967822
-0.012375800284488165
-0.007281200772242452
-0.0017181627802098586
0.002386957558163086
0.004268728506127126
0.004132867205647181
0.0027362616337997417
0.0009540554452109628
-0.0005270648490579332
-0.001343228429521299
-0.001442073229205015
-0.0009888129762605465
-0.00025355206264134376
0.0004787374690531149
0.0009637571438572016
0.001029842546386031
0.0006049628520761551
-0.0002508371875392079
-0.0013156723068443793
-0.0022055529078612427
-0.002437851741273385
-0.0015799139258514394
0.0005310419857571502
0.003560543508094487
0.006551899690175506
0.008029668219876804
0.006418441852700246
0.000757397041111675
-0.008468554375859303
-0.018724831200008608
-0.0254863914642939
-0.02332985893426666
-0.008147982982460607
0.019899952420885526
0.05363214317426915
0.07759122258919995
0.06953340848540673
0.005178798875304833
-0.13457839577585556
-0.15625550169744418
-0.049174985764988376
0.013994347606225116
0.07125282120664735
0.16194695975658557
0.11766130945424574
-0.04339537732993463
-0.11708205935236048
-0.11008976076442213
-0.03535515583785074
0.09144399980049792
0.05341123212029893
0.032727578771425084
0.011130977568519749
-0.02854935715613003
-0.10001099495757942
-0.01125895996775754
0.03639722687025439
0.04776171369132814
0.032107939876104746
0.0014203634046316836
-0.03083389786411969
-0.050477515701258246
-0.043574998522051676
0.0017966983512294377
0.092903999625039
0.02959550962690193
0.002646850107609178
-0.005822990462667167
-0.019719982612720996
-0.06481507654563598
0.03587769853664453
0.06627414360822266
0.02045241788482063
-0.09532004992400271
-0.062247263989732515
-0.051157607660054734
-0.02771658498826418
0.039795136575354786
0.17208716805298094
0.17283988822218074
0.027906501317666012
-0.08913339594169803
-0.20674226056236203
-0.14465388659390374
-0.107285808927134
0.11578029135914338
0.1427396021958628
0.18955118300454776
0.061840988194321454
-0.04765765742760536
-0.15547580602432706
-0.07996191732357952
-0.03388383991548361
-0.0203828285382775
-0.033621826725238
0.13671047163485037
0.09942017439771389
0.0572377320964692
0.005837183247935633
-0.06310325789308963
-0.15635813827773498
-0.0739735555915685
-0.0071613173749159945
0.05955599918018848
0.14294522031188434
0.05503543892009249
-0.0006923720935449735
-0.029283986771170684
-0.04072954534323476
-0.04460205708787085
-0.04523568810828091
-0.03935583757579657
-0.017076304871508435
0.03405236352529914
0.12341775813393964
0.05234549389136951
0.011835212078582093
-0.015896549273660993
-0.0525848136156003
-0.11768464559801066
-0.0231430892948521
0.02896349634413613
0.04538885660511577
0.03817176461288031
0.02030254238084106
0.0022210088098788276
-0.009963639879674184
-0.014488579723643685
-0.012736989790964381
-0.007578535161247405
-0.0018978128611851267
0.0023213505077880766
0.004285819015471975
0.0042022302226545375
0.0028437629096893856
0.0010995527256368464
-0.00034615768901778097
-0.0011527708173920516
-0.0013037031929266155
-0.0009927575283702479
-0.00048652244214427315
-1.45568825072804e-05
0.0002885747929219071
0.00039037019564277213
0.0003330402165148471
0.00019290852725400217
4.408500459729571e-05
-6.38294792635128e-05
-0.00011220792775912586
-0.00010782964146380689
-7.143526260499494e-05
-2.613172708648093e-05
1.0682174780191668e-05
3.0644829063843646e-05
3.372016707765976e-05
2.515126503576305e-05
1.1886594294448867e-05
-2.130149253056176e-07
-7.802481762731412e-06
-1.0171619434587456e-05
-8.498895629244377e-06
-4.790327179274405e-06
-9.500266060554026e-07
1.7761228717645157e-06
2.9472231966765657e-06
2.769204830811258e-06
1.7930573869705262e-06
6.162902522521865e-07
-3.2047090056153747e-07
-8.13265069600444e-07
-8.714783835746752e-07
-6.365631434845322e-07
-2.894266254240602e-07
2.047067827613653e-08
2.1017144753008732e-07
2.6466569560666676e-07
2.166168440323149e-07
1.1866784589230172e-07
1.968807104920331e-08
-4.907951207907273e-08
-7.728719298743254e-08
-7.103518001523756e-08
-4.492871814352053e-08
-1.440023316756703e-08
9.406681488343217e-09
2.1536998071348105e-08
2.2496537724220228e-08
1.6088684667065605e-08
7.017327539481115e-09
-9.106527177243807e-10
-5.643028759992101e-09
-6.877747175944404e-09
-5.51434541038936e-09
-2.9321554666005063e-09
-3.839832762777086e-10
1.3480798459259249e-09
2.0236578913015124e-09
1.8200944758589785e-09
1.1237403894458146e-09
3.3271939386014595e-10
-2.715406192083045e-10
-5.692061162786554e-10
-5.800577179867754e-10
-4.0604723712484997e-10
-1.693282264858486e-10
3.3253912379794315e-11
1.510660793915116e-10
1.7850417508551808e-10
1.4020319584463033e-10
7.224977039899446e-11
6.72369344675721e-12
-3.6833813235310306e-11
-5.2908617927475316e-11
-4.658151908040427e-11
-2.8052816686547142e-11
-7.581405759902481e-12
7.735726972987991e-12
1.5015277283326143e-11
1.4939188757657202e-11
1.0232628372012102e-11
4.063813741617369e-12
-1.1066327042406362e-12
-4.03309593221696e-12
-4.6271577105752845e-12
-3.560174445326244e-12
-1.7748958614347173e-12
-9.181984912472457e-14
1.0017610932304512e-12
1.3813368826074848e-12
1.1907701444157258e-12
6.988745410292663e-13
1.6970348746218677e-13
-2.180393700233493e-13
-3.9537926132443484e-13
-3.8428135523824964e-13
-2.574065265211824e-13
-9.683978646043786e-14
3.496359726078948e-14
1.0744394981877577e-13
1.1975778309304584e-13
9.01384022502989e-14
4.321907169111318e-14
1.4786509760130777e-17
-2.729730336593878e-14
-3.594101630822797e-14
-2.9986039458024866e-14
-1.6612506558356716e-14
-2.7792561573339827e-15
6.836985858664314e-15
1.0481967028655468e-14
8.883743494723013e-15
4.261917419459549e-15
-7.395957957499094e-16
-3.906123587354191e-15
-3.993558535597623e-15
-9.776048423562294e-16
3.945287751723581e-15
8.60212138312781e-15
1.0372104758239375e-14
7.021152193917091e-15
-2.248711875436732e-15
-1.581241913655709e-14
-2.915851254610728e-14
-3.547317644681283e-14
-2.761949347584692e-14
-1.3883506998733427e-15
4.0805077991871736e-14
8.731881835476832e-14
1.1768601804773656e-13
1.0757263866655284e-13
3.8503780086415516e-14
-8.965473934309598e-14
-2.480029786185597e-13
-3.760058967688323e-13
-3.9296436218668365e-13
-2.2607596368588538e-13
1.4911031642085235e-13
6.685856696485231e-13
1.1600848973374529e-12
1.3651473136742935e-12
1.0164592253012154e-12
-3.5549575747873546e-14
-1.6806548685070457e-12
-3.452367107611511e-12
-4.5510391257690924e-12
-4.0445718144421856e-12
-1.2508899992643278e-12
3.780797298474081e-12
9.869788425282177e-12
1.4629007497787713e-11
1.4941182480965385e-11
8.071265791033601e-12
-6.763829015554159e-12
-2.6876329190859324e-11
-4.541759267524925e-11
-5.2338147882357515e-11
-3.7482398182781425e-11
4.468110849948766e-12
6.856603167018179e-11
1.3607776937444883e-10
1.757137779678072e-10
1.517607632704453e-10
3.9114173239564527e-11
-1.5819217243444525e-10
-3.920612090795053e-10
-5.684600756104128e-10
-5.670986849804532e-10
-2.8547039270850885e-10
3.003087744494235e-10
1.0780946201248977e-09
1.776026543469077e-09
2.00380111219663e-09
1.3762729113392234e-09
-2.9374481056767905e-10
-2.7883297095221698e-09
-5.356708626247095e-09
-6.775969334897672e-09
-5.679690123582635e-09
-1.1480402942323008e-09
6.579695016168075e-09
1.555025221258288e-08
2.2064147391149792e-08
2.148528993491902e-08
9.982098019260159e-09
-1.3117265267446565e-08
-4.3159784403013665e-08
-6.936997401270984e-08
-7.660656578683143e-08
-5.029036938778778e-08
1.608458583836028e-08
1.1305884144377819e-07
2.1060247579453824e-07
2.609746696083998e-07
2.1197130939403956e-07
3.006150434245046e-08
-2.7224925425306233e-07
-6.158610870168521e-07
-8.554081609535217e-07
-8.124348432341736e-07
-3.4413558752514533e-07
5.655754397996662e-07
1.7245849139162938e-06
2.706412099762778e-06
2.9243523234083866e-06
1.827616928623036e-06
-8.063811308469684e-07
-4.571833889171412e-06
-8.26978806087028e-06
-1.0038645172468438e-05
-7.886971729433749e-06
-5.995538835716644e-07
1.1213181284882977e-05
2.4356337750905164e-05
3.3124949711243394e-05
3.065857355097103e-05
1.1651567914290413e-05
-2.4129732057313866e-05
-6.878793167322132e-05
-0.00010546705527019176
-0.00011145968712928017
-6.600134726990002e-05
3.836844296611008e-05
0.00018440704901257632
0.0003243270552428659
0.0003856164910770341
0.00029242145100488785
9.863540338090736e-07
-0.0004601535580910821
-0.0009622745156388644
-0.0012817406514690991
-0.0011550977976990406
-0.00038572573837121704
0.0010206276936051474
0.0027415327004114824
0.00411354878517618
0.004262254190091371
0.0024123104841415693
-0.0016706830806661166
-0.007248136849536447
-0.012406219008461575
-0.014320249515009674
-0.01013502679982851
0.001597127044700206
0.019270896234976666
0.03700397369298047
0.04458129495214004
0.029123226333614596
-0.021532985804997067
-0.114574539058316
-0.04863344793624044
-0.012555472017691359
0.012580430271822648
0.04864950575891199
0.11457422498307068
0.021512208859297194
-0.029162708649485735
-0.04462972331154933
-0.037043291958420765
-0.019277989090600724
-0.0015514500688043986
0.010240385302989851
0.014467460395641719
0.012547065573142946
0.007309908846692394
0.001577534211357526
-0.0027040009626510364
-0.004723775814658119
-0.004616026575114826
-0.0030612343664165064
-0.0008940596300160077
0.0011551790691792648
0.0025616540287395377
0.0030029135318557438
0.0023345474021650484
0.0006090127269110673
-0.0018509721877253043
-0.004375715485542381
-0.00596361770689352
-0.005483079006238345
-0.002098981382011794
0.004146764460576252
0.011798816721638444
0.017786746293511305
0.017840666083554037
0.00764814261297337
-0.015433043034876559
-0.05066920374461331
-0.09307642301182105
0.06590129331126758
0.03604634419708538
0.025120045836939345
0.03607147882688392
0.06594370939762464
-0.09303164938065497
-0.05064175831528324
-0.01544261026542159
0.007589304803849187
0.01773644681449028
0.01766392319532693
0.011707233238414948
0.004148722908981554
-0.0019514972498438457
-0.005179454566675604
-0.005563555235961974
-0.004020590270573805
-0.0017417079322735074
0.0002761861278182324
0.0014673319033126281
0.001718641131526724
0.0012511342842241907
0.0004489635347691032
-0.0002969560802342402
-0.000697451353098996
-0.0006217928207727507
-0.00011360965783328213
0.0006232337660678802
0.0012671070808906414
0.0014556088810853839
0.0009009447845303594
-0.0004689053244384574
-0.0023825768935353173
-0.004175813116111692
-0.004891272391757654
-0.0035710489308745075
0.00028351428558310183
0.006208976832500677
0.0124545356440322
0.016099046572727573
0.013814642944983142
0.0032863227549958744
-0.015012894951564996
-0.036327813871189336
-0.05125429569859937
-0.04725250000761211
-0.012271174069832821
0.06020476734063041
0.16640767641214205
0.09017362411745727
0.005357625954477174
-0.11700702314826662
-0.09887718912223195
-0.14641493289070326
-0.045969856975445825
0.03318288798012443
0.13003476179345835
0.08006867437268057
0.10472113240593142
0.005651761713536915
-0.03457620444982249
-0.04616134619363902
-0.06264485345072794
-0.11168843962474546
-0.008878620494919581
0.04394929990202825
0.0560989112415013
0.04279248109128161
0.01959969228601508
-0.0016501211685947428
-0.014643996727150294
-0.018227711166787793
-0.014716048036419314
-0.007823702188104183
-0.0009625246249078084
0.003720591307175221
0.005549179528800667
0.00498621004039629
0.0030702160571204023
0.0008814559091741684
-0.0008063014037826156
-0.0016491711256688838
-0.0016782766214475556
-0.0011523378890407172
-0.0004003995897936745
0.00029188474061807545
0.000735636851725027
0.0008440886935045419
0.0006157206036436821
0.00011850331752366177
-0.0005152040943952414
-0.0010905279732153004
-0.0013679569802933634
-0.0011165953349873711
-0.00020810171047553602
0.001268764302184274
0.0029210135498665677
0.004056885956835106
0.003841053829376585
0.0016140717621813121
-0.0026845010914462006
-0.008138202168485972
-0.012735125112319182
-0.013719458155261315
-0.008513858543699007
0.00391037556767448
0.021631467054243937
0.0390177368061855
0.04735976708943127
0.037392026384317156
0.0035575928581844394
-0.051080304608690355
-0.11134543633273283
-0.15046996239311008
-0.13681369521057116
-0.04728760409410964
0.11483559063051353
0.30325785084283546
0.42092332750709055
0.32869149520728463
0.07395052074463458
-0.46449857044473
-0.5270783857402669
-0.4366539722400421
-0.5905329961116381
-0.08973741161446443
0.5982482925767268
0.9597186859772472
0.362448341126537
0.4143987642906004
-0.03339127858202256
-0.44198332738672774
-0.9139963127447036
-0.32088344190556783
-0.04987146034662159
0.2172469719912653
0.2941121947126826
0.2591666272552451
0.01846719320735824
0.07357647164841873
-0.09922290351849586
-0.0573906149327993
0.009425111816698688
0.08753097285091542
-0.049226480389150194
-0.027017570006347753
-0.06112726683276979
-0.14901533662316294
-0.06934718651731002
0.012277897570460383
0.13222621472610058
0.1158288828045382
0.16715694848931278
0.06570954466397878
-0.028135057734306922
-0.16028152241527177
-0.166970722304355
-0.06134556045787568
-0.027315954047074188
-0.022924255669202788
0.007709947761556653
0.11730654255480207
0.1380507590890291
0.06895703364273646
0.0718951446800145
0.077962360521477
0.0030605496489228908
-0.23118127483025247
-0.27698995094603795
-0.14688103919226198
-0.011471540902213435
0.1908608651466172
0.3367553875709801
0.30040529014902767
-0.057298670853479804
-0.29023142950396236
-0.3619092036506363
-0.2403747880152216
0.10086323737283069
0.4745068368033105
0.2682713200241157
0.038339064652150014
-0.08692328456658065
-0.19285688732458928
-0.3593136210339531
-0.04395385001081916
0.1260683126743036
0.15247068280029047
0.05710374150156237
0.07111186611447207
0.026329019299261076
-0.04909072522150734
-0.13123604969697666
0.0008292479318228259
-0.0340997605209419
-0.02036579435158627
0.051766339872530334
0.1828562202515316
-0.03753924107815109
-0.02977785146060246
-0.01992447144779228
-0.033675763653320485
-0.09044954045471278
0.0005098138496327166
0.0410244763490137
0.04202057034127552
0.01978939106558021
-0.008132723629085924
-0.026430593609410677
-0.024425752901420128
0.0025314528944643954
0.0526718712446922
0.11866304099331557
-0.009964263912251612
-0.14299892418229732
-0.08552376643985342
-0.03558662676872193
0.014930682254576853
0.07628618307602955
0.15548417056969344
0.052170868946401
-0.04208367403433676
-0.14076492662157145
-0.05726014837591905
-0.00014906565949501755
0.02904306955511942
0.035149030154446065
0.02665292081250551
0.012478646577197244
-0.0004778440697604833
-0.00848399522693074
-0.010830625316581398
-0.00887364897133516
-0.004822523245557354
-0.0007264697710775629
0.002108589826452055
0.003253965057854368
0.002968519522050815
0.0018642904568559227
0.000585078591855851
-0.00040652665878689265
-0.0009071723186104292
-0.0009411262790008335
-0.0006692060574773589
-0.00028852565421880416
4.2281932808665675e-05
0.00023839189707078594
0.00028813026338443394
0.00022974940138948096
0.00012116502344677508
1.4675914558838132e-05
-5.728064687089791e-05
-8.494890165297806e-05
-7.596643538445342e-05
-4.6594564611526743e-05
-1.3480424854484626e-05
1.1675751311861589e-05
2.395226823836905e-05
2.4251185990534425e-05
1.6878195603997775e-05
6.949972952992644e-06
-1.4991747200444897e-06
-6.377796795956646e-06
-7.47593121086949e-06
-5.839578468113434e-06
-2.9832659761377882e-06
-2.457083128327562e-07
1.5630686627141178e-06
2.220147544073171e-06
1.9436085138146866e-06
1.162565103581726e-06
3.05851349630392e-07
-3.3159688717784903e-07
-6.315347967384081e-07
-6.2438858133091e-07
-4.2516669828316447e-07
-1.665335248470377e-07
4.904309383671201e-08
1.701539028664006e-07
1.937271076409947e-07
1.482337633141198e-07
7.322531263848214e-08
2.9310464845798788e-09
-4.246083725412881e-08
-5.794167702354072e-08
-4.966932047259504e-08
-2.8946925731799657e-08
-6.808677098482821e-09
9.322169822039169e-09
1.6621893452997046e-08
1.6057583829696208e-08
1.0693361350498327e-08
3.964748421691454e-09
-1.5290151104932181e-09
-4.528346723532704e-09
-5.0140868289240284e-09
-3.757913993724663e-09
-1.7912718163374544e-09
1.1662965990210301e-11
1.1488129375011731e-09
1.5101028299050781e-09
1.2678166008973297e-09
7.191753364970978e-10
1.477716177241604e-10
-2.5985661745952946e-10
-4.3674892882834055e-10
-4.1248616124801205e-10
-2.685105181161186e-10
-9.368315166317104e-11
4.614969011915659e-11
1.202367120863241e-10
1.296215909370945e-10
9.51404706097158e-11
4.365571874417237e-11
-2.5336390241397168e-12
-3.096938231380385e-11
-3.93047390619621e-11
-3.2322625857360033e-11
-1.7825755182802877e-11
-3.0944978848271995e-12
7.191485281629665e-12
1.145734063489963e-11
1.058382569251273e-11
6.730815906220385e-12
2.1940303207115943e-12
-1.3607219306015326e-12
-3.1856416873785853e-12
-3.3469730555040266e-12
-2.405380302317464e-12
-1.0595371732778967e-12
1.2242282911458381e-13
8.321225132633481e-13
1.0217024118127328e-12
8.230665238995126e-13
4.4073115565182946e-13
6.138386585815277e-14
-1.977826423252453e-13
-3.00091414414916e-13
-2.712477393176172e-13
-1.6841301189782325e-13
-5.082775439242743e-14
3.942466308702396e-14
8.423952935463391e-14
8.632987229006979e-14
6.07349250211134e-14
2.5603580034750224e-14
-4.6069496769865455e-15
-2.2283447202126985e-14
-2.651716017987642e-14
-2.0924898578317548e-14
-1.0859176853038863e-14
-1.101721865992131e-15
5.417961787752203e-15
7.855857435312002e-15
6.950749017869959e-15
4.2126101448092925e-15
1.1685849616298662e-15
-1.1194990391248489e-15
-2.215388892433628e-15
-2.214820910595523e-15
-1.5204860939729777e-15
-6.039364844148199e-16
