0
-1.218764423369667e-15
-1.6346635136218324e-15
-1.490393934318138e-15
-5.319151401737068e-16
1.2410090832991666e-15
3.427378308675264e-15
5.189685699331582e-15
5.413294995561071e-15
3.0948993408210014e-15
-2.0984115348167995e-15
-9.275968027917626e-15
-1.6052255407126354e-14
-1.8854885081690473e-14
-1.39962352959782e-14
5.761056697371153e-16
2.3318746513302903e-14
4.7765989120818905e-14
6.285918456036985e-14
5.573074848509288e-14
1.6995582145187698e-14
-5.260243505132209e-14
-1.366778701780118e-13
-2.0219993825806865e-13
-2.0610920483558157e-13
-1.1071713146841225e-13
9.46028820074707e-14
3.724709249125436e-13
6.280576191556737e-13
7.224723364626426e-13
5.156365496309916e-13
-6.537237575926096e-14
-9.514041987582084e-13
-1.8828508183893457e-12
-2.4270382948566006e-12
-2.09100378034192e-12
-5.294431631983958e-13
2.1994109818673338e-12
5.428262281635021e-12
7.85608703363296e-12
7.821467728756967e-12
3.9121865457668884e-12
-4.1941644038819995e-12
-1.4938735051014114e-11
-2.4557707042256672e-11
-2.7657340996787545e-11
-1.8926054196927198e-11
4.200247084644282e-12
3.8679807075996897e-11
7.411024512061831e-11
9.358270614267762e-11
7.823829726709313e-11
1.543023611979891e-11
-9.143787978828376e-11
-2.1527329080324552e-10
-3.048959634610057e-10
-2.962800558278802e-10
-1.3665092939407355e-10
1.8297598726936497e-10
5.979503235843915e-10
9.591076608458386e-10
1.0572259393688196e-09
6.912746369432424e-10
-2.277590550975799e-10
-1.5679845230191566e-09
-2.913386667530389e-09
-3.6039311695116285e-09
-2.919205272923534e-09
-3.9840497879473275e-10
3.781887265141489e-09
8.524766806231762e-09
1.1819398123417324e-08
1.1201517903283659e-08
4.704685964365092e-09
-7.881664730907636e-09
-2.3889293555486732e-08
-3.7415161276493156e-08
-4.0352979428399116e-08
-2.5109304824823916e-08
1.1356600114421122e-08
6.339170428607061e-08
1.143889932213712e-07
1.3861368103963837e-07
1.085877467385436e-07
7.619782687715886e-09
-1.5570828672828228e-07
-3.371011107195575e-07
-4.5765029943403503e-07
-4.2263145516852076e-07
-1.5900600401537045e-07
3.359969212169697e-07
9.527293905776985e-07
1.457909846010502e-06
1.5378277696045473e-06
9.062625573633797e-07
-5.385056828799135e-07
-2.556476751182493e-06
-4.485861929237906e-06
-5.324406492595881e-06
-4.0257021925016135e-06
1.075177497324024e-08
6.38479287588989e-06
1.33119875610436e-05
1.7699560619461462e-05
1.5911171763906864e-05
5.243471426511638e-06
-1.4200100658838725e-05
-3.793114781499587e-05
-5.674313063437752e-05
-5.8510004559687914e-05
-3.246768475308245e-05
2.4690484591603965e-05
0.00010285522631648891
0.0001756956245671236
0.00020421874240122284
0.00014863480950174198
-1.2498544009762401e-05
-0.00026106201204686394
-0.0005253414532291654
-0.0006842544835483481
-0.0005983407470608015
-0.00016775439832743345
0.0005956913897019299
0.0015098511186069268
0.0022137389820712514
0.002242661751654676
0.0011987004629499523
-0.001012027539327338
-0.003953752892585645
-0.006566309874995
-0.007327559415329218
-0.004750785714336761
0.001815537440412142
0.011269163645463506
0.020037279802738686
0.021926823275008306
0.008786025758674423
-0.02808560348999848
-0.09623818933956275
-0.0007807966270326079
0.056017255340909906
0.07444226640231584
0.057285305890334835
0.01099632486430815
-0.051826808830478445
-0.10979117949776687
-0.13204925278375232
-0.0816973548140981
0.07608610707295295
0.1627987590997793
0.17609907049129414
0.08462819149525333
0.031427662845774494
-0.05384803278138026
-0.2371710588053311
-0.16244706426605265
-0.039784231157472726
-0.04359956541017768
0.07908617770018292
0.19334739530851552
0.15939568884829566
0.01939420447984689
-0.00849940593761765
-0.12857705954366708
-0.16114248036982534
-0.1351626344096974
0.11677797372094027
0.16038895205495535
0.1602614087897875
0.08215074222068011
-0.1011536356376179
-0.20131601820349948
-0.20699900435307467
-0.08203096832499268
0.02801290908962229
0.18168962086899199
0.2246164250533001
0.1759091106180682
0.02362822575228269
-0.06871706444954744
-0.1469845327399678
-0.2484011640703062
-0.18775449738725142
0.046867424768312536
0.08722290467963485
0.16979720496864398
0.11838832447348487
0.13095523301051748
-0.024600541885042713
-0.004332033329072776
-0.07378400138144134
-0.08950628059497573
-0.08178200372728522
-0.043283572582453335
-0.1267909005160945
-0.052939537227086615
0.07341714339233456
0.14195358710096
0.21617863886705133
0.1191073659740149
0.029465010892977594
-0.11077332075558949
-0.18055653459366636
-0.26140177996246117
-0.02259154324177127
0.0862824351395254
0.23550946340345852
0.2117325195465312
0.01536892793227603
-0.13821878482292166
-0.21464946743267657
-0.15751293642125333
-0.09102086886753964
0.0693194322479654
0.1995004385778163
0.14824851190320149
0.12309682744095106
0.08646940438381374
-0.03630958213019451
-0.13907883447836886
-0.1121492521519364
-0.22148893757979504
-0.09570975359744403
0.0758754406262858
0.13460514151780156
0.13717777768689757
0.13941936024067492
-0.015831914331955264
-0.1042081531216664
-0.11921237696991104
-0.06818708989184868
0.03225014747847319
0.15979799367133596
0.08943660652489789
-0.0029714760380643245
-0.13587206725000103
-0.11713646384474523
-0.1415314706744127
0.007347834805364522
0.15058217947812752
0.30540542200592014
0.07881338919904259
-0.13324560564476268
-0.14063217815356463
-0.15076277032962748
-0.16211292713596898
0.036808948387419195
0.2624002374474647
0.12755764048513485
0.0344385599867249
-0.02790818358275357
-0.08011693694304715
-0.1452873825702911
-0.041470201132694985
0.023042983889648788
0.050262068203819794
0.04952998515394612
0.032984929037266526
0.011515343124341186
-0.007498852994760374
-0.02042608986997367
-0.026225751275110426
-0.024917593567892138
-0.016626973009140802
-0.0017182235770051373
0.018082798246270283
0.03825109474536331
0.05071904563444771
0.04476734605892379
0.009942972286546139
-0.059547066491517614
-0.16055058310768294
-0.07896367210277604
0.008262796578950715
0.1269745451153926
0.09750126505294106
0.1275414879739648
0.009349924971716458
-0.07750932306985249
-0.1590647465198634
-0.05857315078963531
0.009746889499436749
0.04286778954868966
0.04705199115190264
0.033549851112305455
0.014003853655839905
-0.0028600906900296762
-0.012614488084965288
-0.014789150946012214
-0.011493779947036946
-0.005780878992527734
-0.0003353038416808464
0.0032314717035280102
0.004489709001687198
0.003890420603266309
0.0023002180882753724
0.0005776377154926728
-0.0006921452956350651
-0.0012797188563054434
-0.0012524934624161832
-0.0008447641044549106
-0.0003234055451984277
0.00010729224844968814
0.0003463351751037873
0.00038957951085742996
0.0002954551252605881
0.00014376564869697926
2.9547613808930876e-06
-8.706361133029882e-05
-0.00011687321825664749
-9.92908725766024e-05
-5.720438173187763e-05
-1.2736802656159053e-05
1.9371252900035188e-05
3.364684031801362e-05
3.218763386791011e-05
2.1227424361137642e-05
7.673229240468521e-06
-3.295741468195469e-06
-9.20853820590651e-06
-1.007833805149054e-05
-7.486012694740392e-06
-3.5114192855954455e-06
9.840969772968604e-08
2.3518018547198296e-06
3.0442589972100773e-06
2.5331263133213296e-06
1.4198197966732796e-06
2.726517479977824e-07
-5.382257109030281e-07
-8.834669093840548e-07
-8.264270201200605e-07
-5.326347648042432e-07
-1.8065197944087347e-07
9.839305221371859e-08
2.442742196057408e-07
2.60407996419744e-07
1.8941464513355347e-07
8.543010744735112e-08
-7.004217589215062e-09
-6.330690814750643e-08
-7.919110505414846e-08
-6.454785762676935e-08
-3.515484785290761e-08
-5.594577171716961e-09
1.4853883866077255e-08
2.3160600702291765e-08
2.1194519983848688e-08
1.3341515573004009e-08
4.212392114945398e-09
-2.8774891409666524e-09
-6.466257957859446e-09
-6.7206679806312064e-09
-4.785968347499369e-09
-2.069422526787219e-09
2.947398227643834e-10
1.6987296995095808e-09
2.05738155319663e-09
1.6427707438854277e-09
8.681728163359322e-10
1.0733635335261559e-10
-4.07544591609055e-10
-6.06247001910093e-10
-5.429305368185043e-10
-3.3356824445132744e-10
-9.708156425110095e-11
8.282522368361024e-11
1.708322195959679e-10
1.7324783867268502e-10
1.2075322199967188e-10
4.9883921900430036e-11
-1.051290803505122e-11
-4.545013646733874e-11
-5.338377346726755e-11
-4.1757281398870776e-11
-2.1379771997881095e-11
-1.8193787375199512e-12
1.1124566692059463e-11
1.5845778413682154e-11
1.3891953992575138e-11
8.323827331562153e-12
2.2050746603150697e-12
-2.3540980438715197e-12
-4.5047982173528224e-12
-4.460921524558078e-12
-3.042132938439289e-12
-1.1957988623407025e-12
3.4532558556341214e-13
1.2127699586019441e-12
1.3834595108877393e-12
1.0600602737741185e-12
5.248769329700512e-13
2.257476217538308e-14
-3.022901466844638e-13
-4.1358162869894427e-13
-3.550339878575003e-13
-2.072817625531378e-13
-4.9163698278352144e-14
6.620275219468496e-14
1.1854049902726812e-13
1.1467744478490214e-13
7.64650432002997e-14
2.8447379804738744e-14
-1.0783791797501067e-14
-3.22065569236858e-14
-3.567628466712422e-14
-2.6719066376774212e-14
-1.2729971571804535e-14
2.445844716834911e-17
7.962956786566253e-15
1.0347742050773414e-14
8.50096167303884e-15
4.656198215631511e-15
9.211640942993783e-16
-1.3781181258569157e-15
-1.907648648250774e-15
-1.1696643748839396e-15
-1.2420411493707476e-16
2.653209732235248e-16
-5.586992515576419e-16
-2.4781215940448585e-15
-4.642298251047733e-15
-5.676248945749964e-15
-4.161349906807186e-15
6.844776085094559e-16
8.311388509732342e-15
1.641815868016086e-14
2.1141246761472928e-14
1.8094184475254758e-14
4.236246225885427e-15
-1.9860788534918288e-14
-4.8221232951142084e-14
-6.929688563849094e-14
-6.843924903128097e-14
-3.332497040413744e-14
3.86234190424907e-14
1.3331687132721564e-13
2.1727658161880035e-13
2.428839772173604e-13
1.6364350170273266e-13
-4.225164330964051e-14
-3.4684419787118654e-13
-6.573082514638977e-13
-8.240456173501663e-13
-6.814592419652425e-13
-1.2027648269361993e-13
8.259072421758451e-13
1.9142604664553223e-12
2.690941012205102e-12
2.5922810286423377e-12
1.1588268337064708e-12
-1.6777447548075943e-12
-5.333931398346774e-12
-8.483626415852859e-12
-9.280618205905338e-12
-5.966552466143324e-12
2.2115232372870694e-12
1.4046524242049144e-11
2.582853617693112e-11
3.172040938423584e-11
2.5399700799218207e-11
2.8928113201845855e-12
-3.4103409344309284e-11
-7.576659731935671e-11
-1.0427321661603652e-10
-9.793819853673008e-11
-3.9660390723476095e-11
7.19890320290596e-11
2.1296571188766902e-10
3.308161865819762e-10
3.540383995299815e-10
2.162628392188617e-10
-1.0806025161943841e-10
-5.67376433223477e-10
-1.0136803829871355e-09
-1.2194725697933279e-09
-9.437343216941083e-10
-4.2859350029963617e-11
1.4020332529537319e-09
2.9946384243753643e-09
4.0358278778226784e-09
3.6924254489229794e-09
1.3300061524217107e-09
-3.0590861243646645e-09
-8.48816946750458e-09
-1.2885334394786615e-08
-1.3484619393747582e-08
-7.78627852417486e-09
5.056777849695408e-09
2.2862268700127946e-08
3.973567009866924e-08
4.682044462315268e-08
3.494346211576329e-08
-1.0480726094229366e-09
-5.741370011301806e-08
-1.1820115318705361e-07
-1.5601981699531584e-07
-1.389001583980027e-07
-4.3391156163751094e-08
1.2893819435114235e-07
3.377497179693819e-07
5.013126237391281e-07
5.127563908990936e-07
2.781466567215663e-07
-2.2971364776782275e-07
-9.191446861822838e-07
-1.555771392883158e-06
-1.7952030999527635e-06
-1.2888991532984187e-06
1.4647259612335508e-07
2.342794185138798e-06
4.659356634666343e-06
6.024306690142184e-06
5.212626395847656e-06
1.3609430262209727e-06
-5.397074780612119e-06
-1.3417877651561725e-05
-1.9481625296283223e-05
-1.9464054961601244e-05
-9.844039050153726e-06
1.0211060587122202e-05
3.6874571900145886e-05
6.084196134344707e-05
6.873676226215265e-05
4.733927210150068e-05
-9.807540757585602e-06
-9.529063191256862e-05
-0.00018342956386663373
-0.00023232939806992398
-0.00019511603870819985
-4.014690279953429e-05
0.00022455358459480836
0.0005322235137451796
0.0007561700776862694
0.0007374175144254249
0.00034431140887725083
-0.0004467454316551852
-0.0014769452362575959
-0.002377455723430916
-0.0026292453562586607
-0.0017315909732651287
0.0005407591338465282
0.0038671577426554024
0.007223123109289684
0.008978285755561208
0.00735078113660652
0.0012012614919526391
-0.009027944605613495
-0.020608873614764316
-0.02854785852511805
-0.026752328226264627
-0.010462141222650443
0.020465797079069016
0.058446687224887404
0.08670228573273132
0.08086828332105143
0.014330728809477769
-0.13351856115522948
-0.16859444141007351
-0.07647248434554342
-0.022713702074430187
0.04005405947410194
0.16031723289937438
0.1752548784502716
0.1022726886717252
-0.06250781584908321
-0.1387976816093265
-0.1528028982223141
-0.12869480967543578
-0.084888925618946
0.16353414662479362
0.19832362072891158
0.19204231702507518
0.10739131567580094
-0.09562978005468575
-0.2462361629256653
-0.1482233178417673
-0.17078463943605485
-0.04977757270339799
0.09944504005727708
0.16096803913956054
0.19561160544957773
0.22411280076148388
0.021938129178345204
-0.07240912238190937
-0.13836521619262104
-0.25003876010026627
-0.25650995855892944
0.028060494168462076
0.2222294101136676
0.16547698733372543
0.10269664422583168
0.07116908056973582
-0.10631480781121931
-0.22214277338858046
-0.08105007831542778
0.10301018589100518
0.10866540593834599
0.10834566897990117
0.07101057705361237
-0.03220046228818437
-0.22006259624145552
-0.09387253709636552
-0.034090727398083616
-0.003361097219934246
0.0442880412048254
0.15081966245323425
0.142337828745564
0.022047904677740558
-0.0296215769509997
-0.047977988115596164
-0.0727742263250888
-0.13662634970394139
-0.056913226210896145
-0.03350359822206354
0.14753744670741478
0.10635113904443709
0.06124180341890153
0.023413448212703837
-0.003970859599112066
-0.22310076533511386
-0.03756335315524468
-0.04977750270374784
0.13877497131214284
0.12520736585680972
0.10304923824057734
-0.1375104514204988
-0.006298925751679286
-0.10812948734562224
-0.0385462210853009
0.017543702639343843
0.08360706624210017
-0.01368191136477199
-0.0509443044821684
-0.014334660644452622
0.09575410879394583
0.06261725878120486
0.05482663343193691
0.032010438116075075
-0.04585112634926201
-0.2078196564162842
-0.06336069949778715
0.0011805023109071997
0.01941816578859132
0.03587392410412855
0.09382197892687484
0.02365875159951735
0.03507611422711025
0.11517078645992164
0.03309107160029698
-0.04985183101452313
-0.16736066465275867
-0.13666882689621063
-0.15261108788972302
0.010092497951043361
0.18669686119586826
0.20808780304279256
0.08785300208953738
0.01589758088957073
-0.03903667669320532
-0.11917693295425356
-0.06377864169017328
-0.09626608994744669
-0.01643968620640611
0.00019873056230962932
-0.0038288339585487107
0.0208149657002386
0.1172906115893143
0.11130541307449535
0.00458141316878776
-0.02523544226450663
-0.01844026380819256
-0.022899067058915014
-0.08240391058622791
-0.026739310029635567
-0.06577046360366974
0.011263198429372581
0.031429826002149115
0.030233258180518814
0.04250497204621844
0.09453696598584532
-0.0006054485613110836
-0.043722494009439665
-0.0465005578834053
-0.026394523894817452
-0.0011936220627961568
0.01533154437209514
0.01608506154500801
0.0016218551482711009
-0.020301502946691984
-0.03642116520847021
-0.030836399293472212
0.011135469262359086
0.09874254062024343
0.032351270188445184
0.0020350567996886486
-0.011071040754099462
-0.030926406531238924
-0.08143532733469575
0.0184944310293578
0.058513994634419766
0.0385794514435978
-0.030966558525415834
-0.13079612758166445
-0.03564700578703308
0.08078373424494786
0.03964797579177637
0.051080857610453584
0.11080273105233943
0.0007931450168307269
-0.10573610214521599
-0.03645507937800092
-0.01163592739900231
-0.0381242238854062
-0.1073884362726947
0.0017790124841531511
0.11666603676173674
0.062168963016460736
0.053265108041651785
0.09103878572512654
-0.036448045849088284
-0.1490286852380733
-0.06727629494215102
-0.006203422473298408
0.02799585795532491
0.03760272445769982
0.030426910256046234
0.015961598414192403
0.0021477759099119303
-0.006427397800071827
-0.008793708082656709
-0.006709311152238765
-0.0032013222430083417
-0.0010780715773123953
-0.0018023618903111453
-0.0049488794708095205
-0.008337968252547102
-0.008834321355199648
-0.0036844102120755285
0.007888279629339478
0.02328934698385543
0.035944595284711785
0.036011423600026564
0.012618007462367008
-0.042779509770796365
-0.1330642139163151
-0.053744053901252885
0.005853768081264682
0.05840921614726136
0.11303818929374358
0.17105250898228166
0.025634066363183
-0.13360828151697568
-0.11270250149879432
-0.1055658675582964
-0.09044133170606938
-0.03299885020851982
0.10412237913176418
0.14829685973654627
0.10513640364020153
0.15271817824320824
0.04478392909100913
-0.0772165010345647
-0.26673655047976547
-0.1553315767882686
-0.14271790157510444
0.0022778116275760847
0.12994353804636544
0.2913768983420355
0.12049407056046778
0.022944417180657296
-0.02440511851112878
-0.06392212755959892
-0.14160854289246916
-0.09109581871089682
-0.12251239539025625
-0.019584331761417
0.05446574875390002
0.1445255595646315
0.08906032600275864
0.10829919815438722
-0.0012259159900958306
-0.06457738950754945
-0.1201377239153293
-0.008319262593939914
0.03925477001550279
0.007522101509473233
-0.09856408501260462
-0.05524213224872513
-0.025607214419003224
0.031185447675289205
0.14921512651864294
0.1466286078244569
0.02110556953026136
-0.048316694240077444
-0.09372427133342734
-0.14803488264610515
-0.035791622439981484
0.03190923687375918
0.05733673189165505
0.05201304272315058
0.030929232260437027
0.007421570888373002
-0.009871747265023918
-0.01769084884707156
-0.01704381741697631
-0.011251168309889934
-0.004028756904301688
0.0018282588929421592
0.004982023891825672
0.005433648187746415
0.0040298623222673295
0.0018872022620001236
-5.615275491056916e-05
-0.0012680167104558396
-0.0016393918810815161
-0.0013632297787093631
-0.0007634683568031384
-0.00014595986403201749
0.0002902402666665216
0.0004757151609266389
0.00044472014096169627
0.00028642704149293925
9.69505960319275e-05
-5.3171474634916686e-05
-0.00013157979903564228
-0.00014016198293603446
-0.00010188617948596698
-4.589684111833064e-05
3.841638228400876e-06
3.411522272807486e-05
4.2632527668994275e-05
3.472786842419793e-05
1.8897261843568382e-05
2.9879815283412488e-06
-8.010163819661446e-06
-1.2471344023532384e-05
-1.140522418458358e-05
-7.174210610553046e-06
-2.259983407143127e-06
1.5541588746659767e-06
3.482888462264486e-06
3.6172175087350627e-06
2.5742725303113157e-06
1.1116373096577768e-06
-1.60465446220119e-07
-9.153370151522622e-07
-1.107548245458787e-06
-8.838061150969572e-07
-4.666426278975059e-07
-5.717610016696036e-08
2.1973821449187064e-07
3.2643269542764086e-07
2.921524390896871e-07
1.793614509952143e-07
5.206476795255304e-08
-4.471589672755103e-08
-9.20092269837386e-08
-9.324274116484273e-08
-6.494778191691235e-08
-2.6792097948352498e-08
5.7049391083222295e-09
2.4488130402248875e-08
2.8736964056441722e-08
2.2464451709769485e-08
1.149060402863033e-08
9.639631295510704e-10
-5.997239080280766e-09
-8.531770518233267e-09
-7.475044452248236e-09
-4.475504436622277e-09
-1.1820033194325065e-09
1.27050121163057e-09
2.4261214643831314e-09
2.400801020745796e-09
1.636149143473877e-09
6.421314368361187e-10
-1.8705499531424624e-10
-6.533849254447333e-10
-7.447079711412795e-10
-5.702727730577549e-10
-2.8207534638529443e-10
-1.176341546376024e-11
1.6294154904211284e-10
2.226748368661269e-10
1.9103473368919093e-10
1.114453364576001e-10
2.6334566238519763e-11
-3.573008064625765e-11
-6.385921245561448e-11
-6.174465565851479e-11
-4.1153138985912847e-11
-1.529152974846844e-11
5.840319089531733e-12
1.7389983600061193e-11
1.9275150800667175e-11
1.4457429622560765e-11
6.9009362478618715e-12
-3.2022611995459924e-14
-4.4084356049411545e-12
-5.8025021290176845e-12
-4.874944521708334e-12
-2.7679771497620015e-12
-5.722570971605388e-13
9.944265654925796e-13
1.6742828437379706e-12
1.581238056839312e-12
1.0290756215548941e-12
3.601398056622358e-13
-1.7229939776893936e-13
-4.5105132445749386e-13
-4.824981869006968e-13
-3.4998343374245165e-13
-1.5968372034574725e-13
1.8278476448563503e-15
8.954347460686762e-14
1.0182160255973936e-13
6.787830050627208e-14
2.861989762153861e-14
1.7664130552350436e-14
4.7489093064272544e-14
1.0373637633915654e-13
1.4912039474595022e-13
1.3683813639426514e-13
3.127761798979711e-14
-1.6903109634794266e-13
-4.143246332760036e-13
-6.022579532291021e-13
-6.007437180451624e-13
-2.9719818980121717e-13
3.3463571320459135e-13
1.172511192114921e-12
1.920887376669262e-12
2.1569749908456684e-12
1.4657997989647994e-12
-3.506312680881732e-13
-3.050007181573997e-12
-5.81389654754719e-12
-7.317006534664463e-12
-6.086323189874115e-12
-1.1413730868757967e-12
7.236728926780557e-12
1.6911645078970648e-11
2.3867912450096796e-11
2.3099208791288646e-11
1.0500469636086758e-11
-1.4585943403592425e-11
-4.7045176818531013e-11
-7.516007647752527e-11
-8.255346271925993e-11
-5.355429766909813e-11
1.8669468695350326e-11
1.236135210033972e-10
2.285513440587871e-10
2.8176400852859944e-10
2.2700443384791895e-10
2.8588710690381205e-11
-2.99082708586246e-10
-6.69551305345009e-10
-9.250841167790925e-10
-8.730375582001932e-10
-3.605325330114671e-10
6.271233839246849e-10
1.8789874212743586e-09
2.9314724436702634e-09
3.1501686342379647e-09
1.943341589497322e-09
-9.216799061972088e-10
-4.995427805568456e-09
-8.971866181683585e-09
-1.0834851305167726e-08
-8.43955592844784e-09
-4.947878599098067e-10
1.2305210434482436e-08
2.6470489525451544e-08
3.581258957453629e-08
3.2928028544484794e-08
1.214163832528905e-08
-2.6693440644096007e-08
-7.491458264024896e-08
-1.1420548027732351e-07
-1.2001946298521895e-07
-7.006025367250583e-08
4.3423816048006174e-08
2.0137749882656916e-07
3.5176984459710253e-07
4.1609589370126213e-07
3.1269903504625063e-07
-4.816424168959382e-09
-5.042540743945784e-07
-1.045075096868897e-06
-1.3847730967017785e-06
-1.2392005914469597e-06
-3.984323607456855e-07
1.1266986256286047e-06
2.9818049974078775e-06
4.444183999281706e-06
4.565197086870085e-06
2.5066363844951574e-06
-1.9820936048293513e-06
-8.099409447186506e-06
-1.377586656384121e-05
-1.595811367232334e-05
-1.1542550411720308e-05
1.1243278286990285e-06
2.0589372880398676e-05
4.120572627340486e-05
5.348153855491459e-05
4.6525979303937306e-05
1.2604430240699335e-05
-4.721779024265648e-05
-0.00011849269415768317
-0.00017274218908925628
-0.00017334921487359277
-8.887944694238912e-05
8.841857181927663e-05
0.000325046184782946
0.000538818968878683
0.0006111075564732024
0.0004241432057737301
-8.044780509851727e-05
-0.0008384036282337723
-0.0016233085250592079
-0.0020640273040365025
-0.0017435289608675288
-0.00037758372736098857
0.001968466756312805
0.004709751866648535
0.00672988536473952
0.006624830286824637
0.003231165287273845
-0.0036566607765598862
-0.012625162240123099
-0.020399208300858958
-0.02239055435373991
-0.014248287042205524
0.005727845411034985
0.03391956071340809
0.05949782488253077
0.06447513657879896
0.026509910248661554
-0.07564501528467317
-0.05537272143676435
-0.11237316561720287
-0.03015267207432173
0.021809211402138786
0.08154553216712686
-0.01428376313776473
0.16119400380441137
0.01975980766530263
-0.04256662421683968
-0.04165392284429973
0.001511689508459374
-0.13202086151608444
-0.054050197122317276
0.0323715443682959
0.13096461934881895
0.04808414698470579
-0.011473435639780276
-0.047116172819839625
-0.06323581217937457
-0.06885819659309943
0.12298257929964006
0.09602702034557152
0.03241615515919246
-0.08415672035004314
-0.06409711400467179
-0.10792989270590458
-0.004641148252993833
0.06658307303852946
0.13174940743242344
0.016410133141646417
-0.05903128332792625
-0.08207167072272724
-0.049224918899713914
0.03365578490268132
0.15157524751430532
0.08183070634446292
-0.0022697267236633386
-0.12528713849319983
-0.10272909844127441
-0.13617623835977308
-0.013048447727548896
0.08825511033938131
0.1896620160212678
0.1049074461110618
0.03507929991574701
-0.029683793616041662
-0.10313220748592826
-0.19379636464559633
-0.09815329585178405
0.0005458470348726334
0.12692860895197428
0.10377555345266887
0.14207673036209548
0.03509974971755803
-0.04110768435485233
-0.12107816384937467
-0.03980842267766626
-0.022858412407849783
-0.0798437879631819
-0.003001164110527268
0.02920949485676233
0.044965594524137696
0.07088898324341626
0.12555262324724373
0.01682612246580404
-0.05624178036983288
-0.09818747575844405
-0.11130718537672017
-0.09246554495165102
-0.034735823771372035
0.06610566954455287
0.20269589077685599
0.14904242535922652
0.059668853421458834
0.07740889457248139
-0.051000772894005425
-0.3558586089639998
-0.22859798063672243
-0.015673941451906946
-0.026048711509708576
0.048679252494488866
0.30712726400665363
0.21227186230918563
0.17504513662839535
-0.0474138200243612
-0.1385460417112678
-0.19890642612199955
-0.12024000065112724
-0.1649560256868719
0.04378182327042696
0.12014077998389866
0.1044708395490083
0.047788248991343506
-0.0030905811421869877
-0.0162651676563655
0.02015685846571568
0.09852796091103543
-0.0032224669992073018
-0.11332209463552446
-0.05690629685612065
-0.04841540383158839
-0.0879341636831505
0.037525096130599116
0.14857500576230537
0.06614812474788553
0.005209280605639583
-0.02838065568571265
-0.03735289765150444
-0.029916701915660218
-0.01577865663882988
-0.0028227056488951733
0.004706836867533079
0.006396456384097241
0.004605110948277207
0.0027518315472116043
0.0035489445337058803
0.007675372745918963
0.01324756206082582
0.01629646371685915
0.01226884644174643
-0.0016959857901158132
-0.024298575874273386
-0.04831903452075068
-0.060584679613656635
-0.04442474718193136
0.015380354995251677
0.1262736806102095
0.08240615717577736
0.062480996139285115
0.032714165432114216
-0.04513481202084074
-0.2027827071688968
-0.055041845915733655
0.00635252397010328
0.01254231564665191
0.011047871136502468
0.05494455172909741
-0.009416532786522889
0.046706074741293825
0.02727757405166022
0.10962860800755515
0.048607971556311025
-0.013712937754743368
-0.1347298801705653
-0.15777563666672817
-0.102347778633596
0.03887765285782423
0.09560717860133688
0.11018931317803121
0.12643165841886045
-0.019278394309363976
-0.10255011684228661
-0.11159770784464722
-0.045832043134580454
0.08555389212507311
0.06430315087130505
0.06397475747158281
0.052489741216464866
-0.002806725631637583
-0.12819725134494653
-0.13684117033865523
-0.024903430401235487
0.02750498223958673
0.05052859557323426
0.07591382603497165
0.12865517676005697
0.02188792031159003
-0.04341021998595378
-0.07433019073868914
-0.07974167529730042
-0.06474344697845934
-0.028237051678218876
0.03553163443283576
0.13243902958548276
0.06328476199673277
0.020532263444422987
-0.01136487471057573
-0.05212496152239797
-0.1199585778138445
-0.0264455423510088
0.02603599088973364
0.0436095279673678
0.037672941236081676
0.020769193001360292
0.003152973164194483
-0.00902784441176351
-0.01384212536948137
-0.01247515784877483
-0.0076416887485267005
-0.0021468880181922108
0.002032313158073695
0.004061630438530199
0.004088984274037847
0.0028360287928093186
0.0011609921611575621
-0.00026010774663424774
-0.0010779814315362891
-0.001259360041559701
-0.0009815061550636098
-0.0004997178445388311
-3.9105857794641124e-05
0.0002644971234564457
0.0003740987876088514
0.0003267817533834383
0.00019493670045545445
5.0723336208874206e-05
-5.634477270739024e-05
-0.00010652189000968618
-0.00010505430165158236
-7.136569114056223e-05
-2.7793741831693025e-05
8.445113797752918e-06
2.8742963579226806e-05
3.262283278021625e-05
2.4901557640628024e-05
1.224451053082353e-05
4.0975175238505766e-07
-7.2126684755167685e-06
-9.78715338301481e-06
-8.355432739579105e-06
-4.824778069633514e-06
-1.059918733282086e-06
1.67732954477296e-06
2.895837500971434e-06
2.7450105566199635e-06
1.7391672562643544e-06
4.765112808666032e-07
-5.601192374359057e-07
-1.0948014245705254e-06
-1.0624264489926548e-06
-5.650433289215164e-07
1.8352524450466412e-07
9.077189746090238e-07
1.3181917201437766e-06
1.171662987340192e-06
3.517333247670022e-07
-1.0397508710932994e-06
-2.616935561195637e-06
-3.7243477419961276e-06
-3.5822195197721323e-06
-1.5775208426834685e-06
2.351607946889186e-06
7.371199325081691e-06
1.1640927023242428e-05
1.2631234909430929e-05
7.963361968212897e-06
-3.3358642748047625e-06
-1.9541091775825093e-05
-3.5512553892409825e-05
-4.3245799009325124e-05
-3.415174073632225e-05
-2.948522959413431e-06
4.78167963945605e-05
0.00010447947116100045
0.00014253775828494523
0.00013243683342487067
5.119999306812321e-05
-0.00010243078320836095
-0.0002947692603534025
-0.00045350310734021854
-0.00048090832610902287
-0.0002872516252227952
0.0001603691039157138
0.0007888663881957529
0.0013937478155058845
0.0016637797934962394
0.001272683067131746
3.1619085221055835e-05
-0.0019373855261322073
-0.004080491490368713
-0.005434035359813462
-0.004862636459847522
-0.0015239218785851698
0.004532677366255951
0.011840946870401077
0.0173517274120207
0.016888788482202755
0.006323664337196406
-0.016740967233288506
-0.05135315676441954
-0.09246890928458806
0.06823846921646275
0.03997035998840338
0.02963419866115037
0.03931537116360471
0.06560679034142448
-0.09883005121022091
-0.06216934429158624
-0.030277814868294395
-0.005072229720326578
0.014847211286460368
0.03167912176294103
0.045326319380920015
0.051328016492836935
0.04107387187739533
0.0046964081240079515
-0.06411570355573609
-0.1632450274659153
-0.07961770822520471
0.009112677573734565
0.1285161128382146
0.09900250939159719
0.12855042915164483
0.009733350087556351
-0.0776410181741703
-0.15948124810380868
-0.05903998544496048
0.009393758277060757
0.042696697657611596
0.047049417742049876
0.033654697994700826
0.014143969398464793
-0.00274135406116782
-0.012546305719550985
-0.014774218056889886
-0.01151719687751754
-0.005821259473460819
-0.0003738261861074439
0.0032061373287166797
0.004480619085975609
0.00389444366955216
0.0023112837644635033
0.0005897089730260717
-0.0006832018877646948
-0.0012755433393579138
-0.0012526368059556496
-0.000847595459894263
-0.00032705482140089713
0.0001042633789866586
0.00034464333937362794
0.00038926122551272965
0.0002961051879557599
0.0001448257167141914
3.943699568937266e-06
-8.64280557581829e-05
-0.00011665944392363622
-9.941063585598267e-05
-5.749784197027478e-05
-1.3048659353956531e-05
1.9145000876311987e-05
3.354530481161789e-05
3.2196672686190836e-05
2.1303609311368985e-05
7.768143753500192e-06
-3.2185727865882675e-06
-9.166661152329856e-06
-1.0071849707423139e-05
-7.503939390245716e-06
-3.5392043254506976e-06
7.305098108393739e-08
2.3358858578925807e-06
3.0392807869956998e-06
2.53662119720776e-06
1.4275861424597826e-06
2.8069906984397656e-07
-5.325099636523565e-07
-8.810087547844e-07
-8.267965857101776e-07
-5.346782987299117e-07
-1.8311747236424246e-07
9.642937268699729e-08
2.4324038196126895e-07
2.6028488260322534e-07
1.899061716229969e-07
8.615727027651194e-08
-6.354706319385363e-09
-6.290906411847396e-08
-7.907655850966553e-08
-6.464828290839452e-08
-3.5359978998485476e-08
-5.801994685519497e-09
1.4709697719744424e-08
2.3101384392369394e-08
2.120753253293016e-08
1.339617248031436e-08
4.276355613300467e-09
-2.8275824424617792e-09
-6.440807716254626e-09
-6.718628318846899e-09
-4.799377486005966e-09
-2.0884254110715145e-09
2.781231398016276e-10
1.6888043618724612e-09
2.0547850613267526e-09
1.6456211490575936e-09
8.735808559426147e-10
1.1267634357467043e-10
-4.0391280325889306e-10
-6.04828542870247e-10
-5.433548486008023e-10
-3.350262376448663e-10
-9.873896851546265e-11
8.15584649894857e-11
1.7020764500534656e-10
1.732243570831917e-10
1.2111739743022722e-10
5.0379823826842366e-11
-1.0088292457707931e-11
-4.5203032460882246e-11
-5.3326041244874504e-11
-4.1837374444225215e-11
-2.1522097392458465e-11
-1.95670024726602e-12
1.1033231742269888e-11
1.5812021600708666e-11
1.3905155421063305e-11
8.36262454711347e-12
2.2479692796843627e-12
-2.3219866931810966e-12
-4.489523323169851e-12
-4.4610631437053225e-12
-3.051985199613386e-12
-1.2087230777906033e-12
3.344883380198239e-13
1.2066335738243765e-12
1.3822122010171121e-12
1.062296244117211e-12
5.286195512882927e-13
2.610207640886622e-14
-3.0000205896924576e-13
-4.127950907769693e-13
-3.554461844205736e-13
-2.0832471697970383e-13
-5.027687245643582e-14
6.540118837033788e-14
1.1819889020575073e-13
1.1474608710564672e-13
7.67780789902413e-14
2.881034959476454e-14
-1.0527036786372485e-14
-3.2137275595271897e-14
-3.5792239906910424e-14
-2.694649493723334e-14
-1.2949393894521291e-14
-5.748112907471264e-17
8.115110773716383e-15
1.0753183860929028e-14
9.066734097346373e-15
5.169868773073784e-15
1.0895292159927646e-15
-1.8345482449342434e-15
-3.115212308089811e-15
-2.956681424323537e-15
-1.936950015588723e-15
-6.902817418450839e-16
3.1123550162087514e-16
8.453376956704247e-16
9.171416381955937e-16
6.740412459088993e-16
3.074935301590723e-16
-2.2865216553046477e-17
-2.2731154768087245e-16
-2.883366343800079e-16
-2.395843415064179e-16
-1.365738286292555e-16
-3.135333392445518e-17
4.24550424717863e-17
7.337235758152393e-17
6.750994583458663e-17
4.020355764825971e-17
7.8435572901025e-18
-1.762328941788028e-17
-3.0787149024757676e-17
-3.206132222591414e-17
-2.5414853559796352e-17
-1.5829138265266603e-17
-7.372941179325795e-18
-2.2688966187527214e-18
-8.783698378091755e-19
-2.272074542816712e-18
-4.993408678789521e-18
-7.70582125554588e-18
-9.56514939624992e-18
