0
2.9465163931068173e-05
1.2697704113056155e-05
-2.0046959542304433e-05
-6.190528675706483e-05
-9.753855582853114e-05
-0.00010577285391483305
-6.664714579027196e-05
2.8045361107255815e-05
0.00016388983503523745
0.00029782271864069323
0.00036272447877768436
0.0002865327965068012
2.4885077992817303e-05
-0.00040094298332531093
-0.0008764233948461524
-0.0011960823397557973
-0.0011119454853786529
-0.0004310045526064894
0.0008579173012758206
0.0024734312123663406
0.003811026578610238
0.004054443032121046
0.0024566273244834443
-0.0012496912740403668
-0.006439244700513952
-0.011382825867655752
-0.01346209264699388
-0.009960839391009915
0.0006044762047606948
0.01692293688697978
0.03366986018491501
0.04132849535634564
0.02759487041948199
-0.019596954901808322
-0.10814359384861774
-0.038312762843616156
-0.0012439612755911534
0.01978555572823028
0.04570545953730658
0.09698707201126493
-0.0103746489934659
-0.06713152181272458
-0.07124690295812816
-0.027341025727730124
0.05406916804117569
0.15750992313999723
0.06450267320128697
-0.0426571244761879
-0.17569961657404234
-0.13584435452694812
-0.11276576135316145
0.11121928345169937
0.1526660175947476
0.21782987959071926
0.09745725404923562
-0.03125490293655807
-0.19567549771316015
-0.21543889992101284
-0.09240154524188145
-0.0075554107474184685
0.0735647979443874
0.18923580726901076
0.16850582022154784
0.02192102385747345
-0.060764975235731516
-0.10586968877936971
-0.1468554500218899
-0.01515991573852607
0.0661017401837714
0.08452231710268045
0.03780413281724382
-0.0680986003991545
-0.020866778418373685
-0.0034909443734394167
0.003944438675210961
0.022166793354828455
0.07052238216051518
-0.03491049399157731
-0.0827259423404718
-0.06739389698656267
0.0092774829437701
0.13647654990750635
0.09355986754568056
0.05167217863190681
-0.021195775512051554
-0.1524429254664125
-0.15695111714709012
-0.03233806261938825
0.04032404068321803
0.09035467883174493
0.14831895937801712
0.03750337871218887
-0.030976032100301594
-0.05832566740944409
-0.054474244422448415
-0.03294012928861574
-0.006359068124884188
0.016066156644983773
0.029095803198175875
0.03071465607989525
0.021166211424426207
0.002550746822027547
-0.020811932731856636
-0.041699499738868384
-0.049840113613641934
-0.03312138977950289
0.019574116134196552
0.11453826148261491
0.049875872564740284
0.014291101987085641
-0.011005341621659026
-0.04763708605978147
-0.1142791835811135
-0.0219058935351249
0.02823003333466001
0.043400800178573826
0.03585359811718373
0.018546147247481673
0.0017145033538916242
-0.00887274274729536
-0.011920349390563835
-0.009373906905618165
-0.004652627858507906
-0.0009711817362066139
-0.00015540056009327662
-0.002129225437946785
-0.005084483302656924
-0.00624440106586731
-0.0030575933913319373
0.005428957817016594
0.01737704506097276
0.027582654353785204
0.02791857806119183
0.008948554909785463
-0.037597342059278865
-0.11634568018235743
-0.026973227887183968
0.03505944387265052
0.0758617953911627
0.09987092373135427
0.10787119623429169
-0.10251170738130831
-0.1342708286806388
-0.1885743879813834
-0.06511349528002482
0.033428469896235005
0.2943197627040387
0.2894914695834666
0.17723756743031274
-0.08613004817352563
-0.3265709583022072
-0.33161001647767624
-0.23820524265361728
-0.13686811319311137
0.10604192872750823
0.41314627317885055
0.25901504865041736
0.24416340081033802
0.2901403952214099
0.05925164896547963
-0.40558909110633634
-0.4326023412807947
-0.48026022977032945
-0.3184083424512636
-0.03918969336179212
0.5049148130995474
0.64888550441058
0.4675823604857198
0.15001623871650896
-0.19603818099743198
-0.5127574887328475
-0.5480242421773872
-0.2155253683549335
0.02751275767299291
0.38090243528702605
0.48610776243934695
0.2062358034881611
-0.18807315965834678
-0.022390203591252576
-0.41480809630889093
-0.27241649524971673
-0.09553198629783485
0.2068847821247327
0.09335444732959473
0.3655768008628839
0.35377428199425087
0.11969486324631576
-0.1201860783255779
-0.35585827224121946
-0.3401134827207828
-0.3532130972229078
0.013542297640667326
0.2514371491668776
0.3090647998284779
0.15754112656939764
-0.04348622216608086
-0.17203044478628562
-0.1600018854948139
-0.0006339872367351056
0.25143342065826285
0.2876875705764628
0.1625351477918049
-0.08016491796383007
-0.37423640336586705
-0.399895076232899
-0.1639304867487579
0.001214632926797362
0.21829549142537324
0.2319277970487544
0.17149171175361175
0.1210990449138421
0.10420972725128962
-0.11454695219006132
-0.01272516518507591
-0.08454145414344497
-0.21408275926518858
-0.25456895785525613
-0.019003808771312303
0.11593453634192005
0.19520474210351718
0.06590715847875264
0.1601698309861534
0.08607884925609735
0.029053198649398756
-0.23763253104083745
-0.13756396596465872
-0.0770573501907246
-0.0373860770818641
0.02409177568054656
0.16462457134131878
0.0417180956271328
-0.10230917443059827
-0.0536192376685775
-0.03600090997505577
0.08550423894536192
0.40824000084203715
0.20496948606530374
-0.052795210370061366
-0.2639454946177013
-0.4670642406075607
-0.4205780856576564
-0.0030910773665506616
0.16301139759061295
0.2701673045434601
0.4789081875398419
0.28051346068539346
0.0804971437750207
-0.1929844418947945
-0.26027837527498227
-0.2518795429643426
-0.2735928410843962
-0.18561759618515947
0.19989243141816956
0.30510978957380724
0.1644619089582857
0.20405008099422955
0.03028763339015632
-0.1694716940444236
-0.21690311815393729
-0.12941077762030664
-0.11019841215151413
0.05406285328767041
0.18768625917259749
0.11580324075655801
0.05446873303661934
0.005147352974529105
-0.044774053500154225
-0.11651496754858418
-0.03227070055763509
-0.008492526569725191
-0.05218473250778392
0.03921438683393138
0.07522785916099903
0.06876275962001835
0.033450910687766226
-0.016897398687389382
-0.06683423827648034
-0.09721715760717578
-0.08456860408680784
-0.0033826648231083762
0.16854740783026553
0.0434619032012144
0.018357202615365286
0.07350111500756268
-0.024335320759911284
-0.11479336350511346
-0.03519580732417145
-0.012856262915757158
-0.06060120463337733
0.02355755781735685
0.05304649173592886
0.04714858664540964
0.02517234092890075
0.002079988293049885
-0.013529694195983452
-0.019154309116099385
-0.016600396153335747
-0.009673923863037899
-0.0021839614587298014
0.003278691739548067
0.00571653532339431
0.005459517352366581
0.0035799506347293395
0.0012865756996651562
-0.0005087413086418042
-0.001382163014849266
-0.0013749908509546383
-0.0008361864455332148
-0.00021761765579515668
0.00011018160035278465
-1.796601167321874e-05
-0.0005145767800833867
-0.0010715502339663859
-0.0012660524843635522
-0.0007249244929030634
0.000684729591855096
0.002694311079895661
0.004577062972127457
0.005271198669424687
0.00372230567722555
-0.0005935729494148148
-0.007112967324144473
-0.013843587782779079
-0.017530892661211602
-0.014552085553920487
-0.0025377237843064227
0.017619358639611067
0.04006929991507153
0.05353980611253468
0.04289370888501425
-0.007069422113531929
-0.10629347623742177
-0.054316363505732726
-0.037403984669684184
-0.029576594995376928
0.002166633210761341
0.08965590632246515
0.05479985870356469
0.1031018971274693
0.021735108401200805
-0.01694023655298192
-0.04737638708917127
-0.10093558326909483
-0.19744459601750647
0.05887581750605897
0.07785440200427804
0.07724728318738516
0.07494325054994629
0.08275625142015991
-0.0960970637289189
-0.0656517988397444
-0.03346421963111535
-0.0066424610828416724
0.01070631683267807
0.018067668105553665
0.01758507674301837
0.012481017492462058
0.005662957381950335
-0.0009949284074167915
-0.006613350332837002
-0.010763379127980314
-0.012840675975596457
-0.011779559520865575
-0.00636580915026695
0.0038649273788980754
0.017464155956255948
0.030209648304056886
0.03518476313755214
0.024237296317599206
-0.009241603786625488
-0.06697932407393409
-0.1433173506830378
-0.02506901588232461
0.10546550479341382
0.06502688730816783
0.06361790166650647
0.10098756824043544
-0.03299880784486666
-0.15428381754539236
-0.0787707662931276
-0.01744150359816999
0.025471222590092442
0.05089298579484628
0.06127389714096974
0.05712157312766462
0.03561350619279735
-0.007919491737005568
-0.07629933960582101
-0.16650362853631315
-0.06775240564543053
0.03666217412098472
0.16401177264293815
0.1255707377561434
0.12224607495108211
-0.05509721777745469
-0.22059841766613697
-0.18632270567529638
0.04298144658795894
0.0705683253475067
0.10389846419668494
0.14897674172940165
0.0061704223952590296
-0.13041690623242286
-0.07019037031766884
-0.021902778942521774
0.009582607339461244
0.02428851225805495
0.025989151075640624
0.019982958093225443
0.010972124014321523
0.0018713662462388643
-0.006207714857747894
-0.013071231994619986
-0.018257414494247934
-0.02023331951784826
-0.016500046156656532
-0.004781315565259813
0.014998818232985683
0.03870941871390993
0.05703460884619274
0.056525156387268835
0.023136741306459412
-0.052303333837698654
-0.16847063272676743
-0.11036405402172744
-0.05094433748524886
0.0416744093440147
0.1933098013158365
0.2131769599070436
0.08849977180105548
-0.01259044198815205
-0.1301521171420238
-0.2974944540803555
-0.12827835121710646
-0.011109273432022282
0.08611767188700872
0.20410197111443226
0.177424884078893
0.023079660858440668
-0.06388066664886903
-0.10711196100828378
-0.140747853406414
-2.4805251122069645e-05
0.0861689342761269
0.0997278069594574
0.03539739743135005
-0.09842935413738428
-0.07994871144056154
-0.0761043588236068
-0.04779555610744067
0.04177683822844673
0.21731271558214885
0.08332329788232104
0.02109443380375744
-0.007448914324369635
-0.04969646656794735
-0.1492217592582695
-0.13382860708847974
-0.008631006302336083
0.04378490855981264
0.056616613927295334
0.06824086959544357
0.1114637394734031
0.005895927011825238
-0.04475369461276615
-0.05053299581576935
-0.029831361836820863
-0.0028843724550795665
0.013953588920767514
0.012133956721234136
-0.007291722666754009
-0.034011065929269065
-0.050887594463541325
-0.03839109866856932
0.019468590995498622
0.12893757995159563
0.08202848947161379
0.05587000303170242
0.017089296198378
-0.069420371939477
-0.22997868108622024
-0.07363491012588334
0.010888284799436036
0.05146618128241596
0.0834710650423966
0.13881450300345666
0.037141684262588334
-0.0179414767587216
-0.03682023755978768
-0.037336886752794535
-0.03644249667264729
-0.04295348530993403
-0.05372856799929411
-0.05452952370193923
-0.025568219203055645
0.04963606418714193
0.1747966448517627
0.1343574572698742
0.09324710488329327
0.0044050917697810625
-0.17736046299527292
-0.2796021241374384
-0.10049099607973902
-0.0060718953913187846
0.06184042415970668
0.16965840893004278
0.1735034724152981
0.10445806200530212
-0.03785522163845649
-0.08208299188665437
-0.07444421270592255
-0.06476766250959486
-0.09377558803491762
0.015129339297719
0.05829578948115964
0.04912321882650082
0.012130831965318334
-0.024057314132694962
-0.03323270704903278
0.003197912850509993
0.09277459749315868
0.030767224784375005
0.0016211200161502122
-0.016976150896131414
-0.04833602534715544
-0.11102588085430172
-0.015000774678422937
0.03920010600543527
0.05827139258887793
0.052311908984758876
0.0312418467125005
0.0029421839361725927
-0.026491314423929494
-0.051149977172753894
-0.06388536470813737
-0.05662397010851854
-0.023314578595853605
0.034842136647243595
0.10365640630970954
0.15253889282883093
0.13635282515121822
0.004202922556593563
-0.0856921140962991
-0.14889479701410618
-0.1614652465409874
-0.2568689172878433
-0.1374988317668195
-0.10134774876003412
0.12070203126489287
0.3266114857695314
0.6171673467927657
0.5956884451057336
0.4022784113766035
-0.2184495101455103
-0.8304135920583819
-1.2258866021713153
-0.7825212900868312
-0.28077045313788657
0.21328152721543145
0.8174884392588889
1.2920526041028229
0.9304899403080539
0.9197856195942499
-0.21342198122090508
-0.8804300750326347
-1.0663829521317503
-0.9731326669977948
-1.1159005447827166
-0.10380985471604218
0.49144368199222643
0.8010936396575773
1.1004508661631514
0.6730087728414733
0.5361107113323172
0.4474056198317016
0.18769387198280704
-2.306190122211938
-1.0001897380347071
-0.45865077973884605
-0.009313053317332204
-0.18506178614674965
1.776930921797626
0.8156114018249306
0.3462055671835411
-0.19062385879328267
-0.3215843683119274
-0.2866192363769787
-0.36083159711571244
-0.17718296853900525
-0.2693366436366431
-0.04566941004323202
0.0031359461261899766
0.06791696968323066
-0.0333257046386051
0.28544932904525755
0.32862246320995175
0.49150487918244
0.4643073129477616
0.06961935845714656
-0.47430691513564616
-0.8825946839498566
-0.9499457606061762
-0.7373558832826231
-0.0110140810422929
0.8742269019870018
1.6744363608367183
1.7785784819101997
-0.4119534896248557
-0.6323213757925575
-1.0477584725208824
-1.331413066704723
-1.1722841173065865
0.754382237643773
0.7473309602586864
0.5892363286914518
0.4406975029711212
0.35226476581952443
0.016270055735392017
-0.2356587886441802
-0.19690392680919824
-0.12758427133159592
-0.4915950163581142
-0.10433719301535513
0.0990645312089061
0.07217189730974205
0.04577027591695945
0.10402964807577533
0.15672736070048118
0.11467099342016929
0.07298791857627807
-0.09616114337200672
-0.14315529847952282
-0.23698940551789718
-0.16273276634249334
0.07648272883590612
0.2534319822096127
0.31109047334084183
0.1635244355749815
0.1080739131788012
-0.15121284555213513
-0.47478248212035234
-0.4635257720386158
-0.049832261723299215
0.09049753858822232
0.3076034249507317
0.3377172991465168
0.06705529155704235
0.31063284532629826
0.011681214386570306
-0.3394568031689537
-0.27399039840414224
0.08875940628614412
-0.33303538689292955
-0.17224801405169005
0.18328953815045895
0.3752175404942436
0.2548674368885865
0.0676905156772597
-0.1525182332673338
-0.17946902272284068
-0.1851573924336565
-0.13237580466547424
0.02583710763296812
0.13839537253978934
0.04257665658968114
0.149694006826564
0.035350512155632986
0.0380258742157664
0.06726510548870177
0.020203531051100246
-0.1969694359989159
-0.04749860220431262
-0.14791055642161835
-0.061767155243914434
-0.10565608691648132
0.03323642581957478
0.07165428733655632
0.3030201227926532
0.17565355913316258
0.08278536756845789
-0.03251058972316746
-0.05895231888465277
-0.29100891746754365
-0.20326690818405727
-0.03287233494848937
0.025282345193746364
0.010409139492518371
0.1786230014890209
0.18296015872926616
0.05701828448174773
0.0067701132991879786
0.011967090620981335
-0.1647528083350205
-0.16524680066851824
-0.024545909978470823
0.03554954835855496
0.006782848380203031
0.0900441409278302
0.08919804879961185
0.006218316994947266
0.03972827491222282
-0.01254311476103839
-0.1484882939300392
0.04428047173504983
-0.007455648012891016
-0.062008747441198296
-0.06667165540885323
0.03417386975391124
-0.11216767881661745
0.1210846546975563
0.13015260378582486
0.27657583970860783
0.09219146152274312
-0.1058581195474553
-0.19288800278908325
-0.2136827141145556
-0.36685514426735283
-0.0030276100672116243
0.16123739002948526
0.2176466717502466
0.23707179105103715
0.24705756745824822
0.023415087827853842
-0.10176120864540757
-0.2190723825449996
-0.21548871082601773
-0.15169750977349541
-0.05007377674197391
0.10409767073645387
0.1503250473829273
0.13521241217323432
0.09611466936970758
0.05149116762646231
0.0002985113328100055
-0.07059105550142242
-0.17462323848790887
-0.11444260003835384
-0.0760426469802882
-0.0307943688910672
0.05506729545127739
0.20692405339172842
0.2295703147169743
0.10170665624274064
-0.019688688805048656
-0.18582337872050944
-0.2381146663590347
-0.19270656649302018
-0.033644493558486595
0.08262377263737486
0.2134030889182523
0.21223790296807057
0.1145134333423345
-0.06892908597273434
-0.14914335107472618
-0.15032548952692973
-0.10002082956568946
-0.022847807400570755
0.06025267314268992
0.1283778705944667
0.1560602142495541
0.11166656712761187
-0.03862562691615173
-0.12145921017169783
-0.14464745773155838
-0.08807015069369706
-0.1016128370257619
-0.1124535708516461
0.15916341982102658
0.1796642908728602
0.18354174251654012
0.16277529428798648
0.06843883914514012
-0.17539706643924147
-0.24980090848213496
-0.21853867498080615
-0.11268381878789581
0.07297155431827274
0.17174268021019748
0.2296445599357981
0.08947056082874263
-0.019823487185921723
-0.08584966394706349
-0.10881374177825247
-0.0944923756373326
-0.04817064349238197
0.027904841116550658
0.1332775763759385
0.06594116147476828
0.019428053838916895
-0.017786170920645928
-0.06025555541698165
-0.12214223925765307
-0.014285941510837126
0.05685567744975262
0.08834583847335112
0.07925634842560467
0.030187325804594947
-0.05531938661991384
-0.16817713422232727
-0.09197689127270559
-0.00416458093124327
0.11907708795476132
0.09566925666453262
0.1312527379064862
0.01665034838319234
-0.0693954773176677
-0.15319751176641128
-0.057719243679893686
0.0038647425207983194
0.03047941150914717
0.03113545296187723
0.020005336213099245
0.010629744400392424
0.011066476387444363
0.02118430492450536
0.03267348467261537
0.03178684368340557
0.004257764585369685
-0.05881534298228028
-0.1559696201386745
-0.07336556319262602
0.012764528895175192
0.129381650947718
0.09783312881996133
0.12645561590800916
0.007702899551826633
-0.07900127769089858
-0.1599961808681572
-0.05885991662017723
0.009960986663859923
0.043340094644534886
0.047551606643008386
0.03392161662211874
0.014183337444385255
-0.002865613132543638
-0.012757917609047632
-0.015010571186906003
-0.0117338515236005
-0.005981907065277687
-0.00043846674793043236
0.0032822271080269363
0.0047303695506398374
0.004307823198130068
0.002802851080016132
0.0009856185643966162
-0.0006179275876693063
-0.0017588927708129883
-0.0023667364411702812
-0.0024158901301995226
-0.001847541063050483
-0.0005968075880953813
0.001281772776146476
0.003454830108794519
0.00521975249474316
0.005588410436752356
0.003604082313315287
-0.001143287756362691
-0.00796071386267079
-0.014721366410724303
-0.018065483447234604
-0.014352997431363805
-0.0013497602125773526
0.01972833384697356
0.04255655904512926
0.05537247720085938
0.04276597171607201
-0.01024512964297863
-0.11268304495920492
-0.06243602113164266
-0.043650548985407614
-0.02829585522821775
0.01794741178539007
0.12700392639313188
0.11965954925077019
-0.00031534785419064167
-0.047271639830610654
-0.04997065921823958
-0.04474231805481571
-0.06792779070501044
0.05041068819167786
0.09064630889383918
0.045831844907176796
-0.07732628099859307
-0.05858232173079764
-0.06600764801181429
-0.060559627427786866
-0.0036388746882708286
0.1335376338126994
0.16139494927517245
0.06759017155260888
0.019224676020998133
-0.0280567297937094
-0.11656107202990511
-0.27316847470073513
-0.10105736268908813
0.02004557973155898
0.124940939029479
0.24894239151148048
0.21471952743870298
0.025590959790981915
-0.13221509817572855
-0.28020138640720094
-0.23646306904881148
-0.008668245093405358
0.20566108506403105
0.21285347918063016
0.21558370254992895
0.009402042533695115
-0.21428425449535352
-0.2606277261744814
-0.1240843091858198
0.013581176779791461
0.17811274668138963
0.19258791848320145
0.06712064673120985
-0.006797525359308123
-0.05504383584433286
-0.11360370677377538
-0.01839578854214685
0.004264168552455803
-0.05605661377366661
0.007970504243760614
0.0190619955068259
0.009729818441614801
0.015011803083677437
0.06521501390364172
-0.019848090238931096
-0.034147937642857146
0.014114255959672056
0.104768301456797
0.010253632710465916
-0.0981467938026929
-0.043623130796856736
-0.03847227670475542
-0.08176278237278765
0.03917631120001379
0.14406581001862956
0.053647863980613206
-0.015417805676211017
-0.053218767140451886
-0.05675852783518806
-0.028738276935989356
0.023763211924108157
0.09012183540707644
-0.043197846400065784
0.008484312629572695
0.030131736788916202
0.009901246115999492
-0.0576675968940823
0.030955520228121394
-0.11069084586502162
-0.060524555425636395
0.007795219011599488
0.11844942692593366
0.08679309772230684
0.11500598930219932
-0.00790043725694951
-0.1014309894589657
-0.1862015179786473
-0.07708603577698538
0.020053747160852994
0.10699262131504912
0.18861987703928337
0.0683755937233133
-0.053600643948563106
-0.17893306002070702
-0.10786199402188032
-0.03744429025720033
0.03681725976582127
0.11615428821779855
0.1930326714228779
0.04836656516269418
-0.14616796110300503
-0.020704061125976128
0.003003713508079987
-0.0789337871486692
-0.04685353903279718
-0.05762284915553629
-0.05113041093707254
0.037624087519019155
0.06317008884306449
0.05452074310883974
0.2045521182757262
0.06736181037154454
-0.03456181449784948
0.005861374282047611
-0.09799367680882998
-0.20470476857748074
-0.12887536732697163
-0.035636286867982855
-0.047426708382528424
0.13861264076646118
0.2274322266673733
0.10347445977204722
0.014568752922345898
-0.034343047906371
-0.07776707964007941
-0.17941477977376014
-0.019147524715660447
0.11966434120385747
0.16105019638814158
0.0460421259900477
-0.05831494050381669
-0.1512386038603203
-0.19438390056609503
-0.11528817297956549
-0.02010096613569822
0.1855219118836394
0.1720267074399641
0.16497508990442752
0.13410614924393513
-0.003673211001288839
-0.16765722599534924
-0.08734228501267516
-0.0737221034956374
0.005334764011543509
-0.05946532304943452
-0.2152894892254544
0.04394673749922261
0.05779861763383057
-0.027738998386240082
0.11100059311318022
0.35123221222177314
0.11006269998172047
-0.05506269639197882
-0.03193437132685095
-0.12961487675045782
-0.2524917977544057
-0.28055751352641506
-0.06214484454558651
-0.021163091102987613
0.2245314586936646
0.441909917396416
0.3693537714361671
0.3200634730681431
-0.19462202455118102
-0.6275552901780551
-0.5572154324871094
-0.264690413984316
-0.3383260310103294
0.49218687291003765
0.9024563255538093
0.7191035503376314
-0.3169819102065141
-0.3601693342038713
-0.4459682975776325
-0.6667266616119342
-0.3516764368833908
0.9416729123111399
1.0292512231537478
0.30820040620658223
0.18283407074518518
-0.49037308648953987
-1.35360741076419
-1.319931479358993
-0.5911752253417356
0.26955615077143946
1.2267466917719196
2.2627505083029913
2.720299774236547
-0.663208963109056
-1.2234974346176708
-1.7766814639984545
-3.0363094069003562
-2.1147413565099047
1.6447606392958547
1.9087507178456307
1.5208890860304276
1.8767310299724853
0.1793743744071636
-0.18538457421364055
-0.7588834162462089
-1.2435163643096494
-0.9165770915929391
-0.27721383533750754
-0.5622940116311683
0.057242534011796825
0.8111116723038485
0.8237580449217236
0.6032596794584256
0.15686744983260312
-0.2480775151943255
-0.07600326770114038
-0.07982569426571431
-1.0416490691682565
0.08330826294448654
0.2055291958382132
0.31728808647256707
-0.11094151608540295
0.2537321857106317
-0.21455824951159527
-0.1235371110398733
-0.08712287224841919
-0.15105005851355907
0.18161520391144056
0.32912203306627436
0.4200648390979905
-0.10126472596644989
-0.050984943165078234
-0.06698040767704053
-0.36471714162247354
-0.4990620084085464
-0.14206677620176353
0.318528519978325
0.5627609601828942
0.3130222416552276
-0.08953296429342336
-0.3005813072752507
-0.38165529592202097
-0.4094687703569375
-0.09223244770229427
0.20604565405143663
0.6405053187233493
1.0733214905419006
0.8886802004068328
-1.159248063916132
-1.0749287105790726
-0.7516198432615052
-0.7329824478655297
-0.4256845210818915
1.6386324152465979
1.5154483866929271
0.5690136430929641
-0.36552026530506165
-0.7684788298656482
-0.7836448745281169
-0.5555456488074794
0.017243430464362303
0.498909733137203
0.5053845449218136
0.07843048523112808
0.059707006332015033
-0.32577339943425754
-0.07508179356275571
-0.005073911793851637
0.2534528109272244
0.06281566193572241
-0.013950349789724106
-0.4058966656027359
-0.12988638268475522
0.007705982591046955
0.0023512507121090038
0.03883640902323077
0.6816297405489951
0.6762620707735628
-0.23265544979885205
-0.668137821391799
-0.18302336761240137
-0.6349855978572249
-0.7907610657684784
0.03266312833199905
0.6954995022623042
0.9506895078335033
0.5759138581042852
0.5493905790765826
0.4846737332158049
-0.4790278589614289
-1.1533558933197017
-0.979699188840614
-0.7487090883547368
-0.38824527333687014
0.37325376728921755
0.6847431790652427
1.0270026615728387
0.8857303910834103
0.4794052627054317
0.1609663560219963
-0.5100807107346638
-1.0493294762531895
-1.3198776267364996
-0.4327960440648134
0.499912435108273
1.1570123566789623
0.7619000985092638
0.02496018213224091
-0.5055599894728441
-0.8794970901777407
-0.5761690908016636
-0.14266961475962803
0.758024229684227
0.9000306132519454
1.0696245067937182
0.08270828450972537
-0.3476610373955063
-0.30530715574752343
-0.9550812863701498
-1.6530606038957485
-0.7138223460784029
0.550828220128698
0.9320403560877532
1.597716273621248
2.387048158404959
-1.0344555284954033
-0.9456681133186512
-1.0857920006141364
-1.3589190365449877
-1.5728289579067072
1.7613865719442376
1.1723627484879593
0.7445999866396776
0.4489871478689449
0.11933654108732557
-0.3157550150449659
-0.5585853248135935
-0.652245190135051
-0.5046996510696095
-0.25086021445419804
-0.06380596554236215
0.18859359673378803
0.4582919061932662
0.6273627164801695
0.6395934763897502
0.8731313218955962
-0.8381774957472959
-0.7428799983571321
-0.49162479232466394
-0.4664120200317422
-0.5415924849798579
0.9151835873155088
0.609422141209736
0.27172848266197314
0.015069690892088233
-0.2899631159841901
-0.2200967606298531
0.009205519065937112
-0.04262760917330638
-0.02877999724287124
-0.006218230144455827
0.16973199304407993
0.049068490461316325
-0.009105792687978988
-0.03177991466049872
-0.02685464597413876
-0.17955763135327768
-0.05277018198340246
0.00728214834281241
0.06035739862740032
0.15904937011433468
0.13706846961937377
0.00270487790484212
-0.06056085601233422
-0.08698015384909373
-0.1178880963497319
0.008867860745999517
0.06663798833690199
0.043764910634952095
-0.05610039388443066
-0.016177027167935617
-0.010471937230780586
-0.008970876162445199
0.01647684369442655
0.08654750165623488
0.010338496331384135
-0.01616376774229857
-0.008619953070547123
0.009713924956194588
0.013609758570722351
-0.018186836753996464
-0.09795843002299902
-0.026155809226698308
0.008484480268747457
0.02580677058128303
0.049091873290704344
0.0996539173637492
-0.007052462166363189
-0.06281163940228625
-0.06570617294299153
-0.018016543957830228
0.07572225800823823
0.009830936656476762
-0.022130842931452233
-0.027310552449644598
-0.013644556283169884
0.009902975684046514
0.03303274010458263
0.044129694900619666
0.031139241339573007
-0.016457361661189808
-0.10499059589992903
-0.034377336596621184
0.0023861278098592535
0.017305758439258162
0.023421089887827724
0.03010751297025468
0.03933022880693716
0.04427722004580514
0.031119323965614315
-0.0162940558297758
-0.1100318716599517
-0.05203203101095338
-0.0306633784442403
-0.02144882927369088
0.007902561099634393
0.08951390574435827
0.04681909195282052
0.08817997307603109
0.004699183646227327
-0.027069930485157767
-0.03844507389119313
-0.060199145227078914
-0.11514836998542316
-0.014054673394938592
0.04408807586518823
0.06798144325746058
0.0682094304694987
0.05228787738613242
0.022593614335527007
-0.022212408460557154
-0.08325483168040189
-0.15717861849028866
-0.03398695589676438
0.10150445066438545
0.06492563065758156
0.0664569497547807
0.10660043899162681
-0.02436150960152506
-0.14297650923448438
-0.06689378691246972
-0.009366550398795082
0.023840999680787855
0.03440595274548776
0.029013504657211572
0.016032279688614447
0.0026712373136694766
-0.0066164061942720846
-0.010386715746434516
-0.009488027630593669
-0.005925892800406999
-0.0018010230042671109
0.0013844648576289522
0.0029760835124804236
0.0030591490701755205
0.002159694701467577
0.0009179431750862262
-0.00015370655040733707
-0.0007837840496796688
-0.0009380688969707251
-0.0007432099329480637
-0.0003881914964195189
-4.252738074437404e-05
0.00018944048966483377
0.0002771416782890188
0.00024621660935399603
0.00014987784249596422
4.219155294145642e-05
-3.909465561624641e-05
-7.832890496271337e-05
-7.872063358090769e-05
-5.441276009630444e-05
-2.2056190061493714e-05
5.30334016200005e-06
2.0969150926118353e-05
2.435010239874724e-05
1.890281766707653e-05
9.567613744011715e-06
6.835312679941853e-07
-5.143525980853137e-06
-7.216870569068959e-06
-6.265641562482246e-06
-3.694920369569513e-06
-9.008402367973793e-07
1.1601390483612054e-06
2.107576760746628e-06
2.04535456339581e-06
1.3546373255434564e-06
4.779858909429667e-07
-2.3626137439383616e-07
-6.053037646705882e-07
-6.10239372892873e-07
-3.5053311646035015e-07
1.5572651180159035e-08
3.2474446842792453e-07
4.489045879232638e-07
3.2347418695534285e-07
-3.351003018788668e-08
-5.127887713806909e-07
-9.236452502418281e-07
-1.0330568705011514e-06
-6.403843736741997e-07
3.207688910887662e-07
1.6829417922405989e-06
2.9961607334368627e-06
3.5847577488940035e-06
2.745203874210813e-06
7.17766150425208e-08
-4.1744487186992995e-06
-8.809183880075174e-06
-1.1772871918277362e-05
-1.0636626419393365e-05
-3.5834146066654927e-06
9.34260527088712e-06
2.5178313828743972e-05
3.7807857717196874e-05
3.9146497529214734e-05
2.1981704838904573e-05
-1.5966518903996102e-05
-6.805930544632652e-05
-0.00011683401518548496
-0.00013632770831203177
-9.993831305558335e-05
6.836272347028256e-06
0.00017222777782092348
0.00034874838737783463
0.0004558597288204115
0.0004004783715405282
0.00011556534113828137
-0.0003917206821691503
-0.001000483922351472
-0.0014696457585493144
-0.001486965997786395
-0.0007815440075532958
0.0007188398918979984
0.0027371289767853463
0.004581383799828101
0.0052459782590340365
0.003726702219735973
-0.000481309257332257
-0.006842446068852564
-0.013439325538264196
-0.01711937375769998
-0.014349069649566937
-0.0027838875362538977
0.01676949676005692
0.03867637861635723
0.051973837308821796
0.04182819752948536
-0.006817272299594951
-0.10408609060518204
-0.05011777618058383
-0.0321494651948488
-0.025276353260073554
0.0027984459914798957
0.08414795237935799
0.04233165970026431
0.08598169490037857
0.006321532861043102
-0.020548380188929564
-0.027294164793713993
-0.04689132085584272
-0.10462377102875715
-0.012854427621926817
0.03008417274450856
0.03692081403725004
0.025735223075069376
0.013510891708966202
0.010836213805401545
0.019024070857072733
0.030206161499157513
0.030329791341516435
0.004398581374207543
-0.057332291320545535
-0.15409520130164606
-0.07239394914594585
0.011687939939617602
0.12580144712080352
0.09243184722299687
0.12121405591892753
0.0055701313546469506
-0.07504849090404578
-0.14842951765419665
-0.04125688660922773
0.027702034734261798
0.05096455291831445
0.03213894545701939
-0.016716232832242307
-0.07886864483872241
0.06305628503802403
0.023323657970392472
0.010179091762970415
0.024445584285018952
0.06008321091629529
-0.09339085590767705
-0.0473945018758133
-0.010919551399268389
0.011513088273783847
0.02006231945650945
0.018261060616545723
0.011034403778200873
0.0028920002293247775
-0.003180806674998717
-0.006013160147416841
-0.0059054377751033066
-0.003975215006796282
-0.0015000611218798914
0.0005426710947246166
0.0016710284532825998
0.0018666022209954931
0.0014096168754177067
0.0006815020683982379
8.517217732505435e-06
-0.00041989305633706437
-0.0005600254374959797
-0.00047407458069145505
-0.00027187413652544256
-5.9164320743121005e-05
9.387218818145124e-05
0.00016143450797131295
0.0001538490484901714
0.00010108162720636187
3.618094991240516e-05
-1.6158731946578814e-05
-4.422944042270453e-05
-4.8190847763128745e-05
-3.5661924817536784e-05
-1.6605666060747156e-05
6.38438757291436e-07
1.1358570265923437e-05
1.4607541655564217e-05
1.2115635405573995e-05
6.767903615010226e-06
1.2806720961416104e-06
-2.583293451975313e-06
-4.21417693462708e-06
-3.9220129682737665e-06
