0
-4.4409773573603266e-15
-4.440977357360321e-15
-4.440977357360315e-15
-4.4409773573603116e-15
-4.4409773573603155e-15
-4.4409773573603266e-15
-4.440977357360346e-15
-4.4409773573603676e-15
-4.440977357360382e-15
-4.440977357360378e-15
-4.440977357360348e-15
-4.44097735736029e-15
-4.440977357360218e-15
-4.440977357360158e-15
-4.440977357360147e-15
-4.440977357360219e-15
-4.440977357360387e-15
-4.440977357360624e-15
-4.440977357360852e-15
-4.4409773573609545e-15
-4.440977357360808e-15
-4.44097735736034e-15
-4.4409773573595945e-15
-4.440977357358778e-15
-4.440977357358251e-15
-4.440977357358442e-15
-4.4409773573596734e-15
-4.440977357361943e-15
-4.440977357364733e-15
-4.440977357366972e-15
-4.440977357367236e-15
-4.4409773573642496e-15
-4.440977357357597e-15
-4.440977357348429e-15
-4.4409773573398036e-15
-4.440977357336287e-15
-4.4409773573425764e-15
-4.440977357361265e-15
-4.44097735739034e-15
-4.4409773574215e-15
-4.4409773574406e-15
-4.440977357431227e-15
-4.440977357381473e-15
-4.440977357292419e-15
-4.440977357185143e-15
-4.440977357101934e-15
-4.4409773570977716e-15
-4.4409773572205846e-15
-4.4409773574835506e-15
-4.440977357838424e-15
-4.440977358163662e-15
-4.4409773582817816e-15
-4.4409773580143514e-15
-4.440977357269383e-15
-4.44097735613683e-15
-4.440977354949871e-15
-4.440977354261882e-15
-4.440977354701535e-15
-4.440977356706678e-15
-4.440977360197799e-15
-4.440977364316917e-15
-4.440977367398563e-15
-4.440977367321864e-15
-4.440977362291419e-15
-4.4409773519110135e-15
-4.440977338191023e-15
-4.4409773259545125e-15
-4.440977322092918e-15
-4.440977333370364e-15
-4.440977363016288e-15
-4.440977407082263e-15
-4.4409774522216085e-15
-4.440977476811839e-15
-4.440977456807089e-15
-4.440977376181763e-15
-4.440977239483448e-15
-4.440977081533097e-15
-4.44097696783622e-15
-4.440976980110827e-15
-4.440977185425515e-15
-4.4409775946438635e-15
-4.4409781244475175e-15
-4.4409785837309e-15
-4.440978705218528e-15
-4.440978232971929e-15
-4.440977055101199e-15
-4.4409753425166705e-15
-4.440973628847163e-15
-4.440972757990901e-15
-4.4409736483168645e-15
-4.440976883300727e-15
-4.4409822295948176e-15
-4.440988277916574e-15
-4.440992455019955e-15
-4.4409916162381315e-15
-4.440983263563036e-15
-4.4409671520506595e-15
-4.440946718282191e-15
-4.440929523624684e-15
-4.440925922003295e-15
-4.440945578183034e-15
-4.440992304784179e-15
-4.441058786586408e-15
-4.441123726660868e-15
-4.4411542264730195e-15
-4.441115264956469e-15
-4.4409857255579514e-15
-4.4407768734751375e-15
-4.440545599331096e-15
-4.4403928648356975e-15
-4.440439527215262e-15
-4.4407783265139454e-15
-4.441411861503307e-15
-4.442198988171149e-15
-4.442840945330271e-15
-4.442937103755101e-15
-4.442123276295702e-15
-4.440272348141005e-15
-4.437694525478696e-15
-4.435238294819705e-15
-4.434184707760023e-15
-4.4358671292794384e-15
-4.441044495165351e-15
-4.4491938779336184e-15
-4.458024161975635e-15
-4.463578836448423e-15
-4.461219189870926e-15
-4.447514382410888e-15
-4.422633313255204e-15
-4.392350784072066e-15
-4.368455409659255e-15
-4.366430574407158e-15
-4.399968493326833e-15
-4.473182785410279e-15
-4.573021492206208e-15
-4.665735890783597e-15
-4.701499444037698e-15
-4.629631176655418e-15
-4.4230762532673506e-15
-4.105452444860624e-15
-3.768822806407253e-15
-3.568053067509242e-15
-3.680943559832556e-15
-4.2339178840781265e-15
-5.2098983777902034e-15
-6.37342972183721e-15
-7.259962509341987e-15
-7.27181846303756e-15
-5.895465205065242e-15
-3.0034353844200206e-15
8.587709508431008e-16
4.3509077141414795e-15
5.537185568567395e-15
2.4945928994427278e-15
-5.731991963245149e-15
-1.8097305823800762e-14
-3.090974024883456e-14
-3.811461357764795e-14
-3.290642891328677e-14
-1.0646952237404288e-14
2.7591033661163074e-14
7.223756518833786e-14
1.0500972562538655e-13
1.0286453607138648e-13
4.659207335700276e-14
-6.749270071153294e-14
-2.1672276004482423e-13
-3.479541884327531e-13
-3.860667512171156e-13
-2.582287978109907e-13
6.888159076369585e-14
5.497222720112953e-13
1.0365559051523594e-12
1.2929403803373091e-12
1.0587648594402698e-12
1.646991371105919e-13
-1.3316654139643909e-12
-3.042485617750472e-12
-4.2491143915954015e-12
-4.064254459319456e-12
-1.7713450352063613e-12
2.7232030368653094e-12
8.482292776145189e-12
1.3401717582776009e-11
1.4569726511602712e-11
9.233265142086482e-12
-3.753155980285833e-12
-2.2429862454082052e-11
-4.089544641023391e-11
-4.9927185014009764e-11
-3.959837444595127e-11
-3.761780479402371e-12
5.4727169673980096e-11
1.2019217088988046e-10
1.6441997787117987e-10
1.532875847923666e-10
6.014846454413143e-11
-1.1669595063948772e-10
-3.386786147539046e-10
-5.226020102573176e-10
-5.557345121422686e-10
-3.342241031979786e-10
1.8056743446080157e-10
9.051707816504116e-10
1.6042693048239398e-09
1.9185305509688297e-09
1.4697092908407478e-09
3.60761915503286e-11
-2.247463196011754e-09
-4.748850443549685e-09
-6.3618013719067284e-09
-5.775748000141329e-09
-2.003137998766904e-09
4.946392988954339e-09
1.349197116275206e-08
2.0348573041660682e-08
2.11568044059654e-08
1.2007692197749257e-08
-8.369462965142727e-09
-3.6449526852584706e-08
-6.286513239480341e-08
-7.363207814344781e-08
-5.4361247222378775e-08
2.885195613967023e-09
9.193736836706964e-08
1.873697472283628e-07
2.458547629177215e-07
2.1712452489990932e-07
6.471538857361229e-08
-2.0804967509852197e-07
-5.366053162255367e-07
-7.914158279068212e-07
-8.041019259701273e-07
-4.278751538373441e-07
3.7759006917318623e-07
1.464488903058604e-06
2.460530313197324e-06
2.822110220421894e-06
2.0027742279041313e-06
-2.791339722339455e-07
-3.747970142594956e-06
-7.38315753583081e-06
-9.48976398312952e-06
-8.142378845593889e-06
-2.0002138213669385e-06
8.692799380135803e-06
2.1308403303666765e-05
3.074533328047982e-05
3.050790658878746e-05
1.5097853295841847e-05
-1.6697104718376477e-05
-5.871810192072214e-05
-9.619190722705132e-05
-0.00010801144335314888
-7.346148303532255e-05
1.7344855836629862e-05
0.0001523081687681619
0.0002905433474201791
0.00036581924287999474
0.00030448525018668784
5.745902145015617e-05
-0.0003613265859385319
-0.0008452133177392895
-0.0011935514488787173
-0.001155999849528932
-0.0005269850442270817
0.0007271606752295424
0.0023521424844340716
0.003764466718620363
0.004148928329046378
0.002727461456406395
-0.0008336156177049058
-0.005998665209074085
-0.011120644533619092
-0.013611104172813136
-0.010686429399839648
-0.0006751896755768373
0.015397260111176987
0.03250520803516031
0.0413043898133507
0.02937799627871831
-0.015848425868766197
-0.10315455764953532
-0.03384613425180965
0.00017181339567489017
0.015678899781094508
0.034965021663405746
0.08131434263267097
-0.025439200614056877
-0.07227883290176451
-0.0550540597692207
0.020507999885786825
0.13872405385900882
0.0753542231268923
0.0013097912011333125
-0.11124425642344855
-0.08179581273621206
-0.11595968542663575
-0.003934967626309849
0.0761609127919254
0.15130248767524504
0.0456919851533714
-0.025060980669626226
-0.056113310484331755
-0.05218831513496983
-0.024546047335384832
0.012224836188067856
0.04271709359415738
0.05258659814047278
0.030376766874759067
-0.03034487310911425
-0.12890617043458522
-0.05661079697912041
0.0018432801078589554
0.06433974085408102
0.1459208516748485
0.054241461325670766
-0.011978898117565757
-0.06081259605644219
-0.10250907727045613
-0.14491916869302737
0.008608597574501262
0.15788624436736862
0.10221846087765578
0.037002574019959884
-0.04694268360087276
0.03952394734207444
-0.11079676596048521
-0.09606965516847446
-0.10255438064829882
0.09414729664340546
0.1238306843941564
0.01429011406321852
-0.015525870430967426
0.04031774090329743
-0.0259724652153878
-0.033606130921124834
-0.008927194444253828
0.019657388500370868
0.026569671021373524
-0.006880603391446532
-0.08977231869900798
-0.020726207081811554
0.010602408818851407
0.01973201674536416
0.022107731013354955
0.027873797366893344
0.03826222087077004
0.04481643246747258
0.031958768238776025
-0.017513882078647434
-0.11543753544697267
-0.06203920151268261
-0.04285597917917641
-0.030427736772782873
0.009198992007646553
0.10686593342140739
0.08058952583091425
0.1290951837435776
0.031156499003673573
-0.0485752218127928
-0.14894598316887814
-0.100521142484006
-0.11688315865312277
0.007930491757531105
0.09525732874399712
0.1730174955848315
0.06612017052663496
-0.01019113480346271
-0.05208983389477514
-0.06448039022265459
-0.05612175610354314
-0.03522858279059065
-0.007428862826180018
0.023432074237789684
0.05251207360577838
0.07097127743374403
0.06465516726565176
0.015722704838378333
-0.09279377307412356
-0.07096588068896409
-0.116915226432583
-0.015037699257640199
0.06148771782019344
0.144820732726579
0.0656753627083127
0.04837107045082748
-0.09075294279734392
-0.1420596918795741
-0.10060212925593355
0.03427455829657969
0.056737000876482244
0.1508156153443407
0.08797197036380666
0.028518888614382447
-0.07207334288236474
-0.05329195894414789
-0.13933569097604373
-0.13232906402815658
-0.011864571107113924
0.05845326940296915
0.11947064134879247
0.204071198876401
0.12853346367330487
-0.10917004851102227
-0.12395913148616623
-0.13410010729096536
-0.15217715812809907
0.019466966400312966
0.18746081041638596
0.16198415664550858
-0.049284890276407256
-0.0446590707665502
-0.02816587420825855
-0.006390168474109691
0.015742720447292365
0.03859853262166239
-0.13025446804856256
-0.07665787600004742
0.01651157383798687
-0.037013674258292883
0.16561571830514973
0.21057763625488785
0.0664009941989218
-0.11043260730404551
-0.16425315560745796
-0.12703771346693893
-0.008139222601711432
0.009466629974263823
-0.03456558929156667
0.11240310972901062
0.10360993139629743
-0.018735868915028597
-0.03152878504062098
0.06611930935334602
0.05473592731064918
-0.0996449532841084
-0.0371755871931357
0.004577788330129021
-0.002105435517638754
-0.0707878866890204
-0.00013361694624889402
0.023397124327744295
0.020229274650422478
0.011103692976966374
0.010885917433282894
0.02423366105114976
0.04419148159658002
0.05426064576418312
0.03384628102947099
-0.033889765057169376
-0.15378862403924998
-0.11291139267556374
-0.08001623805394432
-0.011731313671854395
0.13559535525479277
0.19195589746761532
0.16268408241379656
0.024862530548764937
-0.06700555223923099
-0.167810212369287
-0.1258418040261895
-0.1696518486661472
0.09796947737957838
0.09764580330125211
0.06462773222258004
0.03740530199150678
0.04755225578708677
-0.08677616168961534
0.03698806077001937
0.007412946883641691
0.0032917869992146118
-0.000680537050942419
-0.027954538192817572
-0.09512358064003903
-0.009029860032067044
0.03332446450552571
0.04224354460869721
0.03128493089421062
0.01321714834660781
-0.002766278831869348
-0.012059501424458453
-0.014096493661593972
-0.010890399641706915
-0.00538621562887524
-0.00016983034678002594
0.00321689141523337
0.004375433770125095
0.0037539499237976993
0.0021948969349176693
0.0005260793574196671
-0.0006931196367275515
-0.0012482288972622479
-0.0012102647732601354
-0.0008089367015010582
-0.00030283480337472523
0.00011176725846217197
0.0003392114434196624
0.00037732654384515
0.0002837708962237026
0.00013608126125190607
1.9573680045569318e-07
-8.584656986153743e-05
-0.00011352014445059563
-9.56318915999473e-05
-5.4492796497761585e-05
-1.1470183432117979e-05
1.932865019633081e-05
3.278914759058725e-05
3.1081665973768424e-05
2.0309240027767852e-05
7.160180448668759e-06
-3.3924613841461134e-06
-9.01166989121404e-06
-9.757093160899268e-06
-7.186242098435862e-06
-3.3187124197807356e-06
1.632821863034085e-07
2.3155595563942224e-06
2.9553386291557543e-06
2.4386021207371803e-06
1.3512250318241147e-06
2.418534039203192e-07
-5.355047423341859e-07
-8.603851606503402e-07
-7.976596608253069e-07
-5.092406700900487e-07
-1.6795346861079305e-07
1.0036318081014922e-07
2.3884066514801373e-07
2.519837254965004e-07
1.817257281104178e-07
8.060642938599664e-08
-8.507148098368522e-09
-6.223611065482656e-08
-7.682332496833264e-08
-6.209895810760867e-08
-3.342452356633081e-08
-4.869686797335019e-09
1.4703081778713436e-08
2.2492312058814908e-08
2.040671922320351e-08
1.2739251555633893e-08
3.948422899507997e-09
-2.8004975079302083e-09
-6.156744000823332e-09
-6.345868462066003e-09
-4.520566775543891e-09
-2.0498257536481407e-09
1.0296897175045022e-11
1.1616163772338129e-09
1.4418983305175973e-09
1.2255943862459345e-09
9.592918885689834e-10
9.308092155356237e-10
1.1398822626413632e-09
1.3026976800587065e-09
9.876321572145135e-10
-1.5447397532192e-10
-2.1353807073964794e-09
-4.446981405665371e-09
-6.057422228977711e-09
-5.6661855893740425e-09
-2.2258307948890046e-09
4.37834934690217e-09
1.2731791538157526e-08
1.971245332518478e-08
2.1053719163413938e-08
1.279525144489403e-08
-6.5806893547586424e-09
-3.398243518368836e-08
-6.055998710632863e-08
-7.272864331567657e-08
-5.611973758245217e-08
-2.2093348188092655e-09
8.408773728569372e-08
1.7904029193065116e-07
2.4087560858580357e-07
2.1989524070308978e-07
7.83679197743517e-08
-1.8392925649748504e-07
-5.07830013294715e-07
-7.694661426172215e-07
-8.037574359604985e-07
-4.618458563939293e-07
3.0612845167253664e-07
1.3689936703588966e-06
2.3741138860440055e-06
2.792630070401138e-06
2.077806322331992e-06
-7.590480870203105e-08
-3.4422896174403034e-06
-7.066204868876772e-06
-9.311196703004489e-06
-8.27052141424627e-06
-2.5499391164692736e-06
7.747706469614572e-06
2.0204218408715425e-05
2.993387719898761e-05
3.055898879842481e-05
1.6486943738738803e-05
-1.387795331972247e-05
-5.5028166062270105e-05
-9.29442215828308e-05
-0.00010706321613784205
-7.661468243822103e-05
9.263610746776757e-06
0.00014042110661839042
0.00027849966056136253
0.0003594634153067245
0.00031025096705933
7.954042921934415e-05
-0.0003243419324489003
-0.0008029030231028218
-0.001163678326895756
-0.0011605103406573181
-0.0005836239912357621
0.0006160308120264007
0.002209630920651838
0.0036425481962456797
0.0041195876064304944
0.0028588539689353085
-0.0005129120647223966
-0.005536557597712746
-0.010661994579743374
-0.013382000613896178
-0.01092880725110522
-0.0015349480930514526
0.014000714479065061
0.030974419498993124
0.04035599252808902
0.02987223663399188
-0.013259237406666454
-0.09850831880025125
-0.028357905521384376
0.0037889514764083785
0.013198946589811366
0.02094349826108481
0.04947091280390785
-0.08217935093572054
0.03750089002993198
0.009707149837820388
0.0243661857866584
0.06144701976056938
0.09480681120689699
-0.10173670411062803
-0.1473866336793389
-0.04860043857144223
0.0031436011446274257
0.02893972905998072
0.05618756189113078
0.11075196051454787
0.010242081072078899
-0.039624956731924114
-0.04500569806346642
-0.021024967515646614
0.012616259805503058
0.036317284048578514
0.03491224880091025
0.0013975438333083418
-0.06035003249355356
-0.13471823780448922
0.0035386425397715554
-0.016357399557572806
0.030274608218229093
0.15442258656915137
0.1467673923249658
-0.023465081993318475
-0.002839084124947107
-0.04229945824635098
-0.18328746057884854
-0.04567944434301198
-0.021345889563215197
-0.07535958271499732
0.04548255326251423
0.19932527211272888
0.03495667529022864
-0.01949798396189125
0.037843527719664545
-0.016471427084230737
-0.024819384985952764
-0.03855178165693954
0.09323616075679424
-0.06592668492224439
-0.13228839536829276
-0.0986952265742996
0.06308015053969539
-0.0052963941905395245
0.1403189599800577
0.13558636748128433
0.00011033228670048737
-0.06470162324299797
-0.07246714290160515
-0.04534681695706766
-0.00694102940811725
0.02336196678962449
0.03375447472917109
0.02129938854914342
-0.008260955256514886
-0.04179248280549881
-0.061217144569109136
-0.04740343205441617
0.014550519858806107
0.12956195636264217
0.08822323544105443
0.06610408947636993
0.02810560363193443
-0.06258566627255024
-0.2335257970569216
-0.09398804057517571
-0.03164472295832643
-0.016717423330878674
0.18769249709685193
0.21306962151590808
0.07576533974217833
-0.026073868563776324
-0.10808822056988192
-0.19031651799614757
-0.08737420701581607
-0.002458549008972827
0.07280211895735701
0.15355880269715247
0.05499635449631418
-0.013075301314711088
-0.0483506104433892
-0.05494085479793079
-0.04059962748038292
-0.014096802156885413
0.016117403047286472
0.04191276580382037
0.055001406411214634
0.04716710939143092
0.012015076824664966
-0.05187698782942955
-0.13763368385580874
-0.028525466710534686
-0.0999110029996374
0.07488188750285092
0.11621623664699463
0.23048501883448916
0.006708454441290937
0.019635713827952893
-0.16116754864821337
-0.1596696967142321
-0.18410794041216846
-0.024335144141998402
0.1427493673986489
0.14182493736878996
0.1867311456214323
0.07243087870099962
-0.02517795527369643
-0.1415821359797691
-0.11140593752911053
-0.1566619135754843
-0.08011958283217793
0.13392215723330492
0.11234060900412773
0.08286995038045028
0.06515913250830915
0.06653237762767092
-0.1165374390811764
-0.09265847838671286
-0.06848253844710447
-0.04367229082951967
-0.009989855073499124
0.04531916029692226
0.13352018599449783
0.05849473918593498
0.013583873185855282
-0.017438841883617752
-0.055693269078501535
-0.12078931410381907
-0.025260977666541222
0.02813991281660216
0.045646208216128234
0.03903541295306749
0.021281703502869377
0.0029684140759230274
-0.00959578325935825
-0.014475568428911473
-0.012952587552157762
-0.00787158761355574
-0.0021485199614804957
0.0021755952019851237
0.004251909563491686
0.0042496573381493
0.002927862446201403
0.0011806303047910676
-0.0002922749898564646
-0.0011328976367156137
-0.0013115461849505068
-0.001015691966672854
-0.0005118542559894411
-3.350647925889122e-05
0.0002795724578747969
0.00039046904867069774
0.00033886692732150485
0.00020054256401127294
5.048212252971016e-05
-6.020979043874808e-05
-0.00011147433642685882
-0.00010915094821652022
-7.36447661132754e-05
-2.821424792516804e-05
9.329383591545323e-06
3.017560071490364e-05
3.3956320499838635e-05
2.5760102233593967e-05
1.2541392088287799e-05
2.6668135354493805e-07
-7.583160481482113e-06
-1.0185437465404706e-05
-8.655921145671685e-06
-4.989001093670898e-06
-1.1131015057146561e-06
1.6864237599067303e-06
2.9319222821854655e-06
2.805749788610893e-06
1.8510116135036348e-06
6.697193415669714e-07
-2.8656564665240377e-07
-8.022859258751374e-07
-8.784291770229999e-07
-6.526915618462984e-07
-3.063328320305272e-07
8.344265701858402e-09
2.0485102304826607e-07
2.6531112898864145e-07
2.2083620247002914e-07
1.2383297360374156e-07
2.3840671794457274e-08
-4.6863336494784226e-08
-7.698862544575796e-08
-7.204438561403734e-08
-4.645142825312788e-08
-1.577244743905132e-08
8.559955352579338e-09
2.1290818115474827e-08
2.271175136758735e-08
1.6532064445339377e-08
7.46644582183168e-09
-6.039998748142955e-10
-5.5341809980645445e-09
-6.943572910113622e-09
-5.683651239367436e-09
-3.1176802474693844e-09
-5.079937239992149e-10
1.3363214594170528e-09
2.1369400988020174e-09
2.0274987961571376e-09
1.351519672458723e-09
4.760441562454334e-10
-3.215825528667753e-10
-8.832167612748915e-10
-1.1408802448256616e-09
-1.070659423284168e-09
-6.672536252528507e-10
4.209863713200379e-11
9.517378420532885e-10
1.8310698215197874e-09
2.321168970159561e-09
2.0119435791816014e-09
6.093792847156863e-10
-1.8430393828097293e-09
-4.774512290268092e-09
-7.0476659012207174e-09
-7.1807910914472895e-09
-3.874912622948236e-09
3.2383585092058373e-09
1.2870907299649259e-08
2.1746881493606393e-08
2.506000762824237e-08
1.7952376803690392e-08
-2.12136732343785e-09
-3.2796263274220226e-08
-6.511104662844927e-08
-8.409459291226239e-08
-7.265502979599073e-08
-1.877187175015336e-08
7.563621941977058e-08
1.87565870679522e-07
2.7202689315356367e-07
2.7145221243067135e-07
1.3676789493532664e-07
-1.4349258116753882e-07
-5.157087928510325e-07
-8.498199092059991e-07
-9.59052604414003e-07
-6.590486750739264e-07
1.398780159879821e-07
1.3335919236546886e-06
2.562955591587353e-06
3.2428081798215493e-06
2.7191525387163495e-06
5.515023511618427e-07
-3.1461097620375285e-06
-7.4394696249910425e-06
-1.0558520673075833e-05
-1.0284531618695871e-05
-4.783103354840841e-06
6.268727232031151e-06
2.0646041233934654e-05
3.319364991274678e-05
3.6665848637108505e-05
2.4083835234760054e-05
-7.670087482624705e-06
-5.407494788010532e-05
-0.00010076540835776007
-0.00012489731076769644
-0.0001014843731372744
-1.4468634429297975e-05
0.0001301834107030672
0.00029463715599009556
0.0004093375762950332
0.0003888746527970113
0.0001648707487672338
-0.00027043733578711225
-0.000825191334501317
-0.001295356060122955
-0.0014001509312534964
-0.0008758487771931932
0.00038442802605912185
0.0021871501233135305
0.003959693913332435
0.004813056734175615
0.0037972737826356667
0.00033563909464582096
-0.005272476525115461
-0.01148861413788574
-0.015573565941456442
-0.014245006212233223
-0.004998456320694694
0.012156759615291328
0.033128077067601604
0.04914910787715817
0.047934453884578274
0.01689082361385797
-0.05216275343520832
-0.1583269183112434
-0.08922054517007
-0.022740891702725544
0.06666211634565458
0.19908086096296534
0.18123958050842018
0.0032859452417048907
-0.15795417513778973
-0.1306040873457298
-0.13807675276711168
0.007684771896846299
0.10776201519376825
0.1731294339602391
0.01938507746218851
-0.13795718274215588
-0.08639943758725528
-0.01809643603552645
0.06885330715743518
0.16944154664527236
0.07225621911997679
-0.03733206339001981
-0.1715035188675943
-0.13401545260125305
-0.11710787522578006
0.09645496097294094
0.12650138536011316
0.18674746419161237
0.07855939903214648
-0.009517243972778627
-0.0959220853737831
-0.19649893392117515
-0.1156239867400763
-0.0422780536848549
0.04693345476753141
0.1789993884976866
0.1737843074532943
0.036021947204402785
-0.04671420556508199
-0.09967022412207503
-0.15264130272561083
-0.03157084689565598
0.046798917403176606
0.07602998777104984
0.057750359295616116
-0.0019425347027820297
-0.09572127793409149
-0.017205917616227383
0.0378408265070303
0.0712082128988665
0.08320021738664318
0.07539704416430541
-0.14497724483933447
-0.16067787487826438
-0.14281446517794327
-0.05454072342251158
0.13940136766449163
0.25980734236960423
0.10173285326686313
0.029923018941560263
-0.016288826433576764
-0.1095097057438858
-0.11627279845551819
-0.07989403774251583
-0.009062195456048833
-0.07509192923051623
-0.018317879589452857
0.038126774022107665
0.17058078481898414
0.037551522571897616
0.06711787032846477
0.05200490915127842
-0.046853672960552595
-0.089657892870151
0.05702844712611169
-0.06445801415039819
-0.09048525136067083
-0.029189417771338128
-0.06055571756584759
-0.14375060059232483
0.16972797358194106
0.12031506114193734
0.12666659734857438
0.1787025860326839
0.04045240160087802
-0.1374400284241376
-0.19929433703338195
-0.16638735740746713
-0.22602792748203054
0.06795416343052582
0.18318059047186858
0.18941314576903026
0.13884586463001472
0.05258554636103062
-0.08302628578573028
-0.11056196442631575
-0.08959644312237167
-0.08341682666640204
0.05178621458341855
0.07343144908113522
-0.04494888999904122
0.08630002576975314
0.0720965407344728
-0.06813463217052522
-0.10112440424179464
0.018766415425176357
-0.05398343852507779
-0.062360628013591025
0.04452141434890476
0.10205306710922961
0.12261112658084715
0.09261696146331132
-0.024103375256073107
-0.07700117043230627
-0.1162051183568872
-0.18079168299578607
-0.09191518628922699
0.14710383702001295
0.14456944759896806
0.11154870734421449
0.05472294358221767
-0.026013592429081994
-0.13486353665832704
-0.07452104943274794
-0.04098790657074452
-0.021611281607177485
0.002573226737864677
0.05106962051936564
0.13703347684902142
0.062110856839363515
0.015312939507292164
-0.02328330741956064
-0.07520022857219322
-0.15538455876540685
-0.06649341278626195
0.0019247019729861092
0.0689053789821132
0.15405247123753524
0.06941025294596938
0.014580874810505379
-0.023097852639380675
-0.06374227245152014
-0.12775866919054615
-0.029304612871080035
0.027254441430380843
0.04705749680226619
0.04146225659833329
0.02358325632856771
0.0044577691716382074
-0.009092379774834975
-0.01474136240052343
-0.013584213526716765
-0.008476079995217996
-0.0024784143960129307
0.0021688466489296378
0.004439898601763113
0.004403959026468731
0.002826197806057056
0.0007145667104525082
-0.0010376249452202333
-0.0018576361450757361
-0.00156379370934473
-0.00034723518132893265
0.0012962749008081785
0.002673622021100113
0.0030538181048844074
0.001892498146219529
-0.0008981748462097851
-0.004709431780739445
-0.008154353471438665
-0.009289926583801997
-0.006235428894854769
0.0018523835396061167
0.01367412369476371
0.024954284197586777
0.028344273491304882
0.014383232312788924
-0.026545156533765307
-0.10184104244064425
-0.014856513926638094
0.035568385881275005
0.05409731640352346
0.047221505033295974
0.02214724689775695
-0.012909639991305517
-0.04712760264539097
-0.06522407077751671
-0.04680218251768484
0.03197241854168009
-0.005808939313658005
0.05646931980843721
0.023387097864892927
0.08395969733714634
0.011500596036947187
-0.03273269442946097
-0.09290026537706837
-0.010699421039329346
-0.018249821387569694
0.06682393928057201
0.0436556894707178
-0.07201826741691184
-0.050151196522574146
-0.05084841885647472
-0.031063590028845275
0.04706824264516771
0.2079680996633602
0.05695682635112706
-0.020499496032492123
-0.05392246278522183
-0.07884515759381937
-0.12688371610335333
-0.01822002910238242
0.041344694109272974
0.05855307000200727
0.047630489739209525
0.02438881775996623
0.0015799690259198015
-0.01342909932316511
-0.018679390152125493
-0.016089903301685485
-0.00936060303980617
-0.0021323896074825315
0.003138272330584331
0.005513115673226919
0.005306500988274421
0.0035259306664774245
0.0013020012642817429
-0.0005103156002142971
-0.0014976676906421254
-0.0016553901286213168
-0.0012390633237962046
-0.0005893386969038349
5.482034947394081e-06
0.00038010171012305637
0.0004985906230762042
0.0004180778049445834
0.0002367607776881854
4.820341988309465e-05
-8.613682658918173e-05
-0.00014428069431500717
-0.00013608136454407117
-8.846070000915825e-05
-3.074534895009039e-05
1.536131947850336e-05
3.97469330139202e-05
4.2785966260120776e-05
3.1370825666936175e-05
1.4368143750027688e-05
-8.71408405974244e-07
-1.0247998868219617e-05
-1.2995669781162854e-05
-1.0694451702682151e-05
-5.913573813556678e-06
-1.045467772732153e-06
2.3746000338208564e-06
3.828500722675884e-06
3.596129579186047e-06
2.3664295491532493e-06
8.656086164159572e-07
-3.8342130362553636e-07
-1.1396970818219368e-06
-1.3947852618228658e-06
-1.2615508362596006e-06
-8.682002906577796e-07
-3.0292536825795447e-07
3.778125816215236e-07
1.0958103646764577e-06
1.692766855029537e-06
1.9135769138495687e-06
1.4654831823375968e-06
1.573018466734255e-07
-1.918637061943237e-06
-4.240067947707378e-06
-5.844679812018919e-06
-5.542556266517586e-06
-2.3733941209247705e-06
3.7790740581317146e-06
1.1631295547545033e-05
1.831361622700251e-05
1.986093102507044e-05
1.2531048555661476e-05
-5.219677477038202e-06
-3.0696909957187846e-05
-5.5834141809382895e-05
-6.80486544504466e-05
-5.382096007859511e-05
-4.814229051320361e-06
7.500815431046844e-05
0.00016419553144431811
0.00022423034859575191
0.00020860351222385596
8.10957011614367e-05
-0.00016040142985456786
-0.0004630480544158545
-0.0007132032424319425
-0.0007571360382679969
-0.0004535077144561075
0.0002498074512441963
0.0012383124367144407
0.0021907267897692275
0.0026175371851785605
0.002005019064518994
5.5057849807550066e-05
-0.0030417503761912762
-0.006415059169168488
-0.008548025111821128
-0.007650029789894042
-0.002385567692716732
0.007185989484709702
0.018786316941155283
0.02765712623430936
0.027273837128563447
0.011180175905855273
-0.02440178966111356
-0.07811919612943169
-0.14252584252132652
-0.00576077477514822
0.14401754382027374
0.11296101971667208
0.09741318345399644
0.08396357008011841
-0.14552898551814283
-0.20576064204685465
-0.10044229085294261
-0.019295408642055416
0.05852037303549865
0.15573945901040614
0.08675430888230143
0.05015850763970052
0.027175001191670583
-0.013296601652954307
-0.10470669855089274
-0.0713163987005476
-0.1189590155837136
-0.031223988998203955
0.027600470689901464
0.1037471231827946
0.04219039007608755
0.07555521450818381
0.016930500570062852
0.05836468813552141
-0.024957176615914595
-0.06647816511996275
-0.09876626325723566
-0.14595530952779795
-0.020716735045155976
0.07337993113694145
0.13560547651250474
0.16133514686483386
0.1387138092849279
-0.1489063350711891
-0.11528677058163969
-0.1617888629472561
-0.07069581388707322
-0.004980505415396557
0.08461518922113456
0.047312129054709176
0.1189097082465295
0.11170446566582273
0.010994980837788168
-0.020659939010785486
-0.03269723149004024
-0.07259687102254897
-0.17299037494783534
-0.1438400827190945
0.02781148621115247
0.17058360407682438
0.11691409653159288
0.09138179343289567
0.10368524556301145
-0.05145511115899365
-0.18826162594096887
-0.12107247086804554
-0.05704135748674448
0.0063753483925322214
0.07843701162720915
0.16863830353890172
0.08026227204404046
0.007242304415396701
-0.06422746412748594
-0.15035731377327363
-0.0635395186057375
-0.008327857361708262
0.018615984436869796
0.0249219175910783
0.2173158033849036
-0.0024438977762556297
-0.03841733212564238
-0.09773084583519007
0.014304801857312088
-0.10125775069675233
-0.03494880131579352
0.029708034674467778
0.11179859321427271
0.027295990509487125
-0.0158848111352271
-0.020473454780777573
0.00043782278042123885
0.026161059918161103
0.03292569643144528
-0.0006485286317978787
-0.08803747408617889
-0.03045830197644999
-0.01498065034917626
-0.015985974288352432
5.1601056080527364e-05
0.06748453761358275
0.013820047664947842
0.053347246787449135
-0.01641105800083885
-0.014672776530846865
0.02607726878170901
0.06622199751680391
-0.13336121384466237
-0.0035952337952684793
0.039046801871308816
-0.0039923600592271825
-0.11346810729819587
-0.05625790823735469
0.00723279851602979
0.11337441467864291
0.0856600146067414
0.1281368927847944
0.02446974909038864
-0.05660369896274367
-0.15105410843253758
-0.08812531101609512
-0.08172771237389052
0.07250115372564826
-0.006059414337917304
0.1092894532689812
0.04348704044373623
0.012330348075695274
0.018879019521066655
0.05429992195316263
-0.09756912581431591
-0.0536664307941207
-0.025385205162382074
-0.014515690880252001
-0.012617277159254939
-0.0038109089908759455
0.030039980965531208
0.1034298166241681
0.022443192512912637
-0.017415728219240416
-0.030281374047931704
-0.036498825662774494
-0.058079961979024944
0.0855769959517659
-0.019101627432638997
0.022146258567353305
0.012426333575457423
-0.036244342274279084
-0.1040817044409388
0.03368040750143789
0.0022433490201943067
0.021575358687505423
0.10108065987101546
0.036411318075913204
0.009830804433426585
-0.005513126390414111
-0.03838328817150173
-0.1113911777148176
-0.034579121068101945
-0.002708282651471455
0.002872331895592599
0.00838735312729049
0.03964742811874818
0.11432055271509019
0.03678557891451841
-0.002853827146219645
-0.025339864002825924
-0.05567647842332264
-0.11573507724312276
-0.0185765978215824
0.033781390301858824
0.04887356752402753
0.0397310931158771
0.0201594100894475
0.0010460164250524068
-0.011424986689371523
-0.0156754840912343
-0.013380239305512975
-0.007677302746783431
-0.0016213325687660096
0.002749009733100643
0.0046757559308342085
0.004446693542755899
0.002919943075545537
0.0010454957356196585
-0.00046576562573144456
-0.0012765589578603153
-0.0013915360601974838
-0.0010304515087134014
-0.00048073757653576755
1.693493791624331e-05
0.00032651250004257684
0.0004205565550556022
0.00034890914142363496
0.0001947699312341571
3.6502877851624363e-05
-7.502259302788974e-05
-0.00012219555567851591
-0.00011394011587257226
-7.318711071467186e-05
-2.4579432659022785e-05
1.3841083523361975e-05
3.383527709325609e-05
3.593570858973004e-05
2.6059083319291535e-05
1.168388458363796e-05
-1.0551887566873128e-06
-8.786658193926825e-06
-1.0938755249826907e-05
-8.889489025530086e-06
-4.82087065414134e-06
-7.432282994934e-07
2.068611572470991e-06
3.202726137606572e-06
2.9216331483334075e-06
1.8327353750368448e-06
5.722541285929183e-07
-4.0374461139735934e-07
-8.953990703336837e-07
-9.272797823822918e-07
-6.583025935356621e-07
-2.828348486392335e-07
4.293323676048586e-08
2.3567166844969247e-07
2.8413634638050163e-07
2.262009077559665e-07
1.1900772693199452e-07
1.4072814180620204e-08
-5.671183760026905e-08
-8.381584481091994e-08
-7.48296968434018e-08
-4.581001649761713e-08
-1.3163415388818649e-08
1.1598040973970829e-08
2.3649010271975568e-08
2.3899763461872702e-08
1.6605870950396273e-08
6.812609097827383e-09
-1.5083132709363654e-09
-6.3029546993946815e-09
-7.371290579289126e-09
-5.748714157900865e-09
-2.9294536126648444e-09
-2.3212154050890525e-10
1.546965100914402e-09
2.190277889864205e-09
1.9143412454510412e-09
1.1428038571318503e-09
2.9826557611284266e-10
-3.2911473234873023e-10
-6.234576435688587e-10
-6.152912446141608e-10
-4.182619176584943e-10
-1.6317041247603274e-10
4.91152553760307e-11
1.681198647387172e-10
1.909931334231963e-10
1.4590775546050964e-10
7.188097329348315e-11
2.625310378582141e-12
-4.201557163582596e-11
-5.716113762265999e-11
-4.892057732736938e-11
-2.8451909228463223e-11
-6.628656451159373e-12
9.246071968102195e-12
1.6405528944817665e-11
1.58162660815861e-11
1.0506225570382753e-11
3.8643446357887615e-12
-1.5479006752314132e-12
-4.490858598038731e-12
