0
-3.4352736741154844e-06
-3.435273674155336e-06
-3.435273674235421e-06
-3.4352736743396246e-06
-3.4352736744305925e-06
-3.4352736744558125e-06
-3.435273674364692e-06
-3.435273674134611e-06
-3.4352736737982994e-06
-3.4352736734598386e-06
-3.4352736732847806e-06
-3.4352736734542422e-06
-3.4352736740846783e-06
-3.435273675132963e-06
-3.4352736763250143e-06
-3.435273677156814e-06
-3.435273677009334e-06
-3.435273675386852e-06
-3.4352736722328195e-06
-3.4352736682126427e-06
-3.4352736648048017e-06
-3.4352736640441627e-06
-3.4352736678421e-06
-3.43527367697286e-06
-3.43527369003197e-06
-3.4352737028637962e-06
-3.435273709012655e-06
-3.4352737015692736e-06
-3.4352736763125308e-06
-3.4352736353499886e-06
-3.4352735897526114e-06
-3.4352735593014263e-06
-3.43527356779466e-06
-3.4352736336512374e-06
-3.435273757711283e-06
-3.4352739126188137e-06
-3.4352740399373727e-06
-3.4352740609085295e-06
-3.4352739034699816e-06
-3.435273541655831e-06
-3.435273035148838e-06
-3.4352725495807925e-06
-3.435272336402208e-06
-3.435272658774714e-06
-3.435273668677639e-06
-3.435275267476135e-06
-3.4352770090660223e-06
-3.4352781180401896e-06
-3.435277680685917e-06
-3.4352750150025107e-06
-3.4352701412966855e-06
-3.4352641798160266e-06
-3.4352594371100652e-06
-3.4352589578864946e-06
-3.4352654529728656e-06
-3.435279769576328e-06
-3.4352993920612548e-06
-3.4353177298027583e-06
-3.4353249999182753e-06
-3.4353111955674566e-06
-3.43527088751585e-06
-3.4352085567462465e-06
-3.435142138344864e-06
-3.435101991938287e-06
-3.4351231514971547e-06
-3.4352307730826195e-06
-3.4354220040300175e-06
-3.4356511316621014e-06
-3.4358272340608272e-06
-3.4358327472230218e-06
-3.4355659388802507e-06
-3.4350002332689622e-06
-3.434240931322452e-06
-3.433549861748687e-06
-3.4333072005797603e-06
-3.433892805857574e-06
-3.4354988320045032e-06
-3.437926083576844e-06
-3.44045503086591e-06
-3.441898389291045e-06
-3.440914735741089e-06
-3.4365801198752957e-06
-3.4290857180495662e-06
-3.420290872175825e-06
-3.413775026684398e-06
-3.414072113022547e-06
-3.4249901583570366e-06
-3.447313282118829e-06
-3.4766600976911383e-06
-3.5026447208312787e-06
-3.510509928692404e-06
-3.4858625313516467e-06
-3.4219778975980296e-06
-3.327565046540684e-06
-3.231432851170468e-06
-3.179959071916095e-06
-3.2244320666520926e-06
-3.3986252037495814e-06
-3.69198647967223e-06
-4.029110921503905e-06
-4.269258876663513e-06
-4.23779283981852e-06
-3.7925666765140674e-06
-2.9128368625851104e-06
-1.7799511147643183e-06
-8.052769082859607e-07
-5.609825872362335e-07
-1.5913960478204267e-06
-4.12859043896418e-06
-7.796771887007651e-06
-1.144465277060901e-05
-1.3262706852339028e-05
-1.1292874996986502e-05
-4.307319511170356e-06
7.162632094104978e-06
2.006726192918556e-05
2.8879668473899995e-05
2.6881693316160097e-05
8.78331315946792e-06
-2.5841404344072007e-05
-6.952112778971567e-05
-0.00010598547106956157
-0.00011307613893498362
-7.024951829382825e-05
3.0361632048192958e-05
0.00017271290499256051
0.0003108754595272467
0.00037432359302616835
0.0002884126091801927
8.772128320466681e-06
-0.0004392571401010464
-0.0009326487238196556
-0.001254611765646535
-0.001146977638823364
-0.00041334222259622804
0.0009484489564194009
0.0026328045619651596
0.003998947187777668
0.004193154702204517
0.0024474838160094725
-0.0014897427544580204
-0.006927690281943947
-0.012024917522150302
-0.014032396245354937
-0.010138450437433607
0.0011332938619195436
0.018306216809925238
0.03572133494912144
0.04342643011260832
0.02873771332836937
-0.02051397514776271
-0.11183841127994067
-0.04453031988673042
-0.008308123147699164
0.01497640050674751
0.046966574426179755
0.10732465018758901
0.009120652509502593
-0.043451768632314924
-0.054724504769422005
-0.03541313412121253
-3.4352747161898588e-06
0.03540626357194938
0.05471763422072621
0.04344489808470367
-0.009127523055492297
-0.10733152073167755
-0.04697344496871894
-0.014983271049013607
0.008301252603522666
0.04452344933806058
0.11183154072483775
0.020507104586278614
-0.028744583893028974
-0.043433300673807684
-0.035728205498059766
-0.018313087338712966
-0.0011401643680006702
0.01013157994691663
0.01402552575144466
0.012018046996553872
0.006920819695555286
0.0014828720912308233
-0.0024543545435710165
-0.0042000254426346586
-0.004005817853395918
-0.002639675051065406
-0.0009553191952515919
0.0004064722272539383
0.001140107756262886
0.0012477417337119006
0.0009257782018054447
0.00043238583106487444
-1.5644305817276306e-05
-0.00029528535585255625
-0.0003811961553742986
-0.0003177467375347563
-0.00017958179310592178
-3.7227560799983655e-05
6.33859904792449e-05
0.00010621294627981136
9.911918358173098e-05
6.264784979450412e-05
1.895842404777717e-05
-1.5675500086609538e-05
-3.377776630416487e-05
-3.576930360612291e-05
-2.69373156621338e-05
-1.4001982039626205e-05
-2.498879872948844e-06
4.507355922375681e-06
6.467968075501416e-06
4.597983026043723e-06
8.562615076546739e-07
-2.925749514392384e-06
-5.552267302159882e-06
-6.589253617598e-06
-6.217511406229827e-06
-4.966387443920977e-06
-3.4578043193529907e-06
-2.2306737175877557e-06
-1.6539730959739211e-06
-1.8970823050595355e-06
-2.9182232915306456e-06
-4.451811338013646e-06
-6.008619426150478e-06
-6.929471784566525e-06
-6.535889410269025e-06
-4.3898823637053825e-06
-6.134925453528236e-07
3.853606938148886e-06
7.229573722641777e-06
7.2578357034534115e-06
2.022998712223099e-06
-8.920591094326581e-06
-2.3480800739856832e-05
-3.658341679521589e-05
-4.0935898100523244e-05
-2.9327206401502496e-05
1.775906360063719e-06
4.835512180122702e-05
9.64375662454822e-05
0.00012320243378043162
0.00010308996410235902
1.8806470929628392e-05
-0.00012535582257962132
-0.0002931047390577221
-0.00041545887048062796
-0.0004057675238438791
-0.00019215613399062287
0.00023847789987453075
0.0007998957761242913
0.0012913540983205368
0.0014300619126267884
0.0009428918150532012
-0.0002934798994284422
-0.0021049951223961554
-0.003933670338440013
-0.004890252868988659
-0.004001032690650907
-0.0006399595929179915
0.004959387333451508
0.011318432082425356
0.015719803912865298
0.014833212735221772
0.006020678712046471
-0.010911003422372518
-0.03208364553261959
-0.04886861841973495
-0.04895714849258295
-0.01955321329150494
0.04777860186819706
0.15209829155057591
0.08009265852005015
0.007050403202880833
-0.0976223730966838
-0.06178805698373309
-0.10183737486350597
-0.01699111206206673
0.011351992928758037
0.015064547423398779
0.031078126854865634
0.09204380085735872
0.01854059999088186
0.014908232997436141
0.06966699038627404
-0.03983561618123793
-0.14012709064107906
-0.05404842857475563
0.004632016614419283
0.03292416736399982
0.03669492585751552
0.026499177639684915
0.01301163968453603
0.0035608517603482157
0.00054017231982563
0.001768761583741492
0.0023882996812832143
-0.0023851189173482615
-0.014456648393931841
-0.030836622504576423
-0.043190792243584394
-0.03948236836394268
-0.007694363390373398
0.05919166747144998
0.15864962249390294
0.07663077963644854
-0.01022550862644476
-0.12819284399599917
-0.09794907308133824
-0.12736965266404343
-0.008728735880766059
0.07846391562792975
0.16026374043623004
0.05985993960604763
-0.008688654178567914
-0.04252542227145357
-0.047958975129187315
-0.036024243354957894
-0.017823202516611403
-0.0012970854510353925
0.00989430982354129
0.015623228616325653
0.017484045143804604
0.01690314333766714
0.013987504703701206
0.007557556091799392
-0.0036552097236734293
-0.019115651139556496
-0.03470069533516697
-0.04193625016364847
-0.028957773922375293
0.016666261565708867
0.10390984913524924
0.034436773473133994
0.0004646283326714966
-0.014711769311363213
-0.03369014581647562
-0.0805312738415067
0.023640748938119516
0.06396191736054518
0.0337855833545308
-0.06444781886410704
-0.019159731055543704
-0.010528115824741184
-0.012664643995951675
0.002860167689166183
0.06261594845086763
-0.013067401675924122
-0.013474730830207855
0.06085040495422914
-0.0015110710149409345
-0.020579320034058622
-0.021351850317518628
-0.02971806168612687
-0.06890233723414585
0.04288181950473599
0.0935514445154748
0.07773232580531811
-0.0023194578505056763
-0.13523649720922026
-0.09950933222060065
-0.06472624748042359
0.0035668616435889206
0.13575730359735871
0.1491874348785508
0.041755436281062756
-0.00906081611202551
-0.04094620785747251
-0.09683036365069483
-0.01344772945166832
-0.011743940118687839
-0.0916445974201658
-0.03237485118527447
0.001850910661717158
0.05226595397431714
0.15478557074474053
0.13133020765369804
-0.01396101468246197
-0.09259529669724469
-0.12506862194618035
-0.13292315471675736
0.06706301945642437
0.06467919050994768
0.054454540514479115
0.032171886560208765
-0.008105463762590137
-0.07522610968302837
0.01977290956580542
0.06579699029841563
0.054690700742939205
-0.015323662321678987
-0.13646478514526983
-0.08979189023508585
-0.04675881317199998
0.025322204182588976
0.15492976351375265
0.15790278349078296
0.0323756222096826
-0.04057505333037616
-0.09063971172217078
-0.14886672569626827
-0.03884752163617178
0.02839540756400913
0.054626418503492105
0.050654534204715225
0.030848295893201406
0.00817304470170755
-0.008829014431871065
-0.016790050850767478
-0.016514782460418407
-0.011123390928254935
-0.004195778928390788
0.0015257212825220295
0.004687011032891493
0.005234319527883957
0.003952162191061603
0.0019096193202510566
2.1551110362814693e-05
-0.0011806319084113393
-0.001574201560059608
-0.001333481970056847
-0.000766493734992391
-0.00016984993208285935
0.0002595266181471332
0.0004491900539151958
0.00042804528019579696
0.00028011325153739586
9.809025131237166e-05
-4.874231456254927e-05
-0.00012752157168483436
-0.0001386751228152562
-0.00010356116932096925
-5.012135721820616e-05
-1.7499562306998487e-06
2.8331020273433343e-05
3.745891023519522e-05
3.048265149417214e-05
1.5492040778048978e-05
1.0488726734036465e-07
-1.0735071741705497e-05
-1.5317671370107073e-05
-1.4512026713048067e-05
-1.0548251525106744e-05
-5.822210342965081e-06
-2.0875534103202326e-06
-1.4474449205113676e-07
5.847559528279978e-08
-9.023788206931121e-07
-2.3001695489012618e-06
-3.5385602271833264e-06
-4.289930685913203e-06
-4.498848192014263e-06
-4.2993888939713165e-06
-3.9037302173399256e-06
-3.507304992706006e-06
-3.2340101825820956e-06
-3.1238450154198873e-06
-3.1512505947769905e-06
-3.257156767529291e-06
-3.3797090803340206e-06
-3.4745791323973595e-06
-3.522350655886415e-06
-3.5254247406526432e-06
-3.49925844439977e-06
-3.462749939555285e-06
-3.4310817958646574e-06
-3.4123512668121582e-06
-3.4076475224282535e-06
-3.413285815643554e-06
-3.4237097544372375e-06
-3.4339113083736785e-06
-3.4407910475619144e-06
-3.4434236685516923e-06
-3.4425480551013433e-06
-3.4397256840679044e-06
-3.4365516107856716e-06
-3.434144758303314e-06
-3.4329738737523507e-06
-3.43295014554316e-06
-3.4336596668041437e-06
-3.434611896943986e-06
-3.4354207692062365e-06
-3.4358867067889386e-06
-3.435990365274889e-06
-3.4358324721877396e-06
-3.4355583197352033e-06
-3.4352960921910434e-06
-3.4351231781358767e-06
-3.4350606944919045e-06
-3.435087568684547e-06
-3.4351626045908703e-06
-3.4352447191311206e-06
-3.435305710828826e-06
-3.4353343214399297e-06
-3.435333522116627e-06
-3.43531435936103e-06
-3.4352895441405703e-06
-3.435268878484551e-06
-3.435257271275004e-06
-3.4352550105298916e-06
-3.4352593767661167e-06
-3.4352665989193367e-06
-3.4352734138567145e-06
-3.435277886583189e-06
-3.4352795074669276e-06
-3.435278806334703e-06
-3.4352767900065626e-06
-3.4352744545332062e-06
-3.4352725059136462e-06
-3.435271301415009e-06
-3.4352709377090973e-06
-3.4352713787928035e-06
-3.4352725331749015e-06
-3.435274240207943e-06
-3.4352761877093508e-06
-3.4352778342839142e-06
-3.4352784302660393e-06
-3.4352772080929465e-06
-3.4352737447115907e-06
-3.435268399618925e-06
-3.4352626344580167e-06
-3.4352589698921274e-06
-3.4352603806491104e-06
-3.4352690991930293e-06
-3.435285078483936e-06
-3.4353046799933936e-06
-3.4353203702092755e-06
-3.435322164284048e-06
-3.4353011206456875e-06
-3.4352543540040367e-06
-3.435189975770323e-06
-3.435129483151988e-06
-3.435104937327952e-06
-3.4351492961936453e-06
-3.43528069265911e-06
-3.4354848927302705e-06
-3.4357035224188792e-06
-3.4358372143430787e-06
-3.4357707834092726e-06
-3.4354208109261755e-06
-3.4347951932558983e-06
-3.4340422527460662e-06
-3.433459149641473e-06
-3.433431826363711e-06
-3.4342963399638734e-06
-3.4361442919585684e-06
-3.438635795755474e-06
-3.440916529874047e-06
-3.441740169321404e-06
-3.4398550665412754e-06
-3.434617997063166e-06
-3.4266643000388337e-06
-3.4183368893597165e-06
-3.413522751753723e-06
-3.4166335956906195e-06
-3.430736244741809e-06
-3.4552606374040093e-06
-3.484169803104605e-06
-3.5057618293073284e-06
-3.5051486722061535e-06
-3.46974393030853e-06
-3.3968016000651323e-06
-3.3004810291004552e-06
-3.2146813180229073e-06
-3.187792782088025e-06
-3.267260460342124e-06
-3.4756536565948713e-06
-3.7851047219686182e-06
-4.101767576308138e-06
-4.273770863128609e-06
-4.132383290033866e-06
-3.5653814965615015e-06
-2.605154754409317e-06
-1.4966805911142592e-06
-7.001881546566374e-07
-7.892875040891809e-07
-2.234093775806864e-06
-5.109474100703744e-06
-8.828737498442796e-06
-1.2048778169543008e-05
-1.2892936169566716e-05
-9.566158590585847e-06
-1.2870017741155247e-06
1.073892908161661e-05
2.275978050744003e-05
2.8848513308546224e-05
2.2561313491441563e-05
-1.867273861872454e-07
-3.773931116504002e-05
-8.018281668101139e-05
-0.00010943912449423723
-0.00010343596255299455
-4.466629783203965e-05
6.853386327794944e-05
0.00021196924330128963
0.0003324989487054799
0.000357423194493681
0.00021895679016897484
-0.00010951468260546823
-0.0005764239663755973
-0.001032055890787446
-0.0012453533955528247
-0.000970545592697542
-5.965749059210062e-05
0.0014079567446372483
0.003033084511969462
0.004108320119719212
0.003788807518115233
0.001430414540462398
-0.002974069787994103
-0.008419105876751914
-0.012792560589872298
-0.013277517038673227
-0.007348067530873523
0.005768880884536178
0.023581173559155053
0.03942285592792118
0.04284674106573507
0.021729673008900982
-0.034143527458137535
-0.12909320734636034
-0.05886147196684507
-0.010840595034100285
0.03224242008285416
0.08628213057741886
0.15984808593810143
0.051085965781145236
-0.05085148741247762
-0.16024335230819622
-0.08760161538728788
-0.03421155864659077
0.009104719734020978
0.05862970494627553
0.13153920742164263
0.03968630385646914
-0.014045770882475238
-0.03563006233683505
-0.03655581205387061
-0.029003426942299376
-0.021540545586075745
-0.016835176541097546
-0.012028260536131243
-0.001548094961493603
0.0185623991643443
0.046237228286321236
0.07055073512477346
0.07191749590013012
0.026062068963163838
-0.08877573436732723
-0.08342353549026382
-0.15123668982318977
-0.06648024882369702
0.010759043322929714
0.12395159245527945
0.10707338138920483
0.1737739792314923
0.1129814755660557
-0.10704750926723071
-0.12745026659245784
-0.1844241176517003
-0.09731245939460598
-0.06353574965512897
0.13814885061703872
0.13804766637037902
0.1640476314511885
0.033109872644289745
-0.051180040550987266
-0.09493966202566854
-0.1068664758638507
-0.09157032872609186
-0.04664925791455244
0.03519359190516487
0.1601530425529504
0.1265498175150903
0.12096051042809043
-0.08028289235981365
-0.10433580699833485
-0.17265447557266278
-0.09362225328899954
-0.06055123912976916
0.1438465748787798
0.13849659435133027
0.13469459169997344
0.13098197324500782
-0.08526112609573822
-0.1301011214168445
-0.21283309814208456
-0.1282984080832462
-0.055790488960270695
0.23446919901100371
0.17004101486744
0.16541879873176935
0.016748094889152562
-0.0955043290705304
-0.19739635321464477
-0.11027852187627253
-0.042539129528795974
0.012356600126965996
0.07124722385662655
0.1525798948807993
0.06756609330720098
0.014799723755716684
-0.019783204136951556
-0.05802828153177562
-0.12205997034361354
-0.02718036405656507
0.022328576920008936
0.03341918632260567
0.021014796673257785
0.0027873579234825242
-0.0063337254656447425
0.0013960083657311964
0.024007442539105174
0.04977157133902513
0.059980446149020546
0.0344933652713583
-0.04079971879836534
-0.16652043293085464
-0.12514175455179688
-0.08183411769526978
0.008001018883258427
0.18599912605895277
0.27705994626451813
0.07990172830091419
-0.0339175097233548
-0.11177274938063855
-0.2057352907024922
-0.15794138127911547
0.009057534854405289
0.09417793900602811
0.11266597818588572
0.087386743979864
0.04070182921473518
-0.01014536943954518
-0.05343386662195054
-0.080501571322798
-0.08285861639702756
-0.0512043389250856
0.022514298208816397
0.14063533734891193
0.09513562707230606
0.06564335099461824
0.02210477474752505
-0.06791218707107363
-0.22955537263516518
-0.07236289707113315
0.013247763864658889
0.05312387089477073
0.08131140285372292
0.12999388937195278
0.021118160942521003
-0.03771097892030552
-0.05244131401119467
-0.03810716195651469
-0.01284597426078718
0.0075936680117094655
0.013649959066240317
0.003688005024633429
-0.016189483051053086
-0.03400751561693815
-0.035220483005394876
-0.007079714003563328
0.05672415472811422
0.15251030770172172
0.06580058227185283
-0.025638695247106935
-0.14533266078447538
-0.11050590581197686
-0.1266664816473151
0.013028892237240831
0.12325882869703327
0.219163704658156
0.11004981259975434
-0.0023225854529902857
-0.11984545442653659
-0.2408191306860195
-0.15383031037485628
-0.03702685889476576
0.13560816977698986
0.183221503572541
0.3075157546755121
0.08831057947787957
-0.11163776073189374
-0.3339542382834055
-0.20972875157645987
-0.14950367814275783
0.05697864543074281
0.23135104728272105
0.39257410564633927
0.14573222474229097
-0.12034584598979128
-0.22538969682050294
-0.18405594160282238
-0.1935186678825916
-0.028603300044105412
0.15304864558935038
0.19795880286862985
0.1414109667643108
-0.004273623919122823
-0.053834251507995846
-0.044972767142462663
-0.0283121462640806
-0.054881881613070976
0.035651040854948114
0.023751512905736002
-0.08549037223170977
-0.06277175887151125
-0.060101437650325634
-0.02099707113285823
0.10624942929234774
0.1552385325153815
0.13189624273042813
0.011997557783022157
-0.052935948819709845
-0.12292059903930012
-0.053872004759654035
-0.08374343940825216
-0.024262014658647513
-0.0601409221807516
0.04455446631322446
0.13510729262415644
0.053369406470331865
0.027169197659582617
0.06461979377779678
-0.045725170497652345
-0.12976948882225414
-0.020000722683596275
0.052686685535633035
0.06569860333525533
0.009283238752027505
-0.11120988620419234
-0.0756716551760419
-0.05282311388232575
-0.007295490060818303
0.0908873755127947
0.2571100476933377
0.08675922841836306
-0.04368452659783671
-0.16884476658796735
-0.12277385672216537
-0.1280578850340912
0.010164908969061213
0.1036188300369952
0.17509182624296118
0.05075229315512837
-0.04606107183449741
-0.0979391054838172
-0.09397462501184431
-0.029646331496604547
0.09250725013056138
0.06141107602109224
0.05656424482626891
0.0495001858559867
0.008515968967253098
-0.09394111427371074
-0.07331287588333724
-0.12724836309591378
-0.03470219599094286
0.03918924009122439
0.13361154241595719
0.08100458456187203
0.09817607051942344
-0.01752990851972291
-0.08619075745432975
-0.13881024150132704
-0.00914675501134482
0.07349090530955005
0.08918225586689421
0.030245829987188902
-0.09730995195998843
-0.0736721977271566
-0.06727844649963173
-0.039982048902708386
0.0447652458923507
0.21245749085401622
0.06984690910481063
0.0021105251340105343
-0.02355486324980624
-0.04874298252091869
-0.11195073833507616
-0.03772383743895985
-0.030065892382378903
-0.07190824163532855
0.06937575995145662
0.03211397621062577
0.049023697558020315
0.13775498433844613
0.0961093742950679
-0.09662681599276295
-0.07279881855232556
-0.06647622726284536
-0.10404996316205148
0.0016194779955357804
0.05209948419138094
0.05989231567782445
0.04256258974162991
0.016906286930146598
-0.005025959409634645
-0.01736359417225059
-0.01965839605697401
-0.014870531560658023
-0.007117902774236184
6.456057845626422e-05
0.004623601587765864
0.0060854533413144275
0.005122173990086942
0.002919379516018564
0.0006163402991316998
-0.0010333586364327672
-0.0017558479885841367
-0.0016665889619768125
-0.0010915946250954997
-0.00038854719497386967
0.00017632069703981846
0.00047764023100929154
0.0005182606845545035
0.000381271420976403
0.00017462494992431042
-1.165509649338732e-05
-0.0001269598268017974
-0.00016139992140616025
-0.00013393417339555052
-7.586259598091154e-05
-1.6533695160729045e-05
2.509049140762291e-05
4.25327196010514e-05
3.9235137267837375e-05
2.3842929378868233e-05
5.5976556189770825e-06
-8.763529021858857e-06
-1.618892060557414e-05
-1.6910342625103706e-05
-1.3164945879701691e-05
-7.761129519955478e-06
-2.993013784808602e-06
-1.1394991024648434e-07
6.720724527789475e-07
-1.1135543346393807e-07
-1.6435426778206772e-06
-3.171724163255736e-06
-4.2208452991631805e-06
-4.639703786684096e-06
-4.5291599457199395e-06
-4.11811308687341e-06
-3.645101146382865e-06
-3.2803786143231046e-06
-3.097904727402895e-06
-3.087646614192369e-06
-3.1895548419117707e-06
-3.330657495196281e-06
-3.4525605964513665e-06
-3.524302917841464e-06
-3.5419354923705286e-06
-3.519832446294341e-06
-3.479479420712606e-06
-3.4401620205602432e-06
-3.413760062399992e-06
-3.403763005818921e-06
-3.407263304621345e-06
-3.4182124255727758e-06
-3.430460496339511e-06
-3.439711207816546e-06
-3.4441807680208214e-06
-3.4442313814124625e-06
-3.4414701623062913e-06
-3.437790790546228e-06
-3.4346777746785458e-06
-3.4328938248716336e-06
-3.432507117062185e-06
-3.4331251141068596e-06
-3.434186167976913e-06
-3.435196750344244e-06
-3.435860306129696e-06
-3.4360973586099814e-06
-3.4359905470311246e-06
-3.4356993190034336e-06
-3.4353820354665126e-06
-3.435147058275497e-06
-3.4350374149838526e-06
-3.4350414588820946e-06
-3.4351166069702308e-06
-3.4352139052576912e-06
-3.435295435523507e-06
-3.435341790811088e-06
-3.4353510251145166e-06
-3.435332680820659e-06
-3.4353007255691866e-06
-3.4352681097844074e-06
-3.4352440175043137e-06
-3.4352334464356923e-06
-3.435237954280409e-06
-3.4352563618861573e-06
-3.435284757949079e-06
-3.435315983690999e-06
-3.4353395033742757e-06
-3.43534283735441e-06
-3.435315329118541e-06
-3.4352539359924556e-06
-3.435169256084703e-06
-3.4350886942645947e-06
-3.4350532659340128e-06
-3.4351057176824018e-06
-3.43527068817712e-06
-3.435532074598176e-06
-3.4358172054784176e-06
-3.4359996558767985e-06
-3.43593020744676e-06
-3.435497069460472e-06
-3.434702672491631e-06
-3.433728792536612e-06
-3.4329511128325657e-06
-3.4328666763183912e-06
-3.433919406243011e-06
-3.4362505127247626e-06
-3.4394531941536747e-06
-3.4424550209651237e-06
-3.443660083274229e-06
-3.4414316295221594e-06
-3.4348749766373586e-06
-3.4247091456829237e-06
-3.413849162028483e-06
-3.4072441102732226e-06
-3.410618768669903e-06
-3.428102571475308e-06
-3.4592685608995045e-06
-3.496699127934417e-06
-3.525583955182871e-06
-3.5267278564996523e-06
-3.4834654046794895e-06
-3.391342311948902e-06
-3.2673983091593798e-06
-3.1542454466968274e-06
-3.1139110563671234e-06
-3.2085387682038053e-06
-3.4698304852097154e-06
-3.865753778238268e-06
-4.27933467680434e-06
-4.517001898637844e-06
-4.359522898670972e-06
-3.6551511241311735e-06
-2.4335804807499547e-06
-9.966252950596424e-07
7.257223080098338e-08
3.3633844743032904e-08
-1.7374473565704256e-06
-5.373239257305775e-06
-1.0164292358116082e-05
-1.4420036542091712e-05
-1.5732452296637044e-05
-1.174635705849843e-05
-1.3507503667767423e-06
1.4051503622374103e-05
2.9775909966865438e-05
3.826019033328561e-05
3.1120761060195726e-05
2.807608413615634e-06
-4.501587296451742e-05
-0.00010010576012782846
-0.00013953040827267615
-0.00013476820312865168
-6.251915879579954e-05
8.07812118928969e-05
0.00026574941099808
0.0004254094037207989
0.0004663778635757841
0.0002995550556805425
-0.00011348136844196778
-0.0007121268015910145
-0.0013091313095113365
-0.0016093444000651314
-0.0012924717449095018
-0.00015616955701499617
0.001716098511459556
0.003830914961461549
0.00529119904143582
0.005005744597872583
0.0021168353317213497
-0.003438461588176438
-0.010433618790369512
-0.01621072504688247
-0.017174760299396755
-0.010068308890360185
0.006112349997485633
0.02806644475737373
0.04682640249474329
0.04798868448043683
0.014128778200324071
-0.0707391523033142
-0.01571985159962557
-0.018353626787439042
-0.06250945153417772
-0.12012187151253016
0.04294612185155342
0.057929772739279184
0.1434995419870174
0.09874154195120675
0.10180137657108244
-0.08454143812537766
-0.10171881825249447
-0.18236621553703042
-0.14018218774852303
0.0336345225459456
0.16636498886845186
0.09431685768073025
0.05208739079887896
0.06457565928192546
-0.056117038880776966
-0.10920971319650025
-0.10133510636875606
-0.04289723415674762
0.053504992199528666
0.17261747065985567
0.09575756672551257
0.0018887981378349979
-0.12851417480072785
-0.10800943020851426
-0.13794587451173881
-0.00816400382223438
0.09845228720724411
0.1982399901908413
0.09939353891909074
-0.0014095307161238603
-0.11668219246872485
-0.06118210646150936
-0.04350646607896104
-0.059778095156840655
-0.09185623730861092
0.08931041873283027
0.11640181092512747
0.01709086608608175
0.007026438042461302
0.08664119473411852
0.04250681928253243
-0.14758568487051626
-0.10789562824109257
-0.05908366214064757
-0.015941317353380124
0.010851501282694551
0.21045114982231958
0.16813480753796467
0.0653062749828542
-0.11536760125409593
-0.18131816614394208
-0.3223356857121791
-0.10884275244709621
0.10093808410233286
0.346477263882345
0.24905704409702561
0.20222747626264603
-0.02596850263277089
-0.27893815649717985
-0.39135719436463784
-0.171792155116769
0.004011757996882679
0.18622117361331034
0.23359610980718828
0.1932307076512242
0.08531242775190984
-0.10213646680898973
-0.20820639309755962
-0.08736440592469877
0.003774667520170222
0.017092789728805027
0.11951776779908194
0.09620362552605881
-0.04816519846751249
-0.08921194961205373
-0.18456296078860598
-0.07899722378713704
0.08599970667640995
0.15943593920352644
0.16827962331300195
0.10968678735512033
-0.048773240828414985
-0.1606579650574353
-0.08691373045105846
-0.08157610547446924
0.018780057433146466
-0.00043300399120424103
0.06682029654104193
0.04178528899466076
-0.04609926873200823
0.034321390958105644
0.11139124646223927
0.00873322955311484
-0.0541309829929129
-0.05965125452810142
-0.1905159760909866
-0.030374934143166943
0.03202062505740743
0.19642401803870718
0.24572001912971972
0.1455287235588606
-0.14894334700542297
-0.2801958774441389
-0.2750045963488474
-0.13678698119669658
0.15196912851998298
0.21785550895539435
0.2807685973677725
0.1418014806691756
-0.019352456975298735
-0.23620517373978678
-0.14019245086834187
-0.14497338706890034
-0.03672988774139892
0.02601683925931434
0.10340700863564457
0.0595083037328791
0.14672988818039798
-0.006102286134629236
0.0007950264549060307
-0.06029376500941583
-0.03746440948151719
0.011031399272032186
0.027634924958937532
-0.03494106229815896
-0.00670625676011457
-0.09693920005520855
-0.09501845302211363
0.02432214623122613
0.09234291222932534
0.13673105576875083
0.17450254147804545
0.010263765969559392
-0.15936941692461973
-0.13728161155319585
-0.11755134073144875
-0.08174319012418463
-0.002208376717136724
0.14835858350525696
0.18476493180032516
0.0996906709613151
0.06108119910540478
0.01850553542294462
-0.08302526758231998
-0.2863121501612838
-0.20837125539485224
-0.03541288789300607
0.07117873580766804
0.15985174094069543
0.2707383234239756
0.2216971274153785
0.004263781664230263
-0.2089251983628388
-0.24864140862444434
-0.1323858276639505
-0.05363410319511869
0.018850479207723887
0.13191169948792011
0.1331137506903661
0.05581419879903507
0.10943040894861379
0.07796539313738216
-0.0730493875516605
-0.1838561173498509
-0.0867106741043992
-0.19627760426953164
-0.10796780756777787
0.19508222939198694
0.3293929132112064
0.09863422776454653
0.08716299836083538
-0.1373186633386836
-0.213373650080623
-0.17269015166896387
-0.030070814221504663
0.019575799093991462
0.19699849529530583
0.13017235967088395
0.04609819505344202
-0.0337388027915293
-0.09338981282157256
-0.11969617632077321
-0.09984634004064075
-0.021816538203091214
0.1216432561085492
0.1271961463099423
0.17662968462804532
0.037372298867571166
-0.1308531035738566
-0.16487685496555562
-0.08651021940853497
-0.09516456388408416
0.03238680808575267
0.1350594196769455
0.05597963898140944
0.030510231538577
0.07749881363483146
-0.004065877323349825
-0.03271246153152232
-0.037815474708133234
-0.05098257720592418
-0.09814944141386478
0.005511706191702826
0.056937044229217616
0.06325043092154219
0.03812641237212559
-0.0018136480577843335
-0.039525646349668965
-0.059014160493933605
-0.04652681514778524
0.0077514831605311795
0.10743249983204509
0.04794744517357426
0.016191490393259716
-0.0073054438881212215
-0.04391709639830224
-0.11157146735482015
-0.020449674957429297
0.02871749474025536
0.04333455829301382
0.03546090362448523
0.01774196181117635
0.00021158587937898006
-0.011271213999587089
-0.01497476118368186
-0.01218368826294074
-0.0057236913441142704
0.0013248132172602426
0.006459295873105834
0.008143729830772705
0.005920129860170719
0.00041758008972759544
-0.006675130096997034
-0.012754827144908778
-0.014745290498902552
-0.009985803885948582
0.002457061871551441
0.02035964854539472
0.03737356101174776
0.04321016621362822
0.02546228834168561
-0.027027361358738115
-0.12015238113739266
-0.051450049698162054
-0.009510816374609389
0.023418310747512584
0.06640074872306773
0.13436046729879203
0.03457846933233908
-0.03329652517835223
-0.07380933224058359
-0.09065376269185865
-0.0827443618884698
-0.04369742727271416
0.034554580793355986
0.15533150755702355
0.11092435062027492
0.07987945245445136
0.030103945567939074
-0.07236779738862233
-0.2517759005970677
-0.11276315861882308
-0.03665415709205401
0.013880960734266014
0.08292705387329834
0.2063803247052619
0.1995839961871126
0.05245287819719352
-0.06572445244319287
-0.19346812842284583
-0.1613293979893108
-0.17954208222779888
-0.034105604239738296
0.10719829518601592
0.2814795053262157
0.11571397323851429
0.016093677924097244
-0.034431279680921835
-0.07029632040090729
-0.13221665788733106
-0.05530118418532416
-0.06035178931547041
0.0494967767328671
0.08690406285411253
0.07515491877508909
0.04234803383025408
0.017007346865243654
-0.17430253705879434
-0.10830637547323502
0.033113119533895397
0.05966743787111569
0.16891695593067543
0.1443299018140674
-0.042643904312795335
-0.2260821691726077
-0.036776144315220166
-0.09471347655654039
-0.00596656485896638
0.0350769466729832
0.23969626719933446
0.018156071356759937
-0.024538644644226698
-0.08891646913366417
0.022028414940182012
-0.09284337186603693
-0.029476108140468
0.02234299850241312
0.07735024006394349
-0.048599016349357135
0.057652612326633955
0.0035890023079775996
-0.010360121537602528
0.009591457713755153
0.05252885347616394
-0.09429405419148976
-0.04250885426162056
-0.0005328299301628546
0.027065630372217077
0.03881400380355909
0.03497374565289413
0.01656302671631355
-0.014645440351641054
-0.05531060286757339
-0.0997119188419173
0.06007714898896377
0.032565288914441826
0.02423830322177818
0.03716399610106574
0.06801788406926394
-0.09091116547433759
-0.0491153580754085
-0.014801239157981684
0.007342238034709525
0.016788518829563552
0.01632040484413455
0.010355738882999854
0.003235887627715857
-0.001977019594838376
-0.003992518613943555
-0.003151150108216249
-0.000871728100021701
0.0010721605129803686
0.001253642958681632
-0.0008621110858512469
-0.004628410186072696
-0.008271390615542584
-0.009356505093898558
-0.0056682955467042
0.0036314905063954805
0.016887113068638965
0.02935502014199492
0.03364502700703249
0.021501920210320033
-0.013250224438249735
-0.07144420738570936
-0.1464023872950426
-0.024333192566840127
0.11207495594227912
0.07781223654972248
0.07989116575728805
0.11465311389851332
-0.030337669155868136
-0.17030844172614362
-0.11578872018628927
-0.0672103736766215
-0.01443697894323927
0.05818807593880794
0.16329808981413937
0.10220867276537482
0.060703869557363524
0.011145273186844435
-0.0794702574985533
-0.23843570867978214
-0.07759083031525753
0.011153730342572735
0.053280956762769775
0.08332851437369325
0.13418289054877358
0.02799547642766062
-0.028385567163291478
-0.042598580211101404
-0.03168086383129859
-0.014966585980824558
-0.007308257362305919
-0.014351702843518846
-0.03082086299818141
-0.04210881052139344
-0.028895272384306486
0.02613975948726515
0.13119987956811918
0.08015638731738439
0.0514776934190905
0.01245729525760754
-0.07202314905407503
-0.22892734951379476
-0.06851044225148903
0.018890563304018594
0.05945929397325581
0.08736094602934466
0.13450528591232425
0.022379938163021654
-0.041544294466465986
-0.06244142607831368
-0.053333995906177184
-0.029347764211587933
-0.0031998098114317873
0.016981234010479622
0.02760265548573026
0.028236767381778327
0.020085455958158856
0.005160483050352848
-0.01352124011243028
-0.031058478160434305
-0.03987040369915845
-0.029820090761700148
0.010271691964263856
0.0899331653451753
0.014062136079808656
-0.019184534762866377
-0.01884152143164048
0.00014660371125373208
