0
-4.9399079920357476e-17
-4.9402434583992394e-17
-4.940831222403909e-17
-4.9415280644647804e-17
-4.9420538802302075e-17
-4.942050269017794e-17
-4.9412117146721924e-17
-4.9394668453871444e-17
-4.937149511687156e-17
-4.9350694623243614e-17
-4.934389511221422e-17
-4.936257411264711e-17
-4.941231478593819e-17
-4.9486633167399905e-17
-4.9563169449801135e-17
-4.9605492478210594e-17
-4.957288624958322e-17
-4.943792845231852e-17
-4.920772075838346e-17
-4.8940427778351564e-17
-4.874625097943496e-17
-4.8763323171800734e-17
-4.910584632597281e-17
-4.9793920531699104e-17
-5.0689018654242826e-17
-5.147018290685501e-17
-5.168631037042357e-17
-5.0902924573963646e-17
-4.892594402892463e-17
-4.603686186973693e-17
-4.313005909036903e-17
-4.162777618388231e-17
-4.308559277687629e-17
-4.8503203428204595e-17
-5.75090967658194e-17
-6.774775272891112e-17
-7.488890621654264e-17
-7.361537846892065e-17
-5.967064567681191e-17
-3.257216952921251e-17
1.960260838079473e-18
3.1223323466120913e-17
3.77371363243524e-17
5.087202465302746e-18
-7.336784022561806e-17
-1.8555060275740597e-16
-2.957519620351939e-16
-3.4851258523101584e-16
-2.844906792952304e-16
-6.745322220042248e-17
2.8445468772286426e-16
6.760893248287704e-16
9.375045313308753e-16
8.642866721798854e-16
2.9828745724724756e-16
-7.675838205535789e-16
-2.098187350645323e-15
-3.1914359454387206e-15
-3.370788346889942e-15
-2.0174027026150466e-15
1.0913962175244737e-15
5.442431169088587e-15
9.612464072104652e-15
1.1441366503883557e-14
8.668956882494887e-15
-9.214265136627438e-18
-1.3744270974458966e-14
-2.8702496768740085e-14
-3.8222166988589097e-14
-3.445510612443403e-14
-1.1545760794229351e-14
3.0326495769936027e-14
8.153290370388552e-14
1.2225583030414986e-13
1.2634132780119055e-13
7.051048815287904e-14
-5.2499519005846206e-14
-2.2105996153300496e-13
-3.7854002502949344e-13
-4.4089923055840595e-13
-3.2219471580023305e-13
2.4168737549183527e-14
5.596371275479931e-13
1.130084109521974e-12
1.4746855351225118e-12
1.292527696983439e-12
3.676339381245973e-13
-1.275297966332092e-12
-3.243372428751724e-12
-4.755408827600423e-12
-4.801549075417897e-12
-2.508202844521699e-12
2.3523369553274146e-12
8.874785267588773e-12
1.480938232385501e-11
1.6890242009821616e-11
1.1855049628310861e-11
-1.9451362108510758e-12
-2.279680294852569e-11
-4.4516762217871376e-11
-5.690500088158838e-11
-4.8439946273791436e-11
-1.1189435869177473e-11
5.319676164016826e-11
1.2873833295258112e-10
1.8468192139768214e-10
1.8208221677147524e-10
8.824005967650651e-11
-1.035573493368007e-10
-3.556449694742242e-10
-5.787836734024345e-10
-6.462037388333259e-10
-4.342953881813795e-10
1.1463990046436936e-10
9.256975604994693e-10
1.7513173479025085e-09
2.193070894609011e-09
1.8104460308128172e-09
3.1351257436819767e-10
-2.2067922683184836e-09
-5.1024121996726315e-09
-7.164176753792907e-09
-6.892014777057766e-09
-3.065369419174779e-09
4.493050145500659e-09
1.4224352588304959e-08
2.2593980926147837e-08
2.4686869894711167e-08
1.5828391083095077e-08
-5.972346855791244e-09
-3.7483626008911865e-08
-6.881240518224035e-08
-8.441335479827765e-08
-6.746911902048634e-08
-7.439895811973027e-09
9.109866718241115e-08
2.0193696079750114e-07
2.775909719537086e-07
2.603549587698969e-07
1.0480689760809594e-07
-1.9267685406205824e-07
-5.678746837866169e-07
-8.809898319226806e-07
-9.416786586520985e-07
-5.735165290105199e-07
2.9097784679903005e-07
1.5138522928748831e-06
2.700466595832948e-06
3.2449887958408424e-06
2.5063781278480937e-06
1.0386546664806435e-07
-3.744326887170806e-06
-7.98085598788556e-06
-1.0743284717088299e-05
-9.814623517386258e-06
-3.5101104376893312e-06
8.183585904423158e-06
2.2631646686684024e-05
3.431252248937913e-05
3.586350792455725e-05
2.0640556105757278e-05
-1.3590279606339223e-05
-6.0992157078525556e-05
-0.00010584941846473543
-0.00012457860327390365
-9.278414031968683e-05
3.1903431196769415e-06
0.00015329835453232362
0.0003149834032885103
0.0004152812103029139
0.0003691272792186048
0.00011425358628141867
-0.0003448942871432706
-0.0009006261413759486
-0.0013351502212812624
-0.0013639879995000603
-0.0007374333298986989
0.0006162751862970797
0.0024524520282151003
0.004147160370145358
0.004785082846172719
0.0034423302079474197
-0.00036194606762760586
-0.006169770913503161
-0.012263570318806954
-0.015781615373561618
-0.013469833211924815
-0.0030772334821500416
0.014902451055824183
0.035769403076872104
0.05026666074990389
0.04607392644846781
0.01136581436200216
-0.060248308130475596
-0.1650984397989712
-0.08742132704069525
-0.001751521037434151
0.12010307485499286
0.09958607911259934
0.14308178428461618
0.03835969595363544
-0.042414309986292774
-0.133946977948285
-0.066533653268315
-0.056348465360547384
-0.10071377593235534
0.020174306736535093
0.13589492748642024
0.07559871845402387
0.05866612600048484
0.08946890337432997
-0.04224526577665385
-0.15604882957012048
-0.07314249692768605
-0.009482908055063514
0.027857507099499208
0.0404668804096675
0.035571637462578166
0.022073074011414714
0.0073106240900355736
-0.0045318934840543395
-0.01230293259618
-0.01659613048771327
-0.01814428353398776
-0.016704384107730286
-0.0109604625153829
0.00045984042269876384
0.017230395599368755
0.035603924718552844
0.04768028833816577
0.042478532697677714
0.009072583669196242
-0.0588487736561316
-0.15860719215693345
-0.07648829047745262
0.0102916713048681
0.12751345535073866
0.09575091680719795
0.12334283291845671
0.003556356746741685
-0.08287983469585988
-0.16112242623780182
-0.05444259782847446
0.021498786033906578
0.06060339894538664
0.06485502344266705
0.04118018794384576
-0.0014301949642207138
-0.053521353234645734
-0.1056819024883446
0.05111775315285298
0.024554982834639735
0.01934228585693879
0.03574490001769801
0.0691920498783344
-0.08851959978725138
-0.04673241877034875
-0.013140182747304774
0.008139712317503649
0.016982649368129155
0.016298027219811936
0.010372434362734821
0.0032688682907551963
-0.00221747805681203
-0.004896368972597183
-0.004940773547349791
-0.0033317425785512013
-0.0012585769264469963
0.00033851980941601757
0.0010034072360647396
0.0007853504130435622
0.00010530617599418053
-0.00046111913854500686
-0.0004204101639301877
0.0004339621576098351
0.0018939879762203125
0.0033310316993485157
0.0038475310450697595
0.002594446834396927
-0.0007941878174785333
-0.0057757292718883255
-0.010680322495205778
-0.012922178849930598
-0.009800356637415757
0.0001227889372117543
0.01533203461404103
0.02988116912245197
0.032779048923879395
0.00877168259547888
-0.059356953262616946
0.012600639277159514
0.01389782419024836
-0.05821595924032503
0.0031049372734036212
0.014212000532237104
-0.0007934257261821434
-0.013101837979221164
0.00709743665642103
0.0869395488697366
0.04786079881740953
-0.09646145870226852
-0.14153595953403916
-0.09378790967459538
0.0266918987584853
0.183123315765564
0.32146821227756633
0.17596016102608142
-0.11717425702315715
-0.3996906750081208
-0.2713238145045026
0.32188563720652646
-0.7153896271280722
0.1530745459926004
0.46355510524033
0.3169083727130661
-0.2501401457131882
0.7224723026288064
-0.07372999751940731
-0.3889959909844351
-0.377997963528579
-0.3637908111663979
-0.014477342267859787
0.26149212978440767
0.3033037889650106
0.17696313149587606
-0.04508536217657352
-0.09781599179123943
-0.1298299286621091
-0.10448939819182751
0.0005300490233491528
0.19323405299926721
0.06709300744673449
0.0022889979904383876
-0.030199021613827384
-0.061913328580311684
-0.11952437121151097
-0.01921182555947397
0.035377308640330334
0.051297246966662845
0.041821179795086316
0.02130572002471339
0.0011829048610748098
-0.01200298137699302
-0.016544474224474453
-0.014172273194417051
-0.008178445335579765
-0.0017842286890428624
0.0028501635888595013
0.004912254199081026
0.004695113356328508
0.003098529666961683
0.0011242908002974186
-0.0004746221405225988
-0.0013380751302744624
-0.0014671665942394057
-0.0010914165715872942
-0.0005134063561512405
1.23602501405408e-05
0.00034114176369390493
0.0004427755308965987
0.00036900204148577624
0.0002072520475671834
4.027703808126178e-05
-7.793523766896134e-05
-0.0001284310092112791
-0.00012033369456076634
-7.76870771155096e-05
-2.6478041822889257e-05
1.4180484386617349e-05
3.548491810084873e-05
3.7899988764773804e-05
2.7609935335163538e-05
1.2489549581442567e-05
-9.722592083410788e-07
-9.186890872213278e-06
-1.1519900662233428e-05
-9.40388903086857e-06
-5.132635262709095e-06
-8.295615077697322e-07
2.151838447052709e-06
3.3672880079856454e-06
3.086344263415916e-06
1.9461798216816032e-06
6.178853111278065e-07
-4.1525047041817696e-07
-9.394699320914085e-07
-9.782133709192955e-07
-6.976961095106676e-07
-3.0264261430311336e-07
4.169470016191524e-08
2.4656881191978603e-07
2.993142010654256e-07
2.393544958227716e-07
1.267788619901643e-07
1.601502678653598e-08
-5.9063440128516225e-08
-8.815102006293549e-08
-7.906813654315131e-08
-4.86655934980578e-08
-1.4253558815769965e-08
1.1964891588059102e-08
2.482336557430032e-08
2.5218865903161386e-08
1.7605232294809502e-08
7.298033010677696e-09
-1.499443610072791e-09
-6.598383795233862e-09
-7.767137629953845e-09
-6.0846630187294326e-09
-3.122743837959419e-09
-2.7487199489657347e-10
1.6127989765534253e-09
2.3042899107146873e-09
2.023286939168355e-09
1.2145732588121795e-09
3.241340699277968e-10
-3.403543950787819e-10
-6.546706503983285e-10
-6.494076078424566e-10
-4.435756484070132e-10
-1.7501986035372042e-10
4.948087640607642e-11
1.7610097257999618e-10
2.0130479993438568e-10
1.5447979597217634e-10
7.668140225970607e-11
3.5455892204784195e-12
-4.383335965034248e-11
-6.014054737915993e-11
-5.170320782646438e-11
-3.024233180158062e-11
-7.236599045853501e-12
9.568999289532003e-12
1.720875505867329e-11
1.6667810799858273e-11
1.112544703991921e-11
4.157749079911752e-12
-1.5258413183762865e-12
-4.614341283446317e-12
-5.097223096175289e-12
-3.796021090048901e-12
-1.8042093785471994e-12
-4.040030435624758e-14
9.889026428077588e-13
1.2178381365929814e-12
9.019659014052354e-13
4.319284972613958e-13
1.50937513865222e-13
2.2400502217573683e-13
5.835240287510355e-13
9.58027732484558e-13
9.775066195042896e-13
3.347082668285838e-13
-1.0361242100626722e-12
-2.8215777248423046e-12
-4.303784578817558e-12
-4.510646041675682e-12
-2.5630279021222416e-12
1.8370435502176447e-12
7.930840909327135e-12
1.3675529730967667e-11
1.6015998146110527e-11
1.1809070953815473e-11
-6.770513375623266e-13
-2.0091985694318873e-11
-4.088309948886271e-11
-5.3596191587365404e-11
-4.72723678982864e-11
-1.3976279972787982e-11
4.553851954225691e-11
1.1715856412581806e-10
1.7261238700416392e-10
1.751862714800014e-10
9.291768953177943e-11
-8.289522987643919e-11
-3.199042857397764e-10
-5.368265752174751e-10
-6.150992576477312e-10
-4.356712336659704e-10
6.260964108923083e-11
8.192533539932032e-10
1.611333542824733e-09
2.0690667181725575e-09
1.7728080242851288e-09
4.309189116772332e-10
-1.9022091811209057e-09
-4.652113427419451e-09
-6.705499975835859e-09
-6.646141511976776e-09
-3.2769882708084266e-09
3.6626862901767107e-09
1.2825323622563018e-08
2.0985683317977487e-08
2.3540436399151797e-08
1.597688553524161e-08
-3.850488959076573e-09
-3.328869412622394e-08
-6.34084628232327e-08
-7.976181740055657e-08
-6.629906927277954e-08
-1.23487191747392e-08
7.900176315008411e-08
1.8444136898609198e-07
2.601852773844799e-07
2.516691883068405e-07
1.1418287356163721e-07
-1.5937618834751983e-07
-5.131738798644944e-07
-8.194251526260587e-07
-8.9960630885474e-07
-5.82984491858699e-07
2.0471996329184387e-07
1.3487427165888953e-06
2.492106408575631e-06
3.070957750555883e-06
2.472367635535666e-06
3.0790879485318524e-07
-3.2646122428259073e-06
-7.301874086822488e-06
-1.0083989486906089e-05
-9.511354576567207e-06
-3.918973013462777e-06
6.850743636835836e-06
2.0495367562073588e-05
3.195926466336226e-05
3.4327059159198474e-05
2.1152208039741914e-05
-1.009389734305775e-05
-5.450169620889512e-05
-9.782564191966808e-05
-0.00011808579239261053
-9.191069229125312e-05
-5.24767587734451e-06
0.00013430261485782895
0.00028866336341367116
0.0003903566161277688
0.0003586913819239232
0.0001318590622015495
-0.00029164768319041317
-0.0008172921358422266
-0.0012453337243521344
-0.0013081896116469227
-0.000762896617181338
0.0004749325093685994
0.0021976270711526894
0.003838568819184534
0.004543600394727263
0.0034259234640559174
-1.45375435912512e-05
-0.0054185653959338735
-0.011244367905718079
-0.014841104646659584
-0.013117157090516337
-0.0038274103664159157
0.012778824428510478
0.0325211554587033
0.04684047478520185
0.04405205904854453
0.012553898867318704
-0.054583521860148525
-0.15516893700956816
-0.07567456462308542
0.007037326459454701
0.11984008457736223
0.08512315979247095
0.11337491452714221
-0.0004694544153927915
-0.07559560576830882
-0.13967255467646938
-0.021473977289386194
0.055603156576336604
0.07763232504625628
0.04186573214747878
-0.04322608561735361
-0.15926258431189166
-0.081100257999756
0.01756506813523833
0.1566392910918567
0.14239868321683924
0.16395373928575496
-0.003968452756629774
-0.19187164871606088
-0.22311303275668026
-0.1034852385119923
-0.017485459509799732
0.06688664274010053
0.18675965770141423
0.17119226521414665
0.03143892543780489
-0.04180304151798919
-0.0737949405557892
-0.09641496727458737
-0.13819920217805792
-0.017547605505399265
0.058914075483843864
0.0932225296125829
0.09060131166344719
0.05470449820246015
-0.01415821482290032
-0.1173547870160662
-0.054176918292789915
-0.018277178197285582
0.0037745710803380322
0.031147129172404628
0.08529155257432901
-0.014218650661745227
-0.05323321782965862
-0.025292160562022714
0.0674046839584377
0.014154423433671647
-0.0029754334754391347
-0.006729738025036306
-0.02137784544037301
-0.06920370623205807
0.032488146234641795
0.07342692344860767
0.051576097651775475
-0.02618833059226066
-0.14395620914422774
-0.0779693208265639
-0.00010670885302866292
0.11618738964687914
0.08898346608090893
0.12260808651180745
0.00652346182785873
-0.08081196580842849
-0.16452030901705098
-0.06540898146191579
0.005170170125639611
0.04597009218838574
0.06248965372893925
0.06179723380951755
0.04818458543359839
0.021563905771389662
-0.02089102151642445
-0.08086714236062116
-0.1548957589100253
-0.03251621048572424
0.10197750094150795
0.06460348862722218
0.06572237842166923
0.10582861584984615
-0.024918958974109694
-0.14322576912147433
-0.06687085364959247
-0.009178726032678122
0.02407455138500699
0.03459562418192073
0.029116290265519575
0.01604805653705818
0.0026270513085933324
-0.006684750826528846
-0.010449035696642898
-0.009527106416731605
-0.005938086075735846
-0.0017924099680945308
0.0014035483840428176
0.002995831576792198
0.0030731492517673204
0.002165682277254506
0.0009169852428149946
-0.0001587663419845308
-0.0007898642233375615
-0.0009428991918612071
-0.0007457437273197735
-0.00038848654942597206
-4.132627008239701e-05
0.0001911909492638727
0.00027866189797225323
0.00024708235952842627
0.00015003358241254632
4.1846265004347444e-05
-3.961898045244409e-05
-7.87386288010458e-05
-7.884754989923028e-05
-5.4254593777432285e-05
-2.17624132715775e-05
5.491637082819443e-06
2.0812738634774143e-05
2.372020042698237e-05
1.787732725721713e-05
8.477866537752081e-06
7.193187140820615e-08
-4.680827059068016e-06
-5.292571838080603e-06
-3.005447665225531e-06
3.712174567005902e-08
1.7067435568401903e-06
6.813831651874194e-07
-3.0292629637297523e-06
-7.931931975740684e-06
-1.1362793539599202e-05
-1.0309626822332213e-05
-2.6662386546841204e-06
1.135993520712101e-05
2.819594002823312e-05
4.086116673483274e-05
4.0508961506255554e-05
1.9712891792396006e-05
-2.3086578572380434e-05
-7.94638573975634e-05
-0.00012941461417817891
-0.00014452418469651778
-9.70981454971206e-05
2.5778761607510225e-05
0.00020731476534958276
0.00039205866643383946
0.0004907979955640886
0.00040493135087031016
6.960829308623608e-05
-0.0004947269516496574
-0.0011429070537377402
-0.0016041841936988081
-0.0015427414097359995
-0.0006853486404177272
0.001007816760106026
0.0031883852993662047
0.0050667441600432
0.00554606083322478
0.0035860680986374485
-0.0012492698737216975
-0.008223754568619509
-0.015110190152794406
-0.018426519112318993
-0.014441447639042305
-0.0009188898563304559
0.02079488334620594
0.04410976724311061
0.056922198958214314
0.04353208630114793
-0.011109751105876236
-0.11571004736643213
-0.06739616605404194
-0.049228142957634884
-0.032112408670470126
0.018769758986818763
0.13470408834701078
0.1343530851543927
0.018068952559992593
-0.03226070095762827
-0.047797149796702305
-0.06381831517426917
-0.11043063335529674
-0.0058693854971106916
0.04592330299288377
0.053454960389453625
0.03301010467799471
0.003138907876421736
-0.02009466301450668
-0.026370600649084
-0.012865110386734858
0.01526866471020739
0.04564408202516181
0.060863440607864756
0.04250151435082181
-0.023368267258130994
-0.1402836945912481
-0.09726512794988855
-0.0687833459535915
-0.020125266388813973
0.08263514820616773
0.2611405950747619
0.11616780946735425
0.025929963822735203
-0.04723041325086223
-0.14378125169126926
-0.29251931364776973
-0.1005026434134724
0.04843541371616001
0.18607716174624878
0.14659853910345394
0.15351997837692216
0.012101733107384986
-0.09039622555348001
-0.17776928888503693
-0.0750392636723732
-9.468747394466514e-05
0.04033814682044049
0.049969872926429855
0.039023214996375226
0.019397298973950323
0.000805839665467884
-0.01118257206747116
-0.01521644363867899
-0.012963983734602329
-0.0074525235312725155
-0.0016132153059770704
0.002601102776035747
0.004465574325153409
0.004257362460241418
0.0028001650538467373
0.001005833548726476
-0.00044287795936307324
-0.001221397467474074
-0.001333178377575768
-0.0009882445599613122
-0.00046187842761122305
1.5167243139012932e-05
0.0003122632479494775
0.00040286456743691436
0.00033456220661443834
0.0001870167734763296
3.5341200950086506e-05
-7.165058449381699e-05
-0.00011700609661682246
-0.00010921881148241582
-7.023425151951583e-05
-2.3666340346921914e-05
1.3178783873264323e-05
3.238266724816136e-05
3.4435986001877346e-05
2.499719418955431e-05
1.1230149192379209e-05
-9.82637760588731e-07
-8.403729698872407e-06
-1.0478846138564224e-05
-8.524282772007517e-06
-4.629467173083311e-06
-7.214810182104654e-07
1.976229466830447e-06
3.0669370477075343e-06
2.8007212741976433e-06
1.7589402922503684e-06
5.512828527653732e-07
-3.8475283537663237e-07
-8.570432357255837e-07
-8.886318766998776e-07
-6.31521278706178e-07
-2.719130779282128e-07
4.041437493690974e-08
2.2543384337074372e-07
2.722068486689896e-07
2.1692094444089793e-07
1.1429795609204429e-07
1.3723408771830938e-08
-5.419331581410844e-08
-8.026801183175687e-08
-7.173688167589134e-08
-4.3969525591606304e-08
-1.2689229000833013e-08
1.1059851512620674e-08
2.2638073824238957e-08
2.2904938644256994e-08
1.5931453563188465e-08
6.551227742817945e-09
-1.4268439855998603e-09
-6.029953312371481e-09
-7.06222676724791e-09
-5.513204805892363e-09
-2.8139214522145757e-09
-2.2852813271069383e-10
1.4786113043166928e-09
2.0977160478505816e-09
1.8353264825806053e-09
1.09700104573911e-09
2.8776120878148175e-10
-3.140073050816378e-10
-5.96853895879033e-10
-5.897074721220952e-10
-4.0129978422701153e-10
-1.5695163116437987e-10
4.6597908408969844e-11
1.6086034367638789e-10
1.8299732644344737e-10
1.3994037526740725e-10
6.905971820731122e-11
2.6774766496171536e-12
-4.0157566193653855e-11
-5.473564815485539e-11
-4.688912791435288e-11
-2.7302534322194207e-11
-6.398745573518163e-12
8.815936267041875e-12
1.5683476926718685e-11
1.5128177877306644e-11
1.0054618392845916e-11
3.715006943475451e-12
-1.4347450785988905e-12
-4.213402202679135e-12
-4.6216956254698385e-12
-3.4148853257840064e-12
-1.5932995961282558e-12
3.878657647745456e-15
9.150377363741305e-13
1.0837248367247657e-12
7.52015599252966e-13
2.9140994807278215e-13
3.407438151114878e-14
1.4715689993671445e-13
5.734689074072169e-13
1.047933018198465e-12
1.1888566777024313e-12
6.507809360837706e-13
-6.92845753889945e-13
-2.5921277085195932e-12
-4.362049279794944e-12
-4.995774909312282e-12
-3.4881765418141146e-12
6.670459286766989e-13
6.94622367734733e-12
1.346690872806887e-11
1.7136351118685366e-11
1.4478725049982164e-11
3.1270943082324357e-12
-1.6368200246548783e-11
-3.912061049110074e-11
-5.5801741216279206e-11
-5.46624158450515e-11
-2.5918565030188203e-11
3.228666642114878e-11
1.0836747557962755e-10
1.7520351325720305e-10
1.9448927776642418e-10
1.2911991054586735e-10
-3.782595020659381e-11
-2.830320971001022e-10
-5.310805641287877e-10
-6.613777587898997e-10
-5.413640158740656e-10
-8.489599888729131e-11
6.783588450141049e-10
1.550322864757431e-09
2.1643741058555947e-09
2.0681960937468235e-09
8.969480082782999e-10
-1.3961614497011207e-09
-4.332208664657054e-09
-6.837436302052184e-09
-7.4271608429230315e-09
-4.698937754375907e-09
1.9285538891592004e-09
1.1452420131805735e-08
2.0860269385902254e-08
2.5448399933260357e-08
2.0158182177778126e-08
1.863033588589786e-09
-2.79693236902999e-08
-6.133350658578646e-08
-8.383701067533284e-08
-7.808581895725344e-08
-3.0514323715734335e-08
5.970716406752903e-08
1.7287120668304223e-07
2.6652504403973544e-07
2.83190007723142e-07
1.6996656734302811e-07
-9.273793034775425e-08
-4.62221296286919e-07
-8.183730691990912e-07
-9.779370086448604e-07
-7.481713872860581e-07
-1.6330003241466494e-08
1.1483425265371226e-06
2.423102679343504e-06
3.2436233715874173e-06
2.9418821791664055e-06
1.0151871341555368e-06
-2.5301244669852795e-06
-6.886352828410119e-06
-1.0377349370805976e-05
-1.0780479050957379e-05
-6.104778142881593e-06
4.293393113351486e-06
1.8611124822289737e-05
3.206741224037964e-05
3.753074580883559e-05
2.7669346430001797e-05
-1.5518395925340123e-06
-4.6969069950372857e-05
-9.560055746292048e-05
-0.00012534545413977978
-0.00011058261612681189
-3.275398719282383e-05
0.00010638981135021028
0.00027386405347591935
0.00040357548587120865
0.00040967602585185715
0.00021740244079677905
-0.00019364677472920915
-0.0007479052037645752
-0.0012553746607618438
-0.0014388300365133994
-0.0010197817008177489
0.00014508615251408212
0.001914983098941704
0.0037697977206476987
0.004846804488887291
0.004167905315079513
0.0010561334575347288
-0.004353991039646261
-0.010709725587219533
-0.01539910037509383
-0.015112055968378772
-0.007085438256858073
0.009167026453427617
0.030177554832301952
0.04769917909353328
0.04954111242123244
0.022483953997556226
-0.04311166151424466
-0.14839860818996278
-0.08295913403920552
-0.02549867071529941
0.051061695783928475
0.17152410895602455
0.15050001077461247
-0.011985610341173285
-0.12951474967458934
-0.02359545837531215
-0.11602538234611443
-0.022531466745015445
0.05017566619751015
0.10359391287264995
-0.05596730232425844
-0.02164469535050958
0.010246824325392116
0.03779049029529889
0.052834288217885966
0.04253936190363453
-0.00683939512401172
-0.10466774689479083
-0.050760024923115585
-0.032349335125152305
-0.024748001741629992
0.003996123341270168
0.08558285329501933
0.04328555691208076
0.08566547191226026
0.004201965556976978
-0.02438143962650749
-0.031854876024233626
-0.05029452194060725
-0.10450552835008944
-0.00725897186112013
0.04151059847837814
0.05183394881348639
0.0386921430967368
0.016877715861055582
-0.002652610081887348
-0.014245923796929483
-0.017067248114970752
-0.013435126772495854
-0.006866944255531284
-0.0005111617973799316
0.003708904488104811
0.005245997438310953
0.004592657831806207
0.0027446460164574325
0.0007062809549566642
-0.0008233119043893444
-0.001552561890588979
-0.0015359427923572657
-0.0010302119650706008
-0.00034532669941914556
0.0002610866766486699
0.0006308431212152731
0.0007055744738353571
0.0005044390780579807
0.00010131219750458726
-0.0003879976169310226
-0.0008122971001718747
-0.0009992421929471652
-0.0007920654469313846
-0.00011354233486987057
0.0009565797824450904
0.0021246828875166415
0.0028929316354058777
0.002675077098741066
0.0010267008956374492
-0.002055828918820559
-0.0058758791358312044
-0.008969490190020158
-0.009378684422108891
-0.005332747200074876
0.0037535755989553544
0.01625873325257297
0.027774387221737473
0.03146603118213207
0.019676750893509832
-0.013382404782653703
-0.06863869750219932
-0.14017503814903404
-0.015602957362512687
0.12067021939688388
0.08222749193260058
0.07574629061403096
0.09883265839899982
-0.05831219309932507
-0.20842989596259956
-0.16285929166874716
-0.13070056856038204
0.07671355803344593
0.23751301449474505
0.311954223343864
0.24219520558832153
-0.03662599623694949
-0.1747286192192212
-0.3819792735602643
-0.40854133022606426
-0.34199446199857597
0.1739536019028428
0.30224729396061634
0.5680666078681992
0.42296915119213935
0.23150750816558782
-0.11359577776924489
-0.5524562504822231
-0.6093614502015822
0.24745973206744742
-0.9773350995941184
-0.01909408139611931
0.8087503662648587
0.9659850286377174
-0.15329157902515095
0.968443689249538
-0.20329134041911484
-1.0025149155843025
-1.1029271797841604
-0.47664506129241435
0.008286258302764367
0.5474676898305504
0.931624548646977
0.6772212710823223
0.38377693066872504
-0.06570353147328128
-0.4620185873859053
-0.8017217783698407
-0.619573724420982
-0.3461189081064644
0.09540379820839501
0.4539193617628136
0.692374481889327
0.5294054739670456
0.20209663733200406
-0.13842366009997067
-0.4000898290228931
-0.5047644139641869
-0.34333013524225703
-0.14736641357657446
0.11419668298813422
0.3151899058395737
0.33909817720076146
0.24633434796662113
0.053645964821633065
-0.0684716865082973
-0.18164208862738468
-0.15566708239632923
-0.24408695646737158
-0.06750318364091648
-0.009343474342751368
0.17594291983742283
0.146479377877402
0.1548689694556272
0.03462325879034902
-0.005237974633392918
-0.17730528668669607
-0.10749866631388896
-0.02556791345848134
0.042171073285488254
0.07648051982359651
0.06592170987864224
0.006310922656346945
-0.09982461535013976
-0.043642299887285324
-0.010947928085324252
0.015592583625372667
0.05314700324752716
0.11540131635686322
0.010642416926740825
-0.0579373230714317
-0.09013769685921695
-0.08645795867257935
-0.04750715708415875
0.023934744284360574
0.1190138888071167
0.21952378879060974
0.09829042599975446
-0.07489922638804215
-0.1226640792268434
-0.24856263351951985
-0.23025531543697972
-0.021725094370958972
0.23454932685682664
0.18914455615396508
0.2679789108510583
0.06256812685738666
-0.06764264510005055
-0.18169677767833387
-0.13753429825510843
-0.17366625153472193
-0.09846041263030018
0.10980467688835496
0.09299006414855537
0.0974807091845939
0.15866112553677636
0.09057822617468934
-0.1164586234113139
-0.09063921472286189
-0.06867921526082409
-0.08514769354208494
0.03554076425652015
0.08294736275612959
0.060623707304970714
-0.016256445238217364
-0.12435403472233741
-0.03624583798450886
0.07477209921083702
0.02938030371137105
0.037507489852354484
0.09574918309082653
-0.011880826896416875
-0.1097728734453626
-0.02427611753203928
0.023076151563594972
0.02082318144289007
-0.029797192201721587
-0.11523846702952417
-0.013011851587096595
0.10247214262629917
0.05289840050277884
0.049982034087479546
0.09248406810318528
-0.03255370125087485
-0.14484476454978273
-0.06416499431176054
-0.004572424398538264
0.028451011599464473
0.03746391782094679
0.03013675558497147
0.015581438815451348
0.0013650806556771483
-0.008056468871930008
-0.011462494076641473
-0.00999789193042931
-0.005918723612958096
-0.0014689654114436448
0.0018185307896166191
0.003339328176348149
0.003264302794856879
0.002200836726228338
0.0008424709312934652
-0.00027943924312734224
-0.0009021199372988434
-0.0010148324761904515
-0.0007697403473329498
-0.0003746726789780451
-7.891469931198516e-06
0.00022662957609189226
0.00030434174084795895
0.0002586066161802068
0.000149025551919782
3.321824065759575e-05
-5.041629637039488e-05
-8.761417631370092e-05
-8.383040769290957e-05
-5.529579324339314e-05
-1.9998169957157056e-05
8.571970025332734e-06
2.397646707667259e-05
2.6247030910453133e-05
1.9499221288990977e-05
9.149272023588037e-06
-2.5251580805088537e-07
-6.122650147724637e-06
-7.927714003630876e-06
-6.597785575976979e-06
-3.698931402849878e-06
-7.112933188196886e-07
1.4009004642979332e-06
2.300531093594728e-06
2.1523983373394367e-06
1.387496597156849e-06
4.708569602725398e-07
-2.5596164141079493e-07
-6.360326356133207e-07
-6.781871912436459e-07
-4.933840475820193e-07
-2.2260227030034173e-07
1.814489812987818e-08
1.6481693145532772e-07
2.062279174528001e-07
1.6812315971711207e-07
9.158773614787718e-08
1.4601425630617865e-08
-3.8663894401247826e-08
-6.03105458443155e-08
-5.52008641689003e-08
-3.475474091292282e-08
-1.0980275911415814e-08
7.486678871383268e-09
1.683690118375156e-08
1.750297673977075e-08
1.246655650852552e-08
5.392429538542775e-09
-7.651413298438612e-10
-4.4226848314112025e-09
-5.35784920806754e-09
-4.278850733108679e-09
-2.2618723768664806e-09
-2.8034276900434815e-10
1.0608658531827774e-09
1.5786956836154835e-09
1.4140693369029928e-09
8.68961162635748e-10
2.5308592989265684e-10
-2.1552084856898404e-10
-4.4482168467819027e-10
-4.5120255145128987e-10
-3.1454358982482413e-10
-1.299915100310167e-10
2.7316384437796796e-11
1.1833323482237613e-10
1.390238076687277e-10
1.0876437118826277e-10
5.570254704528375e-11
4.758790183082264e-12
-2.895922791607959e-11
-4.126371966184459e-11
-3.618218999768473e-11
-2.1684399960906455e-11
-5.749355329837221e-12
6.126144976673838e-12
1.1729931924808777e-11
1.161795963920029e-11
7.924320554111318e-12
3.116192286850221e-12
-8.97820182424423e-13
-3.1576938887015904e-12
-3.6029700148434887e-12
-2.7612314693045715e-12
-1.3676242407081491e-12
-5.939036639739755e-14
7.868839732543099e-13
1.076968792215078e-12
9.246751215361718e-13
5.39960448324034e-13
1.281477827942532e-13
-1.7239720015208113e-13
-3.0882125580910805e-13
-2.9885915349614193e-13
-1.9937928645480665e-13
-7.427840257588189e-14
2.8024264159049147e-14
8.40010484034313e-14
9.321066866711193e-14
6.995709687376454e-14
3.3413857568835033e-14
-1.4316108790095492e-16
-2.1346752603922696e-14
-2.81220339413528e-14
-2.3655259156864337e-14
-1.346805301668428e-14
-2.8379372888219635e-15
4.757684831265191e-15
8.064757511239055e-15
7.627069459435872e-15
4.956408257789315e-15
1.7056382169242845e-15
-8.985166456243675e-16
-2.2814914678940377e-15
-2.460531680899795e-15
-1.82196648328223e-15
-8.651914490401399e-16
-5.419428356131569e-18
5.248763009790225e-16
6.813399416398764e-16
5.524761863719603e-16
2.832577061705577e-16
9.180496802616131e-18
-1.8250679394796148e-16
-2.622898282049516e-16
-2.4638832474556687e-16
-1.7490199446735148e-16
-9.05362387868154e-17
-2.4328553335200876e-17
9.744581191148086e-18
1.2860071244736825e-17
-4.584030109913186e-18
-2.959746929359961e-17
-5.160049742820626e-17
-6.483761949491086e-17
-6.840054235650534e-17
-6.473121437959733e-17
-5.762995026222942e-17
-5.057152126861105e-17
-4.574119289603819e-17
-4.382688911452707e-17
-4.435459568256188e-17
-4.626290463973974e-17
-4.844971515457302e-17
-5.0130841428256566e-17
-5.096778385664414e-17
-5.1009598542025654e-17
-5.053526617969916e-17
-4.988225641807662e-17
-4.931981553985809e-17
-4.8990064438088716e-17
-4.8910369941287367e-17
-4.9013746724186217e-17
-4.92007243048579e-17
-4.938229500160546e-17
-4.9503826204891755e-17
-4.9549471580092863e-17
-4.9532867662385546e-17
-4.948205372487618e-17
-4.942543885519453e-17
-4.938280746292938e-17
-4.9362317508613533e-17
-4.936222658844172e-17
-4.937507127972573e-17
-4.9392095533677263e-17
-4.94064557649135e-17
-4.941465248132805e-17
-4.941639335875068e-17
-4.941350652666987e-17
-4.9408591750722864e-17
-4.940392636781106e-17
-4.940087357026295e-17
-4.9399793057732055e-17
-4.9400297417653326e-17
-4.9401647315641806e-17
-4.9403111285937255e-17
-4.940419093113909e-17
-4.9404690738189145e-17
-4.9404667806632634e-17
-4.940432126872212e-17
-4.9403878031827217e-17
-4.9403511822238895e-17
-4.940330854425303e-17
-4.9403271746644166e-17
-4.9403351762055795e-17
-4.94034807387623e-17
-4.9403600476971217e-17
-4.940367703221398e-17
-4.940370239205256e-17
-4.940368745073206e-17
-4.940365166838749e-17
-4.940361385696104e-17
-4.940358655221753e-17
-4.940357440977143e-17
-4.9403575647421734e-17
-4.940358496524734e-17
-4.940359649017896e-17
-4.9403605817866215e-17
-4.940361084666225e-17
-4.940361158727691e-17
-4.940360938365043e-17
-4.940360600423498e-17
-4.9403602934639695e-17
-4.94036010182573e-17
-4.9403600429134075e-17
-4.940360086352277e-17
-4.940360181007376e-17
-4.940360278553109e-17
-4.9403603475106254e-17
-4.9403603768765655e-17
-4.940360372034334e-17
-4.940360347057196e-17
-4.940360317128427e-17
-4.9403602933991184e-17
-4.940360280991849e-17
-4.940360279617373e-17
-4.940360285652372e-17
-4.9403602944937664e-17
-4.940360302353905e-17
-4.940360307142174e-17
-4.9403603084936495e-17
-4.940360307249107e-17
-4.9403603047500435e-17
-4.940360302236467e-17
-4.940360300497505e-17
-4.9403602997909236e-17
-4.9403602999578996e-17
-4.940360300625542e-17
-4.9403603014017875e-17
-4.940360302004698e-17
-4.9403603023099284e-17
-4.940360302331628e-17
-4.9403603021671594e-17
-4.940360301936181e-17
-4.9403603017351434e-17
-4.94036030161574e-17
-4.940360301585222e-17
-4.940360301620462e-17
-4.940360301686321e-17
-4.940360301751017e-17
-4.940360301794803e-17
-4.9403603018117055e-17
-4.940360301806327e-17
-4.940360301788527e-17
-4.9403603017684186e-17
-4.9403603017531196e-17
-4.9403603017456347e-17
-4.9403603017454276e-17
-4.94036030174989e-17
-4.940360301755916e-17
-4.940360301761052e-17
-4.940360301764023e-17
-4.940360301764698e-17
-4.94036030176371e-17
-4.940360301761977e-17
-4.940360301760314e-17
-4.940360301759213e-17
-4.940360301758812e-17
-4.9403603017589775e-17
-4.9403603017594514e-17
-4.9403603017599716e-17
-4.940360301760359e-17
-4.940360301760542e-17
-4.940360301760538e-17
-4.940360301760417e-17
-4.94036030176026e-17
-4.940360301760129e-17
