0
6.975909398552274e-16
7.117719362422035e-16
3.714519105483125e-16
-3.614165247633909e-16
-1.3535095346932756e-15
-2.266367340507432e-15
-2.6041261891847184e-15
-1.866527022726087e-15
2.0709879090661476e-16
3.3703014327676436e-15
6.69662038787339e-15
8.641462011248478e-15
7.444520172864551e-15
1.872081414165909e-15
-7.869327568035386e-15
-1.93987600653388e-14
-2.8072123094319053e-14
-2.7957271938094936e-14
-1.4009855463850248e-14
1.4925431570395737e-14
5.3288169981326584e-14
8.76444788092355e-14
9.873747868873986e-14
6.759758886288287e-14
-1.4942156087108256e-14
-1.38038714620889e-13
-2.6456826110223683e-13
-3.3416731098522267e-13
-2.7949194240083895e-13
-5.5354462328845886e-14
3.261471018347735e-13
7.6834072589645e-13
1.0885327785416227e-12
1.058113209680896e-12
4.885674922929271e-13
-6.523472529700773e-13
-2.1340074634573443e-12
-3.4240028546967085e-12
-3.7753516735074405e-12
-2.4700831695744587e-12
8.100942746077895e-13
5.594946999936459e-12
1.0399771390952662e-11
1.2868253429759154e-11
1.042779406551062e-11
1.431794998572627e-12
-1.3491387731936732e-11
-3.042765519785034e-11
-4.219895880198466e-11
-4.00062776315558e-11
-1.682507588355731e-11
2.8102910009969883e-11
8.525884646443757e-11
1.3357271399394743e-10
1.441023355929528e-10
8.97273718246515e-11
-4.042782407433439e-11
-2.26205563494383e-10
-4.0833619392834374e-10
-4.949454821527534e-10
-3.879072237968699e-10
-2.757281114205843e-11
5.554992417408643e-10
1.2032440896024962e-09
1.6339792041014406e-09
1.509471190872526e-09
5.687995770698926e-10
-1.1981819451754367e-09
-3.4002881327729855e-09
-5.204840232138161e-09
-5.491768928657899e-09
-3.2387948002242044e-09
1.918013220282192e-09
9.122760103607788e-09
1.6013500725784138e-08
1.9012091888951778e-08
1.438164830976777e-08
-2.39901292285789e-11
-2.2779284848552193e-08
-4.751640567978548e-08
-6.319475594243307e-08
-5.682976385902621e-08
-1.8763575914360137e-08
5.0644444186568313e-08
1.353805132209053e-07
2.0258200622171516e-07
2.0895317488533424e-07
1.1604638355316341e-07
-8.797619141929274e-08
-3.6706350454519796e-07
-6.272460793430996e-07
-7.293282509299952e-07
-5.312356811530342e-07
4.363865228971661e-08
9.306818398044969e-07
1.8739350535166223e-06
2.441171702296313e-06
2.1345954599113613e-06
5.981049105193707e-07
-2.124968707189339e-06
-5.3813723146358016e-06
-7.875847687990325e-06
-7.936817375433186e-06
-4.121739225578728e-06
3.939046086870708e-06
1.4737408569031444e-05
2.454073597531885e-05
2.7940265387930832e-05
1.954369590241982e-05
-3.3579229713295797e-06
-3.789787618316285e-05
-7.381068055225715e-05
-9.419741072536192e-05
-8.00049042565117e-05
-1.8167298592046007e-05
8.847654878789074e-05
0.00021334684306858383
0.00030543940112719045
0.0003002883501956271
0.00014394355427421504
-0.00017427566391401835
-0.0005912518961933202
-0.0009580198859417384
-0.0010627224905498693
-0.000697371537132742
0.00023932827633305284
0.0016330817682184305
0.003089151018576238
0.003968157949777132
0.0035601519363020625
0.0013832853996163415
-0.002485844170408133
-0.007231164155252875
-0.011509708081795241
-0.014300318188485397
-0.016529093153454102
-0.023391732611235377
-0.04694965746899598
0.09188667910149848
0.1633790372950196
0.13258757604769944
-0.032488743405323546
-0.1492680131826685
-0.20895433733277166
-0.1700223005913725
-0.16125876208176693
0.10427756016628442
0.30743645890800064
0.3002376757850707
0.0905143533502358
0.0399941308370397
-0.12319736582455257
-0.28216801112142087
-0.30714282075511834
-0.03790872689120447
0.12206596790315713
0.19989062810579486
0.24056486929487841
0.09378981792820931
-0.19500680244618085
-0.1886143301629872
-0.2597197975809782
0.0058752926022386555
0.20288002896524723
0.29931308651602667
0.23386046031350735
0.12307046839842478
-0.12002848740634395
-0.35994585917178107
-0.4142655645092208
-0.2409961371383225
0.05519978627691956
0.19773887029704293
0.30127864948651384
0.43568071397618857
0.2032772792431102
-0.06267144229068487
-0.2779792104656022
-0.17314072302639774
-0.2561322781341896
-0.18388996739792862
0.049998427721420456
0.10961101274910454
0.09666205719865692
0.12319489493900632
0.08477764703352872
0.040406457210341924
0.002566149427503484
-0.06197875523993506
-0.02236095158317566
0.032283144078631816
0.011558326673557193
0.042495502671698555
-0.11446171735202613
-0.05483182330473849
-0.12750789263132992
-0.2422725523325671
-0.08777338556465628
0.24257981471388065
0.4228763088197145
0.2738100777026409
0.15682663750779904
-0.01306323849591209
-0.3393751001713149
-0.7113890060322389
-0.37971971442499974
0.04942209381016147
0.39926129831370905
0.6951552872748312
0.9402136606560031
-0.49194563773225625
-0.4423982504458699
-0.5380194992632283
-0.565277234430992
-0.662984660233201
0.8592332189392243
0.88372711123685
1.047016791829129
-0.47842040726200064
-0.37214826696229464
-0.32887601603723454
-0.6144729313609594
-0.8352194328580205
0.6664889756844921
0.5891752815918374
0.23339091348546984
0.26440100546228734
0.0912844107176221
-0.13153289438841986
-0.2838232712193902
-0.2500890794852192
-0.29291393835986107
-0.03854282924868798
0.12145534671017598
0.21509656309948433
0.2691075655081637
0.2915590072258678
-0.1348947884518254
-0.24705061168655243
-0.08583393202760037
-0.07836619869803951
-0.024090901411446822
0.11103083033038735
-0.008624960826225433
-0.29925703072481064
-0.07425516989600513
0.13629024795838526
0.3676302768019564
0.6103069185293767
0.21415629770179131
-0.49195325801196554
-0.7709610356862585
-0.6525034676987236
-0.32604513158009996
0.6417171785183424
1.472727599621752
0.14528606772779382
-0.017041275477215203
-0.3268704346124947
-0.6922938490990364
-0.9727789821021525
0.44858102868556454
0.2653500191456877
0.2223915499997339
0.2768104791433905
-0.04015606346597841
0.1505477836013993
0.06589351749965752
-0.13360468639076453
-0.3273855936137863
-0.014025149794942595
-0.09236504701895978
0.15174315566586252
0.2530462027709999
0.1714393891796248
-0.10388050381893024
-0.3504950858126154
-0.3122369050672284
-0.10663460071760275
0.1573913170820351
0.3545504094470357
0.31900559966433156
0.23080803661737517
0.019766323301783524
-0.2128955391296067
-0.3617981538913416
-0.2848960228407247
-0.18272120101110292
0.0033325151037918548
0.17328068685851192
0.2377146895234643
0.2843444870807933
0.15268394649350556
0.024281087218748106
-0.16968369621249688
-0.12728017674189654
-0.1487793001296272
-0.11199554532534661
-0.056358875643815975
0.021439077525811392
0.16104007877133075
0.024842660536740533
0.08203095320250796
-0.005542551237820863
0.006950981174651136
-0.05727092819205247
0.0032040963611115365
-0.0291475574702318
0.01387842771907236
0.09184296685611769
-0.038163369223849525
-0.015175300209955014
-0.06856376286311226
-0.01393252730295325
-0.051792638989869584
0.030534106214601342
0.05431295437788699
0.043497692719287044
0.019296945423921585
-0.0033682650743780684
-0.016935678123722656
-0.020133938044007094
-0.015686909602067957
-0.0078109670165755415
-0.00027003003665370014
0.004662893705172718
0.006375082121095312
0.00549478169263037
0.0032364812964759673
0.0008038712703221408
-0.0009838002799750114
-0.001807480910150191
-0.0017649820796772032
-0.001187867222018549
-0.00045246234002136983
0.00015381490365260953
0.0004893780079610749
0.0005490472298552042
0.00041556493338719847
0.00020150588296685107
3.2200862320107166e-06
-0.00012325047448765732
-0.00016484190709211552
-0.00013975682945444723
-8.030475183724855e-05
-1.7645915329267867e-05
2.7503339088649216e-05
4.749488341293267e-05
4.5334263193826105e-05
2.9830819286938463e-05
1.0719203283693466e-05
-4.715966667653831e-06
-1.3011834663878452e-05
-1.4203530144663974e-05
-1.0528540532712404e-05
-4.92016598713322e-06
1.627025985736265e-07
3.3280958089624314e-06
4.293178102979992e-06
3.565101220343022e-06
1.9927297090114727e-06
3.764455684193704e-07
-7.636253969228893e-07
-1.2468747641783189e-06
-1.1638382136961669e-06
-7.483834957075854e-07
-2.5214422458377225e-07
1.4047057724200064e-07
3.4509090488294034e-07
3.66954028038136e-07
2.663621016552959e-07
1.196552284472607e-07
-1.0483437211106649e-08
-8.955821904892832e-08
-1.1166537815177788e-07
-9.083333885337223e-08
-4.9327959879746664e-08
-7.684185067797808e-09
2.1061574425490477e-08
3.2682602740991934e-08
2.984441639275392e-08
1.874233870724649e-08
5.873280350980359e-09
-4.100921797030488e-09
-9.133229518001993e-09
-9.469404692806459e-09
-6.729316210172172e-09
-2.8971684209958397e-09
4.310257969813302e-10
2.402546440888852e-09
2.9008735505823563e-09
2.3116356629722123e-09
1.2179409728863971e-09
1.460341013756416e-10
-5.778922681706092e-10
-8.559084317576701e-10
-7.650223906073897e-10
-4.689079569816904e-10
-1.3506270056002597e-10
1.1875763473152423e-10
2.428854952478911e-10
2.46113178543646e-10
1.714172800327535e-10
7.004314367840414e-11
-1.7326663710719753e-11
-6.905653692492804e-11
-8.192832484806626e-11
-6.509528313513338e-11
-3.269011100962518e-11
1.9473844443720165e-12
2.9180628250525236e-11
4.345320336165685e-11
4.239030474347214e-11
2.6010061232138418e-11
-3.123848066701362e-12
-3.890133739381791e-11
-7.080276755814497e-11
-8.462299470109903e-11
-6.597094619213534e-11
-6.657766648067025e-12
8.759336488899942e-11
1.9141749493485573e-10
2.6032672498419683e-10
2.410686522645523e-10
9.253427504633494e-11
-1.869676484366624e-10
-5.358845069233196e-10
-8.228746257756775e-10
-8.7087325407131e-10
-5.177190506629981e-10
2.9530779946933056e-10
1.4344839681377113e-09
2.5277963447131983e-09
3.0099171764593627e-09
2.2885678416439234e-09
2.0747181833370244e-11
-3.5735400861598076e-09
-7.492906971520954e-09
-9.994532645177162e-09
-9.022693687731061e-09
-3.040238063332223e-09
7.912883656654583e-09
2.132390433972651e-08
3.2010274496378196e-08
3.312409000739016e-08
1.8560239913893492e-08
-1.3603742632133558e-08
-5.7732516271025505e-08
-9.902334432209949e-08
-1.154801151348693e-07
-8.457817345937404e-08
5.941896913100711e-09
1.460743434450797e-07
2.955558700962339e-07
3.861457166941701e-07
3.3901697811952257e-07
9.745943205568977e-08
-3.323354080161798e-07
-8.478154679203944e-07
-1.2446770127714738e-06
-1.2584894831118714e-06
-6.601122860348308e-07
6.108970972983445e-07
2.3185783290381133e-06
3.874812418659319e-06
4.424753821944012e-06
3.1132977512029113e-06
-4.936588615776323e-07
-5.950920884786177e-06
-1.1643023372523293e-05
-1.4901101491198807e-05
-1.2706730117548177e-05
-2.9765632109540274e-06
1.3868207054351e-05
3.365571187070885e-05
4.834237368118036e-05
4.7729673676401464e-05
2.3239378925536618e-05
-2.691848224973493e-05
-9.29233848154843e-05
-0.00015144499527322149
-0.00016929939272287257
-0.00011408364239505604
2.940162176243607e-05
0.00024167523170285773
0.0004580448547902576
0.0005742439725380141
0.00047484250944095514
8.364884462111844e-05
-0.0005759691952223643
-0.0013348083575151644
-0.001876542800790593
-0.0018081436770022062
-0.0008088657563157321
0.0011701204263786125
0.003724603764291923
0.005934968458848621
0.006522577635414451
0.004275096303845901
-0.0013127995104352114
-0.009375217294587988
-0.017304966467316493
-0.021040707552760527
-0.016273468508155267
-0.0005562860602040635
0.024115009120750323
0.049103653313111124
0.05839173778917071
0.03018246411064141
-0.05896412534597165
-0.028294040546612696
-0.087049557432756
-0.03067988309897697
-0.04048240004347003
0.11314095473773338
0.06498298086405843
0.04890002441568235
-0.10688059058678473
0.017830961719018625
0.03474760713686093
-0.052253289075199466
-0.046227619570570526
0.04349926471390143
0.0016281454230965232
0.007102173930708789
0.03385325885708538
0.052700221844802705
0.03468814001995297
-0.04446142245844088
-0.19992477535023667
-0.03511964654150653
0.057676669108542536
0.09330065778796964
0.08794414127856849
0.05433065555638399
-3.762235675589668e-05
-0.07110476013749929
-0.15434278984376013
-0.04113092244502239
0.08240580572487613
0.033397841635341576
0.02810656643764629
0.07765304055436953
-0.014649184745716463
-0.053609223117180506
-0.050507030134485785
-0.02058225672246231
0.019241240480192708
0.05196352081385491
0.06181696177326044
0.0359838036671008
-0.032969832231271666
-0.14459786038742037
-0.08959053685379582
-0.05199005402445773
-0.015153920472975303
0.2300696301546401
0.278497303801219
0.10926199881202223
-0.10758738633715888
-0.19787792964388315
-0.36888691234933685
-0.20092671974330276
-0.05032325038273353
0.3358864340253486
0.399216232070835
0.3524681790361154
-0.025283925614633187
-0.17812959630049519
-0.3513715170438862
-0.3681313404871286
-0.21554688074618986
0.1523843497929924
0.1953779517959921
0.1579165895702381
0.24176086135834365
0.19054665981353194
0.0933583570524584
0.20870137361423585
0.004434355573461588
-0.39621053512293103
-0.9765024243404341
-0.4109829648355561
-0.08359823134113206
0.46116506440544724
0.6481196284850045
1.206072794904494
0.531904373995935
-0.5015948767932308
-1.0973751364298805
-0.6657693317493827
-0.364328891716313
-0.06797218474108321
0.6242270016004801
0.7558298508406782
0.37317379324749156
-0.10209880707897565
-0.2783980376140055
-0.3798541930483728
-0.22319781819966336
0.001776480033993253
0.14019506587673994
0.06710081219967393
0.07305186132514493
0.0457772138666769
-0.14744834223480033
-0.07385510869884433
0.0558968517288111
0.3853712645844599
0.21857417130010745
0.036200991883797454
-0.2795806850342899
-0.417964273606395
-0.6195762895620592
-0.07260899308931831
0.472270106871736
0.6747135309481453
0.5790001079079226
0.20409414564548536
-0.444152357868266
-0.7447004819666351
-0.6332524116323974
-0.3929825814126651
0.12480976774951885
0.4527966019690294
0.6488620701121481
0.8505200111174029
1.0648015896938423
-0.7952418831919386
-0.6337844252830318
-0.6790696655038831
-1.2070413614298174
-0.911015489875625
1.0694595665546125
1.0696943947032043
0.5996039100139932
0.6583804342624223
0.09216531426668939
-0.39600261268022524
-0.7944118350166314
-0.5125036536276487
-0.11834671556653312
-0.10258601065129834
0.12498506045790096
0.4122726531914408
0.42874920896362656
0.03154085966420548
0.0451875996796263
-0.14050785584018172
0.04271674496979062
-0.23725374197426932
-0.19260457602443207
-0.20389640665934175
-0.02184989486306738
-0.18317708464964666
0.36391508622310337
0.43321055941340386
0.3836597716363056
0.12118585010395239
-0.07798443431574673
-0.5281326587605039
-0.49208810802563324
-0.352235126552208
-0.00646772482175623
0.10784915176986273
0.3692283159702772
0.5216593844460684
0.43554425929353785
0.09311465003015695
-0.19726200983391923
-0.36402414958585816
-0.5270824404757697
-0.5614906613805578
-0.0834783169528169
0.3371747287880899
0.7458652524921655
0.9689851989617607
-0.4061792289694205
-0.428410291219479
-0.360100734640588
-0.44899800879978397
-0.509159144064816
0.88073607332733
0.5639839548075067
0.18771572966984804
-0.2086052332180036
-0.39313335754402146
-0.3340408021311233
-0.19325309218772235
0.07140821461868346
0.49501493682778486
0.4912444716624713
0.04384898855548581
-0.2901420947068311
-0.36649437624912773
-0.4367310388763036
-0.1374244699779116
0.3089195984221851
0.6837493058876603
0.36189798537189005
-0.08975263610325226
-0.30038935753785007
-0.47516155758125683
-0.578423330742455
-0.13196631243541332
0.3667770227867698
0.6117113428510915
0.4537918617613708
0.2809960191679639
-0.17776463026362407
-0.4257929744808069
-0.5599339860283581
-0.23597277349813076
-0.05148466233129368
0.2486522295610584
0.3485154927284596
0.33027744053158303
0.04853991691728655
-0.08180509840720503
-0.08251120037752448
-0.19805911524748007
-0.27831879528944925
0.03515602486862566
0.11519174999589579
0.147580860623363
0.12570615103837754
0.04568579426722821
-0.09504682584298654
-0.09564738304764611
-0.1485623539354798
-0.03809928284313031
0.05718673931244651
0.15862291645943427
0.08052275092088826
0.025475561393556143
-0.01598265546252162
-0.06123160010773058
-0.12886790550992291
-0.03228014030309637
0.024087736953072737
0.04480434459257423
0.0405281884938816
0.023808474664940866
0.005372776119921797
-0.008013408616978508
-0.013904594435280745
-0.01319892146388547
-0.008558158572514966
-0.0028996629997585614
0.0016176805751614712
0.003990115170718291
0.004256784842394958
0.003102875896921136
0.0014072702605034118
-0.00010365573160008108
-0.0010271589987236737
-0.001291224495881326
-0.0010557549166508894
-0.0005776325874437493
-9.504455899419245e-05
0.00023990659922898733
0.00037701152880992983
0.0003461889228372932
0.0002187294379033833
6.987253179498981e-05
-4.610426033765971e-05
-0.00010511120683688322
-0.00010967091645902867
-7.835779619340012e-05
-3.411074793274485e-05
4.522734618306511e-06
2.755737775712425e-05
3.353922779159381e-05
2.686581001518846e-05
1.4265847021538373e-05
1.8449127935052772e-06
-6.589582922428777e-06
-9.871615779915759e-06
-8.870064927010555e-06
-5.47043364297963e-06
-1.6135351560302365e-06
1.3300152592051327e-06
2.777781258637555e-06
2.8276562914784482e-06
1.9774791938662745e-06
8.229109873429624e-07
-1.6423362791072864e-07
-7.376261122446234e-07
-8.704232522300049e-07
-6.830291089525378e-07
-3.514717659077451e-07
-3.208476229154068e-08
1.8000862747281732e-07
2.580770875494547e-07
2.2699904966644348e-07
1.365507089135174e-07
3.6740561005479006e-08
-3.786983006151391e-08
-7.32699454500403e-08
-7.282154490082175e-08
-4.9830220669967076e-08
-1.974439229580297e-08
5.448879942032081e-09
1.969054157218217e-08
2.2561784160427882e-08
1.7343196529668424e-08
8.633148315589811e-09
4.2993126102323163e-10
-4.894624734128263e-09
-6.7374120187828034e-09
-5.802525635769651e-09
-3.40162218363249e-09
-8.217760600911917e-10
1.0668368843912191e-09
1.9291723141433154e-09
1.873258057673427e-09
1.2537805227652346e-09
4.708894215644773e-10
-1.712832416498684e-10
-5.241998994705348e-10
-5.840887462766992e-10
-4.3994079698286924e-10
-2.116706952553989e-10
-1.3420052165587783e-12
1.3212171817629703e-10
1.7546677906995425e-10
1.4843874736504102e-10
8.544248827134587e-11
1.934606438011397e-11
-2.8279027318753524e-11
-4.975958056335792e-11
-4.854047727810965e-11
-3.384614190166524e-11
-1.5411877405504e-11
1.6186735009682724e-14
9.838400802989008e-12
1.476833868194617e-11
1.690132540761705e-11
1.7717506993211752e-11
1.6878599382530304e-11
1.2302549372645756e-11
1.5239327347090572e-12
-1.6144594661420243e-11
-3.7549365081069255e-11
-5.484583066743473e-11
-5.684906822424932e-11
-3.2991366049096886e-11
2.0735093037247182e-11
9.574142011496212e-11
1.6766580290334205e-10
1.9925641575097093e-10
1.5135205046843133e-10
1.1903207736854783e-12
-2.3676735534851157e-10
-4.96313460905042e-10
-6.620866669130407e-10
-5.979197581201901e-10
-2.0190409100304662e-10
5.234733485602598e-10
1.4119438996581846e-09
2.1203296804887774e-09
2.1949901981857805e-09
1.231278946020326e-09
-8.98592019821046e-10
-3.821872143209334e-09
-6.558440352498204e-09
-7.651291137317984e-09
-5.607778027062567e-09
3.854667519157395e-10
9.667412954985565e-09
1.957261286476168e-08
2.558135714934588e-08
2.247080087961525e-08
6.4807571823267715e-09
-2.1984240396005168e-08
-5.6136966246937094e-08
-8.244766043438221e-08
-8.339816850100015e-08
-4.3800223961231084e-08
4.036715404797783e-08
1.5349420827718004e-07
2.566389310980375e-07
2.9317564374189314e-07
2.0643702575515666e-07
-3.2383353042838846e-08
-3.938633674869037e-07
-7.710544453886228e-07
-9.871890462584913e-07
-8.422698766190438e-07
-1.9814898133914844e-07
9.174911192744865e-07
2.2285267378994086e-06
3.2022689174155853e-06
3.1630639497666803e-06
1.542286826801667e-06
-1.7793070789929963e-06
-6.1519817504832795e-06
-1.0030882208349681e-05
-1.1217812723019147e-05
-7.565328910394812e-06
1.93550462735766e-06
1.599706688510393e-05
3.0336752170009283e-05
3.8049136615346546e-05
3.1486735386222637e-05
5.598111157176079e-06
-3.8075857040122495e-05
-8.833496630028031e-05
-0.0001242328011245753
-0.0001197425524244685
-5.3634790186225644e-05
7.727552890539879e-05
0.00024608549856170575
0.00039159783245118284
0.0004285733423932785
0.00027578200188221376
-0.00010164054144912972
-0.0006481010368052131
-0.00119244110786618
-0.0014652013297126402
-0.0011743309743642532
-0.000135932861340401
0.001572488420362876
0.0034988087934031964
0.004822240094462858
0.004544848588015145
0.0018821237660989693
-0.0032242819661744936
-0.009653743130576212
-0.014973088090787925
-0.015877138179840593
-0.009328149735861341
0.005743708146139729
0.026656723708753983
0.045880241017066316
0.05146184335038278
0.029503896509863268
-0.03153101804895327
-0.1359117913877239
-0.0771684626566688
-0.03812857908570494
0.004563317265912116
0.07236429688524253
0.17595704315950006
0.10924345544391162
0.049274902316058584
-0.03689706501497211
-0.18033989152963073
-0.1976556288732492
-0.08280180422235232
-0.006986937348093933
0.07287386216450417
0.20019992503208706
0.20466298702282962
0.09345216920278038
-0.14890115257832562
-0.15262428272083464
-0.15058609213960217
0.032889980377795204
-0.011586264138029167
0.12198698800560408
0.050858233805844776
-0.0028669340395169295
-0.21892938986923657
0.01494220302073829
0.09781842902623017
0.21225233505184726
0.1247830230422319
-0.008020608044845542
-0.22832696649948278
-0.16392382422950597
-0.2183689393840071
0.031173171798214393
0.22721557489935973
0.219210602558305
0.05023973226089049
-0.051758007061500126
-0.07598943621750548
-0.02526147683918514
-0.11019813267145145
-0.14467968089034397
0.05533240847953463
0.0694786927935415
0.06926684379542808
0.216464522911761
0.26713656125168894
-0.01702839393323295
-0.2519640674092512
-0.41504791164990423
-0.43818384662095267
-0.21771429944936585
0.1570354129511574
0.5634856112013885
0.8085746327176782
1.012001955935215
-0.7781555786037209
-0.5386048754071959
-0.6088744771361475
-0.6388715124683015
-0.7676704024106742
0.9575590753078513
0.7302909209622305
1.5222628218788576
-1.365484694696996
-0.3226816296161168
0.3792561719039891
0.21515226581362426
-0.9587634762351609
0.9295709505555327
-0.0032407623136350393
-0.5767427866356682
-0.5402021775195295
-0.18246634750539692
0.6411283250988842
0.47045563168833976
0.203028028150025
0.07020763442170667
-0.1656284589190591
-0.19457244273233493
-0.33162104185448577
-0.08846742448215758
0.04723214505966667
0.22187873422089005
0.21692212992770016
0.04509445293612261
-0.25458183208971774
-0.22246111593146978
-0.1867155652279865
0.1233578878688289
0.3600210280933647
0.14042494138226788
0.036974722917744944
-0.02066440302294804
-0.13146752245451607
-0.000401139093452043
0.08717148940804748
-0.11166864996255285
-0.18220116204268086
-0.2484794051927348
-0.18391610475516035
0.1641878570426313
0.34063827629067217
0.24740201030155087
0.11773106185356143
-0.0930582176336757
-0.09778633840738538
0.14847711018898543
0.48416944158888064
-0.8208063863643669
-0.433633098372281
-0.14285270623758822
-0.0650313568150987
-0.07353549432960008
1.159670856101764
0.5244026400643045
-0.15020235837051202
-0.4935380173578431
-0.5710632216705348
-0.25472306298992475
0.19988661906777308
0.36274001736825573
0.22706055713569928
0.0026418412366178735
-0.08878184184908862
-0.21421153176727648
-0.12855200527649335
0.02373780112947704
0.10200233850335097
-0.04183906687823144
0.02370390497843099
0.0986449963559537
0.14587317763187288
0.09340834190387015
0.04549581558829844
-0.09887947883516003
-0.22416855757799134
-0.17914899787912597
-0.166543513805764
0.05502311524983646
0.15723767925035056
0.22117949638310216
0.1163683244947182
0.08642760792679421
-0.054975935650674296
-0.11831697573441158
-0.12632928156801396
-0.10142666321179637
-0.05719421097494893
0.0035386643792387935
0.0844348881940792
0.18808210534018746
0.1092547786932924
0.03264591532749063
-0.06344807005606795
-0.19895742802258615
-0.18318665218945404
-0.009547955752452469
0.14361104879016118
0.10665472710672763
0.10995004921028348
-0.02339931271556504
-0.08100586655562453
-0.06075055936062693
0.031988805429879995
-0.012473110661339621
-0.005742852145794949
0.039886708356536765
-0.08831477620856784
-0.0039167559742173085
0.07807542863319283
0.14112904293886755
-0.03156359191302389
-0.054129011456363445
-0.13417814443894602
-0.07004275999306368
-0.05107690830400532
0.13831546530817537
0.11228223200529602
0.07760721664524745
0.0311519456297361
-0.038010822709586986
-0.1427049911349275
-0.09074264575469869
-0.08021290727915308
0.100908850550802
0.07081548127684434
0.047574469356763176
0.043332565579071246
0.06129887485088797
-0.10367396495102907
-0.06166117784304286
-0.023186546748722506
0.00438617427475858
0.01844096131020126
0.020646532699452193
0.015220686593353207
0.006916942232772415
-0.00051098202562741
-0.005032507958636816
-0.006299171419452713
-0.005115811690893176
-0.0027576371550435954
-0.0003968575200717006
0.0012256473016688028
0.0018727246154424428
0.0016994844317044823
0.0010604981724339274
0.00032571362566589284
-0.00024072056172866522
-0.0005240658529574192
-0.0005399529802457005
-0.0003816550005980063
-0.0001624995764123012
2.6829854145638326e-05
0.00013825361477428486
0.00016564140540398462
0.00013131780894419588
6.86509036055099e-05
7.591688450924386e-06
-3.341024324193106e-05
-4.893561631999738e-05
-4.3499743886880105e-05
-2.649591420968155e-05
-7.474817202200429e-06
6.891417826331636e-06
1.3832580396777577e-05
1.3911178000037674e-05
9.623053868472617e-06
3.909080231713415e-06
-9.253224090158637e-07
-3.695697309115499e-06
-4.296208770210787e-06
-3.336508809622882e-06
-1.6888613620454199e-06
-1.1970111527669066e-07
9.104932762550411e-07
1.2784223281340082e-06
1.1125808018987842e-06
6.607155205733278e-07
1.68774970024725e-07
-1.951232169435864e-07
-3.645313490361492e-07
-3.5805232625917e-07
-2.423030009655503e-07
-9.350769159714765e-08
2.9798942634392998e-08
9.852776746192945e-08
1.1129170435908616e-07
8.46643663755215e-08
4.1415719978831854e-08
1.1361517805662081e-09
-2.4704574526101966e-08
-3.335149160750924e-08
-2.842289054522088e-08
-1.64413953307447e-08
-3.733394467459109e-09
5.471617732735235e-09
9.589796852605944e-09
9.20518665452043e-09
6.0914181930499556e-09
2.2217574043022755e-09
-9.1952740663296e-10
-2.62040820707756e-09
-2.879511741227075e-09
-2.14555181494255e-09
-1.012109433199846e-09
2.0664914120688594e-11
6.67697456073286e-10
8.688950370692385e-10
7.252570345025932e-10
4.082181532054171e-10
8.032257316447939e-11
-1.521963033682499e-10
-2.518613567918569e-10
-2.36386551182076e-10
-1.528837270166973e-10
-5.2375234886962506e-11
2.7552306113699366e-11
6.953404652895639e-11
7.44150354815968e-11
5.429892359124799e-11
2.4638890161439836e-11
-1.8112019995025413e-12
-1.798243023198918e-11
-2.2607223411508102e-11
-1.848401140580081e-11
-1.0111319235593268e-11
-1.6606338831507873e-12
4.20426276154237e-12
6.604207060927595e-12
6.063378095844006e-12
3.830451993104013e-12
1.22315338049186e-12
-8.080034082146693e-13
-1.841246713681507e-12
-1.9208799785300068e-12
-1.3722955057505105e-12
-5.972758518433255e-13
7.934734104959526e-14
4.827230038701793e-13
5.874215922463288e-13
4.704879338478248e-13
2.4978183552847193e-13
3.2236647857414345e-14
-1.154724021144114e-13
-1.7293399063078805e-13
-1.5537452868088523e-13
-9.582182339817315e-14
-2.8268407906504065e-14
2.3282499060530926e-14
4.8633117870733905e-14
4.950083209025161e-14
3.460668751206294e-14
1.4383775450340123e-14
-2.9048376408078438e-15
-1.2945777906586161e-14
-1.5269814583754766e-14
-1.1986373421141995e-14
-6.178723728408647e-15
-5.848818455242888e-16
3.1293737713772414e-15
4.496143140671612e-15
3.951373541899508e-15
2.366972061299434e-15
6.188117240922686e-16
-6.878444642699559e-16
-1.3076953114065567e-15
-1.2996925611537004e-15
-8.9691794407508e-16
-3.699511933175342e-16
7.127514033822664e-17
3.206646247303283e-16
3.7090552642244446e-16
2.7947100693149896e-16
1.2690455460525148e-16
-1.6768353874214624e-17
-1.1001311544993287e-16
-1.4227395068724023e-16
-1.2588814335935662e-16
-8.383122843961109e-17
-3.8645620612385106e-17
-5.570385932461473e-18
9.528448831367674e-18
8.544718394860731e-18
-2.308322833466648e-18
-1.6021806348281377e-17
-2.7268990700374933e-17
-3.344849456454139e-17
-3.4494554364217566e-17
-3.19662969874075e-17
-2.796480524687789e-17
-2.427890758420541e-17
-2.1942054910598522e-17
-2.118748526596294e-17
-2.1669381427723912e-17
-2.2783370026148903e-17
-2.3949938131899496e-17
-2.478600980969564e-17
-2.5152255222973208e-17
-2.5107018724173258e-17
-2.4815527544648137e-17
-2.445911581829305e-17
-2.41727645591185e-17
-2.4020034860446867e-17
-2.399947770025778e-17
-2.4068961476439732e-17
-2.4173750842345714e-17
-2.4268203442511502e-17
-2.432666285375574e-17
-2.4344118851012273e-17
-2.4330187174933316e-17
-2.4300739550254082e-17
-2.4270656899214628e-17
-2.424955297591483e-17
-2.4240710980490638e-17
-2.424238474093344e-17
-2.4250190307093707e-17
-2.42594417311078e-17
-2.4266723176832185e-17
-2.427048760142216e-17
-2.4270852827244262e-17
-2.4268953361466984e-17
-2.4266213239064593e-17
-2.4263795640264227e-17
-2.4262335983279734e-17
-2.4261937611311156e-17
-2.4262334978025793e-17
-2.4263111930454635e-17
-2.4263886788017647e-17
-2.4264418699837646e-17
-2.4264631026865618e-17
-2.4264574931245686e-17
-2.4264366486240528e-17
-2.426412664230847e-17
-2.4263941720478263e-17
-2.4263849213309142e-17
-2.4263844026562625e-17
-2.426389570819401e-17
-2.4263967257010765e-17
-2.426402906583072e-17
-2.4264065438219194e-17
-2.4264074374157514e-17
-2.4264063163537276e-17
-2.4264042701163615e-17
-2.4264022765533735e-17
-2.4264009379630085e-17
-2.4264004312056553e-17
-2.4264006088011134e-17
-2.426401164034375e-17
-2.4264017850779118e-17
-2.4264022541050367e-17
-2.426402480690928e-17
-2.4264024832196178e-17
-2.426402343190115e-17
-2.426402156623264e-17
-2.4264019987867032e-17
-2.4264019083463543e-17
-2.4264018887517976e-17
-2.426401920094202e-17
-2.4264019738930405e-17
-2.4264020251250943e-17
-2.42640205875759e-17
-2.426402070766697e-17
-2.4264020653491036e-17
-2.4264020505943034e-17
-2.4264020345324113e-17
-2.426402022651977e-17
-2.4264020171219334e-17
-2.4264020173344368e-17
-2.426402021114208e-17
-2.4264020259724998e-17
-2.4264020299982746e-17
-2.426402032241945e-17
-2.4264020326583755e-17
-2.4264020317887867e-17
-2.4264020303766437e-17
-2.4264020290615472e-17
-2.4264020282179366e-17
-2.4264020279357127e-17
-2.426402028096704e-17
-2.426402028487934e-17
-2.4264020289028494e-17
-2.4264020292033702e-17
-2.4264020293377992e-17
-2.4264020293252172e-17
-2.426402029223539e-17
-2.4264020290971917e-17
-2.426402028994634e-17
-2.426402028939109e-17
-2.426402028930657e-17
-2.426402028954626e-17
-2.4264020289916347e-17
-2.426402029025354e-17
-2.4264020290464772e-17
-2.426402029053044e-17
-2.426402029048352e-17
-2.426402029038e-17
-2.4264020290272943e-17
-2.426402029019703e-17
-2.4264020290164497e-17
-2.4264020290169556e-17
-2.4264020290196824e-17
-2.426402029022964e-17
-2.4264020290255736e-17
-2.426402029026944e-17
-2.4264020290271033e-17
-2.4264020290264463e-17
-2.4264020290254778e-17
-2.4264020290246144e-17
-2.4264020290240862e-17
-2.4264020290239355e-17
-2.4264020290240702e-17
-2.4264020290243435e-17
-2.4264020290246193e-17
-2.426402029024811e-17
-2.4264020290248892e-17
-2.4264020290248714e-17
-2.4264020290247986e-17
-2.4264020290247136e-17
-2.426402029024647e-17
-2.4264020290246134e-17
-2.4264020290246107e-17
-2.4264020290246288e-17
-2.426402029024654e-17
-2.426402029024676e-17
-2.4264020290246892e-17
-2.4264020290246926e-17
-2.426402029024689e-17
-2.4264020290246815e-17
-2.4264020290246745e-17
-2.4264020290246698e-17
-2.426402029024668e-17
-2.4264020290246686e-17
-2.4264020290246704e-17
-2.4264020290246726e-17
-2.426402029024674e-17
-2.426402029024675e-17
-2.426402029024675e-17
-2.4264020290246748e-17
-2.426402029024674e-17
-2.4264020290246735e-17
-2.4264020290246732e-17
-2.426402029024673e-17
-2.4264020290246732e-17
-2.4264020290246732e-17
-2.4264020290246735e-17
-2.4264020290246735e-17
-2.4264020290246735e-17
-2.4264020290246735e-17
-2.4264020290246735e-17
-2.4264020290246735e-17
-2.4264020290246735e-17
-2.4264020290246735e-17
-2.4264020290246735e-17
-2.4264020290246735e-17
-2.4264020290246735e-17
-2.4264020290246735e-17
-2.4264020290246735e-17
-2.4264020290246735e-17
-2.4264020290246735e-17
-2.4264020290246735e-17
-2.4264020290246735e-17
-2.4264020290246735e-17
-2.4264020290246735e-17
-2.4264020290246735e-17
-2.4264020290246735e-17
-2.4264020290246735e-17
-2.4264020290246735e-17
-2.4264020290246735e-17
-2.4264020290246735e-17
-2.4264020290246735e-17
-2.4264020290246735e-17
-2.4264020290246735e-17
-2.4264020290246735e-17
-2.4264020290246735e-17
-2.4264020290246735e-17
-2.4264020290246735e-17
-2.4264020290246735e-17
-2.4264020290246735e-17
-2.4264020290246735e-17
-2.4264020290246735e-17
-2.4264020290246735e-17
-2.4264020290246735e-17
-2.4264020290246735e-17
-2.4264020290246735e-17
-2.4264020290246735e-17
-2.4264020290246735e-17
-2.4264020290246735e-17
-2.4264020290246735e-17
-2.4264020290246735e-17
-2.4264020290246735e-17
-2.4264020290246735e-17
-2.4264020290246735e-17
-2.4264020290246735e-17
-2.4264020290246735e-17
-2.4264020290246735e-17
-2.4264020290246735e-17
-2.4264020290246735e-17
-2.4264020290246735e-17
-2.4264020290246735e-17
-2.4264020290246735e-17
-2.4264020290246735e-17
-2.4264020290246735e-17
-2.4264020290246735e-17
-2.4264020290246735e-17
-2.4264020290246735e-17
-2.4264020290246735e-17
-2.4264020290246735e-17
-2.4264020290246735e-17
-2.4264020290246735e-17
-2.4264020290246735e-17
-2.4264020290246735e-17
-2.4264020290246735e-17
