0
-7.754991812339343e-05
-7.754950000953563e-05
-7.754916325450774e-05
-7.754912104059305e-05
-7.754956513237967e-05
-7.755055894013608e-05
-7.755193176923436e-05
-7.75532270598771e-05
-7.755376146319225e-05
-7.75528299727685e-05
-7.755004079412735e-05
-7.754569022619119e-05
-7.754101603043983e-05
-7.753813389324423e-05
-7.753950435137007e-05
-7.754692035587806e-05
-7.756023618529544e-05
-7.757631399422123e-05
-7.758883348001834e-05
-7.758955944785151e-05
-7.757128880399915e-05
-7.753199943693634e-05
-7.74788539538875e-05
-7.743000091115335e-05
-7.741200745576312e-05
-7.745165295578661e-05
-7.756285481287534e-05
-7.773234422574721e-05
-7.791042558568794e-05
-7.801432414221931e-05
-7.794977876968041e-05
-7.765082854272587e-05
-7.712874581229901e-05
-7.651130957111016e-05
-7.604745767368717e-05
-7.605493002540302e-05
-7.680361533534891e-05
-7.83547706627333e-05
-8.040973653343672e-05
-8.224821512945731e-05
-8.28385143713678e-05
-8.116524188429491e-05
-7.673916981488845e-05
-7.014373722594499e-05
-6.337012904217346e-05
-5.965308152095423e-05
-6.259853826939835e-05
-7.462203187853566e-05
-9.50673093302304e-05
-0.00011874678178592288
-0.0001358679351488882
-0.0001341864303630111
-0.00010361726378478912
-4.24582938108744e-05
3.6904998442146964e-05
0.00010592591292496915
0.00012458345234074336
5.4443696882479546e-05
-0.00012148079149122526
-0.0003779150573871202
-0.0006352523086452373
-0.0007672538629025658
-0.0006361930688565775
-0.000154039694177668
0.000645381710901643
0.0015525065302195691
0.002183681230164246
0.0020699432853778
0.0008400127177285902
-0.001537649251470665
-0.0045383563946667154
-0.007011723646915122
-0.007379659896223045
-0.004162974400819408
0.0032228840071633494
0.01361769234779777
0.023555644031638054
0.02735515185640469
0.018046126557400087
-0.011074598044668163
-0.06501119742889787
-0.14697006226275905
-0.06079296982658943
-0.0162469718609905
0.16428086885393295
0.24116695447792824
0.3595366494340423
0.06116793197940719
-0.2942755683263284
-0.5047369127057011
-0.30825470409892464
-0.18262337765029488
0.03298128295457538
0.2981611412930279
0.5248905623899096
0.5401136664534653
0.07105656055017347
-0.4403992752265617
-0.19801440385546068
0.001944682825722758
-0.17735176791668456
0.025264799036746666
0.08645553578654384
-0.40902194821197657
-0.6017747344907614
-0.4157480486335537
-0.034092832141053395
1.022271013313312
2.6380332994391513
-0.30331814114869043
1.1409156135942744
-2.506981310094095
-1.8006585124588623
-1.853349362889731
1.5054668165831548
-0.11483246592505929
2.6221778081107963
0.6460760794046634
-0.8320055839689962
-1.3847271300337944
-0.7889748372099007
0.9838106924205121
3.1971545880928742
-1.9992170614370612
-0.29208381065160244
-0.10952561629077233
-0.9312281283132737
-2.431405501389128
2.9290505653328336
1.063115388079007
-0.4100273340704473
-0.6367934222626884
-0.5915388148586579
-0.1303719037989287
-0.24221827182548267
0.5039088299393627
0.9271895328979036
1.4371561789248963
0.28561399502166435
-0.5290382311217636
-0.9233250119806213
-1.59376276447075
-1.7306831215099423
-0.2156722824595592
0.8888931086548828
1.5831002940685068
1.7568847823943885
1.059756336499145
-0.14559420886888202
-1.1371744364455394
-1.5209254440988076
-0.8983933197625462
-0.16170714545454704
0.5563333885560224
0.4758268453150239
0.926721954043428
0.49646313792705404
-0.01032305431637874
-1.5930849230449546
-0.2653658331699637
-0.26845166833420037
0.3015934693676859
0.6573561829249669
1.090664828161335
0.5711685563087976
0.3864979455107889
-0.7786819023342132
-2.146500995310709
-0.5672579344141874
0.10861388204161275
-0.007335368388212956
0.26488353351634636
1.45568579587921
1.34333282497457
0.5018928869431138
-0.6821659373346296
-0.7314959732322143
-0.7672831186284569
-1.207167775375425
-0.7069573737182392
0.636588145885515
1.0281783996535536
1.088441804969599
0.5760869425962496
-0.05361119045677447
-0.6444472848100823
-0.9005418218449754
-0.7378186119409411
-0.050380878371960855
0.49511782594423387
0.44056305803337875
0.7093882296750278
0.3915790278764921
-0.045581921289315486
-0.3197549717290738
-0.2805220495036579
-0.8614035748029669
-0.8583474887517301
-0.14933150482669702
0.4436941551604087
1.0657619392490159
0.9410510411368355
0.7173353703820886
-0.13653821274915764
-0.6790937821079548
-1.2101227427512609
-0.5818924571282512
-0.13819092336116603
0.5020758362420668
0.4188844250287068
0.3394845316481641
0.1828093428815222
0.017161335568411054
-0.36046935114183215
-0.023472322879164495
0.3021391705171759
0.26669010580093533
0.1322119040580348
-0.5912441176324614
-0.7167001367994499
-0.3691948840630638
-3.657142542685874e-05
0.5753667423304324
2.3291194830081476
-1.4191399575346118
-0.4198533580526847
-0.28858620976521643
-0.4904163851590594
-1.1268518843009028
3.070837851992422
1.3500820001351803
-1.6396645153061065
-1.2051251572898816
-0.9645286287958456
-0.8276525104476019
-0.2202262339391514
2.6514178572953773
2.3239050298760806
-0.9732710697758207
-0.9163692567779873
-1.0387159272512572
-0.8647263845268721
-1.0622715587495386
1.7660865205295189
1.056442403817089
0.443680605379366
-0.26587634946855
-0.6959342805335609
-0.680614376242953
-0.2397804071339875
0.4359924157320869
0.5862544005574987
0.4733916701557906
-0.022815365849679622
-0.4034963124597068
-0.745825530553336
-0.7059548441916489
-0.14013152519621297
0.8546697184036867
0.8925363042129285
1.064439333518412
-0.06127757719006234
-0.5960961757723463
-1.0574577796441555
-0.6896605586119957
-0.40759662964370735
0.8195644081991171
0.9453065158597064
-0.20170273642145867
-0.37062388436508253
-0.33437439300268107
0.07547580746422118
0.345231339712948
1.6694949544209357
-1.2401255214635973
-0.5275112283580327
-0.15394190619265294
-0.2637938438075545
-0.7659033766140494
1.8670967277399173
0.38937325579187415
-0.42495203190599384
-0.3776277557906144
-0.43319485911746525
-0.30781414379785244
0.12889897162821332
0.23498055374294893
0.16480288254747996
0.2354437258398363
0.1013444635622235
-0.0555922574352843
0.08158122274199191
-0.012720646684938317
-0.0752243113294717
-0.22095879756901676
-0.1168437981640784
-0.3685187683102963
-0.12440336754641369
0.3036132982331349
0.4089158533631194
0.2586301324847896
0.07258465990930317
0.019365232973503448
-0.3708200639234902
-0.18291189538971023
-0.09264628300011625
0.050965806946442635
0.032435579518887994
0.06640276874284587
-0.012610855046170363
0.03678962012460901
0.050641502518224274
0.05074757555466691
0.04073440280580676
0.007552849346095466
-0.072290349948779
-0.023635737110608943
-0.06326535420056668
0.007319736831320597
0.005198176255668885
-0.035290420556705976
-0.06824980439062016
-0.04539804729741091
0.07288678109694521
0.10709366123541465
0.2518694373091132
0.07610889463608839
-0.06885720348838602
-0.23480735540660655
-0.2609008540286904
-0.1629491040657939
0.06780952824274586
0.25620016177337407
0.22928288414932574
0.20411011470263005
-0.017114976775724322
-0.2427684356618191
-0.2816174865484474
-0.1329589069336723
0.01713607522780554
0.19132901898534227
0.21074476497501624
0.08434056674380225
0.0031773975111271746
-0.05791134100334104
-0.13234079388846484
-0.051123144880473204
-0.03380538813409091
-0.08416318586483194
0.008168387127131744
0.06100915444496598
0.09042497673405654
0.10243696905246241
0.08893508164700052
0.0297477755480145
-0.09937341342150584
-0.1154368385051823
-0.21772777923530215
0.017647332260077017
0.035767105626466796
0.09392352595137259
0.04879649126979668
0.14411201647824684
0.002603042807226016
0.0243467770483207
-0.008677289514966095
-0.12400281298153859
-0.14955212889759625
-0.10759857338072035
-0.014205478778404786
0.11591364028956772
0.26198568384044346
0.19191323083729792
0.06344620179355677
-0.16682404643378257
-0.32952324923921555
-0.22985503211448274
-0.04288709376277133
0.07980320981583479
0.1939142027249348
0.34299393961571456
0.14384593820062808
-0.01712363824986727
-0.1751805202310698
-0.17000810419344384
-0.22723618663955042
-0.1462602956565964
0.10102130447528028
0.160463593750732
0.07909589069951518
0.08814745335498021
0.1917318249938697
-0.035143751127775964
-0.038802225809497715
-0.07203594946672408
-0.17710021408451707
-0.17221807402241573
-0.046144272531314715
0.037350773855317786
0.12670642387290307
0.2661888853031836
0.08189609704763291
-0.024961288867166427
-0.07572739752739772
-0.10479756844749487
-0.1473032096302872
-0.0287148308427609
0.04043644025349491
0.06400302293055095
0.05538902598419619
0.031152661996836944
0.005555260817227515
-0.012509466341927903
-0.020016553099563315
-0.01844280604565021
-0.011585610353001298
-0.0035097294763409516
0.0028088733325121714
0.005993707495888307
0.006100312144333523
0.004085375955621078
0.0012186096349002433
-0.0013622418624941418
-0.0028858585215973637
-0.003008016750934714
-0.0017814963009813519
0.0003938991808126045
0.0028197585933597905
0.004578905569947495
0.004707162776649922
0.00249700547570607
-0.0020975577644202115
-0.008085006588240554
-0.013304979143995501
-0.014775269183111688
-0.009655292976390211
0.0032574703171490654
0.021885678699389517
0.03975020050782471
0.0461281269712105
0.02801295101852505
-0.026227933642982593
-0.1224805831700178
-0.05751192733471257
-0.018371943150410044
0.014551346459932623
0.061484696859999154
0.1362974423127318
0.041221751092925606
-0.034731817006971186
-0.11320564539253511
-0.021006932339626944
0.01618537352856409
-0.020873055451555392
0.058576512420293866
0.057300449789559484
-0.009000712126016358
-0.11168568670086497
-0.010570599780378888
-0.057597117505085636
-0.0032721912804962805
-0.0053268792536592
0.16218899310738313
0.1019892306131082
-0.008628201457540608
-0.013842839438663157
0.030148798272577423
-0.13237374354327003
-0.14467336009033194
-0.029568700527826
0.012266566139603977
-0.002492264329408022
0.1509086741600055
0.09503425313322678
0.04259310795161654
-0.006256763805237428
-0.06134517429045478
-0.13646043844120678
-0.04280441571667688
0.015334726535021735
0.0413496224882717
0.043954704195512
0.03337012025934958
0.017940032033973524
0.0024601743845115527
-0.011472179680028517
-0.023643898824279745
-0.0330414706913168
-0.03650456125574597
-0.029127481150590568
-0.006679367025924112
0.030528785372361474
0.07372662189774742
0.10361160319966121
0.0918537815190924
0.006865923501350963
-0.17729759020398736
-0.27201480239925957
-0.06920495142303727
0.056568894124033445
0.13916359589213426
0.20883503565440395
0.28285128936152226
-0.036403879630828404
-0.15443528471726015
-0.27188095994124867
-0.17249428376193973
-0.21866737492275676
0.041788958885274785
0.25903595708459465
0.4611837442088432
0.23979252446960378
-0.05175693538969213
-0.28521396602774557
-0.3348047251208417
-0.25454473812898853
-0.06476460761269276
0.2476649881926897
0.31741081449291014
0.18386352229678998
-0.12296908275466713
-0.18941794721873548
-0.018140360771781897
-0.02436124819544795
-0.03173558101522975
0.13054129319560212
0.229548764790825
-0.3697668151440176
-0.10298784479305981
-0.00537241162937109
0.08763939574823634
0.13977888920758244
0.5164516282779809
0.19384876325647446
-0.4248127064004413
-0.6908199961483976
-0.2990638565533184
-0.09469247443437824
0.09901940457458637
0.6379127678233145
0.8138286269445836
0.22762254167207543
-0.4110712048773736
-0.658195313857895
-0.49578270772023375
-0.09496016161888225
0.20710835256710008
0.7152747838568339
0.5775404284566066
0.18976915636721994
-0.5913331023743266
-0.8330310907210494
-1.1240843690231206
-0.20010122732579677
0.5990627127163135
1.4534183170670834
1.1971053039692516
0.294009197216593
-0.1276206552181859
-0.5879479073620477
-1.7451853269241606
-1.3032382847505886
0.22630298986301386
0.291498567749272
0.4076025141601774
1.2381551901524486
0.8919435363975127
0.6722654881385459
0.29766391484527294
-0.6101493487672918
-1.1985230724198714
-1.2589955985723902
-0.9499375402491826
-0.5977335029004767
0.4179263337361906
1.1182331175072335
1.7656413927548316
1.5458690418234171
0.33666497123380545
-0.21892692512520398
-0.7525696757566351
-1.7722340555132001
-2.488508970544689
-0.12255544751558671
0.6735223544686372
0.890952095703508
0.974539588592513
1.426596029871648
-0.14322820128726046
-0.6908068028236504
-0.12701181370566242
0.9627526519292162
1.4465796306584864
-2.4033706007098408
-1.3670854479087986
-0.7743974220398504
-0.47469151559744854
-0.6886921981828322
3.2775478265776603
1.9015833886777358
0.3494972759385841
-0.7461648095280435
-1.2330860286734302
-1.1429819498520157
-0.8012126938429612
0.016716095458715066
0.063795089944239
0.5432387445030428
0.4002165203086064
0.6184177352296374
0.95377811615324
0.5274575247434885
-0.11537183731936161
-0.29280532798410247
-0.8488422373930267
-2.031590388891957
-0.8267899241912731
0.02786943549727343
0.7482258694777228
1.158909394522451
1.9487716048707038
2.378845483197126
-2.12344367530913
-1.0839894158758523
-1.0513034314478986
-1.0703721496160818
-1.8096628561196526
2.4365012773066455
0.8806478260017145
0.745744247759192
0.5828217689856796
-0.1671904371879331
-0.7613207854986214
-0.7077859485436786
-0.5112221139691515
-0.4345970096713112
0.10954048325134481
1.1419917431388604
2.2908708781321905
-1.62278870523252
-0.7767296073186265
-0.3234809200101942
-0.5710672599736492
-1.1874109655477236
2.3666246478274715
0.7876959609797062
-0.11340802602443538
-0.42899538561902595
-0.7400227554494276
-0.27997432182008347
0.3072476417979164
0.8050257547110269
0.25571085333414156
-0.41138087137069246
-0.7570223591599137
-0.4224679819346385
-0.3440371386290692
0.20303506095854773
0.7379609466984345
0.7023389449212525
0.20426511501677727
-0.004665893104792151
-0.3144280602223525
-0.41125353262587955
-0.21732724130386852
-0.03161609097265276
0.1169355644796617
0.29956786153240766
0.10227248330847656
-0.17259528731930876
-0.31684413300047876
-0.44108382289543197
-0.21599798442613583
0.07079825760923873
0.4503454290827396
0.6156323407522704
0.8912785573169948
1.0447563348086302
-1.4571204898396342
-1.35939596279502
-0.1252937039474508
1.1318688328248718
-2.3286073838077215
0.8992508701856905
1.103857489700927
0.17294925027790228
-1.0848110251346796
1.807403192388011
0.5802029673062663
-0.35467583115043994
-0.8423272321376654
-0.9067749424429559
-0.48386567985573853
0.011704012915391207
0.4759178551212449
0.4691861620403562
0.15346905432738875
0.03413468718838221
0.12253022831807639
0.32705421214569635
0.07331327391357947
-0.051583468310465494
-0.240352806606091
-0.4063186528855105
-0.5392048074169962
-0.08919327771952008
0.014138020287062694
0.1106865580775392
0.13802910679724376
0.3559998628146312
0.4858243770010843
0.4790833250980529
0.125255814301956
-0.30298732214107793
-0.5782607839200373
-0.6403337361716419
-0.3326999461366748
0.23096073282619442
0.4667252011539657
0.29453895120322077
0.10036834368549837
-0.10095055194461465
-0.2955737413318402
-0.09287439095146123
0.05739580332531673
0.25138708182095215
0.12200373793155501
0.037134296785337875
-0.09287188959761584
-0.1994325145568417
-0.2352062170401432
0.24709473144888452
0.714196869869123
-0.5300639404213637
-0.12898014921276263
-0.06192682918568022
-0.24351735800648575
-0.7379613113364693
0.6104159903258085
0.33568195488300084
0.3090939580407204
0.31220424841950106
0.23528940119271213
-0.09568825241500002
-0.26962652358689365
-0.43190837725305414
-0.43429606288756933
-0.20869087211683626
-0.173770101052189
0.1260805363600854
0.35978937763344304
0.7437624668332354
0.39039221147093917
0.08594744026886471
-0.29684164674792063
-0.35807827328562797
-0.7174951034270393
-0.16675457472957114
0.3596902035207083
0.39167994002833517
0.11401678923615545
-0.04965013818463908
-0.25220910713851036
-0.03516619308532955
0.06168691738396331
0.09186760250530278
0.09554176081542946
0.09630334003073873
-0.09734759398663388
-0.08631325347736035
-0.07333509050030049
-0.05672508511772527
-0.0278989384314623
0.026497119473995703
0.11899144697770388
0.05471240631878584
0.026654249110184634
0.014799348672506825
-0.010433068610092133
-0.08152134214414601
-0.026102611336728268
-0.060543365851043335
0.013338039308132535
0.007626463509638693
-0.05584374941325516
0.04819015475258724
0.14182389468767498
0.03916944460087936
-0.055043363086051525
0.057052118058230454
-0.028125497786766297
-0.10953215791821186
-0.1775031891480402
-0.014217035354821446
0.00037504557382477417
0.07841748532205042
0.21342541587247302
0.173823257820163
0.10495322868682183
-0.05887370943561504
-0.17457502445302622
-0.2686210131420254
-0.12101141806198397
-0.06119968726949537
0.021448289495200445
0.05472744036972883
0.1541140408780112
0.19461857347845837
0.19166830655490832
0.09650439799749837
0.0077388328227124695
-0.20390588158248132
-0.2647302220373205
-0.2701801551290178
-0.06807851593903147
0.14291263715633176
0.20099733635261996
0.16115219779149453
0.07499637218570586
-0.023186628874449097
-0.1216368710589852
-0.028391931346298596
0.03647663212425273
0.050589533550699686
-0.0013349053311508775
-0.12001676276115215
-0.08761475370800381
-0.068664855082398
-0.01664785345890814
0.1148160341883619
0.159093180142953
0.12609021846780763
-0.0020906060583469705
-0.06779946059541107
-0.12802956648454486
-0.041586886198359305
-0.05723671691844061
-0.0057414621490465825
0.10322211759217752
0.0800555419242942
-0.04816465397486078
-0.042009379538052026
-0.054406611500593144
-0.036001085461019856
0.058596246824939704
0.06418437067220363
-0.000689692098076465
0.0631405740361153
0.035901505969767135
-0.11709569980419779
-0.03887657004540322
0.026666239004871528
0.0415670902507997
-0.020982454339144432
0.02679413059090207
-0.011196313125968381
-0.11555772541578711
-0.05471097660566922
0.008933679679681781
0.1106450203089147
0.07482035067829147
0.10891351077689329
0.002110546501203605
-0.07059067379540361
-0.1403031864129656
-0.03506463159287837
0.027430170928504506
0.043344973113948665
0.022319820588622447
-0.015809029058046854
-0.04598366583604815
-0.043739424103632976
0.008765104609173135
0.11738296361436468
0.07269000744050876
0.05036117129835538
0.016077648991215093
-0.0657422337268442
-0.22184148683861563
-0.06211793163067578
0.023246269397993524
0.060402073980364
0.08363086253852052
0.12557130081923806
0.00935092910336316
-0.055168079248066604
-0.07080345581471602
-0.04960043972991178
-0.008615928197435015
0.03351163742105711
0.058821166743232796
0.05169800455600348
0.000762860791315282
-0.09877145535781547
-0.0429453693671048
-0.018349660056770224
-0.0038744459544409774
0.025061870764604553
0.09087729460068614
0.008498790808308676
-0.018033399512551288
0.003875226563273445
0.05761858545341636
-0.07831834928194234
-0.025170796543720515
0.0009050904141315118
-0.007899617792837411
-0.04998403405091005
0.08446468441670829
0.010481142433355344
-0.05572411047138472
-0.10116667695330246
0.07970467983774654
0.08169806640478809
0.08766797934989488
0.0708229172057595
0.0012070102105491464
-0.1446892437118531
-0.17406843562331006
-0.07149745454296845
0.0008892643438379032
0.0960046675254808
0.069414913225716
0.16600255866371463
0.00991432694014048
0.0005466268606285394
-0.08504163686877368
-0.08513001351228779
-0.04479055870751432
-0.008635545178262663
-0.016415607392508507
0.09861761952547606
0.10994907430824812
-0.0015703621620195415
-0.045521071826118684
-0.018329434671794105
-0.09986452189749292
-0.05237431258786807
-0.023463271380007672
0.04643885130599633
0.013204979939559186
0.11705432353633508
-0.0277142104542957
-0.03895063925147496
0.03252607996033008
0.10792592867157745
0.0910872056500006
-0.11611376201605955
0.004677533780773514
0.006730473641130088
-0.10718956547078513
-0.2778919764077222
0.006657946338168714
0.09628913540595142
-0.046061568556049745
0.12595504613388323
0.11361250708587303
0.15198151030963078
0.0008891163279856209
0.1502668593897109
-0.1608023170067017
0.0850732870833809
-0.08286890629442027
-0.19240350364171882
-0.30623602829005786
-0.014263579256149541
-0.04249859554624129
0.12332216269263617
0.20574286343727252
0.30412492445649675
0.07247947087084995
-0.08759060834176068
-0.017753479571778683
0.01882195840767724
-0.03461707653352193
-0.20173562659022093
-0.25467341214512385
-0.10946867881839936
-0.038260683708360874
0.10294527277695535
0.03667351793601421
0.22555611608776757
0.24319945482454533
0.36314630227690936
-0.02879601694430664
0.0009574335822173521
-0.014050887849280755
-0.483407168445028
-0.7128531974559378
-0.28074964688780923
0.15445310001013376
0.41817449909595217
0.7680472167285963
0.6453184774835661
0.04532521237717581
-0.8874318221766814
-0.847509385076497
-0.5567802488840006
0.2321832360701537
0.5143896387873922
1.204213398284727
0.7215303036648146
0.21021540967595145
-1.0071569422069935
-0.953403938441905
-0.7281348319505103
-0.2754781407094696
-0.20416542152609637
0.5438539533113971
0.9982209253876897
0.8705295036163273
0.5014875203277607
0.06412912211876622
-0.5768513123001053
-0.9687633563465197
-0.3685398851482767
-0.2656231478536626
-0.1512910667954651
-0.1403368027413102
0.3632757568534039
0.1751218094735146
0.6366687884401177
0.5423953574162577
0.5054150058821779
-0.2308272137478507
-0.5403132941613732
-0.9393548896710484
-0.3124754475479596
0.14015955239802494
0.5245384145762495
0.44786646956724346
0.19896419632328663
-0.2745172619493935
-0.38751861437158625
-0.5406716579250049
-0.3510485847132061
0.10728129683177541
0.8595736603505695
1.199458377346616
0.48998249060811616
0.20905547895909538
-0.7648727332781894
-1.6506106156479183
-1.2818647808283763
-0.07900736373434451
0.30891496321350065
0.9028979982140064
1.2678297677475918
0.8053076503860815
0.7017340278175006
-0.45250946305962675
-0.9826252750242207
-1.0189843988241682
-0.7973902312891094
-0.8045302092741833
0.415778008107483
1.2041923583073966
1.5045181838635553
0.7971025835561804
-0.32386718278803533
-0.9224309297515972
-1.0609382524093915
-1.1420407744481162
-0.4843984980150631
0.6537026633341056
1.2132419056689112
1.6667063287482298
1.98066039342077
-1.9675201793341615
-1.7233752001863383
-1.373810538858056
-1.0969820773317116
-0.7761251451359157
3.1238887898988255
2.4540087139452758
1.10796874555267
-0.5759278383316415
-1.5294297806967385
-1.819660279743916
-1.5247794627578521
-0.4753282802129411
0.7123737932287106
1.122875748372527
1.5915701802850837
0.9733749638889642
0.2755625324766889
-0.32584082174997764
-0.7974399562891774
-1.3229144769930072
-0.7852528888703378
-0.2947362058912113
0.21864519657166948
0.7536219661948573
0.951718722483842
0.41008341604451864
0.021515459761186642
-0.24401007081268578
-0.3185614745858251
-0.3903790149899301
-0.051008363568439505
0.14957574846837696
0.13146299917972873
-0.3053480642555964
-0.28867452338529725
-0.09715952439108148
0.20533247573611318
0.3312548550044292
0.5377696271756032
0.41350420189265713
0.09077040201388951
-0.5185117101116082
-0.6751007522798144
-0.5716166589623113
-0.3166349175404134
0.04714622524531807
0.6951304955386264
0.7604851131556958
0.4843018030256122
0.1958472824600773
-0.2692647294119069
-0.7200706805149727
-0.5490858628735316
-0.28108500591608443
0.05168673906396597
0.3029776642276412
0.3816638236742104
0.210739946518244
0.09085954487502164
-0.1217302666604205
-0.019933574174914676
-0.036049172452398456
-0.023270628037356814
-0.03463521362243262
-0.10479005381110693
-0.23877104910986086
-0.010516423246295072
0.02835060593092842
0.13185753550478507
0.14030112912485995
0.26463692121680044
0.08021265789305101
-0.06760856127380512
-0.24760996708925806
-0.12216895386889574
-0.12918685555262777
-0.07246047372056294
0.07696809421831795
0.1699048962139419
0.06291137235734982
0.0024124513460001005
0.013421530969396567
0.09520742300291744
0.024156114870848962
-0.037483238480328376
-0.12950487710650646
-0.08175689778842687
-0.10583308820280703
0.007076614157025451
0.08182357966553369
0.15038795356185866
0.04186101947788684
-0.02527345434329599
-0.046613440153282566
-0.031064813868900067
0.002861488062426463
0.032108559515480604
0.03435954317809863
-0.007124033165912519
-0.09973881318684556
-0.039732525156717304
-0.013295002013202637
-0.0009338972219284917
0.015562573937741506
0.04537169551561898
0.08252324504347275
0.10383491164175039
0.0725555750543097
-0.05210887073880941
-0.10141003910584491
-0.08309982608187412
-0.1716599959436957
-0.1066016786395465
-0.0005606384706244297
0.24414287656631434
0.11476138607185514
0.06902326757692466
-0.07720989588787358
0.047039306227370334
-0.0260816771358489
0.009778538439983872
0.05239124507851585
0.009383422162600338
-0.18522271065600296
-0.15967711180716718
-0.1014092937874067
0.03626909158448793
0.11887812951713359
0.21113523279603114
0.15893092366308317
-0.021717417584077775
-0.14610199991825554
-0.0535686215745869
0.004936100362001387
-0.019557454436072416
0.03760115223071463
-0.03729703063439056
-0.03272636867224901
-0.1131810929227398
-0.025350269143875184
0.09147984990309961
0.09269193651984681
0.016236217508078354
0.07429306592197847
0.05085879014037854
-0.09423650167141864
-0.01603558036004127
0.02777290712616247
-0.010763077891835449
-0.15987657016692555
-0.022509161586513275
0.02362761029518319
0.02033868950707829
0.019006910300545715
0.06891128331268374
0.006519167423856492
0.04797980142061931
-0.013850541913299569
-0.007544406489758105
0.022998603568857093
0.02765995530851681
-0.03937397079011559
-0.009501319498807621
-0.09202135176342933
-0.07085378544124452
-0.10708986892000948
0.052418283475063415
0.061999593822126
0.16301000563998017
0.1729476784538667
0.0816479781291664
-0.14388189020537998
-0.14767290975087224
-0.17052764021821737
-0.03861752721633545
0.04127843921020455
0.07919250750014088
0.09428336793215303
0.1057834328604154
-0.07399593026047722
-0.04277644538867513
-0.0076097979765700685
0.018352056808355173
0.020121159129677386
-0.014935858924345157
-0.09375842698003424
-0.01577433624662474
0.026941340353662673
0.04768662233530076
0.062278557559879995
0.08666165882370852
-0.06409928317131049
-0.17562395338185147
-0.03414405906525449
-0.0281646630601082
0.04757698308599968
0.18715772726936064
0.17029111974822794
-0.0363053833954075
-0.07199860074048044
-0.17155587511567505
-0.15468788288499205
-0.02012886028760036
0.05327172214923573
0.09897688266175207
0.15187905821186817
0.03832694528304384
-0.029576470128544585
-0.05418584161244179
-0.048078208162325026
-0.02775497975143565
-0.007738025463880956
0.003299479450218543
0.0037815146467055213
-0.0019036666518043891
-0.006229196915020537
-0.0021989642832531712
0.013026019216397174
0.03545203950269568
0.05341327541434462
0.04924326429677557
0.0035727909406995887
-0.09855170098257535
-0.061540391242733375
-0.07548403379812232
-0.11670013525062226
0.046829795893108525
0.24656720182836914
0.10430901196301522
0.026665752770634973
0.0055580515976062115
-0.17562148522037477
-0.13321010535725025
-0.07600517128411549
-0.002776589560840189
0.09462589498827068
0.2244931411512121
-0.011616919027993944
-0.022505676298769872
-0.02625509471382456
-0.04530612259949763
-0.100031323434726
-0.003299227386323398
0.04232118678885384
0.04436334087597354
0.0180478023882978
-0.017132460779317356
-0.040908291507527866
-0.03548102729264844
0.011507119371526894
0.10451434116263705
0.03884596753936106
0.0014448666202629223
-0.025995278358197788
-0.06238144070804148
-0.12273448978196953
-0.01569530102752885
0.05598778943188837
0.09250719650466517
0.0934907915419207
0.05627324099465758
-0.022635722480242853
-0.1432836672977326
-0.09738715192565699
-0.06575825524906655
-0.020199280371931538
0.06999944394260665
0.22910577411281433
0.06710482333775522
-0.023693274901303282
-0.06618385294300609
-0.09136463098534503
-0.12972034016280073
-0.00443584774840551
0.07157180800334093
0.09488668413530015
0.06886232003195547
0.0011235781702778275
-0.09743210483994176
-0.012422460887659414
-0.12597624197423413
-0.01839971549203728
0.1280448905449003
0.12430457869701043
-0.029228650826858382
0.05658817143051904
-0.03731516297292796
-0.13251998602643955
-0.04696499259126313
0.009362228568020853
0.03555348011187015
0.037873533815797326
0.026139798939675836
0.01003642496880041
-0.003429825591077425
-0.010885155390155719
-0.012174918701311668
-0.009164429435116302
-0.004386117836113145
6.623533712259955e-06
0.00277505774499626
0.003645561973150615
0.0030396231323574227
0.0016861686125088865
0.0002806188782052635
-0.0007201487963120569
-0.0011529561677390853
-0.0010915091226359646
-0.0007365021590097876
-0.0003064399148062262
3.70214675881922e-05
0.00021859828454149125
0.00024113201081534154
0.00015601131959459407
2.931912394951479e-05
-8.416962594912297e-05
-0.0001539146491003683
-0.00017423277112454407
-0.0001569408212907874
-0.00012124363931630197
-8.503209458160039e-05
-5.978675785760966e-05
-4.935217756714855e-05
-5.1542465089242315e-05
-6.103771278706665e-05
-7.21939976017241e-05
-8.09224527189298e-05
-8.539330547477324e-05
-8.577681132776449e-05
-8.345550226571927e-05
-8.014752080756308e-05
-7.724710670345206e-05
-7.55082888072435e-05
-7.50446128056894e-05
-7.552919177485461e-05
-7.645930592653812e-05
-7.737928146055096e-05
-7.800707607670929e-05
-7.825972399781108e-05
-7.820593280300094e-05
-7.798661943828126e-05
-7.773982777069634e-05
-7.755278183197285e-05
-7.744822035707625e-05
-7.739969137878992e-05
-7.736326618623939e-05
-7.731097962513832e-05
-7.725296834004562e-05
-7.723951026047226e-05
-7.734020129615738e-05
-7.760485931052567e-05
-7.801858462425253e-05
-7.846990191921487e-05
-7.875311646254032e-05
-7.862062178514663e-05
-7.788582996866928e-05
-7.655389445068416e-05
-7.493157978326491e-05
-7.36505012894564e-05
-7.354284744438906e-05
-7.534602955722697e-05
-7.928306565157114e-05
-8.465357015305728e-05
-8.964299643607006e-05
-9.157059083778399e-05
-8.770824707147102e-05
-7.659789003846289e-05
-5.950742758455677e-05
-4.138817940249032e-05
-3.0572644691638065e-05
-3.6630485017843115e-05
-6.637036997236321e-05
-0.00011888188952615041
-0.00018150380634195982
-0.00022924323859722077
-0.00022993503079681623
-0.00015593046985713771
-3.4480140006177206e-07
0.00020749738700494194
0.0003954961547068364
0.0004594791477812589
0.00029592222992728555
-0.00014665763196582268
-0.0008121258347567977
-0.001501928442967384
-0.0018902690362065256
-0.0016107819382658623
-0.000413463311369287
0.0016447403172289282
0.0040501457191177166
0.005820955710757427
0.00572037613572128
0.0027196430415835303
-0.0033721522473854335
-0.01132541714811528
-0.018270607038409378
-0.02016485786364339
-0.013121831079508886
0.004531425645644139
0.030027997596870252
0.05470367159207843
0.06437603354318329
0.04229829176016339
-0.025444476092993155
-0.14346807255612523
-0.10202297657400221
-0.07605316631380972
-0.030029195377657313
0.0719946202321798
0.2541006716390579
0.1185868366865804
0.04276472088846668
-0.015418090805034465
-0.10429284175843631
-0.26240263397003594
-0.10534191560290806
-0.020485030398929342
0.02833577059050269
0.08790868536832343
0.1992265070131404
0.18352906006203043
0.03579885755004247
-0.07210149478590802
-0.1801803865797008
-0.12560631488788163
-0.13028959028815004
0.004836202218383255
0.09747014596016017
0.17548101059512922
0.06641191769490996
-0.010827097087677554
-0.04957649569216776
-0.05429901905761811
-0.036472346633060294
-0.00977608861024068
0.013752495479557762
0.025954941639313087
0.02339992698160425
0.007428875392086799
-0.016150207161518285
-0.037684428647312675
-0.044949561824901396
-0.025453093982237655
0.03027301574911896
0.12517051632720252
0.053361815840382104
0.00046223990297129374
