0
0.00022741994982666396
0.00022741995381566813
0.00022741995733694008
0.00022741995838364572
0.00022741995500363414
0.00022741994629323363
0.00022741993345116746
0.00022741992040809617
0.00022741991347521658
0.00022741991961572442
0.00022741994339166332
0.00022741998332196227
0.00022742002910472385
0.0002274200615743084
0.0002274200570017244
0.00022741999614000298
0.0002274198763109643
0.00022741972234211296
0.00022741959029633685
0.0002274195579730653
0.00022741969918383596
0.00022742004506191014
0.00022742054394743206
0.0002274210387906686
0.00022742128337746668
0.00022742101191434183
0.0002274200586519649
0.0002274184976382211
0.0002274167454117804
0.00022741555451641563
0.00022741583766131
0.0002274183108860849
0.0002274230265301418
0.00022742896220665957
0.0002274339008492899
0.00022743482989437023
0.00022742896419663264
0.000227415250600911
0.00022739589225719367
0.0002273771529280641
0.0002273686269962342
0.00022738044437071745
0.00022741858911666025
0.00022747954402124837
0.0002275465091049156
0.0002275899712320024
0.00022757486961919482
0.00022747465441036926
0.00022728931094192497
0.00022706076881746063
0.00022687658397750496
0.0002268532724551697
0.00022709569845849603
0.00022763863227146422
0.00022838893012934211
0.0002290971919066819
0.00022938997406882352
0.00022888183090154823
0.00022735830283945543
0.0002249808517626118
0.00022242548606781214
0.0002208482700184855
0.00022159423328985123
0.00022564419701243414
0.00023292000931881152
0.00024170839970900644
0.00024855623757624246
0.0002489624310907821
0.00023898788061196098
0.00021752293875663823
0.00018847656687613097
0.0001617628781422966
0.00015190083944696567
0.00017353181418593795
0.0002342749768883637
0.00032689635693357473
0.00042425229005527674
0.00048110949260081633
0.00044593608820471943
0.0002826401448210818
-2.6834175456343405e-06
-0.0003402711149444107
-0.0005941148258574305
-0.0005905291008562697
-0.00018184900685755523
0.0006657632461878278
0.0017897200274345263
0.0027974102102732916
0.0031266947516809802
0.0022254198462325022
-0.00016932387922019513
-0.00373193280851408
-0.007365298981715929
-0.009293211789026796
-0.007546169940693854
-0.0008377889629762042
0.010356682871512469
0.022902652979055273
0.030782259450081263
0.025958810173562573
0.0004113204802530494
-0.05113000778410218
-0.12878574701701404
-0.02672122409628262
0.06532693959200138
0.15868066306282327
0.06224054131058196
-0.01912594783783531
-0.08351760812952538
-0.12931067854736675
-0.1531560530876626
0.049333236798829436
0.2800327773075901
0.13402080900688038
-0.002229178475084709
-0.1481767882209434
-0.12292497871292503
-0.13861251601832172
0.0028971342414534818
0.10829782373539758
0.1871310538730112
0.045102289232163334
-0.1204718060760055
-0.12163605121758471
0.022252755731985787
0.08821860994818873
0.054279958603726156
0.10527990697520345
0.04032736147043445
-0.11890309413223973
-0.1215242171947803
-0.2862639888528756
-0.10939746497168945
-0.08312200576921946
0.27834416667783984
0.4120848074108469
0.4890002135988149
0.014048778317253399
-0.1529665827300823
-0.5615571807169333
-0.5320676823410233
-0.12862503730926697
0.24736234949379857
0.44325112243801795
0.32940187778689456
-0.026398817861671395
-0.17534503992520004
-0.0923944883463488
-0.17267591111515693
-0.024879497140582216
0.13436128021905672
0.08397157656361258
0.0010649434338372257
0.0646329095131172
0.06129279047313413
-0.007588086414437654
-0.11972131848843288
-0.23024623634328026
-0.27851189110975405
-0.2058589273477952
0.016628468572719633
0.3568227305196779
0.6985074059240002
0.8408883601615879
0.531657618269096
-0.26586350595728425
-1.2866180062330872
-1.6885411192837971
-1.223017402060937
-0.07495606475751948
1.2298216628533514
2.683335315595032
1.8741967130478845
-0.46312306649034723
-1.006668724491732
-1.3316323456650005
-1.7705979553068936
-0.7048233570470218
1.0766496458342283
0.7448766465710261
0.549449821868512
0.5245124525992216
0.2148806450114438
-0.16061938610707363
-0.5084405010972547
-0.634373779650845
-0.6092244126856364
0.06083642672327691
0.8567586782029795
1.6717623633452234
1.2553701222597815
-0.3139904510753893
-2.538550825833335
-1.8285764807072236
-1.6956590832698064
-0.8468912439640379
1.2225509682523201
4.587054103739305
2.480309530682943
0.6001096148230544
-0.8265771469619501
-1.8348468624282643
-3.241756379221278
-1.7911684399970231
-0.004336332312205013
1.2282056272631918
1.5318755950628968
1.2681730664074637
0.5579797194764076
-0.04027133058508961
-0.3761974817258074
-0.4845092594219644
-0.5192437066151135
-0.27569631408246004
-0.12492586218799176
0.025251053054526625
0.14034114568776293
0.24658859006375905
0.20639084179651132
0.09252604554101992
-0.03113522230281879
-0.11951571175180833
-0.14829539254981572
-0.1118739792079008
-0.02113761264049981
0.09729998509306888
0.20156051309723566
0.23787247657156801
0.1500299404208163
-0.10438852221788164
-0.3346184162717875
-0.5017558559418802
-0.31720164006612067
-0.06022521495964381
0.387094616145703
0.6981226985547819
0.6694853293600287
0.21383925118489486
-0.2156890551865707
-0.7759343296698744
-0.7773221313108765
-0.243338426462149
-0.10279963736050679
0.18120910185662817
0.5562799450840547
0.7199250918864739
0.27567922300764597
0.12282329943296211
0.08499700495002563
-0.030079388672657168
-0.758079410241518
-1.3166744761979137
-0.37832930883675414
0.1087524710068549
0.6542164775248891
0.9345859009210352
1.5096009179439045
-0.6244541849869318
-0.22958238364811537
-0.5747495925468967
-0.5602650719362569
-0.6444726683420914
1.0071902245324664
0.14298750152997633
-0.18127600624139353
-0.4276359325621103
-0.2144684594639367
-0.1643975523127573
0.24375177962729297
0.6296273268682985
1.0880690685955572
0.6028292218087713
-0.0962789830742504
-1.0421420959404686
-1.3315049767800458
-0.8545070871925999
-0.48357598224777076
0.2665078327349009
0.9212437266040383
1.5072909728457438
0.6363459169070358
0.6498802892375058
-0.15788157829962016
-0.6476675386944886
-1.50502751063479
-0.915153262798394
-0.48168971350778766
0.589136567528049
0.6425468387515708
0.8921891344383828
0.534032239691284
0.08602011134689999
-0.6326455153484528
-0.2857543668456924
-0.18272372517706617
-0.03716604504677054
0.06580558628487071
0.08800428111214306
-0.15760688606840165
-0.014221511559431178
0.0032871938197703812
-0.011784144110227216
0.22150945596557695
0.35573980362944885
0.007941982640112654
-0.2368080038676218
-0.21324639276762
-0.16096491893085613
-0.11313607221336437
0.10728536741811764
0.2845618225423427
0.2048183868250996
0.053919728256205654
0.02207813258973605
-0.08556491006665765
-0.23747266365746011
-0.3709944518398534
-0.40175466575942087
-0.250965714701666
0.11224423099821401
0.6250307199985665
1.1006892296874446
1.2356168401754144
0.6679132448340721
-0.7152652536408207
-2.4483922630666535
-1.983219581062568
-1.059573958639608
0.019603420268543805
1.819702656601193
3.3641363540378295
1.356220593760272
-0.10187754097934662
-0.8661527150273041
-1.6054554322867869
-1.8114528882440464
-0.43003249622948486
0.237504249702806
0.5474851407135837
0.6565883539780678
0.6282006038056993
0.3385502412899651
0.008752643475146229
-0.2263076954757753
-0.31556542713722124
-0.2682310620242722
-0.12388994015395918
0.0722559342221823
0.08359799551976385
0.0861660674489294
0.06627573953207533
0.01611208679938036
-0.06973932158098996
0.004330007508526193
0.035415558455379595
0.02360199323898154
-0.026298519572924697
-0.1035411616120061
0.008370782586837398
-0.0705820209776596
0.07871305167830692
0.06914086930841619
0.1029215166728733
-0.029914165492593483
0.050928663024216045
-0.07803945126289802
-0.036581683459096924
-0.034405881570466285
-0.0687085825923054
-0.12750062508050772
0.0006900942650061955
0.11183550393545295
-0.030939542294875017
-0.1127407718393223
-0.07538047431316204
0.08621573789969209
0.9453075851456297
1.2879344424510208
0.5825988337274577
-1.5344207855152074
-2.5851624749373148
-2.0283870179427796
-1.1267672522196561
0.8905857833038823
4.610015961524836
4.639201174140517
0.52403965037891
-2.3749510891214753
-3.2695661268041003
-3.8828024800824323
-2.04992778936268
1.7423061386099365
3.4722721035993462
3.2178953131051906
1.2018631527444459
-1.0796614286339707
-2.8281550895209113
-2.054220282447543
-1.2968182836226956
0.7965592781696688
2.2176238831977577
1.9052880015243627
0.6673907669697909
-0.44085600403708436
-1.4715781067421623
-1.496657629142231
-0.32009411604813415
0.3734404463083058
0.6200585531283148
0.5384688892054381
0.27583780239371986
-0.039350473201672814
-0.1243356004483456
-0.14734938186794216
-0.11719309423207755
-0.0658094635090199
-0.03124229936903145
-0.04534660841543821
0.07247921360823195
0.11659180130988145
0.09372661296933661
0.02121889956807643
-0.07417425214565651
-0.1577932859671142
-0.19141048235076488
-0.14288114698509577
-0.0016541992602674134
0.20283424186826235
0.38660545372623367
0.609189355562847
0.49147603832650694
-0.145755748998701
-1.2320000598213967
-1.8053711408101178
-0.6015151089804167
0.9151972982355855
2.0893339225256993
2.4149018145947245
0.7187097290956891
-1.1931280037621859
-3.443440840591171
-2.7998670730133393
-1.0591496092311097
2.068604220799641
3.1979652915696852
3.8987491408835666
0.20168273410884138
-1.9713191372560515
-2.463614425012314
-2.292128095419833
-1.4897472360169677
1.3610885216021185
2.496141705206012
1.6772069545661434
0.29830192515426174
-1.0656566334118227
-2.4583095462496014
0.489040298156915
3.9880389442762314
-4.896268315607004
-0.8615412637821609
2.788657601442416
0.6797346015051154
-3.5040633636547414
4.9307682545693945
0.8807068533880256
-1.5064295383298574
-1.9352209635630024
-1.0476051034577913
0.06928503285939955
0.5209481392641726
0.3838173339681991
0.24247548674237338
0.5137676772544901
0.18249804866171085
0.16380892074015865
-0.10354081403059937
-0.43847147193007513
-0.48565266693103404
-0.0845717238794412
0.14957310224208448
0.22954899996330674
0.1880008455696075
0.06496054744389687
-0.10255512574141741
-0.08598615353731356
-0.06644004335378648
-0.034120800637034134
0.01198307232343113
0.063698843904099
0.1036768351702242
0.10766120031759215
0.05043337148856961
-0.08473262078042358
-0.0954290139548899
-0.15243520663756657
-0.19965653461524813
-0.16501601724016138
0.01741377407775947
0.17790292971180782
0.282133927269399
0.41319731917232494
0.37404735372451553
-0.0846791952457508
-0.21419794568801187
-0.20541581196086287
-0.7316751175523337
-0.5136068322080805
0.28186472185341477
0.4060242768710445
-0.13517903782374388
0.24295474605467907
0.23255234680884632
-0.01968749815937636
0.06249233901972143
0.49264036049292675
0.5626682114479384
0.11293140979492924
-0.779843132325614
-0.7162922202514782
-0.715135321017895
-0.8041336705859643
-0.47266915797796355
0.421514473928364
0.7193346277548563
2.245138927987025
4.55797810426969
-2.5956535107644303
-1.1280470198171042
-1.60269061197194
-2.654282341463206
-4.918797821664848
2.0786438487636776
0.8897811026542324
4.24049437280331
8.582217685246746
1.217816450316871
-6.139772280664681
-2.020495960380474
-3.799404406327827
-7.81748568070303
0.055306062386928784
7.790853555061106
4.3956162493642585
1.6887464834529649
0.8276488205799659
-0.33109079833001204
-1.445962543908204
-2.964772848627136
-1.975115100577582
-1.53887484394023
-0.179745972480602
1.062371391736855
1.8493283797542166
1.908676899538194
1.0236725075509463
-0.09141461782860308
-0.6091624619664309
-1.1173552716716424
-1.1007947623732819
-0.42517915467250084
0.14059526158039856
0.34933358256354385
0.45476637920392904
0.3653970332840221
0.19562895729435506
0.030899624819742313
-0.08600126781790135
-0.14925234454603695
-0.17271093589816144
-0.17084283900742225
-0.14643393947421893
-0.09013765788941655
0.0076657623023144205
0.13682478820790256
0.24697616108891593
0.43626296412690285
0.35774498264467525
0.2476576773747041
-0.22783210786496358
-0.9197118682519049
-0.9564208301061903
-0.537342960455669
-0.17064259503891194
0.6503401645392783
1.7566082089352046
2.834969320723756
-1.5862860866068547
-0.8871399843505146
-0.8624440148273077
-1.6304787010739055
-2.990086788518799
1.9484768672627015
2.2695213543527886
3.7410625584540846
-0.6501828971605161
0.32703972186266006
-1.5348562077249008
-2.721621782155265
-3.4627906250521923
1.9155805688266396
1.128495961680138
1.7868537001455136
1.6313697815060484
0.4100866896453576
-0.1627230495985463
-1.967082143478144
-1.3902535191691432
-0.638143116118165
0.9188204409824592
0.7551691824729658
1.5711162450790899
0.2719544593999395
-0.8340432468805088
-2.0192995137843366
-0.9204290959764923
0.8570851864494514
1.5069271096533279
1.179127632585184
0.3549009783898243
-0.7404232676515778
-0.8882695900470037
-1.6147400389181692
0.053733645691755955
0.7962497210056578
0.7644970275252291
-0.07088463796555791
0.8297780324742854
-0.2531451963230302
-0.5002175835672826
-0.33440045813171293
-0.1952117746768858
0.08221459254085273
0.277058041977132
0.1828517195068459
0.0029587931291468164
-0.0534086219386921
-0.17262928524324467
-0.13677966111871295
0.07517090806619908
0.08377642074061412
0.10408891440725757
0.14176100378319484
-0.00728095703775346
-0.15293150596165375
-0.10448758587183564
-0.06504021673878743
-0.029874210502624624
0.009688577134105335
0.05795772833883274
0.10493448606511094
0.11849152405962851
0.041988788009170455
-0.0009244402915453033
-0.09483312026238858
-0.11705826877797804
-0.12192782832845508
0.0717712742963244
0.2884404752073853
0.19861578100469116
-0.2820452489814012
-0.39862856882379855
-0.3709800334332711
-0.21926821023876367
0.19978651913576556
0.9543722944961051
1.211576850907665
0.43891948029702377
-1.3611696012247305
-1.5954208681286883
-0.8280753285084256
0.040867627908878684
1.3592568376905536
1.8845367622108522
0.7553976149283183
-0.499349305628684
-0.7099634934355914
-1.1959477308689976
-2.3170321125510376
-0.6821307502646559
0.7685146132095778
1.4264380641652656
3.0733539632669133
2.7981915280555523
-1.1797529709662489
-1.7766978275692353
-2.446083925680999
-3.5969828310652487
-0.506975900414725
2.833103852794835
2.163455641291674
1.3561697419797396
0.05148139176292063
-0.217490607861533
-0.4006507906466715
-0.6314743068574895
-0.6927217197717965
-0.08784429650807049
-0.5484363491958059
-0.19357517865070767
0.2578170870605241
0.43284575674215825
0.4284466202290292
0.33562805057468764
0.18299569131653423
-0.0902362840617966
-0.2317620413263687
-0.2525708052724701
-0.19470741517614246
-0.10234179433649762
-0.003918909870898757
0.09244819444431186
0.1931198937769455
0.10825565662149456
0.04225616747628429
-0.010695059109271935
-0.06506457382620318
-0.13820786629764878
-0.043678616789516206
0.013328704850320245
0.03680435196870657
0.03727810792446538
0.02728359289746479
0.01683927431181292
0.010372961771291798
0.005698432594762244
-0.005130599363910022
-0.03384353160803405
-0.09392042406766453
0.000470351564166281
0.034052190632826974
-0.011049852849660959
0.043496854411009846
0.17321611015479088
0.15566866173821997
-0.02025020930373674
-0.1420817632203103
-0.3627872811220392
-0.19676359304929059
-0.12779254833855477
0.17015230843423282
0.4039571719197949
0.43357167234471666
0.05552532630557963
-0.19595263594511003
-0.2309093775247109
-0.17590671695776808
-0.14637851874354424
-0.027202900226637673
0.134862320152436
0.1279112592125814
-0.03508877202971561
0.0719067465879402
0.0781868908720425
0.010330256364374516
-0.10972833568413747
-0.063877640184463
-0.03634145563376359
-0.013441251178095838
0.014603351821192883
0.05053178799418843
0.08736393654673062
0.10832142478191967
0.09088750404379804
0.015024472106016457
-0.1266381774281655
-0.3210815502546824
-0.33527361619890383
-0.3291301592937804
0.11873481271204206
0.5790758663182372
0.9472608637911526
0.6416354698803758
0.035749334426892786
-0.8778984863070337
-1.2108049286401157
-0.5164901204031551
-0.169796579830277
0.0008849893426472714
0.8366510847736399
0.9506582423416636
0.2407749398095765
0.23774806055744566
0.1005998956940202
-0.5454123416623975
-0.745901385216334
-0.5530121927336396
-0.3805567806474346
0.4107686996584236
0.9017969830741676
0.9926168433186424
0.18858178831571812
-0.7944318169691822
-1.209896856116262
-1.2630863816364113
0.08539210737691424
2.290118947059728
0.18107269218280161
1.5420888829977744
0.9309439792563756
-1.8576832499303837
-3.7131691473165542
-0.15947801694296174
-0.5765903066076585
1.0965331547355728
2.608937282203133
2.2559895043933613
0.8121383340132508
-0.6265418781327624
-2.0999931641328846
-1.994092823389457
-1.2739773420825795
-0.19983419472938083
0.8514076692776144
1.276658821344076
1.2974744464922379
0.8269888174646929
0.19531176894964983
-0.6511042076115067
-0.8890535379213776
-0.9296179855376809
-0.5378712474972825
0.011476149628637102
0.7340560603910911
0.7021391737494065
0.39942792582094083
0.08641572633560593
-0.21150166484519486
-0.4943792168330025
-0.36793367414798683
-0.22811721391059142
-0.06053822416079187
0.14317448574101657
0.3588244033944418
0.505650538331826
0.43873155576936584
0.16733331746650515
-0.10008121264357153
-0.6942046195462538
-0.6253818637686809
-0.5478655839327035
-0.1642344314362962
0.1256839883602396
0.5416363351873195
0.42749281581895976
0.5703726744378896
0.5579752076180159
0.5877766584434716
-0.2723895650778476
-0.9882994377642821
-1.056663214149708
-0.8295961651289161
-0.6928353508920359
0.6943623021757755
1.5133732378429592
1.2890921192585165
0.421295305708508
-0.22832463185522733
-0.8909738830018579
-1.0094220277639279
-0.7552239555711375
0.024237848946504128
0.41360991384684015
0.7969003777735645
0.6032607434059509
0.05340975729362138
-0.6787356913174805
-1.0872386713203874
-0.34518385879538777
0.6882839279974259
1.869235004214704
2.793956096501589
-1.73795561794651
-2.0279085330574933
-2.185319784525127
-2.0902150489656774
-1.6518027453451625
4.838183164390488
3.709748589040873
1.7614658005340722
-0.3747069188191557
-1.9273820301680256
-3.1817000597443608
-2.263802396942234
-0.40005491391794795
1.3019452970458953
1.959324772334528
1.5603922781782227
0.6199066141233776
-0.30543232626899547
-0.8245115636452158
-0.8589598842481921
-0.5649184401122845
-0.0643087523215197
0.1928519692822895
0.23093631324423128
0.3253372073658437
0.16844006526611036
0.0389213350056237
-0.016978162861639074
0.010186686584639431
-0.09945352782526432
-0.18096970215715596
-0.06968892354349951
0.00986639294973823
0.048724365848870854
0.052108879785821294
0.03411449872350643
0.011119151172054972
-0.003899545188538862
-0.00497738329999066
0.005578766922138726
0.018052561809640502
0.017845248048503924
-0.010905012215550207
-0.08135984400636748
-0.0005957108414164665
0.03234828985551442
0.02657830091703844
-0.0022269736881734936
-0.034620338036133805
-0.051087098301394004
-0.036481939710222455
0.015152149648705942
0.09639125163223038
0.18462451456952
0.04456459337430278
0.03598450331455489
-0.07462940056160136
-0.30242092353976163
-0.4380628485976461
-0.25208772309260824
0.28937023810708035
1.2028940224460565
-0.12865832910433486
0.4440653153285217
-0.14205244216671736
-1.3280481677610425
-0.9012235252014063
0.21627904216155028
0.5507968936338635
1.4402585474715413
0.9971562152643586
-1.309118421148901
-0.6449944282355605
-0.7926011386806293
-0.537407227056482
0.5223637266082836
1.1470004858801888
0.8251627683004128
0.36536565054550235
-0.0763148517427441
-0.735427197315635
-0.9660900438467677
-0.9857483044920003
-0.46422163349742224
-0.16819596352164332
0.9495366256994962
1.8473139486353012
1.7203597586170973
0.39149392648287484
-1.0202316359161818
-1.573613102632279
-1.9709803165559001
-1.0724276197818403
-0.09843138553222222
1.0741975762331541
1.7556349743285569
1.8826981744502287
0.5132520398381142
-0.5881813188352001
-0.6724490700176227
-0.6671268901313168
-1.2263762257647128
-1.016996747230614
0.12760236186706184
0.37747200554910115
0.4165696582229585
1.1276079935717378
1.0909845981615307
0.33020263059464905
-0.28126186644499424
-0.9590391996732455
-1.1196755132255904
-0.500325595905612
0.08475962203229961
0.3393730912312184
0.44026507942996146
0.5734184440650936
0.47638620876156057
0.005299203306317638
-0.26630728584978053
-0.42195861612411584
-0.3637579436219008
-0.17683906165347
0.09173098470133442
0.23607650624766405
0.28075125614959545
0.06423716980599734
-0.1756524668955426
-0.010477031476281703
-0.02398841094976067
-0.011186482774944027
0.024299633255118826
0.07337544682877126
-0.07520832237993744
-0.031668048618274935
-0.002619610446030224
0.010270729237926332
0.010116916943781015
0.003324973205063819
-0.002687713168222513
-0.0020066046107595054
0.007476327289364777
0.02230780930019428
0.032529789313342314
0.021665585124878966
-0.03257088277511971
-0.15752855690426185
-0.18583348141100645
0.042899740602980935
0.2799911498491063
0.46868542735260077
0.1526905155428645
-0.10546539380051433
-0.49953240258729836
-0.5574576428790303
-0.3339965940304314
0.1737833291802013
0.3887790179948444
0.5043364816870285
0.4388689631777936
-0.1910700538332358
-0.27255322559018674
-0.1755613718420361
0.08118318586993431
-0.1323077404460608
-0.2239146169134064
0.24613343810758156
0.3822575408137971
-0.03690709163205122
-0.5554080593760329
-0.04450665201228674
-0.11789713144493275
-0.1594615591040762
0.23898844472506456
0.6375656368484733
-0.08374264848257393
-0.13938172758025313
0.17038710157387796
0.49052349317145355
0.6596111642500946
-0.8335038987826691
-1.1995773647368806
-1.1253820845569722
-0.7951213666815792
0.43851726303924526
2.752275683503911
1.9591624463692667
0.4692099405251277
-1.0702112192467346
-2.0657675243215006
-1.8465047015714904
-0.5655102758784384
0.8264476987414077
1.3319702601503527
1.0124874182180121
0.49236135634000117
-0.10203504082377943
-0.5537839711260878
-0.5255533631667211
-0.3100178238860772
-0.18366269100032515
0.020498730893510394
0.11669488010811051
0.3514250480234727
0.17975230370333659
0.04342252491486878
-0.04187397687038872
-0.0878414532118207
-0.12571908253605732
0.00633584559552369
0.07629337445072502
0.06885361430564717
-0.007849773117641682
-0.12048087488119744
-0.215178849013643
-0.2304847826194407
-0.11915069607713294
0.12373175183327431
0.433352240955548
0.6594344497146506
0.5734236302431347
-0.095163394350792
-0.7973382398861316
-1.0940581917135324
0.001012655513162011
0.44627335979339616
-0.24254480505525264
0.15976654192066111
0.7211871285967517
-0.3176313652080989
-0.4044607486203162
0.6801029239820956
0.19856448422457026
-0.14593710776260807
-0.19136144394565116
-0.2820126602781327
-0.224374878176706
1.3597237273926575
-1.1212204851937604
0.014236318543092232
0.3572729745843848
0.23526526815097207
-1.0766271475370846
0.8375756706802566
-0.49380048223852263
-1.0814563575158345
-0.34715283280275433
0.5923377103699211
1.8479592765230726
2.7155311654351486
-1.10645181079074
-1.6317463970358352
-1.2584873434611106
-1.2462497869694191
-1.4448728059633433
2.502883305928134
2.0969433951020684
0.09117215492383376
-0.5796844276348102
-1.0374498122826743
-0.6691607656049876
-0.3278465417760082
0.8581903793580146
0.4664596344624821
0.5640724564241837
0.11009303181473323
-0.014749185498732057
-0.5544953630048073
-0.4148813734936169
-0.60987944787625
-0.2342136723424341
0.3309236718331759
0.5837280346879712
0.45395209887295956
0.2595968429610715
-0.11818941956066858
-0.43810515694397933
-0.2854514832298186
-0.05362023099404281
0.06982939265031832
0.10795113092357585
0.0911399495232945
0.05000951018988918
0.008717317158137495
-0.018670951759054002
-0.028232979908024883
-0.02357685735071562
-0.012079696810019424
-0.0013722773964618229
0.003034126962288716
-0.0013727375885866418
-0.014677574737656626
-0.03629897414207097
-0.06751538244695127
0.08597237219976817
0.21268220430280704
0.09680991052001126
-0.07640498719985392
-0.11217408500663409
-0.19772221939055956
-0.29850976476374186
0.03723345513951906
0.2653104300267483
0.2276483947021151
0.13663991410201373
0.16846867758747008
-0.13136509618447303
-0.23210817184222463
-0.19734246926649396
-0.06757632315588258
-0.05169946989080662
0.07067745922552617
0.13815116495310384
0.19271108655860975
0.06685972157988362
-0.0231370505602537
-0.07662947703906677
-0.10246452019017947
-0.11115476321130381
-0.10918242977749895
0.10230321633515163
0.12459411506382155
0.15676455798133232
-0.0074620787257883596
0.02093960115516113
-0.16935251808356333
-0.184334683595354
-0.02096632215076562
0.13231208232890068
0.09096725104450892
0.06809263492248112
0.06961222018315254
-0.1069945168356719
-0.07043745982365052
-0.031493844222765216
0.0008207009917328532
0.02133391550089737
0.028831731875259815
0.02494037189689807
0.012796724184722361
-0.003762712265376482
-0.020330477903699202
-0.0317436630944138
-0.03222223923239021
-0.016347395546425707
0.01908703267972488
0.07299191043498948
0.13884945492450307
0.0056889885607024045
-0.1385464589567486
-0.10246368209876391
-0.08793294812626572
-0.09033190927459998
0.09711098777542643
0.276794578702878
0.2418946970456828
-0.022942370492280418
-0.13400198982551237
-0.296732020822752
-0.2958370791826401
-0.09352505437426004
0.16117501137171675
0.3146133977608736
0.3896600283012755
0.1746283105475166
-0.17427285980367108
-0.3175133831173833
-0.3106521938005145
-0.18620937975029675
0.05346146144027199
0.23043614358920664
0.3768888191723913
0.1199182025138747
-0.12747947872388826
-0.16656559151973288
-0.20645213638527143
-0.05625317040598446
0.07974272025418253
0.2024658781514371
0.11574894641906106
0.024270872933730214
-0.2664652236220588
-0.14883999932626316
-0.012927370585121545
0.15075871478250377
0.1461986499068999
0.16743116076543718
-0.001984631671595269
-0.18434946227654406
-0.1998235413901833
-0.058920462519826036
0.040863650488559354
0.11306288089923311
0.17665634536899177
0.05031803837027585
-0.05056981858245157
-0.11338481780963838
-0.1258787319520489
-0.07480837368567411
0.05220638910257328
0.06144354036777633
0.1465589337591581
0.08412443635382218
0.03416863085614707
-0.053165857212835094
-0.026168571986321918
-0.11864332003990585
-0.13971477670964644
-0.07002001316680978
-0.06617224077509787
0.1272428610972541
0.16163572316974714
0.26970080100654914
0.05733259048586217
-0.09487098370539773
-0.2214787328556785
-0.15809053064565814
-0.12926085986443855
0.0569841914318826
0.20707488300078464
0.13494976643741577
0.05474161590583697
-0.0231614099817052
-0.09158855406075847
-0.14335069750346816
-0.1685788683622592
0.04452347824591922
0.10481578149375739
0.2113324325475844
0.14836311051328435
0.08625585913797779
-0.21082211163154094
-0.17256123218363859
-0.2108293174997171
-0.11416875294813009
0.14852449491245479
0.2163256110021982
0.12151264656614696
0.0779580283532543
0.0773589791513188
-0.10547331581140787
-0.10067129514812362
-0.1295778510700278
-0.1947119063435158
-0.0776006063936941
0.054257800916602705
0.23369246161623564
0.27894325708090817
0.18416248498303375
-0.07990686723310292
-0.15472326237361098
-0.2768027308147675
-0.262222638152934
-0.099832922028793
0.2436337508686148
0.20881566653178882
0.2260215722941204
0.10242549441233371
0.01945287366190236
-0.25912292282052607
-0.17248238547086714
-0.14802464818473657
0.007490337586033233
0.1082200743273645
0.1822217515991335
0.061168292487319725
-0.028788922210249483
-0.0723080505142224
-0.06602591244919752
-0.016976928693146546
0.060201254786078906
0.14660789130750526
0.02315867524641317
-0.12445123215891019
-0.10081393351775873
-0.09798716620162386
-0.09693872310040486
0.12607215032499441
0.18989132441638285
0.09934632720918922
0.04066686120798035
-0.016149881801576484
-0.1085052789867717
-0.06899086374052422
-0.11413834834440346
-0.03803320202492158
-0.012981203721331828
0.002886860794026305
0.05335552609014085
0.1709809477051033
0.16730149647864373
0.029831827877874115
-0.07290203836058959
-0.18004504988698913
-0.125154627620389
-0.12613379261979205
0.01799774800805672
0.1229131809970388
0.21000526635196412
0.09716274750753061
-0.00650064690624354
-0.10014304537300678
-0.18622188741475465
-0.0644984630358902
0.07146658959551043
0.03361890928990514
0.03519475162551954
0.08520825392228532
-0.015990617007522096
-0.07859565719586761
0.07766750560206677
0.026919519966702502
-0.058007872394500365
-0.00020965271212390214
-0.013975688723069311
-0.10187461819487115
-0.05454640634143922
0.14664256943715728
0.12496081329335061
-0.09662913877014338
-0.09913239271881731
0.1307059983145438
0.0002085711177386573
-0.0883759437519247
0.06364606418897417
0.053190929814799934
-0.12308889481073415
-0.06814632883195454
0.014747813785194987
0.11986176894030968
0.03624286258779222
-0.054175716461938264
0.02369365712703222
0.04094127020472188
-0.030346692929717027
-0.010857171684153191
0.09226235913472568
-0.10956333016236172
-0.18410606952832476
-0.08034084136957075
0.4646409604540246
-0.4853177349793147
0.12191965615203583
0.31536868468173784
0.09354312750497674
-0.37660397477424445
0.44647963617151454
-0.1088965167333126
-0.3125159636536524
-0.01806128729696516
-0.053863196723836125
-0.021261037960977797
0.09937067538282893
0.13752812624342972
-0.07956862201649195
0.06369506624407656
0.16745787997899
0.019025074180372595
0.001458193653703772
-0.09424225872413305
-0.2574915468770957
-0.25202099669292227
-0.01930162762428884
0.10778085940945953
0.38479428165288077
0.23662747546816418
0.04740133773853962
-0.03572646101336948
-0.08551687084892534
-0.17016977940580552
-0.3299521970059616
-0.163172981286673
-0.0266942616188707
0.14883087636565676
0.2342431370011918
0.4767117044423137
0.08351403192026405
-0.17937715545854555
0.025761720943817786
-0.7705348483117643
-0.2253636587970199
0.4268445481440813
0.5734902229416735
-0.18348777004217495
0.16591454366122688
-0.16156622275576973
-0.3398316008813966
-0.3317745405014105
0.1065130815493173
0.41444094986545615
0.21241058333629134
0.09124844334889147
0.011731896142476219
-0.08426398572480451
-0.2547524754141169
-0.13779609740658808
-0.1381514812615263
-0.025236935117948073
0.056846436764498284
0.17072816961551993
0.16502772857270165
0.25861620936095386
0.03535149339324047
-0.1489369406877262
-0.1499637313515001
-0.2153430090701582
-0.16917983921236063
-0.0063612905649801125
0.10201636640793796
0.19509507114802252
0.3066868287267478
0.05425605992444654
-0.16345359015712266
-0.16037581173061785
-0.1528642480059861
-0.15093553063256757
0.04484255102525911
0.24020819674321553
0.24075259330671486
0.04680543414096869
-0.14685039649495227
-0.1463145050938989
-0.1522293710014412
-0.1562744840849359
0.056569234381513615
0.30042644695803666
0.179400289230409
0.08215277843833728
-0.01606360440423443
-0.14396511823729288
-0.3214266155420889
-0.14942835037558969
-0.007971214605721793
