0
-6.0758312147541535e-05
-6.0758312147541644e-05
-6.0758312147541406e-05
-6.075831214754075e-05
-6.075831214753973e-05
-6.075831214753867e-05
-6.075831214753804e-05
-6.075831214753842e-05
-6.07583121475402e-05
-6.075831214754332e-05
-6.075831214754701e-05
-6.07583121475498e-05
-6.075831214754978e-05
-6.075831214754534e-05
-6.075831214753608e-05
-6.075831214752379e-05
-6.0758312147512756e-05
-6.0758312147509145e-05
-6.075831214751905e-05
-6.075831214754543e-05
-6.0758312147584856e-05
-6.075831214762545e-05
-6.07583121476479e-05
-6.075831214763061e-05
-6.075831214755903e-05
-6.075831214743693e-05
-6.075831214729516e-05
-6.075831214719215e-05
-6.07583121472012e-05
-6.0758312147382855e-05
-6.075831214774781e-05
-6.075831214822258e-05
-6.075831214863693e-05
-6.0758312148751606e-05
-6.075831214833614e-05
-6.0758312147287574e-05
-6.07583121457552e-05
-6.075831214421336e-05
-6.0758312143416424e-05
-6.075831214418951e-05
-6.0758312147062894e-05
-6.075831215183961e-05
-6.0758312157270366e-05
-6.075831216105839e-05
-6.0758312160383395e-05
-6.075831215298755e-05
-6.0758312138614675e-05
-6.0758312120298306e-05
-6.075831210477616e-05
-6.075831210131969e-05
-6.07583121186356e-05
-6.075831216024723e-05
-6.075831221974958e-05
-6.075831227820312e-05
-6.075831230619212e-05
-6.0758312272240506e-05
-6.075831215712801e-05
-6.075831197047591e-05
-6.0758311762746e-05
-6.075831162407721e-05
-6.075831166289328e-05
-6.075831196308266e-05
-6.0758312528415646e-05
-6.075831323418327e-05
-6.075831381408284e-05
-6.0758313909271396e-05
-6.0758313191496985e-05
-6.075831154262317e-05
-6.0758309234806486e-05
-6.0758307022910727e-05
-6.0758306052674465e-05
-6.075830752294569e-05
-6.075831212569379e-05
-6.075831941078617e-05
-6.0758327344910526e-05
-6.0758332394702125e-05
-6.075833039737429e-05
-6.075831824688051e-05
-6.07582960379963e-05
-6.075826887746837e-05
-6.075824727641896e-05
-6.0758245107137796e-05
-6.075827471748727e-05
-6.075833996082296e-05
-6.0758429366513837e-05
-6.0758512898364205e-05
-6.0758545980976525e-05
-6.0758483028327056e-05
-6.0758299322801466e-05
-6.075801530916326e-05
-6.0757712732640696e-05
-6.075752993405839e-05
-6.075762652276253e-05
-6.075811706309665e-05
-6.075898846946173e-05
-6.0760032363157904e-05
-6.076083441108709e-05
-6.0760858974439e-05
-6.075964267179345e-05
-6.075706468247035e-05
-6.0753605122063364e-05
-6.075045723464818e-05
-6.0749353261940503e-05
-6.075202361352532e-05
-6.075934302563209e-05
-6.0770402815629826e-05
-6.078192354602477e-05
-6.078849513221563e-05
-6.078400633847371e-05
-6.0764249537921e-05
-6.07300992223379e-05
-6.069003085565367e-05
-6.066035584863048e-05
-6.066173122082983e-05
-6.071150176593381e-05
-6.0813229698546684e-05
-6.0946939292970256e-05
-6.106529913962518e-05
-6.110106985098163e-05
-6.098868566605703e-05
-6.0697537893057506e-05
-6.0267349604558354e-05
-5.9829422109985473e-05
-5.959508209305219e-05
-5.9797985127456766e-05
-6.0591926275326185e-05
-6.192869352386501e-05
-6.346457638576117e-05
-6.455823629407499e-05
-6.441401751232411e-05
-6.238449047016205e-05
-5.837555200112367e-05
-5.321396878509119e-05
-4.877443264045691e-05
-4.7663925665880414e-05
-5.236199483483052e-05
-6.392481768325558e-05
-8.063853063918768e-05
-9.725603604972399e-05
-0.00010553207467662298
-9.654642774842168e-05
-6.470822535036222e-05
-1.2443743901030791e-05
4.6345800343364564e-05
8.647442737179535e-05
7.73331743636503e-05
-5.17336263685466e-06
-0.0001629722601877852
-0.00036200584738467186
-0.0005281290313185543
-0.0005603788978609202
-0.00036515727695708055
9.338729789181249e-05
0.0007422162347021537
0.0013722779098530268
0.0016627436514350742
0.0012745089724506338
7.125624866111969e-06
-0.002021346866798485
-0.00424700261388591
-0.00567889316917962
-0.00514058680403055
-0.0017471337738014074
0.004476040714588123
0.012045547506783546
0.017838433386615307
0.017551556654968267
0.00690813224545699
-0.01659823115933082
-0.05200889147646408
-0.09409354866094842
0.06585276924894966
0.03752656834207448
0.02827087043711185
0.0402976174455775
0.06977523401700553
-0.09172103095082203
-0.05396145020023469
-0.02442532404643796
-0.005866179099779613
0.003933822486902727
0.01023699499024847
0.018112731949738038
0.029156147599483397
0.03941586509883558
0.03944563681387284
0.01677780008580144
-0.03972682746168381
-0.13509568463683144
-0.06504693009298403
-0.01617436852731392
0.02991364845910379
0.08974445414706134
0.17118166707135118
0.06983686517780248
-0.02921656054564676
-0.14457576392017993
-0.08905955589498528
-0.06158846372859855
-0.043843770141520993
-0.0032434908977105803
0.09858788955498435
0.09456207871126225
0.00163850517221224
0.014294999681318669
0.10384538476609861
0.02387689161820435
-0.07940244903973669
-0.054400212447429666
-0.13238927036067852
-0.12030721835074824
-0.0005366208817218902
0.062070568876515804
0.10819201211391032
0.17121442035668621
0.06812777292654773
-0.002728041846260438
-0.05658148335108422
-0.11216795464114013
-0.18091781143858823
-0.05981477714476749
0.06920318413257164
0.03310980109932585
0.0574105040807657
0.15555431072709539
0.12213579495508307
-0.06753756913490343
-0.05126114243868654
-0.06936604380828233
-0.15365452554301803
-0.11982412425637544
0.03409204927325393
0.12323009651860424
0.1679250735975795
0.18639928205641318
-0.008237934517762061
-0.20554131849495758
-0.19203394733539303
-0.1467241123425795
-0.04198328318547671
0.14894802169707327
0.24046883268199745
0.22460007314557892
0.06805275953425308
-0.08079585366950755
-0.2766940419814427
-0.15973468537325122
-0.14209554157928148
-0.004583849599856241
0.09580612059271831
0.21049446505181038
0.18209388482061922
0.03166616548530475
-0.04548100608513153
-0.0750389860857179
-0.09290368577239604
-0.13294506409337228
-0.01764573614503075
0.045856444146283204
0.0641517036969474
0.05219315188093758
0.02689101520128148
0.002005600265234474
-0.014452283003457413
-0.02030938414231179
-0.017609193265947495
-0.01035234188650308
-0.002498776939005818
0.003263352215142467
0.005891299866475508
0.005707841890764981
0.0037976288380319493
0.0013878190097112674
-0.0005878822820471416
-0.001673235817987647
-0.0018567954979028327
-0.0014124130165745514
-0.0007092818439428095
-6.194274703986565e-05
0.0003476858082343365
0.0004784322788327828
0.0003912845431886322
0.0001932339698130643
-1.2608257214443082e-05
-0.0001575593378794361
-0.00021635395510464966
-0.0001998115538024288
-0.0001394010522087413
-7.11695904196225e-05
-2.370492700688e-05
-1.1711828199496868e-05
-3.460862100770821e-05
-7.871425905166827e-05
-0.00012182168936997504
-0.00013955490994593632
-0.00011316233485971885
-3.7882876904473406e-05
7.018187661592801e-05
0.00017202232263428154
0.00021218627594059023
0.00013592548398428829
-8.459730046168772e-05
-0.0004221283132374618
-0.0007765592293952655
-0.0009822725575707066
-0.0008516286867149926
-0.00025430853079074997
0.0007856148348872957
0.0020123274704020072
0.002930211110572304
0.002909333576387787
0.0014185433832882635
-0.0016545322803545818
-0.005703892904191466
-0.009285935143398922
-0.010345483119462219
-0.0068795530155497725
0.002026829559399301
0.015072931918024484
0.027999195181941074
0.03377463653098302
0.02409613427161657
-0.00786600766971488
-0.06419398708466781
-0.1397407995270002
-0.02190122168398317
0.10659701902780519
0.06253912858604903
0.05673481298601001
0.09058618278797588
-0.04384000803791033
-0.16049833280232995
-0.07464231642856572
0.0009050755325792747
0.05693143370534096
0.08667695854757265
0.08406831334799204
0.043387574652341235
-0.03859284862272166
-0.15871686106368524
-0.10402295808735619
-0.05141612420407061
0.028104420148980448
0.1614553672063619
0.1646775515112585
0.037130918585180944
-0.03862747791005406
-0.091110682730854
-0.15074799533314487
-0.04105682238921529
0.026647599577063173
0.0536969766579352
0.05051463063249606
0.03123371051889427
0.008752853391443233
-0.00832481303135555
-0.016508735867970213
-0.01648005851503031
-0.011273376918544183
-0.00443373204889387
0.0012884388612103045
0.004506271686333152
0.0051278427071531
0.00390800197076981
0.0019007848204833295
1.9948577722336454e-05
-0.0011950336205963585
-0.0016100858203844791
-0.0013896442644802003
-0.0008358487016828088
-0.00024380056792599805
0.00018785302315341642
0.0003834320946923857
0.00036866059369333195
0.0002254040553709106
4.5524356718040184e-05
-0.00010143545723992928
-0.00018173894805088503
-0.00019482536512587843
-0.00016130011844368448
-0.00010873585125512585
-6.051573288421938e-05
-3.008059639539874e-05
-2.0389169377514412e-05
-2.6845135216112217e-05
-4.150505580745656e-05
-5.678460579459493e-05
-6.769167033481724e-05
-7.243099548435635e-05
-7.178991140035677e-05
-6.794434016649203e-05
-6.327031231650117e-05
-5.9529568265648634e-05
-5.754580793817698e-05
-5.729234614023803e-05
-5.8212747151111024e-05
-5.958889231251519e-05
-6.0824287509600016e-05
-6.158539718679493e-05
-6.180907471452872e-05
-6.162294974596446e-05
-6.123556532596195e-05
-6.084163253050154e-05
-6.056639456039762e-05
-6.045208559049351e-05
-6.047524707785422e-05
-6.057816911723074e-05
-6.0699465049824824e-05
-6.079456370934128e-05
-6.084343216398136e-05
-6.084781055103326e-05
-6.0822673054297315e-05
-6.0786698221904085e-05
-6.0755084051965424e-05
-6.0736087142311985e-05
-6.073099738093165e-05
-6.0736294328447244e-05
-6.0746511627034695e-05
-6.075665620978857e-05
-6.07635914442236e-05
-6.076633341748904e-05
-6.0765567134937935e-05
-6.0762819989170645e-05
-6.0759676104126704e-05
-6.07572615298435e-05
-6.075606134426981e-05
-6.075600379784195e-05
-6.075668718796225e-05
-6.075762629900723e-05
-6.0758434375960545e-05
-6.075890756367496e-05
-6.075902130205057e-05
-6.075887213638019e-05
-6.0758603134763626e-05
-6.075834218982088e-05
-6.075816771189262e-05
-6.0758102351628776e-05
-6.0758126415315577e-05
-6.075819955732326e-05
-6.075828094555267e-05
-6.075834217258849e-05
-6.075837155075046e-05
-6.075837161609238e-05
-6.075835311375311e-05
-6.075832863244456e-05
-6.075830800187086e-05
-6.075829624083691e-05
-6.075829375912389e-05
-6.0758297922471134e-05
-6.075830499204599e-05
-6.075831169607098e-05
-6.0758316078590354e-05
-6.075831762613754e-05
-6.075831689796107e-05
-6.075831495742692e-05
-6.0758312854966444e-05
-6.075831130498173e-05
-6.075831058638737e-05
-6.075831061583098e-05
-6.075831110742273e-05
-6.075831173730707e-05
-6.0758312259670334e-05
-6.075831255533677e-05
-6.075831262198459e-05
-6.075831253008324e-05
-6.075831237097052e-05
-6.075831221695148e-05
-6.07583121029832e-05
-6.075831202966722e-05
-6.075831198040759e-05
-6.075831194249372e-05
-6.075831192218817e-05
-6.075831194684892e-05
-6.075831205186824e-05
-6.075831225594937e-05
-6.0758312533905375e-05
-6.075831280019475e-05
-6.075831291680261e-05
-6.0758312733951274e-05
-6.075831216077044e-05
-6.0758311247143933e-05
-6.0758310242287315e-05
-6.075830958774335e-05
-6.0758309810640545e-05
-6.075831131249625e-05
-6.075831409747625e-05
-6.0758317539135635e-05
-6.0758320322967705e-05
-6.075832069500937e-05
-6.0758317071464174e-05
-6.075830891830387e-05
-6.075829762397446e-05
-6.0758286931089386e-05
-6.0758282458407734e-05
-6.075829002069494e-05
-6.0758312876771756e-05
-6.0758348639884727e-05
-6.0758387177040235e-05
-6.075841110657173e-05
-6.0758400156812495e-05
-6.0758339478930356e-05
-6.075823011231199e-05
-6.075809769436293e-05
-6.075799410337653e-05
-6.0757987122972915e-05
-6.075813626901569e-05
-6.0758458660225167e-05
-6.075889597313559e-05
-6.0759299395991044e-05
-6.075945044371938e-05
-6.075912819086055e-05
-6.075821673123892e-05
-6.075682325511669e-05
-6.0755354715941384e-05
-6.075449126801555e-05
-6.075500964813944e-05
-6.075745644484619e-05
-6.076174514429035e-05
-6.0766831293624785e-05
-6.0770671209163895e-05
-6.0770649156895436e-05
-6.0764534398767035e-05
-6.075180400518223e-05
-6.0734891829324045e-05
-6.071970526773061e-05
-6.071473013841356e-05
-6.0728345308773646e-05
-6.0764631357561585e-05
-6.081886473035483e-05
-6.087473540263009e-05
-6.090565961468025e-05
-6.088191764499109e-05
-6.0783480028411535e-05
-6.061550297160992e-05
-6.0420405823758246e-05
-6.0278594720769445e-05
-6.0290885665063465e-05
-6.054066705690919e-05
-6.104268883037687e-05
-6.169595352025036e-05
-6.226630629999451e-05
-6.242454214495526e-05
-6.185347406735963e-05
-6.041122436330769e-05
-5.830289950866375e-05
-5.618091027461928e-05
-5.508308093117107e-05
-5.614489622426568e-05
-6.00965986913907e-05
-6.666809650818213e-05
-7.41414446317839e-05
-7.935710088933636e-05
-7.843425889366009e-05
-6.826473666837277e-05
-4.849320066669687e-05
-2.3290118179994744e-05
-1.9233873787063643e-06
2.8503497170076126e-06
-2.0952555971865665e-05
-7.81883255800634e-05
-0.00016005553878128137
-0.00024050533304195625
-0.0002790678610494301
-0.000232426307246782
-7.41119943384081e-05
0.0001826716904674746
0.0004685283709060352
0.000659450812047776
0.0006062337580211828
0.00019337606437650729
-0.0005844387942252501
-0.0015557694569927453
-0.002354303467377511
-0.002486244410532988
-0.0014995883109504258
0.000769047400934009
0.003946764675599322
0.006997616841588218
0.008349595145814572
0.006360342688488574
8.889188917616113e-05
-0.009829466989438252
-0.020577833057411055
-0.027280776352594925
-0.024228134019644767
-0.00725714628222793
0.023165550193385297
0.05919572321207718
0.08461122448263318
0.0768592251678925
0.012627682564262926
-0.12406049604988854
-0.13389064763898553
-0.19808252630573334
-0.08111182263388979
0.058884548585814
0.25469548813246073
0.3154197054808197
0.21948382772590252
-0.080057579227151
-0.23827151008967593
-0.295068072142638
-0.25514508198097324
-0.07964953640417859
0.10647468808964779
0.19364828341160736
0.26063187981690733
0.15066680459840662
0.05855859192108473
-0.06776562852061734
-0.1127401459884161
-0.171131413257937
-0.1255661164332332
-0.02980530616610039
0.09875532353793957
0.0771776410074262
-0.05198933547613929
-0.033450731802250305
-0.012739998570043234
0.05168594654261807
0.17996081362490904
0.16805932579949603
-0.0078071919173761705
-0.18025175126729687
-0.1766141548795989
-0.2070856373953512
-0.060133742312059174
0.09254169404743368
0.2834387528306832
0.1344265091696615
0.04600468549979303
-0.004960961890072926
-0.058394861366469916
-0.15803094150263328
-0.13726231536257574
-0.008734782484480567
0.03919455382621579
0.03868708792097267
0.03326967071549823
0.06641615327071755
-0.02910654782783165
-0.03895120050768062
0.029218166564726488
0.1467432062585473
0.06972900427340213
-0.050831351671717595
-0.05609919523920199
-0.16669039109809508
-0.1742761893718624
-0.040959149214986404
0.09234406190721306
0.09046011681929729
0.20616218285837182
0.0657626094720186
0.06267826298231133
-0.039263295749530976
-0.09431615894754176
-0.1592415598264822
-0.07885478065477698
-0.07712520507876724
0.04397437971979112
0.09853902675710854
0.10681642910137548
0.08550263736232293
0.041895302119674474
-0.026326099437716032
-0.12630505961000282
-0.06274181568329584
-0.03144731521565675
-0.0163586643059138
0.008939204010376674
0.07585988225980823
0.01347802547190156
0.04141775827284192
-0.03521319396488047
-0.027850995108141582
0.03672752776792454
0.12059495480675726
-0.01855246138404382
-0.01877484347604801
-0.10495217100605964
-0.08193083998643513
-0.13233465026619914
-0.020634518413863098
0.09694894165099939
0.25950900037983615
0.08992363707660568
-0.011000683445035655
-0.06269259995273453
-0.0964996574203048
-0.14458617102643842
-0.030348027053378666
0.03658956933380921
0.059982951513240665
0.05254320189009659
0.02997346288880445
0.0058391612528283345
-0.011351042578358561
-0.018646253688832607
-0.017378739089349258
-0.011101836198270449
-0.0036346135382957874
0.0022378726415168597
0.0052557372985634464
0.005516360294893218
0.00394440637722226
0.0016989775255856954
-0.00027401406051449765
-0.0014583155615877086
-0.0017705659753949057
-0.0014281303449524246
-0.0007727793990156449
-0.00012125025589586311
0.00032136334043844265
0.0004827983357868055
0.00039835517214859234
0.0001652189709595044
-0.00010203980053909262
-0.00030339979779032814
-0.00037147592049986694
-0.00028043115907184677
-5.0797084910104394e-05
0.00024867769847777366
0.0005063992355636442
0.0005879069795227573
0.00037579093594821474
-0.00017340013830014647
-0.0009708749613284265
-0.001763729950346242
-0.002161970436981011
-0.0017472631547870293
-0.000258939914548258
0.0021886458453321085
0.004946213982554442
0.0068397544119351795
0.006445315988561428
0.0026472265464244377
-0.0046307355191883654
-0.013782384903722158
-0.021336423866606377
-0.02260062544308123
-0.013315246721032414
0.007874948305657508
0.03680397399567491
0.06211331763365946
0.06572301759117335
0.02622519344179278
-0.07500267708520708
-0.04644499371883549
-0.08034118651833015
-0.15046913358301178
-0.015536246884042659
0.17194018130373487
0.053551490802208
0.05355153043410238
0.17194028467419237
-0.015536123258297925
-0.15046905130935487
-0.08034120788704789
-0.046445157503303275
-0.07500297232464236
0.026224846128611205
0.06572276442439101
0.06211333855968762
0.03680441515853343
0.0078758323908092
-0.013314101699495127
-0.022599634362775626
-0.021336165066752198
-0.013783410415082027
-0.004633284322824153
0.002643527463965533
0.0064416226905433995
0.00683789068023923
0.004948160159348256
0.002195653917904903
-0.0002473859071680121
-0.0017342188980022572
-0.00215299952471398
-0.0017656177183276087
-0.000988993728451101
-0.00020824152326887575
0.0003316911586741223
0.000550908163484209
0.0004988566695816877
0.00029140573763904675
5.0322889390438376e-05
-0.00013686068329116116
-0.0002315696145620656
-0.00023823273023035037
-0.00018710775670466577
-0.00011535996509380719
-5.2936082187476486e-05
-1.5877166044058112e-05
-6.423581864685262e-06
-1.7384848762510336e-05
-3.7845396172696e-05
-5.793639748543163e-05
-7.152869356982241e-05
-7.677058657940569e-05
-7.509430164998643e-05
-6.95633258517174e-05
-6.331803633935879e-05
-5.856821254717843e-05
-5.624574345000863e-05
-5.618336058010886e-05
-5.757047448303331e-05
-5.94422039146728e-05
-6.103691567369175e-05
-6.195907602757954e-05
-6.216813402784783e-05
-6.186079491743993e-05
-6.132254745118747e-05
-6.080603452130997e-05
-6.046433570699899e-05
-6.0339798921622935e-05
-6.0391502704509976e-05
-6.0538598181039324e-05
-6.0700183582472186e-05
-6.082055089522522e-05
-6.087730434343186e-05
-6.087610966721302e-05
-6.0838621494974045e-05
-6.0789858782662256e-05
-6.074916768180757e-05
-6.072627231986223e-05
-6.0721776366863576e-05
-6.073032438603314e-05
-6.074446034353207e-05
-6.075772405664048e-05
-6.0766299904944365e-05
-6.076923539223895e-05
-6.076768664442513e-05
-6.076378348503966e-05
-6.075960770110308e-05
-6.075656153150865e-05
-6.07551799856021e-05
-6.075528251396642e-05
-6.0756292105429626e-05
-6.0757560818322786e-05
-6.0758597873908845e-05
-6.0759164971972456e-05
-6.0759257871460356e-05
-6.0759021751125165e-05
-6.075865106389122e-05
-6.0758310808387955e-05
-6.075809590127311e-05
-6.075802732467858e-05
-6.075807274130893e-05
-6.075817615950361e-05
-6.075828407152737e-05
-6.075836120939175e-05
-6.0758394821758265e-05
-6.075839036199415e-05
-6.0758363097324055e-05
-6.075832976400962e-05
-6.0758302858136895e-05
-6.0758288366946183e-05
-6.075828636224895e-05
-6.075829318486231e-05
-6.075830391698908e-05
-6.075831424251375e-05
-6.0758321350631384e-05
-6.075832401160841e-05
-6.075832221181021e-05
-6.075831675284453e-05
-6.0758309054012244e-05
-6.0758301151724966e-05
-6.075829567812539e-05
-6.075829551861376e-05
-6.075830294635462e-05
-6.075831830227165e-05
-6.0758338651954756e-05
-6.075835716149307e-05
-6.075836401235292e-05
-6.0758349364363844e-05
-6.075830812312978e-05
-6.075824520423685e-05
-6.0758178963488184e-05
-6.0758140008876586e-05
-6.075816327618557e-05
-6.075827335166388e-05
-6.07584663543335e-05
-6.075869531582576e-05
-6.075886830159558e-05
-6.075886760255101e-05
-6.075859277363198e-05
-6.075802015188041e-05
-6.075725908633175e-05
-6.075657525757152e-05
-6.0756350490017765e-05
-6.075696199890954e-05
-6.075859381805601e-05
-6.076103397602806e-05
-6.076354910472782e-05
-6.076494322046069e-05
-6.076387860912504e-05
-6.075945281101715e-05
-6.0751896004653354e-05
-6.074311498913973e-05
-6.073672664134717e-05
-6.073726803473597e-05
-6.07484945966475e-05
-6.077107567281028e-05
-6.080047340393407e-05
-6.0826156643260364e-05
-6.083331221023076e-05
-6.0807659674193216e-05
-6.07427982388637e-05
-6.064793475695888e-05
-6.055240558642055e-05
-6.0502902880244105e-05
-6.055053767263044e-05
-6.072821627308809e-05
-6.1023856842969544e-05
-6.136023103310875e-05
-6.159521048663814e-05
-6.155414034208995e-05
-6.109703298341476e-05
-6.02076784666842e-05
-5.9073477478138864e-05
-5.811126873726695e-05
-5.7895076125583126e-05
-5.896445425847691e-05
-6.153857897518188e-05
-6.522227565770062e-05
-6.884418050800411e-05
-7.058348593975707e-05
-6.849031074433423e-05
-6.137171896380904e-05
-4.9818974760677356e-05
-3.695176074455635e-05
-2.83483119196203e-05
-3.072337671001013e-05
-4.927873064902284e-05
-8.426146819849789e-05
-0.0001279663832415604
-0.00016391749082847674
-0.00016989690783620617
-0.00012556155956341893
-2.3557025804511934e-05
0.00011931865188758139
0.00025637381390544766
0.00031668135510788757
0.000225964188207003
-5.874625266942423e-05
-0.0005097637953415158
-0.0010013810210788403
-0.0013149171384598912
-0.0011924951223370123
-0.0004413065136093525
0.0009337576733115412
0.0026180805633561847
0.003963177867042972
0.0041135027909490465
0.002309483223484012
-0.0016801982791980693
-0.007135433060376432
-0.012185843713664917
-0.014068258716152575
-0.009987206521459626
0.001477506589119032
0.01875758664462959
0.03609145041291034
0.04345755032585491
0.02818945561506823
-0.021736315005516666
-0.11355310274099235
-0.04620923482533532
-0.009137640525432313
0.01585727511012458
0.05006497919368663
0.11233258712420627
0.014587427798284317
-0.0400697454570476
-0.056430185721728005
-0.04439838451475935
-0.01594412800403949
0.017002899753106916
0.0434451928466632
0.053614973654785486
0.03964827174224304
-0.0027445739382827043
-0.07188273439112497
-0.15824711611547718
-0.04484883063947218
0.08905659104205489
0.061406109457330986
0.08018301253256532
0.13876018706247178
0.016117215505029626
-0.1175594154999377
-0.09164874677703909
-0.1256555708880941
-0.023167622636266694
0.02861343966135321
0.05391893431723345
0.08029164256645872
0.1305742446040906
0.01795287620649882
-0.05447583292214378
-0.0901874446227244
-0.0940784511382982
-0.06860552897633258
-0.01330908945514972
0.07204156081782746
0.18247239431819592
0.10405156890753355
0.014186126884411749
-0.11302828902684943
-0.0980138306148084
-0.14707689801642557
-0.04781305295755044
0.02913855636306278
0.12228676310819615
0.06814768929149488
0.09067497340181559
-0.00531276447657469
-0.03500410636759854
-0.029118250765947862
-0.02595322542903235
-0.062402839256871255
0.033905429297235515
0.04997179098241664
-0.010285186800451134
-0.1269042578231503
-0.06793557082801971
0.0034689786038382383
0.11985919839537418
0.10041626019625426
0.14513565580146945
0.03494479735052317
-0.06149849230652251
-0.17626626019492378
-0.13003145829555396
-0.12410042573740228
0.060107091201663757
0.05379450117773124
0.08851157235171137
0.18356998958447948
0.13794911908346028
-0.07019786285280162
-0.07622035588057317
-0.11668273733789497
-0.21691723968069604
0.016843485398175245
-0.0019594315640298126
0.1534168630964202
0.11278254613227087
0.09920882091507989
-0.07683056632082456
-0.018052244530891114
-0.1367936939495563
-0.049827980895617005
0.02596972991092505
0.0759393635915869
0.0884099603253488
0.055373930425394284
-0.025760525117410834
-0.1494558020317318
-0.09994454700245473
-0.05189444897692831
0.024896431696820504
0.15752686136679808
0.16152347074803408
0.03545407399990788
-0.038844424579739315
-0.09033492018177715
-0.1495853037252457
-0.040011514912127136
0.027292835610835096
0.053887931065088324
0.050358615948634416
0.030906804349358784
0.008419750148394089
-0.00855797263934462
-0.016605956222343083
-0.016460951732613527
-0.011186625031423526
-0.0043312308126316505
0.001368942375142827
0.0045477531315968505
0.005131698316077414
0.0038868479440915147
0.0018704025824643883
-6.798752604158578e-06
-0.0012111405031081685
-0.0016144375401205262
-0.001385201057131649
-0.0008272261056277857
-0.00023522225353833005
0.0001937283834179118
0.0003857651049833466
0.0003680247300948278
0.0002230879485421656
4.2867315682986263e-05
-0.00010347968778904912
-0.00018275798670525252
-0.00019487796300499274
-0.0001607248104037915
-0.00010794263842200458
-5.9831987115474264e-05
-2.9679323957478117e-05
-2.0291755697607734e-05
-2.6970360816178348e-05
-4.173210539881228e-05
-5.7005283554308404e-05
-6.78395034671569e-05
-7.248663887505413e-05
-7.176987174468791e-05
-6.788266178420839e-05
-6.320152038039567e-05
-5.94777263784282e-05
-5.7520856619743284e-05
-5.729218998193691e-05
-5.8228328546924555e-05
-5.9609572795259416e-05
-6.084174568363853e-05
-6.159537257957985e-05
-6.181120488035324e-05
-6.161945169169196e-05
-6.122959685941127e-05
-6.0835962056627325e-05
-6.056268083555626e-05
-6.0450768011532916e-05
-6.047585649062483e-05
-6.0579807785789326e-05
-6.0701243993471295e-05
-6.0795876692026066e-05
-6.084404089105643e-05
-6.084778384397261e-05
-6.082225259948498e-05
-6.078615972357393e-05
-6.0754638772980916e-05
-6.0735839700480346e-05
-6.073095229777624e-05
-6.073639138004594e-05
-6.0746668392983644e-05
-6.0756801908492374e-05
-6.076368470763143e-05
-6.07663643692226e-05
-6.076554889981753e-05
-6.076277617376972e-05
-6.0759629636347494e-05
-6.075722783091517e-05
-6.0756046348348566e-05
-6.075600562073706e-05
-6.075669954605866e-05
-6.0757641945730434e-05
-6.0758447488827856e-05
-6.075891478365936e-05
-6.075902170526044e-05
-6.07588666709984e-05
-6.0758593998259396e-05
-6.075833236908703e-05
-6.075816062061271e-05
-6.075810132035646e-05
-6.0758133811278935e-05
-6.0758215542749844e-05
-6.075830224515405e-05
-6.075836155427515e-05
-6.0758378830045014e-05
-6.075835670153589e-05
-6.0758310857107914e-05
-6.075826416571225e-05
-6.075824019556456e-05
-6.075825644937792e-05
-6.075831769553403e-05
-6.07584106499321e-05
-6.075850242129093e-05
-6.075854568087908e-05
-6.0758492553423676e-05
-6.0758316286247976e-05
-6.075803523705647e-05
-6.0757729103387204e-05
-6.0757534973342794e-05
-6.0757613286106545e-05
-6.075808276893431e-05
-6.075893817848403e-05
-6.075998125514242e-05
-6.076080653483394e-05
-6.076088087746712e-05
-6.075973198200796e-05
-6.075721631580376e-05
-6.0753780564974384e-05
-6.0750584021887376e-05
-6.074934087697366e-05
-6.0751797542900694e-05
-6.0758890734991554e-05
-6.076981590447454e-05
-6.078141307398197e-05
-6.0788356975320195e-05
-6.0784524632095877e-05
-6.0765549849096225e-05
-6.073199463223522e-05
-6.069193269410668e-05
-6.0661330603371686e-05
-6.066076042397882e-05
-6.0707934597535755e-05
-6.0807317115234045e-05
-6.094023377215774e-05
-6.106064503559034e-05
-6.110195149263628e-05
-6.0997881678355533e-05
-6.071534222768561e-05
-6.028998449361265e-05
-5.984853646682004e-05
-5.9599212585219715e-05
-5.9776399074045075e-05
-6.0540335002763356e-05
-6.185510620500601e-05
-6.339249102300137e-05
-6.452404966681388e-05
-6.445657502212057e-05
-6.252736366581237e-05
-5.8606556666599997e-05
-5.347041579202726e-05
-4.894470769171812e-05
-4.7614097197942886e-05
-5.1988864332434324e-05
-6.322461622722867e-05
-7.976648831867332e-05
-9.654216965988916e-05
-0.00010542000096857535
-9.74406778361482e-05
-6.675219778979575e-05
-1.5297465799490267e-05
4.361869218338848e-05
8.529139280145985e-05
7.917346291150148e-05
5.381513913854243e-07
-0.00015395728091693078
-0.0003522127175186252
-0.0005219323236952774
-0.0005629199404838089
-0.00038025546104055466
6.588407573884729e-05
0.0007086617886013558
0.0013456961479982928
0.0016602816761801247
0.001311379893681718
8.798870525191765e-05
-0.001910808151269308
-0.004144039207554236
-0.00563864417982076
-0.005219288419761105
-0.0019750410596462717
0.0041246457736599735
0.011672172813394697
0.017614346895957363
0.01767387979441208
0.007517709492500001
-0.01551889988532636
-0.05071893478792343
-0.09310629704076696
0.06587511718061291
0.036012628161024574
0.025073805934130527
0.03601277715775819
0.06587538630816742
-0.09310597133759842
-0.0507186545201053
-0.015518795234623049
0.007517514102978824
0.017673323211232463
0.01761349743218162
0.011671273375150448
0.004124100727369775
-0.001974766839867673
-0.005217860754019779
-0.005636099381437388
-0.0041409819987858745
-0.001908445053360946
8.809318669684749e-05
0.0013078654880864819
0.001652780856705477
0.001335591584432056
0.0006994212098207595
6.256199998345613e-05
-0.00037258731157698694
-0.0005416619157845528
-0.0004896728581322425
-0.00031846412313961
-0.00013448687045299315
-1.215222175151996e-05
2.1909452040919646e-05
-1.4197288524967677e-05
-7.357326363135875e-05
-0.0001027139264106418
-6.40303826453461e-05
4.639626789312843e-05
0.00019055209543322816
0.00029400389878308917
0.0002677694659412505
4.504683950808818e-05
-0.00037524793382634746
-0.0008936199764153865
-0.0013042620077983653
-0.0013371218160826413
-0.000754498606554288
0.000513503688950306
0.0022383289064256814
0.003833795494423965
0.004438748851665287
0.0031830867791018524
-0.0003873721119184066
-0.005844257695666367
-0.011574288890873191
-0.014886957713056016
-0.012720973773374394
-0.0029572544231475186
0.013939774737143962
0.033539921250826554
0.04710262727928883
0.04295915483945152
0.009827508013119822
-0.05857932459685372
-0.15923507417642158
-0.07788511173155695
0.00880469509459729
0.12696727567488494
0.09713435000374436
0.12708619439572594
0.009045889511038487
-0.07753518884039606
-0.15883592890977585
-0.05825500407874028
0.009900439991218975
0.04260619757142688
0.0462433275221892
0.03228967290752224
0.012673593614722634
-0.003634409298158766
-0.012137344972361429
-0.012596933511195334
-0.007710836941296792
-0.0013903706849760112
0.002815315955277769
0.0028460049280255796
-0.0013002466490769054
-0.007570673591915544
-0.012431872438866804
-0.011994943758198012
-0.003581880481134227
0.012567249377216348
0.03198639984666765
0.04577485664056966
0.042101873314573324
0.009582703275923752
-0.05812466429162634
-0.1580627312652667
-0.07612607416791327
0.01076806201773026
0.12845814809197945
0.09728212853692468
0.1251160418844753
0.004720431315384477
-0.08346357928169913
-0.16439376836298827
-0.0604934414616856
0.014013293309705046
0.054692583189769044
0.06477826189125228
0.05127502576061783
0.021518514360981848
-0.018415480593844145
-0.06337972939682465
-0.10793358987100675
0.05436017823155162
0.03022787400504381
0.02474676799720936
0.03925770665812522
0.07037782942366858
-0.08920699147325185
-0.0484149544040401
-0.014941887911313203
0.006822011393057517
0.016389100421065044
0.01635636938964117
0.010822386560097649
0.003797685679193706
-0.0018685328516366217
-0.00486959105977518
-0.005240800949091355
-0.0038362473477714792
-0.0017538249668124803
9.947818490771402e-05
0.0012214927178348888
0.0015240761121420652
0.001210418918297845
0.0006067338489887575
1.6512914928037426e-05
-0.0003667729803342388
-0.000483700986843801
-0.0003852854152110156
-0.0001848979709739147
-6.358857358530053e-06
5.849861132838139e-05
-2.3292618500907147e-05
-0.00021630091896866207
-0.0004250838686734269
-0.00052097879304407
-0.00038611218629442935
3.164133156274056e-05
0.0006671653906310556
0.0013125617919843068
0.0016427489564513618
0.00130912213179133
9.600048976914224e-05
-0.0018989034271746552
-0.00413344893877308
-0.005632155943632144
-0.005217248634691001
-0.0019761471548111107
0.004122261462106404
0.01167000834531237
0.017613011068910302
0.017673064676727347
0.0075165778378171125
-0.015521094166754078
-0.050722231431414196
-0.09310966872232812
0.06587366381495308
0.03601539161570068
0.025082253702267368
0.03602625306880168
0.06589020044108448
-0.09309643104644064
-0.050722287944627
-0.01554158356941877
0.007475604433242814
0.017621822658569618
0.01757223670257358
0.011666568299088173
0.004179527671534449
-0.0018515930577613596
-0.005048309170304652
-0.005476813561422924
-0.00407643493676402
-0.002025457913746937
-0.0002582224161632523
0.000769793692737655
0.001076790209718804
0.0009835020910703232
0.0008747084428865454
0.0009850461107726125
0.0012765257857418732
0.0014440446744981479
0.0010514727833903618
-0.0002351984928053494
-0.002388368069506257
-0.004835029382239995
-0.006461796838835274
-0.005894913113943822
-0.002063948202159727
0.005065297650885082
0.013840913007796208
0.02070415544633609
0.020722103749859413
0.009003786077331835
-0.017236712723851872
-0.05665105796321449
-0.10275497295175971
0.0551538079802362
0.028949844567984377
0.027345388484906145
0.05192183270332203
0.09526857832668904
-0.05770915579387757
-0.025407917433267414
-0.023383600371340647
-0.05856556937779614
-0.12598616541007557
-0.009457569300624826
0.11369066660554661
0.06529224442638427
0.05913462050979316
0.09664916162562445
-0.03288656280514382
-0.14791358435918606
-0.06794595217217168
-0.007518215064466679
0.027066991364344768
0.037561481211942166
0.03108024677387036
0.01653184217958507
0.0016222675485580574
-0.008794836915419033
-0.012970906237069962
-0.011552179934398799
-0.006501804289902219
-0.0001425686029299024
0.005440016909750873
0.008649520328684789
0.008461530855654844
0.0045358124806647426
-0.0025505962947330913
-0.011034933825231215
-0.01791366037969642
-0.019408911629957087
-0.012154712405530491
0.004988892599995502
0.028988291614050695
0.05141366423451649
0.05891799244765092
0.03607686970626863
-0.029571444796088836
-0.14158819084532376
-0.09007337849465721
-0.050896789790178934
0.009956893322858294
0.1276288991044903
0.12791586456345105
0.01873277443681617
-0.013472402534092277
-0.0011724927214586428
