0
0.0006840046533685797
0.0006840046533685797
0.0006840046533685797
0.0006840046533685797
0.0006840046533685797
0.0006840046533685797
0.0006840046533685797
0.0006840046533685797
0.0006840046533685797
0.0006840046533685797
0.0006840046533685797
0.0006840046533685797
0.0006840046533685797
0.0006840046533685797
0.0006840046533685797
0.0006840046533685797
0.0006840046533685797
0.0006840046533685797
0.0006840046533685797
0.0006840046533685797
0.0006840046533685797
0.0006840046533685797
0.0006840046533685797
0.0006840046533685797
0.0006840046533685797
0.0006840046533685797
0.0006840046533685797
0.0006840046533685797
0.0006840046533685797
0.0006840046533685797
0.0006840046533685797
0.0006840046533685797
0.0006840046533685797
0.0006840046533685797
0.0006840046533685797
0.0006840046533685797
0.0006840046533685797
0.0006840046533685797
0.0006840046533685797
0.0006840046533685797
0.0006840046533685797
0.0006840046533685797
0.0006840046533685797
0.0006840046533685797
0.0006840046533685797
0.0006840046533685797
0.0006840046533685797
0.0006840046533685797
0.0006840046533685797
0.0006840046533685797
0.0006840046533685797
0.0006840046533685797
0.0006840046533685797
0.0006840046533685797
0.0006840046533685797
0.0006840046533685797
0.0006840046533685797
0.0006840046533685797
0.0006840046533685797
0.0006840046533685797
0.0006840046533685797
0.0006840046533685797
0.0006840046533685797
0.0006840046533685797
0.0006840046533685797
0.0006840046533685797
0.0006840046533685797
0.0006840046533685797
0.0006840046533685797
0.0006840046533685797
0.0006840046533685797
0.0006840046533685797
0.0006840046533685797
0.0006840046533685797
0.0006840046533685797
0.0006840046533685797
0.0006840046533685797
0.0006840046533685797
0.0006840046533685797
0.0006840046533685797
0.0006840046533685797
0.0006840046533685797
0.0006840046533685797
0.0006840046533685797
0.0006840046533685797
0.0006840046533685797
0.0006840046533685797
0.0006840046533685797
0.0006840046533685797
0.0006840046533685797
0.0006840046533685797
0.0006840046533685797
0.0006840046533685797
0.0006840046533685797
0.0006840046533685797
0.0006840046533685797
0.0006840046533685797
0.0006840046533685797
0.0006840046533685797
0.0006840046533685797
0.0006840046533685797
0.0006840046533685797
0.0006840046533685797
0.0006840046533685797
0.0006840046533685797
0.0006840046533685797
0.0006840046533685797
0.0006840046533685797
0.0006840046533685797
0.0006840046533685797
0.0006840046533685797
0.0006840046533685797
0.0006840046533685797
0.0006840046533685796
0.0006840046533685796
0.0006840046533685796
0.0006840046533685797
0.0006840046533685798
0.0006840046533685799
0.00068400465336858
0.00068400465336858
0.0006840046533685798
0.0006840046533685795
0.0006840046533685791
0.0006840046533685786
0.0006840046533685786
0.0006840046533685791
0.0006840046533685802
0.0006840046533685816
0.000684004653368583
0.0006840046533685835
0.0006840046533685824
0.0006840046533685795
0.000684004653368575
0.0006840046533685701
0.0006840046533685671
0.0006840046533685687
0.0006840046533685766
0.0006840046533685906
0.0006840046533686073
0.0006840046533686202
0.0006840046533686206
0.0006840046533686012
0.0006840046533685599
0.0006840046533685044
0.0006840046533684538
0.0006840046533684361
0.0006840046533684787
0.0006840046533685958
0.000684004653368773
0.0006840046533689579
0.0006840046533690636
0.0006840046533689923
0.0006840046533686762
0.0006840046533681291
0.0006840046533674866
0.0006840046533670098
0.00068400465336703
0.0006840046533678255
0.0006840046533694547
0.000684004653371598
0.0006840046533734981
0.0006840046533740772
0.000684004653372283
0.0006840046533676225
0.0006840046533607286
0.0006840046533537024
0.0006840046533499299
0.0006840046533531587
0.0006840046533658614
0.0006840046533872767
0.0006840046534119079
0.000684004653429483
0.0006840046534272449
0.0006840046533947964
0.0006840046533305938
0.0006840046532478461
0.0006840046531765689
0.0006840046531585467
0.0006840046532335719
0.0006840046534186785
0.0006840046536865371
0.0006840046539531737
0.000684004654086476
0.0006840046539433583
0.0006840046534339093
0.0006840046525965647
0.0006840046516536626
0.0006840046510086137
0.0006840046511521932
0.000684004652471387
0.0006840046549984349
0.000684004658189037
0.0006840046608559531
0.000684004661380914
0.0006840046582619522
0.000684004650921104
0.0006840046405255612
0.0006840046304253999
0.0006840046257696146
0.0006840046320127469
0.0006840046524041355
0.000684004685106614
0.0006840047211495353
0.0006840047447091785
0.0006840047369292351
0.0006840046834533371
0.0006840045841120466
0.0006840044612408904
0.0006840043617355802
0.0006840043481964315
0.0006840044771932117
0.000684004767886196
0.0006840051708700025
0.0006840055527238427
0.000684005712998605
0.0006840054440965624
0.000684004629430087
0.0006840033537032701
0.0006840019780041334
0.0006840011222755836
0.0006840015100434983
0.000684003671972578
0.000684007572402378
0.0006840122982087653
0.0006840159995012336
0.0006840162575548685
0.0006840109466335312
0.0006839994516516506
0.0006839838481281637
0.0006839694410427064
0.0006839640249227668
0.000683975487567333
0.0006840079769315559
0.0006840576862165689
0.0006841101127444825
0.0006841409969261686
0.0006841226146210919
0.0006840354291727335
0.0006838824717032062
0.0006837009463585064
0.000683563730500565
0.0006835641652376665
0.0006837819329951961
0.0006842358606219958
0.0006848393187087425
0.000685381704079823
0.0006855602707110195
0.0006850758459958124
0.0006837823426530826
0.0006818476087046125
0.0006798529266500233
0.0006787465169006429
0.0006795892193851152
0.000683097059896929
0.0006890882385432794
0.0006960515982248544
0.0007011197506244799
0.0007006949794774435
0.0006917983566105245
0.0006738969765835306
0.0006505863298693231
0.0006302146280278403
0.0006245272782439873
0.0006448503688804833
0.0006962655811005221
0.0007714813998677094
0.0008472447282897767
0.0008865358572482168
0.0008488219059940179
0.0007079930288520723
0.0004736013921827375
0.00020685295094975925
2.042525904695741e-05
5.281306430517444e-05
0.00041505949603547285
0.001120095957142999
0.002019418155278018
0.002782562686692985
0.0029543404124840796
0.0021067535592029537
6.568972813919614e-05
-0.002855911904991045
-0.005729545015038924
-0.007111283963062956
-0.005453833560519459
0.000191790230162577
0.009363059487744737
0.01959791273423692
0.0264933495431955
0.024758180111565015
0.010318844246309865
-0.016949519180184936
-0.0508565756214305
-0.0782925935439427
-0.08175449407608333
-0.04567459574344047
0.034163775370650774
0.14061779907740793
0.2285783280397172
0.22608984840010482
0.04592960150637685
-0.19320878491757207
-0.3412873806626542
-0.1959477191622984
-0.2948091916752435
0.07382584999622029
0.24293394817529457
0.12870784384208092
0.1935890594246066
0.42160853481474136
-0.28604584673297423
-0.09256034825807587
0.41321330398943
0.2692230794892586
-0.202336083641347
-0.543767934821625
-0.33095174889803297
-0.7778041682589418
-0.7867766543012694
-0.44537200839593516
0.846888778603946
3.253541348138029
1.021569636562258
-0.31532499443090295
-0.6395041553986204
-0.8841478124649168
-3.254109716468759
-0.49262470869953623
0.965103759630923
1.3454685192281444
1.0266941513795638
0.41348876666495593
-0.16213066167676907
-0.493774886393939
-0.5098039481697073
-0.2539671838469647
0.1460742969966242
0.5130172778668357
0.6562354883538936
0.41350508629947286
-0.3019288773060751
-1.458536802330235
-2.8869956587562102
2.0967022135393676
1.0211495288470003
0.5624176298718087
0.856954481416749
1.858550797567798
-3.0468387337068337
-1.380074118302391
0.10914345241036903
1.108366381802437
1.3856537278143786
0.8187583127987486
-0.5769309183214208
-2.623236380690211
-2.577503733911858
1.6199157870983931
1.2421645302592308
1.2429018034263926
2.344982743315462
1.3999172556515702
-2.960997613874479
-2.003144023959611
-0.743903087347214
-0.04399550568450785
0.6309624507883703
0.7797821418787254
0.5933044612345005
0.27527010206396985
-0.016524787224829824
-0.19682171709356164
-0.24952739413962058
-0.20542147159410126
-0.11420133976773535
-0.021350007519911108
0.04479978161173033
0.07545760630209909
0.07629366767817705
0.0592849052485637
0.035449959935946
0.010927686473229177
-0.012978083719039926
-0.03676083503466207
-0.05868593466946668
-0.07210855259396574
-0.06605940168779495
-0.029943233460901025
0.038379046455541764
0.12356043641925296
0.18649480065272808
0.16465828767869028
-0.018541771888381173
-0.0360055884768875
-0.13494582442442277
-0.31758111463119837
-0.3321026135493093
-0.07942425483795817
0.16351901153890666
0.309391689963023
0.4257133775046965
0.3120564300075521
0.09817701354192584
-0.33519238231732074
-0.5195566040117788
-0.358383640331239
0.10382232082095198
0.2956930644591417
0.316971977708004
0.12655194875229178
0.1272733905832217
-0.4500027947437357
-0.3660948587091574
-1.0032226194913132
-0.8088760875019224
2.650814638466272
1.045609260585826
-0.13091282452419176
0.27923475904409817
0.3903101363022903
-3.0091243349273564
-0.9517086504817452
0.16097307995604068
0.537508541056617
0.5096888992660995
0.4105793580058352
0.4580613212175145
0.6792456901903021
0.8985307706086443
0.7965316032191447
0.029317030486641565
-1.6225307944881056
-4.123619630527963
-1.1271447434666144
0.770110801689095
2.265003986319295
2.130127249680124
3.02170789894135
-0.6147264205496848
-2.1102212084623138
-2.2309251040349305
0.013861479991452357
1.5540805185466104
1.3952078187401082
-0.5019580960415638
-3.8001062773190615
-1.432580097526481
0.26895167112057783
1.5746659543017367
2.9302059134428857
3.977685103367423
-0.10588455214619631
-2.323247016346331
-2.8552365464300906
-2.2219769428308433
-0.29631115147222176
0.9729557594985425
1.3228372996138482
1.0619357416069948
0.5369849958282947
0.02799340938320492
-0.3040877599734654
-0.4179520004410401
-0.35780686987010757
-0.2066865647422497
-0.045622353054098196
0.07116766419484986
0.12342230803233092
0.1186605186320991
0.07953173104773796
0.031033635725151856
-0.008332421683558324
-0.03009255482833677
-0.03478446269710231
-0.028305954693313807
-0.0177101704993526
-0.008031083477853019
-0.0009344328608310991
0.004781212651725658
0.011386110334156206
0.020004192246724187
0.028945040371522585
0.0334009451318583
0.026953534357988834
0.0047434356409627645
-0.03258368695999262
-0.0757551343836544
-0.10657172202464263
-0.10217504233119619
-0.04447930212574544
0.06662683675548453
0.2000581635788554
0.2858305796742034
0.218517305679975
0.07511253181820492
-0.05417688573135184
-0.42939562422263416
-0.6301963681287953
-0.34353835959028356
0.2222164682182974
0.29769401060661516
0.6980793074568535
-0.02977742467150531
-0.24370057566890427
-0.21767694487283654
1.2724465644330207
-1.4144320827168757
0.6687575532200495
1.120275522968763
-0.14737476319887724
-2.4575338404448854
-0.1507451840474632
-1.2163322117592257
-0.5818067158584296
3.355750110981008
1.7968648094547013
0.6566481599041636
-0.030903611442759733
-1.0188101068331563
-3.6994228530674222
-0.7609701692840124
1.1006396543073573
1.7954021575908312
1.3968504998501905
0.0829692893121755
-1.9079468175187961
-1.4995458961629688
2.4091838167490773
0.12475623816524216
-1.6689549744534533
-0.14215101583213255
3.252416593109021
-2.4413644698915546
-0.8921797693946091
1.3218452091094297
1.326090658972891
-2.428977481362224
-0.13634880950912245
1.4093082218653947
1.8643400927864833
1.0028980157303313
-1.2038437273632416
-4.516726811375434
-2.207888186863991
0.46782523304710383
1.9014559632416075
3.304287296778257
4.313597577868231
0.3145168491115705
-2.882708994673308
-3.2393871305225006
-2.4442377096882955
-0.32607388059539655
1.2146560480267643
1.7525883098092851
1.2086905880894323
0.5104450458132871
-0.10770675570016243
-0.5420432333269282
-0.6025934028602209
-0.3655547091568311
-0.1215782770575773
0.06146499686813054
0.1542594683577928
0.1631627759531161
0.11659802445050364
0.04915937576656699
-0.010604058292312566
-0.04624470494515037
-0.053794291861320065
-0.03859621138611092
-0.010992172801631287
0.017444920463147533
0.03650957554631721
0.039043043674503175
0.02227293641807951
-0.010877911784658162
-0.05087012865986809
-0.08204388871429891
-0.0858039368121841
-0.04724754684247875
0.03534132025542459
0.1405169792185413
0.21716416684378784
0.18579870833534098
-0.049463920505304876
0.02129057194490881
-0.058276108476359785
-0.2847972793423488
-0.3803303995541895
-0.3965440880909975
-0.14187761310292304
0.17141308121111964
0.6719049217989536
0.9836974372906423
0.8105067140788733
-0.239033100436416
-0.988438028480512
-1.0137005609639254
-0.7779165626300978
-0.20770298279898994
0.477407817044886
0.29265113317909563
0.599676561476829
1.0357581837548708
2.0899088823084235
-1.2586783212982025
-0.24621845419173086
-1.2046982987132733
-2.064488274752922
-3.12613872410355
1.2727590718866337
4.007622295201149
1.9871044455987164
0.6180833349214491
-0.026301039283292544
-0.9237080257595178
-3.5419576147185357
-0.6648859905665233
0.9352986636163648
1.148649074618881
0.10728462945380911
0.32351111440847446
0.8163640240979576
-1.7563053811979252
-0.9573621664984769
0.7742062371953743
1.8713417030886066
-0.5998212810980973
0.8502590617027088
-0.03712771992477611
-0.8086137547683456
-2.226577364106064
-0.21031672378032443
1.1922241852544027
1.8045038379805014
1.5152341181680422
0.29203378433165483
-1.777338309318925
-4.4385507289283535
-0.8621483471932921
2.091942639086049
1.7394933306660705
1.8142779413807406
3.1565515517733664
-0.8997951793208361
-3.4332058097222573
-1.9742496755956336
-0.34779637463136204
0.6224725431204798
0.9246076792445607
0.7014731138795843
0.364781537365396
0.1166697951693486
-0.0996012400681509
-0.21514073383325036
-0.22447926239473595
-0.1608231324706507
-0.06971591569422476
0.010607473071236505
0.05888783210188316
0.07143888526403892
0.05698072507038054
0.029520823116452027
0.00223525424116729
-0.016153261435660243
-0.022375619204747735
-0.017744606738921285
-0.0064318326707037375
0.006287530936514674
0.015425184393763385
0.017295712284969768
0.010327433063042612
-0.00424206894302269
-0.02195851657018473
-0.03548449034625168
-0.03622864975085401
-0.0176004197635648
0.02035507203995294
0.06595726324112632
0.09217867264409613
0.055977730275190284
-0.09825970438272288
-0.03143192774982046
-0.00015171068511069343
-0.04701583211141117
0.007528743468653325
0.1707846292636577
-0.1194052794133441
-0.19482303524423777
0.03959958998988659
0.298576917708932
-0.0939090653898548
-0.016923931760618623
-0.16603100500803072
-0.26823918479925
-0.2989801231722266
0.5004450264802364
0.4104749503432732
0.43498089093050213
0.32578175294043676
0.03287428417743154
-0.42656968840253784
-0.2973332824336253
-0.6364016666659195
-1.3070331017905699
-1.6316911677948822
0.6967156341493798
3.268545035272147
1.4221123294266191
0.7735312624544389
0.6478701370421239
-1.5914349175317386
-3.7592755516663536
-1.0795995128714122
0.5077866967886943
1.1364038739475344
1.1153976103323362
0.7937346065868941
0.4401499666468299
0.17601438860050192
-0.026743366530771823
-0.293097519977668
-0.7633534355710996
-1.5145554667619217
-0.5140524114970887
0.9781775021922814
-0.03824096618109287
1.8255380284304528
1.4867205285873304
-0.43468407050752533
-2.6005110035091867
-1.9168724705811406
0.4944641454481641
1.2957223042563675
1.9125247413463025
2.126279724048212
1.7131180681684117
-3.6643733713036943
-5.547910292699046
-1.4220643504979833
2.4423163981824105
2.2340952254259263
2.5958198300435567
3.6582241106404823
-0.6089258443236226
-3.908998167731651
-2.4366590882230734
-0.8845238143599649
0.48401903447356764
1.060205445206429
1.0277644850319536
0.6577588394999593
0.20767120031509476
-0.14419665496660825
-0.31985297093881515
-0.32660539652182474
-0.22282329250043645
-0.08140295468689608
0.03756012487789765
0.10047163896499064
0.10167580291491042
0.05702658687728147
-0.005717995606600235
-0.056450413179430774
-0.07088414293460768
-0.03725431990866814
0.03842546702546586
0.12933317592925003
0.18877300860607818
0.15692220538791604
-0.026221533417928995
-0.4042493982009211
-0.3898225724374152
-0.15908382433420515
0.14081860543079405
0.37296183290727325
0.5888095189513964
0.21412001536967923
-0.1497538864649883
-0.509367816162001
-0.45606750620358805
-0.14889400308352216
0.08650814095598132
0.1407039601418486
0.29105163102196985
0.17108708722496857
0.14997689255421723
0.12975242758748748
0.16259320216664938
-0.11526239236937853
-0.2413597588959998
-0.48848638315631265
-0.4424487420283715
-0.20575610065857378
0.17053025479342515
0.4342657519167501
0.475041497623402
0.4819991210822742
0.33311804037376186
0.02341178595815858
-0.47247011494994506
0.08119379650477897
-0.3409955350796463
-0.7751031775424864
-1.2646641260284672
-0.9160820434586833
0.19071929132688867
3.4604169175223607
1.2528970257895218
0.4152162367794517
-0.09510245474075231
-1.5021927252675464
-3.6612922882491032
-0.32227146620598546
1.7494279407933946
2.3862972159997877
1.5942218193589934
-0.4710217549719461
-3.5071051744128434
-0.6630323653838311
0.43405149132107296
-2.4016547345534813
2.3572486216862574
5.013978372400241
-0.04380811252957297
-2.1439271467651415
0.970432839731833
-2.2955073771678602
-2.423215382428089
-0.4741964240489277
0.7251856388956065
1.3119287396901083
1.4672805882886255
1.306980749874962
0.8295151219468572
-0.05661806547589185
-1.4409877652378782
-3.299519641317726
-2.6216304625263716
1.7776196671737536
1.9528269139239443
1.671319079826722
2.473941259954358
1.217195594228623
-3.0774290295862268
-2.4904421448600798
-0.8476906919975199
0.19505060486922118
0.7891276199596045
0.855098655759141
0.6021533679543757
0.2438421096343246
-0.06157007052367094
-0.23518745633369573
-0.27027958388026013
-0.20659259858755144
-0.10036705270515896
-0.0006121119144045126
0.06349802776021997
0.08441386170484755
0.07069869357480661
0.038658692051211065
0.004748121620126968
-0.019272111434072335
-0.028095307632996894
-0.022320109766903427
-0.006734165222141063
0.011646867824455488
0.02536253638239671
0.02813703457872165
0.016531487594379866
-0.008418722925813662
-0.04009000574863376
-0.06665639385347948
-0.07409481721294682
-0.05248313567022169
-0.005149715405278435
0.04135427406023725
0.23007752228664277
0.27379951532338626
0.2663504961023087
-0.0938423168885998
-0.2718364956518673
-0.4650288528198143
-0.38485877884533554
-0.2617143774424057
0.12323440368855408
0.3849530579986086
0.47444721983051397
0.4300447505545525
0.15627550833748222
-0.16119496867800048
-0.006398483320247467
-0.060444391672200136
-0.12138568661361689
-0.033808875745783985
-0.44428521351517847
-0.5963993748013497
-1.174891641686215
-0.6006454900609947
0.43512934156190974
3.627092005288489
0.9468415780154934
0.21268936225555193
-0.6415484790546998
-1.2161714050015897
-3.0629350804044364
0.07092084092112115
1.5290132573943207
1.3518823438675307
-0.17797166342946694
-2.6221201302331676
-0.08133952848770772
3.5127006368738507
1.1237928227860288
-0.6246743693553329
-1.6375319620624746
-1.5019849456087377
-1.0421062524254645
0.09579266068078184
1.821346840882728
3.9660181438120787
0.4755177561545635
-3.745487155918864
-1.9470823224124092
-0.6514415844992013
0.17645045197505435
0.6841444465623181
1.0328942225852527
1.2908999471485232
1.368529995363378
1.029772699600296
-0.014036672410009766
-1.9558766819010371
-4.74748599079726
-2.0261771841310727
1.2351881188329503
2.5548231049729773
2.9056640975396957
3.9129723628880835
0.17286340063546776
-3.0736545810545803
-3.3456142820054167
-1.691532949159451
0.08428424880257977
1.0839021170283527
1.2675806457706547
0.9387789174868134
0.4186411358540202
-0.046625002236406886
-0.32670487608561943
-0.4006748431219266
-0.32099508061798276
-0.16908938813428345
-0.018889275141262447
0.08351808985261364
0.12387316891169856
0.11224681461094958
0.0707361098134273
0.022085520515729453
-0.01744388076494632
-0.04024770434516015
-0.04581762994523973
-0.03754522106783928
-0.019862543975609635
0.0031087373823431297
0.02728201139939882
0.04750223902134295
0.05689886317393324
0.04787613831576183
0.015219057538555663
-0.039347045412116095
-0.1030382253998599
-0.15106095364954542
-0.15144550612915017
-0.07684943581136798
0.0782113289887261
0.27962252642203717
0.4430563114050518
0.4384790911000495
0.1144105039409211
-0.4606194785560359
-0.750818610095853
-0.7177613772734645
-0.2138710935369895
0.18741283569656927
0.73127663741448
0.6104307610089322
0.5081259018302972
-0.02438552679400498
-0.147676309318771
-0.07701099529644086
-0.004589546776684179
-0.2223524225182035
-0.6666653208685709
-1.1033741132757189
-1.3655164954376244
0.15624118718774047
3.38969906900044
1.4634550414391392
0.44290173977908176
-0.04909585498600907
-1.3319463046694204
-3.9290378910547052
-0.8497434798418687
1.2624465080258664
2.307110277486412
2.2627957592476178
1.1352057530809754
-1.0437312542442654
-4.167234752847297
-1.5955108165165859
0.46044307896257564
2.8861693356813425
-0.4409600226717042
3.0402524887908533
1.9129845216701373
-4.211183090101139
-4.234278136434263
2.6924804074952458
0.7964874174625154
-1.3357940692943433
2.79952809310837
1.1999080545061793
-0.6183878150230765
0.2638275067558936
-0.10502607312644686
-1.618111792897881
-4.028271125757144
-0.7578528137287122
1.9807548045857328
1.7777594443658151
2.398444528904149
3.6197075148845808
-0.6056577653609064
-3.443871220495615
-2.3793993322355043
-1.201132154306244
0.1450358698744317
0.9972112372257168
1.1216851933948118
0.8033463021940254
0.33258398356407615
-0.07466173615856898
-0.3093662914859033
-0.35999683658516557
-0.27817474654608043
-0.1383780044809522
-0.00589016203182945
0.08034348139478113
0.11023540987870487
0.095103309021304
0.05625307724187346
0.014616328883760254
-0.015711724026573965
-0.029439540496304737
-0.028562972329566397
-0.019081292504413965
-0.007584504014115964
0.0011900503998833326
0.005399089213818477
0.005845223688926204
0.004869172923799382
0.0049115551392535095
0.007225487015035678
0.011100839685337482
0.013808681020446046
0.011289756715413685
-0.0006241964121992789
-0.02494681382845462
-0.06297157118195357
-0.11519566309437147
0.01586917089083902
0.12159786691916596
0.18379891008991547
0.17465028406776215
0.06203046521027469
-0.3803297299172427
-0.36181176264628406
-0.06886826109082138
0.1316076524499273
0.27976963105390673
0.40652339806563503
-0.07909419724271945
-0.39365420448167554
-0.17380485045977273
0.1351882671918444
0.49342395985103077
0.48193742137822315
-0.08008714718087352
-0.9198751817152205
-1.307004927407355
-0.6730593504135255
0.5397726693684841
2.0129466336415347
1.8985580143374152
1.0143936597203946
-0.6936988757042236
-2.0361384901057984
-3.2584012294993165
-2.176086051982615
0.5898463756071517
4.479745678431418
2.4179620090527485
1.0726979922564872
-0.18297748914408293
-1.9970515882849567
-4.495458793931961
-1.1431699920084308
1.329007071832106
2.7159633378294736
2.8847555781080643
1.7390559957514302
-0.7518660628741233
-4.462045088350614
-2.6096273298318384
-1.7258456941015425
-0.1450071978959093
3.7902915516813684
5.076901865757333
0.6519279226113276
-1.0709341779317065
-1.706143994910961
-3.0854524641111456
-0.611990802775621
1.746506027160719
1.987294404367895
0.12434831525492883
-3.423505510734762
-1.502781587169418
-0.36001767461934264
0.9622098777341188
2.6018737214549073
4.490917337387523
0.2746455623598515
-1.824775817043213
-2.618755184104924
-2.307295682651627
-1.0685928479847917
0.6496763934444582
1.3189637091500028
1.22747868363564
0.7417915457117138
0.18581882133968816
-0.2303058151642671
-0.42523693055657064
-0.41914570865821554
-0.28690007030242526
-0.11294215082544369
0.03869806930569531
0.13529659915225567
0.17089303533598554
0.1539482911668276
0.09507663158423497
0.00021344256136590265
-0.12919787097312557
-0.09093972563028473
-0.07567677026349302
-0.06360212921407794
-0.02653956857857338
0.06439534171932518
0.02768914104319337
0.060465104727863477
0.1316881295339538
0.18296702890633307
0.13880155726457113
-0.07444609169574994
-0.30492033748788544
-0.3541376719242836
-0.16653289368053292
-0.03541885198192024
0.17447409880701106
0.39409280294874516
0.317263309236289
-0.02139151221598808
-0.0513078411326189
-0.05346062780715837
-0.13594984460731208
-0.20601143765453656
-0.14660355944999143
-0.0033565226901341
0.016005649736535617
0.1316619966366764
0.1760766808703428
0.1788959156566509
-0.04257406035658185
-0.08508756935870933
-0.15461031312947707
-0.058611254067016456
0.0003836908050977269
0.027375266334328376
0.033292535938187644
0.03068154943222393
0.028863455530462833
0.030522818273704608
0.030956813435774198
0.02031076617674771
-0.011798969387443372
-0.07072694021406933
-0.1523633204101577
-0.04190358790630301
0.08298947430489756
0.04517532612660356
0.05952688734153489
0.12616553184096366
0.028225082157405993
-0.06458539099333979
0.012698356412069952
0.031698996027772076
-0.018557281216451088
-0.12521651737626083
-0.2530266900200908
-0.35645540483587196
-0.20321983249866418
0.1943495746446027
0.5497397403753818
0.8895206734362625
1.173468417778157
0.5566660896828597
-0.9130237586221537
-1.9896346343689935
-2.560290533357515
-1.8578897974573088
0.6233212598394968
4.531437104630203
2.64652384794021
1.3417244189048356
-0.22214205154246783
-2.163519653342837
-4.464002191231286
-1.1571308822278725
1.0003695855387893
1.9437534750605607
1.826064070189378
0.9119099634263231
-0.5071133103459994
-2.1518907996347014
0.23969535140433737
-0.28437213805882694
-0.3034412706305587
-0.46016581140898993
2.2907628014602843
-0.5586436767575335
0.11855315010884877
0.7168868992469093
1.5777394879794155
-0.6966004577340125
-1.9199930143285873
-3.6300421138748837
-0.6692681227338648
2.5359990689434833
-0.18470488637072827
4.469726489569743
3.337580828113483
-2.0363627385203285
-6.923687596241062
1.5220683546834763
-1.6184433934297728
0.6152075117300361
2.638443133803502
4.2708200878557925
-1.0849589561715072
-1.8023636069279516
-2.3429610261546907
-3.5748272514004933
1.242920699021727
1.7828024117836865
1.502914279742148
1.6938569936176802
2.5848984551770053
-2.252156625507535
-2.4070854307475638
-1.2888001488943732
-0.19782938870183822
0.5401526908323017
0.7684109934817308
0.6411917088456089
0.34795250340916595
0.04993896903260673
-0.15458542680953363
-0.23498159975933253
-0.21147438857638165
-0.12948954325142234
-0.036009298417087214
0.035626562801744026
0.07096927231502606
0.0718851668724781
0.049932852551518074
0.0193274376874048
-0.008129135636895862
-0.025345087011131688
-0.02992412822706724
-0.022941508771581843
-0.007604960383633497
0.011572280656200055
0.029091272527135625
0.03878706181015916
0.03480854426110279
0.013631901220340314
-0.023179299832457676
-0.06656026234265552
-0.09956849081909167
-0.10073577654791536
-0.05195854767952997
0.05002693997082274
0.1817606627802903
0.28575678499683055
0.27306571833383214
0.03885370800641842
-0.11042282332286589
-0.42538051753513006
-0.6891362354319127
-0.4117371840085007
-0.05030612395292573
0.5486411554913518
1.8997919783519839
-0.3557891065286178
0.14682371146046994
0.12957360213726457
-0.874089653501027
-2.469930418986646
0.01326385353884239
-0.3092406319870955
0.8474785951297966
4.456384355904394
1.5384666372924858
-2.1974364535272675
-0.43354637400940754
-1.0850928185900985
-5.578049453409656
-1.4307681429956511
3.8294668783973806
1.6417488522868036
2.5597662561100325
2.2745410545612836
0.7878264273245907
-1.0443086218655697
-1.4403904017214317
-3.9844545528949724
-4.185378415917627
0.20992827987360693
3.320182667741999
3.6928302667053527
1.2224353416321425
0.1257668122424079
-1.166548550688088
-1.8007553975136328
-2.4142940974120712
0.9759779342425371
4.081770107636643
1.6484740282386743
-1.2268125752024555
-2.1654797623147943
-4.603349762947848
-1.5725475593126066
0.7874221639125604
3.599850247418129
2.9742002213472465
3.7874782201667236
-0.18831159546936008
-2.5843351997973505
-4.40449503204831
-1.7639856607329354
0.30187473124054065
1.3007924281208603
1.4234547569093692
1.0116661166403467
0.41855664491289
-0.09162486911739522
-0.3851320529762271
-0.448192065522219
-0.34523459613500573
-0.16937262214330853
-0.002771344372617463
0.10481417689565546
0.1396389211756945
0.11536247540021281
0.059476703196505894
0.0006905733461902948
-0.039509791461135216
-0.050571994309299796
-0.03300583552264043
0.003456024496102352
0.04253015010966197
0.06457992590142159
0.05057891149049713
-0.013052541075576003
-0.12942818890075294
-0.08766066127477426
-0.06285510222695771
-0.020890288536503685
0.07258700808492018
0.24160793303237843
0.09169761967766422
0.007629707947920023
-0.04145684743947577
-0.09120489535840826
-0.1695538281197538
-0.08753304725115761
-0.037168323694768475
0.0021409962553646626
0.050401661200767604
0.11109793289365359
0.15800881805304326
0.13006093619499395
0.13784391831768567
0.08246182086062492
-0.11635563451522153
-0.2896975249898933
-0.3958672341670891
-0.31315239528470085
-0.054850836004128344
0.1943497502677977
0.42944850980194715
0.5782933315202532
0.4723341173055221
-0.15474361457433844
-0.4401866826898319
-0.5476447687443597
-0.4220288401595236
-0.1598173347848485
0.3971722090918769
0.4474130033263708
0.4059300541982329
0.08439793107559283
-0.3165414722631323
-0.4026992234040313
-0.1763105229217629
-0.02905514697625765
0.2570673382259765
0.3022096704840733
0.12001413757319025
-0.08640947443946835
-0.12146723873318054
-0.18908607780394524
-0.08454626861681631
0.009273438679472865
0.11916784188338786
0.07340728964991038
-0.10889012719678867
-0.02743028895215427
0.09322907678739421
0.20334677629494494
0.23509521504157987
0.11785730946208735
-0.4001124708856388
-0.3293060582547708
-0.22429557977113904
-0.18448027440669892
0.12694450236753668
0.4500070605649718
0.2910456426201647
0.09390429996626475
0.028400161196254648
-0.001024536319721676
-0.13015709914060755
-0.30158234997535494
-0.23273586888585765
0.2061070013470915
-0.400859203048029
0.17766443976912108
0.40239454254193097
0.3425666532775203
-0.3408009911146015
0.197034035912523
-0.21518884698769636
-0.3605330685126044
-0.23130073404578863
0.1683578714915604
0.41553437220304523
0.46304285613540863
0.24301104171466795
-0.11581597818356217
-0.45992493957396585
-0.7828418405571751
-0.41136489724451664
-0.01706306006549294
0.5464154753548682
0.7920924148022223
0.35445016259627093
0.16954486917871972
0.4904047096346792
-0.8658607688862293
-0.6551609893238243
-0.3505746790065609
-0.7151610492014131
-0.41540412736790777
1.5277108433040871
-0.1319606056150381
1.271395662471722
1.2867986270327176
-0.633960727539946
-1.873955664817199
-0.3712540095036251
-0.956437148663628
-0.3349807075238723
1.2791179479002137
1.495496730555629
0.67662230765263
-0.5066169878986696
-1.080517457740948
-0.9444370828068127
-0.03805181911485358
