0
-9.348545897071629e-07
-9.348545897478223e-07
-9.348545897713777e-07
-9.348545897562931e-07
-9.348545896875745e-07
-9.348545895679568e-07
-9.348545894268466e-07
-9.348545893213105e-07
-9.348545893240069e-07
-9.348545894964287e-07
-9.348545898521169e-07
-9.348545903221555e-07
-9.348545907412732e-07
-9.348545908733649e-07
-9.348545904867348e-07
-9.34854589470839e-07
-9.348545879610844e-07
-9.348545864148549e-07
-9.3485458557299e-07
-9.348545862592112e-07
-9.348545890222846e-07
-9.348545937059859e-07
-9.348545991168928e-07
-9.348546030105027e-07
-9.348546025872869e-07
-9.348545955501945e-07
-9.348545815283355e-07
-9.348545633777659e-07
-9.3485454764699e-07
-9.348545434929482e-07
-9.34854559682324e-07
-9.348546000446441e-07
-9.348546587193383e-07
-9.348547174195027e-07
-9.348547472313964e-07
-9.348547166955197e-07
-9.348546058328003e-07
-9.348544226542442e-07
-9.348542154592737e-07
-9.348540724175255e-07
-9.34854101259133e-07
-9.348543875368467e-07
-9.348549395916178e-07
-9.348556396259021e-07
-9.348562285417726e-07
-9.348563516140412e-07
-9.348556778003558e-07
-9.348540766312369e-07
-9.348517989265584e-07
-9.348495744990409e-07
-9.348485305113594e-07
-9.348498666237917e-07
-9.348543058593339e-07
-9.348614616295647e-07
-9.348693841996992e-07
-9.348746142552983e-07
-9.348730115094875e-07
-9.348613998552798e-07
-9.34839692249644e-07
-9.348127265983847e-07
-9.347907401397699e-07
-9.34787458284375e-07
-9.34815355122603e-07
-9.348787796575594e-07
-9.349670964835036e-07
-9.350512296948686e-07
-9.350872885918136e-07
-9.350295988618645e-07
-9.348521764605241e-07
-9.345729618700859e-07
-9.342704738554387e-07
-9.340802754795459e-07
-9.341612764012321e-07
-9.346309703485585e-07
-9.354834929499501e-07
-9.365209109402958e-07
-9.373392845902954e-07
-9.374081641277248e-07
-9.362585748310372e-07
-9.337498184576348e-07
-9.303293537794328e-07
-9.271536651978722e-07
-9.259298663254375e-07
-9.283940051325956e-07
-9.354723018461459e-07
-9.46354641393709e-07
-9.578859902466462e-07
-9.647601918549616e-07
-9.608863601094818e-07
-9.419350991393147e-07
-9.084945330804349e-07
-8.686347486705825e-07
-8.382734704697308e-07
-8.378865244697039e-07
-8.850626362629297e-07
-9.84159619699186e-07
-1.1164771344804804e-06
-1.236088891859499e-06
-1.276673193541342e-06
-1.1723593615721293e-06
-8.904518111582604e-07
-4.6679889113699013e-07
-2.7911179497115886e-08
2.187620975206331e-07
4.008857456178761e-08
-7.227626081790271e-07
-2.0329191269103734e-06
-3.562384640410622e-06
-4.6847040340064225e-06
-4.610457329082478e-06
-2.6817105322627125e-06
1.2274238730402997e-06
6.339931098704261e-06
1.0834749026765278e-05
1.2138224161245192e-05
7.75562869637113e-06
-3.4535801561642264e-06
-1.992766852413606e-05
-3.660379316176599e-05
-4.5380916146357124e-05
-3.734869555498413e-05
-6.708948667466783e-06
4.4560446586302234e-05
0.00010316671267086265
0.00014448539100265156
0.00013811816251376585
5.952191990904258e-05
-9.449795241043631e-05
-0.0002918223497489169
-0.0004603498964467002
-0.0005003203982504898
-0.00031741654458443326
0.00012761523275422413
0.0007677020586641984
0.001400869626080882
0.0017116355520316274
0.0013608711180562042
0.00013962805314068086
-0.0018517405608881863
-0.004072859284290996
-0.005553918219787347
-0.0051254262833098675
-0.0018835146917088523
0.0041968568838589146
0.01170775269630111
0.017603981431503286
0.017625491392090166
0.007462557343010378
-0.015528079679197929
-0.050621453031269865
-0.09285880473699294
0.06626719939558347
0.03646947138513844
0.025437320955437406
0.0360790925075
0.06546873800133343
-0.09403031348842754
-0.051976286350873036
-0.016654030549390145
0.007164633286490948
0.018760609156265644
0.020471759643240918
0.015952641401858796
0.008581695544526239
0.0006095945206792265
-0.006808608369321686
-0.012959793630341884
-0.016801783889004503
-0.016611264825867843
-0.010413749317941345
0.0027733505996444603
0.021258102809104062
0.03927530566736212
0.046735208078135165
0.03077291852072509
-0.02086140916918813
-0.11541528602567944
-0.051368651936994074
-0.017060931470551953
0.007280072828681829
0.0444921893745894
0.11412122868626783
0.027058976259242425
-0.016895809822208306
-0.02780663783369129
-0.02135507929948191
-0.013191421358115631
-0.013689357635372006
-0.0245565564661406
-0.03818760578569433
-0.04004887479938642
-0.013724880529518134
0.052535622849432834
0.15975614874958058
0.09509059809832053
0.03357905001387638
-0.05487247063262253
-0.19532386262919818
-0.19840643201077057
-0.05595843473188682
0.055897934363090006
0.16717430832359925
0.30208578614842624
0.07024683519178913
-0.13500467403602298
-0.13077535779791996
-0.13467261122407836
-0.15594096922801923
0.008123375402089591
0.16924299332338041
0.14079160085257336
0.13013732185285773
-0.0653132222163944
-0.05657593602267458
-0.05713436260780137
-0.07561901714975053
-0.11048620659403
0.051035045504932215
0.029286076629908835
0.04522666580712434
0.11283710686612831
0.03369752156382851
-0.004315569187062552
-0.023825680669589386
-0.05148012069134627
-0.11052836746308166
-0.014963846728799171
0.03301766805022622
0.04185362394780088
0.026701355156741963
0.004432891172003211
-0.010936605110691782
-0.01147553743651908
0.003102119634260501
0.02556822351920098
0.04299793736117803
0.040236381156907114
0.004692713800389147
-0.06848903996976087
-0.17258965329503131
-0.0888635738178123
0.009132111543411568
0.14689717971721655
0.1388435512586651
0.18092062101409148
0.04980063293151249
-0.09007119926326625
-0.2737167120844332
-0.12210393361758391
-0.03343190403521178
0.017223437040083157
0.06992327784524524
0.16685052119203383
0.13920494231209188
-0.0014653192374034173
-0.0650617837673936
-0.07826679626101314
-0.07611512876876723
-0.09330890366722217
0.04203523434677219
0.11129542088676095
0.10579501049795166
0.026568769947086172
-0.1153006894366632
-0.09807369911835996
-0.09018236604449391
-0.05435301116035472
0.044500606218091716
0.22932331748531976
0.10242450121809504
0.04230275587341346
0.008070049842246648
-0.04911835001255139
-0.17104972231313445
-0.17888567467950925
-0.06590159291877137
0.0005756110825880325
0.06835165154162162
0.18425975905773886
0.17836836046749835
0.0540549414674626
-0.012625055108036918
-0.06424585462848567
-0.14728006587150114
-0.09656321831333793
-0.12419655492126261
-0.01638631801719536
0.061090319784086536
0.1510375574742227
0.09092588546418003
0.10166735211078119
-0.017497940358692076
-0.08708715738755314
-0.14007954505104128
-0.012423678640901404
0.06553809450335601
0.0749727327639319
0.011586757404869736
-0.11374058270999925
-0.07659236404301806
-0.043306520090118795
0.021962301548655132
0.1485269462198318
0.15130617767982132
0.02678654650360808
-0.04531532931015346
-0.09510548383976557
-0.1529837659636126
-0.0412522839939674
0.030182064393790974
0.0631043047961227
0.06659576652357808
0.05154795625221491
0.02661934256993151
-0.002951592078168542
-0.033770835839329605
-0.0613343269577372
-0.07775748015284285
-0.07213017154781046
-0.0345034091688813
0.03705324317469382
0.1286733038141817
0.205916965687973
0.2159201409859808
0.09880780859012964
-0.19272260039269942
-0.4711091320271626
-0.29768795337508785
-0.1811864345163866
0.004886633736969049
0.38928834488105385
0.6650463428812831
0.26032369505776565
-0.07047899097430638
-0.23187484658909077
-0.3547685385362871
-0.3588663302412656
-0.12330398633287883
0.12593684009588524
0.2106289738539138
0.182342617757579
0.10059599408181115
0.014969850372809004
-0.04446388106149247
-0.068070029238623
-0.061465429190814665
-0.03782950722383039
-0.010866776101557245
0.009717467658467665
0.019791076183272124
0.020036693734685487
0.013965701229111912
0.005779270629241498
-0.0011989201547825744
-0.005239417887682343
-0.00616234285090604
-0.004825247818934004
-0.002475149411225296
-0.00021685369578762097
0.0012792319735246574
0.0018265796076519971
0.0016029881610696937
0.0009613407309506587
0.0002552696576654443
-0.0002713861006312433
-0.0005202903824420273
-0.0005158341580031511
-0.00035245582162460293
-0.00013946662697888833
3.849784629095155e-05
0.00013880692607564033
0.00015870145172128104
0.0001215109068042131
5.979734874585683e-05
1.810963839221989e-06
-3.5735478291273784e-05
-4.8640847731214235e-05
-4.19306354125256e-05
-2.490129903973286e-05
-6.6528321639400464e-06
6.676690575256732e-06
1.273732281147243e-05
1.2308786896579441e-05
7.907931016849592e-06
2.3659333714166853e-06
-2.169972181051357e-06
-4.654872139723575e-06
-5.067164997518868e-06
-4.039475193638837e-06
-2.4211137719902705e-06
-9.336614233845643e-07
7.128827808749988e-09
3.086570392904081e-07
1.1167247349151693e-07
-3.393127718379371e-07
-8.103750545888075e-07
-1.147234560761505e-06
-1.2941181155133284e-06
-1.2749812573706052e-06
-1.1567670789218256e-06
-1.0127519493890326e-06
-8.973708069375071e-07
-8.361515855755234e-07
-8.283471054272829e-07
-8.567847698190892e-07
-8.992230506315138e-07
-9.371366651784564e-07
-9.601521694957101e-07
-9.663572710183074e-07
-9.598950315623018e-07
-9.475597953994588e-07
-9.357715846349992e-07
-9.286744191970574e-07
-9.274967698356355e-07
-9.309155943753515e-07
-9.360198560779493e-07
-9.395069442678333e-07
-9.38851694091173e-07
-9.332640836382976e-07
-9.242572058504228e-07
-9.15610979843163e-07
-9.125205434760601e-07
-9.198521582239411e-07
-9.397398593813578e-07
-9.69196556171867e-07
-9.988246097954866e-07
-1.0138475851156455e-06
-9.982970877836814e-07
-9.421490248308838e-07
-8.496422916417395e-07
-7.454000333203086e-07
-6.740815082211707e-07
-6.899865474392543e-07
-8.358983671462141e-07
-1.1153342270001642e-06
-1.468042311971211e-06
-1.7626972870496735e-06
-1.8203740097198645e-06
-1.4750965058993936e-06
-6.631450785355535e-07
4.8619521222502e-07
1.6023280513881356e-06
2.1159210544787946e-06
1.4241312763380284e-06
-8.317543710599733e-07
-4.447840026615695e-06
-8.43155060032425e-06
-1.1033018341877053e-05
-1.0167894171742891e-05
-4.250409732373931e-06
6.73573573556933e-06
2.0318375415904653e-05
3.1310821761920464e-05
3.279237113664743e-05
1.851247894831089e-05
-1.3639874524461322e-05
-5.819312676886182e-05
-0.00010038845990826212
-0.00011806262542357097
-8.827268495355715e-05
1.8497466828890746e-06
0.00014290895009996566
0.0002949523564245572
0.0003894231636992828
0.00034634266059139606
0.00010709425747135632
-0.0003242914175866554
-0.0008467612652858366
-0.0012557234137947249
-0.0012837660819573818
-0.0006959503328936548
0.0005756299193638349
0.0023015794732157953
0.0038959751172401246
0.004498692386156744
0.003240986289805418
-0.00033009940539240426
-0.005785512007970173
-0.011512137857098778
-0.01482061370794483
-0.012651617457527754
-0.0028883384470572418
0.014003102940186089
0.033592466759886024
0.04714168175931783
0.042987216874406584
0.009853996889946471
-0.05853875927918399
-0.15916268621884275
-0.07776859531032954
0.008962996001095678
0.1271430414827634
0.0972805366113838
0.12714304148276326
0.008962996001095519
-0.07776859531032956
-0.15916268621884272
-0.058538759279183915
0.009853996889946743
0.042987216874407146
0.04714168175931878
0.03359246675988728
0.014003102940187312
-0.0028883384470566368
-0.012651617457528377
-0.014820613707947078
-0.011512137857102511
-0.005785512007974469
-0.0003300994053955226
0.003240986289805689
0.004498692386162251
0.003895975117251214
0.002301579473230264
0.0005756299193765317
-0.0006959503328900041
-0.0012837660819698244
-0.0012557234138264725
-0.000846761265332453
-0.0003242914176338027
0.00010709425744660202
0.0003463426606142319
0.0003894231637860795
0.0002949523565696673
0.00014290895026572485
1.8497467995948643e-06
-8.827268497189126e-05
-0.00011806262564629119
-0.00010038846034424028
-5.819312732702183e-05
-1.3639875000650163e-05
1.8512478836346362e-05
3.279237165549249e-05
3.131082302202024e-05
2.0318377226506153e-05
6.735737523903139e-06
-4.250408860556539e-06
-1.0167895178064131e-05
-1.1033021820533091e-05
-8.431556271988902e-06
-4.447846369078075e-06
-8.317586479893152e-07
1.4241323715908642e-06
2.115930100334018e-06
1.6023452046572941e-06
4.862167252546437e-07
-6.631272772236333e-07
-1.4750933435164247e-06
-1.8203955416346676e-06
-1.7627472352728247e-06
-1.468112554802066e-06
-1.1154019270938312e-06
-8.359286847628258e-07
-6.899428435491105e-07
-6.739423565316082e-07
-7.451786094925046e-07
-8.493999641280612e-07
-9.419930839579983e-07
-9.983545255774094e-07
-1.0142139467622898e-06
-9.994986544892163e-07
-9.700246910170316e-07
-9.404034029328185e-07
-9.199285700773584e-07
-9.116313770232775e-07
-9.136339811555566e-07
-9.215352648445054e-07
-9.30706235497475e-07
-9.378137382005646e-07
-9.413825970295488e-07
-9.41575909941948e-07
-9.39550142266249e-07
-9.367414004476897e-07
-9.343273187627996e-07
-9.329621478301432e-07
-9.327607622445354e-07
-9.334405055543457e-07
-9.34519321802185e-07
-9.354964207147027e-07
-9.359826968998389e-07
-9.357807215742504e-07
-9.349267888990789e-07
-9.337004871399715e-07
-9.325905561152501e-07
-9.321942601147699e-07
-9.330346883365804e-07
-9.353122613178978e-07
-9.386570360142539e-07
-9.41997515357965e-07
-9.436804084039064e-07
-9.419351665322603e-07
-9.356626012734064e-07
-9.253532228267841e-07
-9.137610417946969e-07
-9.058589195768946e-07
-9.076786586193306e-07
-9.239576930186477e-07
-9.55057373932707e-07
-9.94247586863066e-07
-1.0269082491755252e-06
-1.033154220231256e-06
-9.945777742251454e-07
-9.041764531949454e-07
-7.764230087730976e-07
-6.525974143379057e-07
-5.960031253282429e-07
-6.735534159593617e-07
-9.248909454763203e-07
-1.3270227454436411e-06
-1.7692960969388725e-06
-2.0570498220111525e-06
-1.9587857135107273e-06
-1.2988736522076242e-06
-7.653283389831509e-08
1.4322955409192757e-06
2.650319177070055e-06
2.808481455489637e-06
1.2136607450886138e-06
-2.365671470005694e-06
-7.317426126421999e-06
-1.1997883568403539e-05
-1.3942958512617108e-05
-1.0606380999254208e-05
-5.668424430618175e-07
1.5118595284173705e-05
3.1996917240108306e-05
4.244256821500626e-05
3.757402808483295e-05
1.0901789612770122e-05
-3.708509383429192e-05
-9.510945444002547e-05
-0.0001404018673933896
-0.0001432514264186527
-7.761887713087691e-05
6.389940993142314e-05
0.0002556057078164627
0.00043215150595564655
0.0004977268049321941
0.00035559464027593826
-4.4775171340602206e-05
-0.0006559855036806698
-0.0012992287850939319
-0.0016761223257032185
-0.0014463218265662377
-0.0003708202824354614
0.0015116040431537702
0.0037425766520885148
0.005427051012724767
0.005421924761709742
0.002756924775635488
-0.002784823120785025
-0.010120373900559395
-0.01664529867881856
-0.018638455209078267
-0.012466210876762347
0.0035251353586042665
0.026927548242651683
0.04985585842339641
0.059185811410587895
0.039146852365344854
-0.02381245829992766
-0.135094396502658
-0.08716694540008155
-0.05835649411151301
-0.0166722674199969
0.07183981322002292
0.23281409216135376
0.0751811201730682
-0.01188075013362582
-0.055286214531243556
-0.08911754467826334
-0.14399205968344403
-0.038738157821415355
0.022822516663428074
0.04939402102076876
0.05563433899368287
0.05441334091892496
0.05089068890637788
0.040472601891394594
0.01125880780481308
-0.049958668686886594
-0.15040214299608404
-0.08567871650569928
-0.038429794360429044
0.017663325507532378
0.10970897674601876
0.2564748097791993
0.062237163374874525
-0.08358970804646881
-0.2009764187306894
-0.11081989760040128
-0.027695815935461394
0.04308199826764423
0.10365484096709035
0.159103608434848
0.013229093176160825
-0.13322478007107455
-0.08173759391357834
-0.03415812754736874
0.008203953644947757
0.04365196395290997
0.06803095109451122
0.07321115921163053
0.047788345885248204
-0.019330000768282993
-0.13330296439537062
-0.08793691196647137
-0.06321903827795618
-0.027746755566182495
0.05390275191364149
0.21097764077658301
0.05707318314191893
-0.015129678503279556
-0.0330078290566091
-0.03746666836678612
-0.07303282646115487
0.022516515822454362
0.02653948515157766
-0.06358130892777834
-0.029721773000695933
-0.03659914576788041
-0.03928741470389341
0.006441338655164725
0.1330197849488332
0.1521192860282297
0.05079632996223029
-0.005389423329923732
-0.06267297240660348
-0.16566392391157225
-0.1446008935979682
-0.007484483603702346
0.06060043450804566
0.09144867664580052
0.12382238385095877
-0.006651940301703956
-0.07494175690143016
-0.07036847197877737
0.002862849994939415
0.12746243350138184
0.0767939678783144
0.020642367433553896
-0.06734799378086091
-0.20224591156845304
-0.18326900036984098
0.005267735324670376
0.1869043260079478
0.18241458410645564
0.20044833345686439
0.034133055710284806
-0.1344676550577203
-0.32417823667761764
-0.14403161630244932
0.012392757740302815
0.16484550965324465
0.1379224462706373
0.15074319066379552
0.00969199249576475
-0.0930423419884099
-0.17556437831032168
-0.059844830452745724
0.033929940061683005
0.09037411408020474
0.09959605244424682
0.05726162896565112
-0.034485069879622875
-0.16522097712301306
-0.11517192219262781
-0.05707317575365093
0.03789634683313436
0.19127074070482736
0.20895983974653157
0.07758631729461483
-0.03182855795879021
-0.15342245319313122
-0.313330834165451
-0.11958810852462175
0.040214396631778934
0.19240509630576913
0.16501481394468845
0.17567723891860273
0.025097286316888602
-0.10144034683221435
-0.22598620625744512
-0.16767476501508424
0.0647229121382965
0.07446247549411429
0.07297215560760431
0.07329308996147292
0.08425822649073518
-0.09225830588032434
-0.060576201621883374
-0.028132251819334014
-0.0019935161915095533
0.013536901314383941
0.017699305077738082
0.012761593806410601
0.0028638439492971756
-0.007224870881924612
-0.013181198821507098
-0.012033476795395744
-0.002978696908859602
0.01192402125491965
0.027436768706242426
0.03562087169830822
0.02747253933150983
-0.004289608362440993
-0.06191988275385286
-0.14009341186842567
-0.02558225852215358
0.09998908713793266
0.05484895585391565
0.05118603992015631
0.09106545791447379
-0.034228463607040654
-0.14136241987050607
-0.05007649575825982
0.021644129203436738
0.06079859513663901
0.06074935981919002
0.02151517466825248
-0.050232439710888296
-0.14147001525412461
-0.03421035779753863
0.0912594189913353
0.0515463714289243
0.05528234700964828
0.10031822951024756
-0.025580392623375192
-0.14060625073130886
-0.06298875904923795
-0.005706717308174091
0.02620498195390737
0.035212914103594235
0.02858348557777944
0.014953402915072534
0.00151792167529582
-0.007457503392593314
-0.01076829957368384
-0.009460183464235508
-0.005647977207009645
-0.0014518410310097557
0.001669558050664508
0.003131431373154129
0.0030836673414079713
0.002093491404495763
0.0008146798787510446
-0.0002485283122913028
-0.0008440146599029238
-0.0009579535631553448
-0.0007316842999720728
-0.0003606883334531141
-1.3767311173478251e-05
0.0002097817217154262
0.00028558887183611207
0.00024427705942071406
0.00014170407119684127
3.227562200452712e-05
-4.746962813969597e-05
-8.365444592728046e-05
-8.101576381806135e-05
-5.454198668511987e-05
-2.1013108652316375e-05
6.855954004256733e-06
2.2783426449714105e-05
2.6353451436517928e-05
2.0814426893817727e-05
1.060904115535211e-05
-4.0226494111496485e-07
-9.656355475886117e-06
-1.5711285387471026e-05
-1.767706763824357e-05
-1.481159669384659e-05
-6.657496418041639e-06
6.247007817741925e-06
2.1433368863575483e-05
3.397972329378764e-05
3.708831055389631e-05
2.4178136755096594e-05
-7.700238743585972e-06
-5.4136229501741136e-05
-0.00010106911007303127
-0.00012596860787401117
-0.00010394869226348022
-1.866076610032754e-05
0.0001246523632283023
0.0002891503001969002
0.00040616045474460013
0.00039051473541861826
0.00017293889102620955
-0.0002565753597570564
-0.0008094231328443073
-0.0012847967975866486
-0.0014035010093379013
-0.000900012598105538
0.0003387999897123403
0.0021296212516405746
0.003911262488492097
0.004802447627912558
0.0038512675092502694
0.00046474030255418873
-0.005088684079554363
-0.011309415806918298
-0.015490613904633207
-0.014356275929164351
-0.00536431027363131
0.011563892256283848
0.03245898310112815
0.048671570483440105
0.04796438216559202
0.01765904213423774
-0.05067672916169695
-0.1565231435489901
-0.08786479718483121
-0.022693875331145745
0.06506307707667967
0.19701750208556124
0.18273169075566595
0.016693136424641104
-0.11847714284854464
-0.24407118457448648
-0.17667638698044194
0.07670133618086791
0.11766463538973722
0.1510021150009854
0.17870800389179567
-0.0026582847571771455
-0.19970468718144044
-0.21666420760291072
-0.050344251468015445
0.11097332348715207
0.08375276237079214
0.08257381057039473
0.11413870439385866
-0.02523702140528466
-0.14781675906796574
-0.0696453726971559
-0.005292094053433832
0.03564875124857304
0.049514466217706936
0.037660346712412446
0.004945154797334038
-0.04147096441313303
-0.09290182656473132
0.06004314514540856
0.026154629193152153
0.011951644708937283
0.020269967484518366
0.04974731394701916
-0.10462962434001921
-0.05035229837083217
0.0036413361434384076
0.047334974658064466
0.06957642904814273
0.05853682172001316
0.003629568338394044
-0.10101050546343965
-0.05258445891653572
-0.03709160092513696
-0.02986772778350593
0.00022888942842693452
0.08384364561113737
0.04337080135412984
0.08687811353499404
0.005749672268607686
-0.02310444630536787
-0.031147588298258352
-0.05016867748202246
-0.10478747174122426
-0.0077118190784586935
0.04109005594145244
0.05156451338007434
0.03860243406890575
0.01693050818895607
-0.0025247233834726954
-0.014108917403231447
-0.01696643801539048
-0.013389564754911832
-0.006873784720364381
-0.0005544902024589272
0.003649566093905703
0.00519009296833216
0.004556071634249922
0.0027387550380893896
0.0007367042134721158
-0.0007592752190627525
-0.0014691538795857627
-0.00146050740857476
-0.0009999829753173136
-0.0003971407733800273
0.00010778929928483888
0.00039333682048582006
0.00045104702951293175
0.00034661047948814815
0.00017214951275439642
7.786160977204939e-06
-9.893361014745906e-05
-0.00013590128440939007
-0.00011720629125505737
-6.912082287674057e-05
-1.7433108592264718e-05
2.0416334673578173e-05
3.770733733191775e-05
3.6598440135297224e-05
2.419300128262997e-05
8.508143574980168e-06
-4.360788115381418e-06
-1.1435126268298275e-05
-1.2637077134603696e-05
-9.748598597254567e-06
-5.172711511459248e-06
-9.56057718999917e-07
1.7184436185941936e-06
2.5832748309706738e-06
2.033550037975392e-06
7.604139417681417e-07
-5.732742948000532e-07
-1.5293580075138377e-06
-1.9485890498681447e-06
-1.8978943979909303e-06
-1.5663659629924138e-06
-1.1612080472173229e-06
-8.361284451807965e-07
-6.626862255768704e-07
-6.379224538228115e-07
-7.127637627358622e-07
-8.24853505791074e-07
-9.2393298416512e-07
-9.843429620805776e-07
-1.004974568592542e-06
-1.0006417654953171e-06
-9.901487464782008e-07
-9.85833580826684e-07
-9.878830625468896e-07
-9.848853522925274e-07
-9.602648334895873e-07
-9.025468272773925e-07
-8.159280834836774e-07
-7.266642283485913e-07
-6.808512310950495e-07
-7.308783056313292e-07
-9.114812848009913e-07
-1.2115094514730015e-06
-1.5527670430545622e-06
-1.7901576977727592e-06
-1.7450630072321512e-06
-1.274510064316659e-06
-3.626660773158042e-07
7.974855205138973e-07
1.7781636867663623e-06
1.9915268253785514e-06
8.86661776757584e-07
-1.757353573688727e-06
-5.530992346594701e-06
-9.23018861175835e-06
-1.0988603544582337e-05
-8.813048511050264e-06
-1.4921825386051735e-06
1.0352687144415151e-05
2.351007233369736e-05
3.2257578642055684e-05
2.972461944614345e-05
1.0611938658563058e-05
-2.5284759719879638e-05
-7.00168600173927e-05
-0.00010666787569481348
-0.00011248502431346922
-6.670475600297325e-05
3.8059764002638155e-05
0.00018441363010711297
0.0003243679334524236
0.0003852307189895603
0.0002910907910927196
-1.6425766178103741e-06
-0.00046399944625050084
-0.0009666091123331648
-0.0012851721642098655
-0.0011558716500158677
-0.00038237868653784
0.0010283773481570898
0.002751960479014896
0.004122609439052715
0.004264228226403258
0.0024016510540834676
-0.0016965163851919035
-0.007285681005987695
-0.012444229630398613
-0.014340725752414029
-0.010118160834480439
0.0016642371564741998
0.019383879863437415
0.037133316043305324
0.04467228810927069
0.029108307621916543
-0.021708398642491685
-0.11491761378060392
-0.049072883255349926
-0.012931088073472917
0.0124903437700111
0.049054645832014
0.11556196578147172
0.02293354567861474
-0.02775693569127584
-0.04394173121320051
-0.03782927845823383
-0.022007050738766902
-0.006008299316858178
0.005245510104516136
0.01107617525789027
0.013346723238299935
0.014312388751015556
0.014887334012888156
0.013945314366965528
0.00890349859097116
-0.0025822725395682872
-0.020392521566381237
-0.04008818790065924
-0.052429304547620764
-0.04503949466902999
-0.006332111401861938
0.06919407283440404
0.17623356008538524
0.09700369415034478
0.004503374704453841
-0.12931653989991054
-0.12297585378318761
-0.17672107420854077
-0.06973860599618878
0.03465834814166007
0.17710311148802377
0.18773373429028026
0.07479921862301288
0.0208516602765126
-0.01187090932758503
-0.06873257717372341
-0.187130555252489
-0.18354577326240923
-0.04788289941947967
0.052721668710097896
0.16193282267003065
0.11851992397986995
0.14270765072775274
0.02937534694795152
-0.04984087667317902
-0.13678759494900647
-0.07318050689947303
-0.08786509655333917
0.011208035853325747
0.038528946295675805
0.026576006043466806
0.01740045180041736
0.05280893297286969
-0.03460611981154168
-0.028047069494532676
0.07014034862011044
0.03874474991028832
0.04173668968185318
0.03584137130017587
-0.01940529886229264
-0.15123551552740178
-0.1658366701988074
-0.04609162939202744
0.04357920767594494
0.14625708642400534
0.09896055853468605
0.12116289367596092
0.009264474875431061
-0.06144912024350191
-0.12859390210825497
-0.03145703894129203
-0.0004994983230451277
-0.050399385655749016
0.022205030637195342
0.0366233461522243
0.022987311188622385
0.01578648419191682
0.04761047679179286
-0.05590543432032347
-0.07962630810653719
-0.02114553492901463
0.10814527594726374
0.08356684091387832
0.07024181108835369
0.02952856468385743
-0.07174851651666415
-0.2516281756008591
-0.10648669183114423
-0.010902873854747997
0.07504109898374714
0.19316214839274792
0.17391042210470128
0.02747169794002558
-0.057641457107924635
-0.10865063238874774
-0.15832146439386613
-0.03487257086237517
0.04450592579781328
0.07523621136784749
0.0630401615464619
0.01993147730744938
-0.039522420577478984
-0.10083154084827421
0.0486505815634265
0.01824550089384776
0.012590794548762755
0.03083306709261497
0.0669812848612966
-0.08833133334457258
-0.04508328118919442
-0.011072557992384368
0.009845870939706994
0.017955321355864987
0.01653190251789504
0.010082950039928014
0.002728920177188007
-0.0027945232211356104
-0.005400021860674275
-0.005340240164732161
-0.00361688325226042
-0.001384650024560051
0.000468094403814956
0.001499197601955035
0.0016865182288442941
0.0012801666526869662
0.0006241560248806492
1.4376135449038285e-05
-0.0003761691211930607
-0.0005062770833447499
-0.0004310428485020102
-0.0002493400280614853
-5.692405323519407e-05
8.227611885139735e-05
0.00014440197122565229
0.00013838834086576918
9.113405447353037e-05
3.2517907411764124e-05
-1.501098020054865e-05
-4.070280982193028e-05
-4.456103332706695e-05
-3.339197174420447e-05
-1.6186058086561613e-05
-5.165794407666645e-07
9.295648369959935e-06
1.2329952558935391e-05
1.0102478359311148e-05
5.203134653920568e-06
1.0603149644366054e-07
-3.540994783670895e-06
-5.107746169210448e-06
-4.793958640783159e-06
-3.270395927811282e-06
-1.330331061402736e-06
3.455230710208609e-07
1.2935015421072427e-06
1.283699116041155e-06
3.102742486451616e-07
-1.4035894197459462e-06
-3.3881009835259965e-06
-4.9413563096930276e-06
-5.2395296553751815e-06
-3.5854512873420317e-06
2.2485612213449393e-07
5.527342774240442e-06
1.0597157929808815e-05
1.2854004562760491e-05
9.609224183185125e-06
-6.907466131439437e-07
-1.7046845327301117e-05
-3.4915470947210496e-05
-4.638241220628075e-05
-4.209797958937382e-05
-1.504497798610049e-05
3.465231263655574e-05
9.564413025265878e-05
0.00014443079679491932
0.00014988866509296913
8.418057433976615e-05
-6.161972291636931e-05
-0.0002621527828879226
-0.0004503698810431081
-0.0005263748611181696
-0.000387580491011548
2.2316774308936475e-05
0.0006587679116402585
0.0013398732546325994
0.0017564607944380516
0.0015508484292943224
0.0004653819849859381
-0.001471942849025326
-0.0037948294636446053
-0.0055737612782961925
-0.005606289017171477
-0.002856059967305086
0.0029264552710233952
0.010592595722579774
0.017283675222907698
0.01871929599930929
0.010252645864595664
-0.01143080163213993
-0.04647417238823122
-0.09066920586843183
0.06429793335495067
0.028924004288378855
0.01284212218315559
0.02177978306679213
0.0556188909114276
-0.09188961402828151
-0.031894298059616626
0.021696981784439295
0.05466321456510859
0.05502469121107056
0.01581031202506413
-0.06214256135744891
-0.16832208228694584
-0.08318345692342742
0.017498459759608023
0.1549676045718321
0.13904429510805172
0.16269879479541158
0.002785711160776082
-0.17243543377115847
-0.19155893330874255
-0.06878524949867633
0.0022567262058660457
0.04736164430137285
0.10410532717963053
0.010761757709368039
-0.004572409528549885
0.0682602374512159
0.018456017266289218
0.016392593520471142
0.020357462538619364
-0.013628266822296247
-0.12118090703290108
-0.12087410393394074
-0.010046563582311816
0.033525750616674795
0.0446123923760609
0.06050624661937879
0.11123482388902682
0.01293140284573222
-0.03397513567446469
-0.041800915354254196
-0.029429289863089562
-0.015198235126456726
-0.010973963502217238
-0.018824208770611407
-0.030900008698549798
-0.03244384423155456
-0.00722117226411706
0.05598294627853854
0.15779255102661444
0.08584860052193431
0.017239940525039542
-0.07429346195929394
-0.20869372840523914
-0.19142153240068555
-0.010679083818713181
0.15826936889649262
0.14332887517143222
0.16471413009326566
0.027811366701791886
-0.07743325747310392
-0.17103230535501393
-0.07450670751904835
-0.0034245600857165603
0.03630544119221168
0.04785630370557367
0.03999506258235043
0.022814271354738624
0.004463382496582932
-0.010261538107619548
-0.01956727949831191
-0.02330142924235262
-0.021551540330788484
-0.014004835761449416
-0.0004183928261863559
0.01801420472775775
0.0371173057275554
0.04899700670762399
0.04299575609308782
0.008665978420329621
-0.05983069305248195
-0.15948676951691115
-0.07650893155499551
0.011652693002940676
0.13023836296270835
0.09908208867388567
0.12581169133758496
0.003340629991090366
-0.08725425518772396
-0.16986628076231794
-0.06568211965759091
0.01200876276267515
0.05879598914733643
0.07648135635295632
0.06898775143274256
0.03934964098038144
-0.010705637800508526
-0.0787024335088143
-0.15848269678425425
-0.038626316626026655
0.09616230764867166
0.06076727130002905
0.06432056056664069
0.10641504083225799
-0.023207824693208066
-0.1412471484375899
-0.06522987824492507
-0.00817372303936237
0.02437668965059128
0.034244639010488416
0.02820263874567324
0.014703209165242299
0.0010859665924283835
-0.00801610485091878
-0.010997124429911853
-0.008685520855274267
-0.003341817070022349
0.0023376040744158525
0.0059937991290127356
0.006124049984056651
0.002406597244181118
-0.004128068403542356
-0.011131024787189825
-0.01531364358694818
-0.013313027977051691
-0.0030500825621062083
0.01467818802266138
0.034936624510842285
0.04847878400892166
0.04332817406201313
0.00827999481820835
-0.0623790980278328
-0.16459447267459273
-0.08288803856799912
0.007007746523641163
0.13124955988515477
0.10893534687261397
0.1447652655677478
0.02667778756042518
-0.07018230875339297
-0.17459765143964415
-0.10917156975749809
-0.0831737874773926
0.10892869961973922
0.08320921296038919
0.05871435125398356
0.05006388220042526
0.06304178876673816
-0.10569129734772117
-0.06546053932458143
-0.02694417952148955
0.0018169162942132584
0.01741282290103713
0.02089593872867999
0.016177323878719074
0.008000747801482003
0.00030539562041634376
-0.004626194676815181
-0.0062348334641991205
-0.0052174312268314154
-0.0028553462730003085
-0.000411891930082535
0.001249260921088962
0.0017963883225740845
0.0013682332098463
0.0004062342467902156
-0.0005417716503369999
-0.0009982998770257604
-0.0006932174239881928
0.00034658143133815936
0.0017663432707844704
0.0029339090261507658
0.00309629291044306
0.001647191695648683
-0.0015367264355944325
-0.005796148602206434
-0.009584383919152435
-0.010722082966480952
-0.0071027567198019
0.002222201655669123
0.01587236172527094
0.029377959661734256
0.03539880395423161
0.025317395895803098
-0.007867361973976824
-0.06610303138921891
-0.14369420760034635
-0.027105769227620223
0.10200810757651771
0.06120363650241426
0.061202754310367286
0.10200493248662183
-0.02711237458521431
-0.14370482880069796
-0.0661163407939135
-0.00787927180152079
0.025313361050587534
0.035409507303932684
0.029407212855330267
0.015917025528989798
0.0022695472861381087
-0.007074382481593301
-0.010737726181675109
-0.009662029642519759
-0.005933678953575594
-0.0017012405584830195
0.0015210536509043062
0.003092974926165984
0.003126380909855724
0.00217345720368899
0.0008923525675198882
-0.0001972203385264604
-0.0008253672811265825
