0
-8.657150307843038e-06
-8.657150307843038e-06
-8.657150307843038e-06
-8.657150307843038e-06
-8.657150307843038e-06
-8.657150307843038e-06
-8.657150307843038e-06
-8.657150307843038e-06
-8.657150307843038e-06
-8.657150307843038e-06
-8.657150307843038e-06
-8.657150307843038e-06
-8.657150307843038e-06
-8.657150307843038e-06
-8.657150307843038e-06
-8.657150307843038e-06
-8.657150307843038e-06
-8.657150307843038e-06
-8.657150307843038e-06
-8.657150307843038e-06
-8.657150307843038e-06
-8.657150307843038e-06
-8.657150307843038e-06
-8.657150307843038e-06
-8.657150307843038e-06
-8.657150307843038e-06
-8.657150307843038e-06
-8.657150307843038e-06
-8.657150307843038e-06
-8.657150307843038e-06
-8.657150307843038e-06
-8.657150307843038e-06
-8.657150307843038e-06
-8.657150307843038e-06
-8.657150307843038e-06
-8.657150307843038e-06
-8.657150307843038e-06
-8.657150307843038e-06
-8.657150307843038e-06
-8.657150307843038e-06
-8.657150307843038e-06
-8.657150307843038e-06
-8.657150307843038e-06
-8.657150307843038e-06
-8.657150307843038e-06
-8.657150307843038e-06
-8.657150307843038e-06
-8.657150307843038e-06
-8.657150307843038e-06
-8.657150307843038e-06
-8.657150307843038e-06
-8.657150307843038e-06
-8.657150307843038e-06
-8.657150307843038e-06
-8.657150307843038e-06
-8.657150307843038e-06
-8.657150307843038e-06
-8.657150307843038e-06
-8.657150307843038e-06
-8.657150307843038e-06
-8.657150307843038e-06
-8.657150307843038e-06
-8.657150307843038e-06
-8.657150307843038e-06
-8.657150307843038e-06
-8.657150307843038e-06
-8.657150307843038e-06
-8.657150307843038e-06
-8.657150307843038e-06
-8.657150307843038e-06
-8.657150307843038e-06
-8.657150307843038e-06
-8.657150307843038e-06
-8.657150307843038e-06
-8.657150307843038e-06
-8.657150307843038e-06
-8.657150307843038e-06
-8.657150307843038e-06
-8.657150307843038e-06
-8.657150307843038e-06
-8.657150307843038e-06
-8.657150307843038e-06
-8.657150307843038e-06
-8.657150307843038e-06
-8.657150307843038e-06
-8.657150307843038e-06
-8.657150307843038e-06
-8.657150307843038e-06
-8.657150307843038e-06
-8.657150307843038e-06
-8.657150307843038e-06
-8.657150307843036e-06
-8.657150307843036e-06
-8.657150307843036e-06
-8.657150307843038e-06
-8.65715030784304e-06
-8.657150307843041e-06
-8.657150307843043e-06
-8.657150307843044e-06
-8.657150307843041e-06
-8.657150307843036e-06
-8.657150307843027e-06
-8.657150307843019e-06
-8.657150307843016e-06
-8.65715030784302e-06
-8.657150307843038e-06
-8.657150307843063e-06
-8.65715030784309e-06
-8.657150307843109e-06
-8.657150307843102e-06
-8.65715030784306e-06
-8.657150307842982e-06
-8.657150307842887e-06
-8.657150307842809e-06
-8.6571503078428e-06
-8.657150307842904e-06
-8.65715030784313e-06
-8.657150307843446e-06
-8.657150307843742e-06
-8.657150307843864e-06
-8.657150307843648e-06
-8.657150307843005e-06
-8.657150307842006e-06
-8.657150307840935e-06
-8.65715030784028e-06
-8.657150307840603e-06
-8.657150307842313e-06
-8.657150307845372e-06
-8.657150307849058e-06
-8.657150307851915e-06
-8.657150307852057e-06
-8.657150307847835e-06
-8.657150307838799e-06
-8.657150307826607e-06
-8.657150307815436e-06
-8.657150307811384e-06
-8.65715030782058e-06
-8.65715030784618e-06
-8.657150307885091e-06
-8.657150307925862e-06
-8.657150307949481e-06
-8.657150307934351e-06
-8.657150307865438e-06
-8.657150307745487e-06
-8.657150307603986e-06
-8.657150307498163e-06
-8.657150307500877e-06
-8.65715030767379e-06
-8.657150308030474e-06
-8.657150308501818e-06
-8.657150308922085e-06
-8.657150309054513e-06
-8.657150308666769e-06
-8.657150307648017e-06
-8.657150306134059e-06
-8.657150304583568e-06
-8.657150303739453e-06
-8.65715030442771e-06
-8.657150307198586e-06
-8.657150311895365e-06
-8.657150317321238e-06
-8.657150321225423e-06
-8.657150320800633e-06
-8.657150313743537e-06
-8.657150299682412e-06
-8.657150281481478e-06
-8.657150265707624e-06
-8.657150261543244e-06
-8.657150277779123e-06
-8.657150318254861e-06
-8.657150377092835e-06
-8.657150435954611e-06
-8.657150465845838e-06
-8.657150435220162e-06
-8.657150324044594e-06
-8.657150140354856e-06
-8.657149932587169e-06
-8.657149789157698e-06
-8.657149818095032e-06
-8.657150105185352e-06
-8.657150658785242e-06
-8.657151360760868e-06
-8.657151951287553e-06
-8.657152074654424e-06
-8.65715139890997e-06
-8.657149793244557e-06
-8.657147509204806e-06
-8.657145278658192e-06
-8.657144231908355e-06
-8.657145571925286e-06
-8.657150023677306e-06
-8.657157199406299e-06
-8.657165143861167e-06
-8.657170388060166e-06
-8.65716878025298e-06
-8.657157135679916e-06
-8.657135367351618e-06
-8.657108326960946e-06
-8.657086280443378e-06
-8.657082991328645e-06
-8.657110967931215e-06
-8.657174570456097e-06
-8.657263132794e-06
-8.657347497238411e-06
-8.657383650845652e-06
-8.657325793386228e-06
-8.657147871147647e-06
-8.656867878175587e-06
-8.65656455515998e-06
-8.656373843804065e-06
-8.656455093483626e-06
-8.656926117470537e-06
-8.657781023534572e-06
-8.658821315235607e-06
-8.659641921181806e-06
-8.659710919187305e-06
-8.658558049215935e-06
-8.65604225683436e-06
-8.652612288577307e-06
-8.649427880130871e-06
-8.648200897309863e-06
-8.650672170410813e-06
-8.657770392776472e-06
-8.668683054105965e-06
-8.680246211972534e-06
-8.687138896992217e-06
-8.683253379496803e-06
-8.664248511452455e-06
-8.630714503115338e-06
-8.590744369716401e-06
-8.560300404656279e-06
-8.559915239495573e-06
-8.607225749866541e-06
-8.706600490963748e-06
-8.839285448439774e-06
-8.959225306975085e-06
-8.999913838917542e-06
-8.895299058109264e-06
-8.612598514394265e-06
-8.187765760496294e-06
-7.747668284066674e-06
-7.500334132945886e-06
-7.679539956618302e-06
-8.44454684291352e-06
-9.758362370844769e-06
-1.1292059537076512e-05
-1.2417430170377221e-05
-1.2342865436549564e-05
-1.0408632444803467e-05
-6.488547612979298e-06
-1.36185069223166e-06
3.1452834275686305e-06
4.452044164297837e-06
5.6842872675173046e-08
-1.1183874729336386e-05
-2.770381851814002e-05
-4.4425874102482726e-05
-5.322641177847964e-05
-4.517048129841596e-05
-1.444423204621481e-05
3.696827478476086e-05
9.573659137247979e-05
0.00013716739039248074
0.0001307781168191482
5.195865360955332e-05
-0.00010249237610541933
-0.00030036407825960443
-0.00046935277083203744
-0.0005094209890402449
-0.00032599232012085093
0.00012028950216374284
0.0007621565032865534
0.0013970647770122952
0.001708651179160849
0.0013568485152730442
0.00013214132228456588
-0.0018648181988620179
-0.004092133756094572
-0.00557729323949537
-0.0051475679951421055
-0.0018966011103049817
0.004200725237493553
0.011732704760895251
0.017646152249631845
0.01767028694190208
0.0074856193119256734
-0.015554537030666725
-0.05071693862718554
-0.09302013159409858
0.06607751812609208
0.03632465892671529
0.02543099688715098
0.036290978644219166
0.06591730888615276
-0.09343248101696922
-0.05144090043664604
-0.01648491962471104
0.006667692520718712
0.017451759315111406
0.018519812136474224
0.013939599584198567
0.0074540711487913
0.001420663839474332
-0.003360316416971885
-0.0070866093491935254
-0.010057159615062749
-0.01190451309608125
-0.01134894072281793
-0.006672658609106345
0.0031618430433657555
0.017123258852182188
0.03106482533026688
0.03770355602459795
0.028112404610735626
-0.005297326878415531
-0.06506522470548795
-0.14570502762144288
-0.03314469905884253
0.09240088891041186
0.05060289314668701
0.054272610354087376
0.10437624467437714
-0.011154397873146092
-0.11431026463830421
-0.030751917929697795
0.01738006584106464
0.017388943660786745
-0.03073424376417018
-0.11430673706541473
-0.011191089233074127
0.10428501198950967
0.054138374412365346
0.05047024942990821
0.09234174428270396
-0.033053269235937446
-0.145417271806772
-0.06460781696794274
-0.004797800029971688
0.02843080456064389
0.037577131720349946
0.03029638800626129
0.015717965126901025
0.0014417148795375107
-0.008044326795121137
-0.011497644476338512
-0.010054704887639035
-0.005974227126715215
-0.0015090325100750677
0.001798025326221794
0.0033348947141613756
0.003268721636138243
0.0022067793017028284
0.0008448250262104782
-0.00028278933539174506
-0.0009107341643080705
-0.0010267908592021568
-0.0007827851950317885
-0.0003870366419331775
-1.866860995084821e-05
0.00021751758518041812
0.00029642507112341814
0.0002512150735103892
0.00014157118630542321
2.5348613298483906e-05
-5.87944905622461e-05
-9.640094242412345e-05
-9.283446330750488e-05
-6.432778854248918e-05
-2.892937313668484e-05
-2.0886510093662855e-07
1.5329211797436226e-05
1.767913997411774e-05
1.0949598355183021e-05
5.723600331462275e-07
-8.876312901256227e-06
-1.4787707310963664e-05
-1.6611637684606997e-05
-1.52734438351602e-05
-1.234638739887298e-05
-9.326753254702192e-06
-7.198646348130094e-06
-6.315956323069281e-06
-6.520074194204767e-06
-7.369351328897464e-06
-8.3689556788408e-06
-9.133040870846518e-06
-9.459351822113342e-06
-9.331433879462776e-06
-8.878220039265573e-06
-8.317427999097303e-06
-7.896432657067095e-06
-7.832129044230551e-06
-8.247340288251706e-06
-9.10805267205787e-06
-1.0179726984450212e-05
-1.1033753860662274e-05
-1.1136277351241418e-05
-1.0032715679661892e-05
-7.600879319447901e-06
-4.292830638277905e-06
-1.2412085775666398e-06
-9.766002447280931e-08
-2.524884997344219e-06
-9.388923589262387e-06
-1.9873913524796984e-05
-3.0909829929890584e-05
-3.737706337380294e-05
-3.343862106010425e-05
-1.4998750235602868e-05
1.7269210191182276e-05
5.5487186577897743e-05
8.427294363670069e-05
8.396449346675944e-05
3.782484535709158e-05
-5.8012990916989264e-05
-0.00018517098730244349
-0.0002991714584168032
-0.0003362052081608083
-0.00023334966952872556
3.9926312313097405e-05
0.00044795770688240143
0.0008681230959673118
0.0011009627302222787
0.000924154307752495
0.000189249916963982
-0.0010616577774688856
-0.0025053499419315575
-0.003533121657294418
-0.0033858588805428997
-0.0014452775665234631
0.0023666301881291054
0.007204498666222853
0.011114168902221697
0.011223071027403863
0.004388855699374323
-0.011801084310957926
-0.03801686562763347
-0.07264289745362032
0.08792601783821997
0.04822408567259438
0.012498882016314916
-0.015908542058980464
-0.03431200503494041
-0.04001308893282248
-0.030074520317889694
-0.0021769284240672152
0.04348429335421913
0.10208947281703291
-0.03685983939779355
0.011508043142247808
0.03082378722363598
0.008478950753267288
-0.0592095457773237
-0.16352962545851804
-0.08346334609372114
0.009558261787000795
0.14287055823869219
0.13255760611474887
0.17633790098579066
0.052977018061281994
-0.07057766147315342
-0.22653452032330496
-0.23308280046394508
-0.08649104419094371
0.037685281651753555
0.17439893496857334
0.15407231765352117
0.18906808742891906
0.0673848217427018
-0.043715738989487316
-0.18549594725633828
-0.19174812607404082
-0.07528936986141209
-0.022101945782055377
0.004816626722282899
0.053438086808305044
0.1667985927473255
0.1686469034738824
0.05554860510729763
-0.001775476677771318
-0.048265093540806825
-0.12901034489275487
-0.2738830594267181
-0.08784012363910906
0.04955240487536875
0.17535270535385278
0.12890241623584384
0.1376458924426304
0.008304426515781576
-0.07405025274545499
-0.13976644092517693
-0.024370579774567414
0.041904742103610906
0.042008110861033426
-0.023909322355726764
-0.13860012910326766
-0.07191513465837046
0.011247519351075909
0.14056940411663194
0.13033736923178965
0.17359728328704302
0.04345927126992767
-0.09787380816920616
-0.2850710055462107
-0.13591683128478602
-0.04348687458108083
0.022385333773048778
0.10487216097434858
0.2451987589676771
0.06865945557555125
-0.023481827156017758
-0.05395332528718686
-0.06225993267296648
-0.09351120287011416
0.012936010449636577
0.03212738605580667
-0.04196120461135351
0.003855090956671402
-0.0013970281552459687
-0.018952685688467565
-0.00804498752432002
0.06605092639419041
0.02517906744272107
0.07417268661608488
0.0005238527801885717
-0.021939680680484783
-0.026286987700518655
-0.04447802596995989
-0.10034371910094923
-0.005442933035402808
0.041273779140137204
0.05036943658212074
0.036905202123797845
0.01544231659043196
-0.0034190658717807697
-0.014351090459351193
-0.016722885881451866
-0.012917050736688628
-0.006406159607468877
-0.00023819018433069754
0.0037690754410117126
0.005145409855847854
0.004419022423947927
0.002583589513279667
0.0006160523550216386
-0.0008228745825314568
-0.0014792299757470928
-0.0014359832431353292
-0.0009636211207473787
-0.00036703529394672757
0.00012214047714002567
0.00039083657683353855
0.0004362558715857947
0.00032624663336798955
0.0001522015640292479
-8.08636871735775e-06
-0.00010968601848847459
-0.00014246912928220288
-0.0001214863851505135
-7.302672583107481e-05
-2.2292281625769406e-05
1.4061210614004332e-05
2.997935755071992e-05
2.8003570727310344e-05
1.532168680668738e-05
-1.7983430192757834e-07
-1.2631686039092608e-05
-1.927109276310073e-05
-2.0162405778223964e-05
-1.7138743433136386e-05
-1.258077911633471e-05
-8.47329135833464e-06
-5.931656456575196e-06
-5.173343610860361e-06
-5.7798689722332085e-06
-7.0608504103949926e-06
-8.369143863256933e-06
-9.286759602545085e-06
-9.671042533909254e-06
-9.598035942532693e-06
-9.258449836760579e-06
-8.856080091146143e-06
-8.53945379278109e-06
-8.375812809960187e-06
-8.359998979647886e-06
-8.442652276325185e-06
-8.561836149203012e-06
-8.666969779627665e-06
-8.73042994362397e-06
-8.74773320021252e-06
-8.730435597741342e-06
-8.696638522780625e-06
-8.662940379455508e-06
-8.639812772214997e-06
-8.630585328415367e-06
-8.633030405827282e-06
-8.642098696899462e-06
-8.652530019995247e-06
-8.660571026096901e-06
-8.664592191506074e-06
-8.66481595089263e-06
-8.662567187215381e-06
-8.659455212001353e-06
-8.656767474281375e-06
-8.655186295399918e-06
-8.654798327168766e-06
-8.655286284541523e-06
-8.656176231839497e-06
-8.657042917384692e-06
-8.657624537693014e-06
-8.657844401013887e-06
-8.657766908999554e-06
-8.657525677678133e-06
-8.657256415494813e-06
-8.657053726101803e-06
-8.656956531161302e-06
-8.656956197139934e-06
-8.657016578086587e-06
-8.657095446354362e-06
-8.6571601902184e-06
-8.657194982917843e-06
-8.657200194370999e-06
-8.657186825669429e-06
-8.657169201356675e-06
-8.657158551245042e-06
-8.657159076659384e-06
-8.657167102100274e-06
-8.657173168464355e-06
-8.657166394562466e-06
-8.657139980822407e-06
-8.657096272027216e-06
-8.6570494295234e-06
-8.657023772026741e-06
-8.657046590175193e-06
-8.657135947697058e-06
-8.657286490644508e-06
-8.657458882249743e-06
-8.657579935170948e-06
-8.657559407918795e-06
-8.657324777753326e-06
-8.65686729049257e-06
-8.656283194775029e-06
-8.655787117064169e-06
-8.655674875581337e-06
-8.656224745404236e-06
-8.65755011450081e-06
-8.659447917381006e-06
-8.661315069224063e-06
-8.662213533269167e-06
-8.661138213829708e-06
-8.657473374369034e-06
-8.651522077561815e-06
-8.644890119551852e-06
-8.64045079861885e-06
-8.64166458868547e-06
-8.651214563905143e-06
-8.66923290282769e-06
-8.691755132040194e-06
-8.710296071730363e-06
-8.713407534063893e-06
-8.69060038177836e-06
-8.638070431915153e-06
-8.564453381573646e-06
-8.49378946783097e-06
-8.462617266398078e-06
-8.509221229174634e-06
-8.655777759725334e-06
-8.8880766616282e-06
-9.141404275552192e-06
-9.303121790782045e-06
-9.240358488276876e-06
-8.853749658345071e-06
-8.145853291166121e-06
-7.279048546425274e-06
-6.588277465677634e-06
-6.516140194745387e-06
-7.457261559519311e-06
-9.535966301366437e-06
-1.2388118998935748e-05
-1.5057059300733698e-05
-1.612114195436347e-05
-1.4124458138478567e-05
-8.274446470735752e-06
7.824908953251813e-07
1.0444328503945898e-05
1.630063997649604e-05
1.3256486432333615e-05
-2.354014877550454e-06
-3.0131606766539868e-05
-6.344912119695068e-05
-8.910260315279312e-05
-9.000110889211243e-05
-5.133334913576551e-05
3.080976840029477e-05
0.00014118052971903264
0.00024176926909103737
0.000277323994244788
0.00019257084612621885
-4.055963091857277e-05
-0.0003933100903285083
-0.0007612846998625088
-0.000971991665567981
-0.000830314950567454
-0.00020151164917076622
0.0008874043415487676
0.002167214915399206
0.0031188336645205034
0.0030845174016778864
0.0015122262122040794
-0.0017099581002856053
-0.005941981036624458
-0.009669812575138015
-0.01074506027884869
-0.007081461105713703
0.002262462463744121
0.01590966039608986
0.029399345030833003
0.03540104278539442
0.025304412178113748
-0.007888338732064097
-0.06612493369368072
-0.14371227335886766
-0.027118179317928405
0.10200074285535969
0.06119935879400605
0.061199360567842975
0.10200074867639553
-0.027118168519166007
-0.14371225766576923
-0.06612491581371316
-0.007888324806984306
0.025304413457275014
0.03540102317893868
0.029399301427388842
0.015909599665896987
0.0022624040957699657
-0.00708148719838339
-0.010745022482224536
-0.0096696922634345
-0.005941789397260413
-0.001709748005512499
0.0015123620280135
0.003084468906047377
0.00311851773696053
0.0021666319635022533
0.0008866866095386711
-0.00020208871532452382
-0.0008303853260465581
-0.000971226561226281
-0.0007595762176409186
-0.0003909526182660646
-3.833826837071994e-05
0.00019348237386292483
0.0002757161998580178
0.00023697220611381626
0.00013370712352872395
2.2789614672572398e-05
-5.626512192837218e-05
-8.762143987803815e-05
-7.63404475235277e-05
-4.056758372611139e-05
-2.533522064220485e-06
1.909741250215007e-05
1.4421904833469957e-05
-1.5168889225118494e-05
-5.709367465811839e-05
-9.047521594957015e-05
-9.204597663300598e-05
-4.478046160696265e-05
5.2275903147493346e-05
0.00017617843906398738
0.0002787388609392966
0.0002959858258003429
0.00017023967573692218
-0.00011842490426956513
-0.0005210740122477439
-0.0009045026905466253
-0.001068149345471632
-0.0008037954757214446
6.454564377748653e-06
0.0012799010114830532
0.002657851961984366
0.003522518986434624
0.0031515201039759777
0.0010138251020002282
-0.0028565231160533654
-0.007548005451154996
-0.011210561575247292
-0.01142326460720073
-0.006061810971685401
0.005464301113868229
0.020985799364524327
0.034943745451903756
0.038968775034869986
0.02401946663326805
-0.016157606656715295
-0.08127376116079017
-0.16214751999348634
-0.04151677728115764
0.10118510638233161
0.08214207931807596
0.10545457225110814
0.1589929331188049
0.016330154741542924
-0.15510748071246194
-0.18229853316718397
-0.07580106751614667
-0.024269481585684965
0.0033832675507172536
0.04891315589143323
0.15201756752049408
0.1383703696533043
0.012432349931573829
-0.042762835280553746
-0.059243706135867574
-0.07385470974949385
-0.11788355772305358
-0.00988298154494961
0.046532850867223176
0.06011102332955049
0.046422428058752296
0.02183012337606486
-0.00101715286047613
-0.015228921906048094
-0.01940725193510526
-0.015910128604922455
-0.008662592180772257
-0.0013255092344233704
0.0037603172815567788
0.0058217610964693845
0.005317963083454107
0.003343076203533156
0.0010504924878261736
-0.000729559795790537
-0.0016308479520687007
-0.0016952965298295559
-0.0012102135487203083
-0.0005286812011485302
6.46538528030557e-05
0.00041718730073582824
0.000507442077626333
0.00040360604378428656
0.000209339941185982
1.842825413660022e-05
-0.00011083405039819308
-0.00016078090470372056
-0.00014495860104150687
-9.243730559162631e-05
-3.304794606674688e-05
1.2191022628275995e-05
3.437897485694698e-05
3.504558848797271e-05
2.183637815815514e-05
3.888122619340179e-06
-1.154540688408043e-05
-2.062570130259059e-05
-2.2828173921158338e-05
-1.985704274228916e-05
-1.429886947132435e-05
-8.549259389081871e-06
-4.250066030000457e-06
-2.201839055068003e-06
-2.5509911530217707e-06
-5.017956534590296e-06
-9.00889148628419e-06
-1.3587810802556073e-05
-1.7416898581470355e-05
-1.884413389772935e-05
-1.6291989554035268e-05
-8.971170063920865e-06
2.260345039019146e-06
1.4279761096436786e-05
2.182053941247304e-05
1.8740359866241133e-05
4.953348288511663e-07
-3.269904895664605e-05
-7.319160490618936e-05
-0.00010531983942703064
-0.00010845132744302077
-6.425013541538153e-05
3.2958853393354944e-05
0.0001660400113769226
0.0002902424291286755
0.00033921533764311705
0.0002451619062313221
-2.8593334473434493e-05
-0.0004514677934561502
-0.0009016509965073115
-0.0011731723544268478
-0.0010285278089453937
-0.00029735096751148016
0.0010008152026476664
0.0025562342141458917
0.0037537664526597044
0.0037997632381468584
0.002011174096392093
-0.001781394478105352
-0.006849495706573765
-0.011403212177644437
-0.012860527656827162
-0.008677019132844462
0.00232964734763511
0.018491226492604974
0.03421308022454873
0.039979555302786574
0.02391547030321948
-0.02515197747572659
-0.11393303316404077
-0.041631056076995625
0.0009603251795692134
0.02960241104120363
0.06267014683005709
0.11682215500466775
0.004138655715256472
-0.06825731308099288
-0.09652620317083946
-0.07805321573080179
-0.01087890330455978
0.10453948650842673
0.06203940323796715
0.04695391442135779
0.035865175718794245
-0.0001148039730079799
-0.08914114940355392
-0.05145329300095675
-0.093738254128474
-0.007159544174862444
0.030112697001888913
0.046702192726758955
0.07035792623809001
0.12154142677900938
0.010479161968011
-0.06151714208119269
-0.09749110659708664
-0.09955985500534714
-0.06578396516123311
0.008988578373522694
0.12848820165690134
0.0888028806791758
0.07383057995589254
0.055212035456096986
-0.002218472148872332
-0.13073375797350079
-0.14897086555792743
-0.05415651610814683
-0.020554788748869502
-0.005269626907617597
0.04006200681805988
0.15520979205080992
0.15937283033409638
0.045294472651275265
-0.018366847195184992
-0.07706837670916382
-0.17622316487442802
-0.1477498349515059
-0.0018053862326007208
0.0740204761219144
0.10878534478360138
0.13870518521196665
-0.0020426023376703944
-0.08752230494208561
-0.10269161772835346
-0.04371876455592742
0.0824182846397874
0.058386334793139316
0.05765063894125507
0.04751700940014518
-0.0053700028614278444
-0.12786668306560492
-0.13360774119674798
-0.019298965909038235
0.03421425262646582
0.05621647561127214
0.07780885577805968
0.12410677035676644
0.009685024544366623
-0.06147909123634208
-0.09229027763541306
-0.08737148565300194
-0.04921318137034941
0.022546164065840014
0.12869398259086381
0.06657561620074173
0.02723048255053083
-0.004625584778593915
-0.04748390082956256
-0.1181090896736138
-0.026950597862034686
0.024190854420760324
0.041486428949166855
0.03603196566778335
0.019941673327831255
0.0030952658859761135
-0.008583235154644714
-0.013221023341347045
-0.011938738363222985
-0.00732879841004532
-0.0020756811223139257
0.0019257086876759543
0.0038730704617515824
0.0039046707448974066
0.0027091741195681028
0.0011073416936513815
-0.00025342348372518796
-0.001037919798289288
-0.001213378940185064
-0.0009488100339272081
-0.0004882951610424187
-4.7359000054846845e-05
0.00024372115017345851
0.00034921545643496615
0.0003043538143536933
0.00017828601003335345
4.008226488065096e-05
-6.274238961951229e-05
-0.00011109123702698727
-0.00010977829458892372
-7.725032028653499e-05
-3.4877476145700564e-05
6.88017585481815e-07
2.0849705445102873e-05
2.4686015287062164e-05
1.639702409474138e-05
2.2306741339382514e-06
-1.1938933381676795e-05
-2.1908931942004864e-05
-2.5456088914886336e-05
-2.2119669050602148e-05
-1.2928844854727612e-05
-3.066864814719959e-07
1.1950637630667185e-05
1.8979508374016416e-05
1.5841939140187193e-05
-6.338797883632644e-07
-2.9495373302508434e-05
-6.369710752009887e-05
-8.983274030632693e-05
-9.080864527964867e-05
-5.193804800237196e-05
3.052197298019145e-05
0.00014118299187575252
0.00024195461797080054
0.0002775672627147715
0.00019277490241622917
-4.0444016163237945e-05
-0.00039328648416451026
-0.0007613266641276644
-0.0009720620220049388
-0.0008303813220108363
-0.00020155479789439276
0.0008873893347347587
0.002167222372381871
0.003118852974487091
0.003084538151197028
0.0015122413770738959
-0.0017099511890514437
-0.00594198144459614
-0.00966981737923271
-0.010745066233563812
-0.007081465824496375
0.0022624600119936916
0.01590966000230052
0.029399345746191387
0.03540104354305833
0.025304412314290165
-0.007888339201935358
-0.06612493410498589
-0.14371227271871412
-0.027118176829208272
0.10200074722412651
0.06119936390760237
0.06119936412444303
0.10200074778321201
-0.027118176181427485
-0.14371227233384923
-0.06612493432428738
-0.007888340213595661
0.025304410620148345
0.035401041664857594
0.029399344536439977
0.01590966045198506
0.0022624628503428324
-0.007081460630436304
-0.010745059895616022
-0.009669812369516322
-0.005941981007305218
-0.0017099581914580431
0.001512226073336789
0.0030845172758519443
0.0031188335858277935
0.0021672148904589286
0.0008874043576853276
-0.00020151161259782203
-0.000830314912434905
-0.0009719916374440938
-0.0007612846850246599
-0.00039331008614659313
-4.055963269082392e-05
0.000192570841749609
0.00027732398755269045
0.00024176925781309433
0.00014118051139691207
3.080974357484802e-05
-5.133337442878234e-05
-9.000112287702359e-05
-8.910259139214844e-05
-6.344907298179531e-05
-3.013152325778002e-05
-2.35391582868956e-06
1.3256561525813091e-05
1.630064001652023e-05
1.04442094731712e-05
7.822418861036832e-07
-8.274778512914073e-06
-1.4124757915956431e-05
-1.6121242986871347e-05
-1.505679632635425e-05
-1.2387410196239409e-05
-9.534902096802925e-06
-7.456160066567228e-06
-6.515522597871324e-06
-6.588729023306934e-06
-7.280967333923751e-06
-8.149145357244971e-06
-8.857589728408275e-06
-9.2431721902736e-06
-9.302926739179029e-06
-9.136550210054242e-06
-8.878251507527321e-06
-8.642938152238301e-06
-8.497945078327702e-06
-8.459369146896852e-06
-8.504829834210992e-06
-8.592634821087777e-06
-8.679453823721146e-06
-8.732454049939449e-06
-8.735378181110451e-06
-8.69001543459391e-06
-8.614693927242043e-06
-8.540411112870827e-06
-8.504074497345672e-06
-8.538087091921254e-06
-8.656765840728795e-06
-8.842646692422326e-06
-9.038576378596896e-06
-9.152952165106653e-06
-9.08379333058241e-06
-8.76148361163354e-06
-8.200575281608793e-06
-7.5407122558050715e-06
-7.0502309728736645e-06
-7.068849683683765e-06
-7.88210780036779e-06
-9.549615547607441e-06
-1.174482000626297e-05
-1.3691901275563197e-05
-1.4287305499993732e-05
-1.2453253933088387e-05
-7.68372336411639e-06
-6.255904734058779e-07
6.571029426697299e-06
1.0439873206407358e-05
7.142806238150386e-06
-5.854558616657183e-06
-2.7777165653602437e-05
-5.3001593634313726e-05
-7.101324377374696e-05
-6.87491299343985e-05
-3.5556383860874574e-05
3.015892063403675e-05
0.00011488817180035357
0.0001879115410175511
0.00020644736529631415
0.00012973468396623386
-5.97061301487281e-05
-0.0003339459045111918
-0.0006070540900277787
-0.0007437813519776739
-0.0005975873017832022
-7.630568621498144e-05
0.0007808719389934472
0.0017464628466454582
0.0024075050396126754
0.0022614062116717844
0.0009115959276375336
-0.0016755070842227565
-0.00494324971420232
-0.007676435195271697
-0.008217804689562944
-0.0050278066873296065
0.0024891704336545504
0.013144982894885025
0.023520878537820675
0.02836264994650902
0.02211252952904365
0.0014828359744030416
-0.03159428001707029
-0.06788390292313003
-0.09118182856104019
-0.0823479496718713
-0.027292303882501992
0.07255147538430728
0.19067309995498916
0.27159248116311463
0.23709718622985143
0.004518061826680943
-0.2857073933277327
-0.4411640975805742
-0.3984941081706528
-0.22443638866352575
0.05903421533262174
0.4303537559001489
0.6180319477873254
0.4615234396288488
0.09779350193425178
-0.22083213295335838
-0.48351590296907193
-0.46765236327907156
-0.2936310194619751
-0.0014926296429105517
0.24575689526983058
0.3372161297785258
0.17907609782851053
0.062183050454287375
0.04121609716497625
-0.0712615781536404
-0.09783235979123389
-0.08142440416518623
-0.06862643119288242
-0.09612066412620233
0.016779881963785742
0.06887760546926333
0.07260960336695828
0.047097571552001435
0.011560162233028188
-0.019061710461674073
-0.03582571780445424
-0.03554756583386261
-0.019748029079245374
0.006295688370670049
0.03413082929274472
0.052760794194478246
0.05008597243404013
0.015683278418389887
-0.05532838155984432
-0.15861213624913334
-0.07907666186149034
0.006881856852853363
0.12521726710552547
0.09605122454806461
0.12673871806332024
0.009211301132083074
-0.07717805446814813
-0.1585341260969565
-0.05808224634606958
0.010048999181442463
0.042933413420781025
0.04691527276528494
0.03329515621411185
0.013735548472951194
-0.0030415605681000813
-0.012632108336992109
-0.014608334992840515
-0.011141451167961789
-0.0053586682873248016
-1.492093673650769e-05
0.0032435709571149263
0.004023845587923855
0.0029108274866638823
0.0009964154423326432
-0.0005984784186960869
-0.0010944998847299517
-0.00027050530934542497
0.0014818813466365636
0.0032641315030579815
0.003934961141833603
0.0025151676603203397
-0.0013301742134013315
-0.006866298784911866
-0.012120749757122953
-0.014188794796906693
-0.010146288115102639
0.0014951757831442637
0.019140635659919854
0.03689557877756351
0.0445217448388052
0.029115673865851902
-0.021503258002567135
-0.11453158336315103
-0.048602324078753256
-0.012555356382594663
0.0125414737345002
0.04857794703332605
0.11449189735755307
0.021453061288192167
-0.029161370630130638
-0.04454154466296535
-0.036869994306021066
-0.019063237193353295
-0.0013829936428280901
0.010248269637661065
0.01421432495738335
0.012003136681998686
0.006571239325914765
0.0008914346530374904
-0.0029730091206608775
-0.004205248632419934
-0.0031121068476709724
-0.0007433202334367435
0.0015690003249909214
0.0026406868215465185
0.0017871485265303054
-0.0009285893392687442
-0.004592823139691219
-0.00755611683363103
-0.007846887875437159
-0.00391303233641152
0.0043992993022807705
0.014881148733549265
0.022393340428602013
0.01909144772588651
-0.004337416544068961
-0.05655532110191386
0.05692136143175499
-0.06411389059745876
-0.013358414314531542
0.021868818536043857
0.0591558106010524
-0.08149672667303778
0.019266542292211752
-0.023075652128617015
2.4268414445850914e-05
0.0878320425652516
0.029454706471253995
0.005160253101753855
-0.009934177362654959
-0.040534479937947475
-0.10572593311016501
-0.015173167097687177
0.03179811977677302
0.04411393408310897
0.034909098401776556
0.01718445506184356
0.0006124896178103054
-0.009804512870495604
-0.013323051022958754
-0.011924150539008816
-0.008453601896081396
-0.005110055702936855
-0.0026763331932244537
-0.0005825382340672071
0.0023677807045260546
0.006953500382904183
0.012607701569007503
0.01703499538700096
0.016691432241728102
0.008207569474981849
-0.009513869720303459
-0.03318798051992219
-0.05398683706545359
-0.05830725343482647
-0.03101730811283858
0.03917978704074377
0.15380427312011594
0.10054102754294283
0.05350639639234341
-0.021051109362944256
-0.15479115784621214
-0.16640509903474543
-0.05404284081243382
0.0057484338814129355
0.05188572832221559
0.1275435578972695
0.06783514589531717
0.09051519788916126
-0.007493148777803275
-0.047133965248172593
-0.05940981089028741
-0.07579235792746879
-0.12022521522507978
-0.00523113935245288
0.0670783908774352
0.10030092367006332
0.09807584974028459
0.06046962948479062
-0.015712553625044482
-0.13286719500772384
-0.08695062674141875
-0.06337815536823507
-0.03702653073381396
0.022901332634531653
0.14458192672877015
0.14492177022836983
0.02401764211948014
-0.0349568867599113
-0.06038566090580794
-0.08358827964817031
-0.1303518256829
-0.01569691420800555
0.05660694369595826
0.09038197206362761
0.0916116781724965
0.06420317834340819
0.009054485492474328
-0.07330705025315325
-0.17822285333369964
-0.09342932842273535
0.000777778712181711
0.12692766748723336
0.10295532317377133
0.13535078009788404
0.016205608401931804
-0.07430667332650684
-0.16104989955747645
-0.06568810382703875
-0.0005604101229417287
0.033153074368433344
0.04292946740218889
0.03977833113798545
0.032876818648693566
0.025987855808492433
0.016748508336689803
-0.0011713382406874952
-0.03401859511706177
-0.08370183715408926
-0.14527659181926506
-0.0076777092073084165
0.1420876239545641
0.11290319486850588
0.10467705095632368
0.10756207785095784
-0.09365329225832289
-0.3116609605877031
-0.14919108467482317
0.0037390933076693767
0.16587124926995395
0.15574238084683004
0.1822978023994451
0.03995400608345519
-0.08938982574228407
-0.22851728297568008
-0.1953095046760258
0.003805813578668606
0.17451947289952266
0.1299932532961922
0.084236393762448
0.04729087623109599
-0.175838920800925
-0.18326508271332909
0.026181463103686575
0.053514502856363846
0.09788589227326051
0.15424010184519382
0.012694840562361304
-0.13904157408163417
-0.11098144579040918
-0.10635590552513048
0.08010999307586217
0.06009034903562775
0.04678286442442555
0.049657379288246026
0.0711478764968389
-0.09353251249786722
-0.05375153326539789
-0.019437622712855908
0.00253556517237089
0.010304168429289271
0.006983366477304437
-0.0009435928076893859
-0.006121351301478789
-0.003021856170992805
0.00974843559989595
0.028092552277891154
0.042555772767206644
0.04033554816030258
0.009129634697103633
-0.05795038776543864
-0.15800407382840667
-0.07655890948072325
0.010057833338100296
0.12822255997373874
0.09848214895731054
0.12839442518794644
0.009840187751237435
-0.07798183114719835
-0.1611835064109995
-0.06262337672471696
0.00438033021767162
0.037969278376174635
0.04535358780613281
0.03786452749898446
0.025777958577523484
0.014787259966143823
0.0050443023209354055
-0.0073215122317799326
-0.027089772795926573
-0.056590127287330025
-0.09351379766858885
0.06910473650491422
0.04063216420587455
0.029268197427108497
0.03877765096982097
0.06697823585209933
-0.09340335429523304
-0.051975781838998314
-0.017323269424295067
0.005506748322862161
0.0158083183698478
0.016363732608055057
0.011636525220374174
0.0058733256825896415
0.0017642853407946971
-3.9356179930596315e-05
