0
-1.008642475887491e-09
-2.282761754907967e-10
1.116964655109061e-09
2.691991177325229e-09
3.85397597225089e-09
3.790529253569663e-09
1.8216403032141081e-09
-2.188363774559467e-09
-7.448005400831514e-09
-1.2090564416806746e-08
-1.3469928130738612e-08
-9.012260935412942e-09
2.473610112915476e-09
1.9406623004705816e-08
3.660356624102001e-08
4.574266196756639e-08
3.7642970589038476e-08
6.2902432440343554e-09
-4.636109983600982e-08
-1.0672588117926418e-07
-1.4953234041455236e-07
-1.4349326954098618e-07
-6.323337456499487e-08
9.477385288021557e-08
2.9778649470828727e-07
4.7187870941502295e-07
5.14468326332034e-07
3.282382120886067e-07
-1.27848058062771e-07
-7.856556246399665e-07
-1.4380900639183265e-06
-1.7605009064807012e-06
-1.4024422117892632e-06
-1.45406309230227e-07
1.9129105240331922e-06
4.223220018691079e-06
5.793223324382031e-06
5.419497133320856e-06
2.1580197310817074e-06
-4.0600329367736334e-06
-1.188637762400778e-05
-1.839754959495013e-05
-1.9621355715261487e-05
-1.1885729789074235e-05
6.197403046444319e-06
3.172235911406732e-05
5.6429441975455215e-05
6.766784094156985e-05
5.208144844543011e-05
1.781622614880242e-06
-7.859166000816168e-05
-0.0001668844877454067
-0.00022418128749667921
-0.00020425426627932843
-7.210133282063689e-05
0.0001722879856230535
0.0004736162568276171
0.0007164257817239586
0.0007470770176732819
0.000427299816058022
-0.0002887470629562852
-0.001278237176503835
-0.002212300356869094
-0.0025984720523667456
-0.0019283526458873884
8.127945718656703e-05
0.0032185770997137475
0.0065944120178653715
0.008688749574203413
0.00773569942912772
0.002454252987570357
-0.007034974864181335
-0.0184522154126196
-0.02723018359082248
-0.02745357729587227
-0.01404528544806431
0.014111065687390284
0.051028293428468936
0.08185540385185737
0.08396234756797406
0.031704998536709085
-0.09563791339334614
-0.10494896400387528
-0.1828205499352765
-0.09498414588561542
0.006654217819455089
0.17059519669220247
0.23021708067862556
0.19207103175998502
0.033107661069823054
-0.0913537976660408
-0.23152893704832012
-0.22507389254796129
-0.08404319831417818
0.008172388785188046
0.08915333325909572
0.20250056941588995
0.1817208821025498
0.039070644400350775
-0.03688224077115136
-0.0748704893710522
-0.10895823215599003
-0.16598699399786593
-0.05715698155759009
0.02349138916489645
0.0937845098403517
0.17409458198826397
0.07821138611357231
0.008179162324028337
-0.04521635469210431
-0.09731180151279999
-0.16279836472766857
-0.05083543180951796
0.0356100249264339
0.09614902549736376
0.1273822584072639
0.11887244728003094
0.053687824396020795
-0.08554833241433198
-0.10691220304034643
-0.19977626573791857
-0.13044188550620198
-0.04610866301280361
0.11259785853203158
0.19396073333442013
0.21847248763082552
0.1696304137216449
-0.003515818682472609
-0.17204641598615342
-0.20561576507601081
-0.1511206835876566
-0.21908119733442666
0.01763842328230075
0.2127113438779751
0.22732395412571946
0.1104779045341963
0.08558169814778827
-0.05278365450209912
-0.13231909354994503
-0.19060511299334013
-0.06225797306580332
0.029808676365379254
0.07705537219578867
0.08286553672098648
0.057719721132614914
0.01483526952345371
-0.03213170826404036
-0.06941249819198975
-0.08285097441207619
-0.058743167368903594
0.013204756263090133
0.135254689724484
0.09731493798892524
0.07557299156187572
0.03603298744259671
-0.05703316047545839
-0.230042181747125
-0.09040750672600895
-0.022167145794599764
0.010904772583447653
0.055411894832497526
0.15496566422308902
0.13785648626858082
0.009837881478277787
-0.045828331917106564
-0.06159550454223613
-0.07497007638571626
-0.11782755507567959
-0.009072989860645099
0.047586056971599504
0.060995324768732526
0.04691559504819521
0.021901204717061043
-0.001261618474281216
-0.015616373671373687
-0.019761777755109684
-0.01609545875853807
-0.008606844193778452
-0.001033903599798528
0.004201282304772034
0.006251959991083876
0.005531887765679958
0.003146572968879805
0.00034401124170529263
-0.001860603986530677
-0.0028567284552764157
-0.002461811511206936
-0.0008765011088170894
0.0013736312024290166
0.0035063337174809977
0.0046016575065086504
0.0038221406348957964
0.0007461520747358107
-0.004253361601476768
-0.009744238523012505
-0.013301845054172888
-0.012099006776441091
-0.004070856855372747
0.010538380929262155
0.027721102099998753
0.03901399280791503
0.032200672355127066
-0.006324251075973438
-0.08791600136194015
-0.01782725245948146
0.007504311169026128
0.0010077940555661186
-0.016897165908350942
-0.02215652166747556
0.007970012367488748
0.09002127238947262
0.03083554564724407
0.026667108652674274
0.06551898385774946
-0.06781597022081466
-0.1857344412811455
-0.09333973982634443
0.012242298931130055
0.13807421736317912
0.08875741040469576
0.0601450302199772
0.03655478033277847
-0.00701120053027543
-0.0983176211434228
-0.05944284884227662
-0.09956715426619236
-0.011665071707997842
0.025709457242194783
0.04224035608376934
0.06752939146275515
0.12359033116279493
0.020729819392579334
-0.04192679655172558
-0.07183426549731035
-0.07655341963202576
-0.05830214988417619
-0.011885621641371689
0.0730910940689338
0.006473571876148847
-0.009830914243503316
0.011344674783220429
0.03814677517284383
0.019409615959658694
0.08938285206301573
0.1779411525011456
0.02572055128481794
-0.198079964220098
-0.27964390269349676
-0.1521111333812086
-0.0999437655571885
0.022156736120643443
0.15891829252135808
0.2202322089658376
0.25256829180008133
0.22487064606187343
0.03409292812840594
-0.07001199520831149
-0.2471063736775496
-0.4260785707874051
-0.2742172721595618
0.015267327330230661
0.11454242994350124
0.33574347069205723
0.39871433130196804
0.0029042940023208757
-0.18896708828765435
-0.1538869299246375
-0.10195707005567527
-0.06614567892694741
0.1070710249391847
0.16464754700076661
0.05243854833816033
-0.0792035521732341
-0.06928562604127946
-0.14089736103642292
-0.09916416809065051
0.0659231185277479
0.17218667054936151
0.03602822171866917
0.06491802691635801
0.05453143439710828
-0.008533626678391797
-0.13976475434244306
-0.14843487662158264
-0.0314933374853427
0.027780433496779305
0.05591301173118658
0.0820023382576393
0.1302607536258071
0.015312334082806101
-0.05821541036711277
-0.09230445262241986
-0.09058515028521036
-0.05458322439630602
0.016910622453897198
0.12523627853540134
0.06770175890847586
0.034396493408371996
0.008018980314587053
-0.032752411148450504
-0.10749123499972847
-0.02805036788575052
0.005379856971607266
0.0048135882887384695
-0.008492957158366564
-0.009563854532339799
0.02371503497949061
0.10464120651015746
0.033991772973497224
-0.00024372929395612952
-0.019467683223000416
-0.0484336297991186
-0.10854258153829673
-0.012665951484052708
0.03698364016760238
0.04767954695026902
0.03270467930596957
0.007166458795481704
-0.015557914236558926
-0.026154613419485332
-0.02057933080843611
-0.0005021217611103135
0.026813735731439588
0.049387990773033776
0.05260234220700554
0.022769248183845243
-0.048195508735270405
-0.15835074541293984
-0.0936254928086512
-0.02987897924691838
0.06050307577292687
0.19934890842078795
0.194480284800742
0.03642849307090986
-0.09793249133972579
-0.23614561694887606
-0.19953346610505882
0.003906582749164453
0.18017201538500782
0.14415445016351125
0.11228035820396555
-0.1031801962000573
-0.09614213214688115
-0.06568794286238033
-0.014086744716212322
0.05440750317098917
0.13366880556988142
0.015656552270104956
-0.1086918838145708
-0.047451505769196003
-0.00549877436728549
0.016676280428024166
0.02255944268262545
0.01795800410173285
0.00896795905600214
0.00036389788246088205
-0.00517543822741629
-0.007010355902330042
-0.005930670767378517
-0.0033577467116091626
-0.0006589827919562585
0.001262371912586762
0.002080198551648527
0.001937229871273753
0.001230690488466642
0.0003966031962696818
-0.00024111784721337712
-0.0005349366432855008
-0.0005033898574290758
-0.00027516863173058327
-1.792871086686378e-05
0.0001257771117157093
8.328180693147065e-05
-0.0001272942656485856
-0.00040122503337475463
-0.000576757167002672
-0.0004886846186644957
-3.908867283430991e-05
0.0007312091538704818
0.0015976952828202584
0.002166572339120955
0.0019745043079494283
0.0006752150865478914
-0.0017262261053626845
-0.004676785170108867
-0.007033554287021638
-0.007286249589014227
-0.0040879689415547924
0.002987998031692006
0.012706658600070779
0.02181934972468979
0.025501287110461627
0.01882200230344864
-0.0008759921179303451
-0.03133663198968593
-0.06364318984036806
-0.08276133103021822
-0.0714738370995919
-0.017819576787907028
0.07543597069828588
0.18250283252082655
0.25174429758532935
0.21220436714750643
-0.009189274066541934
-0.26283702877519866
-0.5519931396676316
-0.41922997171613385
-0.15274401783776065
0.18535866743197268
0.5162774947114577
0.9028878222473699
0.7272760014024555
-0.5004543710106968
-0.7029867568453088
-0.581519727587241
-0.569722834451835
-0.416077559013319
0.5977090381234194
0.8100992168880883
0.5246062328834895
0.1686878486965885
-0.11809262580105692
-0.2645848148638648
-0.42743512135244793
-0.3457886236389915
-0.10692808425458618
0.06771851637596737
0.21518933485777353
0.20847196565033724
0.12876867479896578
0.04191366551051962
-0.015199090176272507
-0.03673695506189512
-0.04072780738105513
-0.05659307355244652
-0.11184424036603924
-0.0216529263262314
0.01640255017883731
0.021858646743674763
0.02621557887477586
0.06515721502950494
-0.02966069688509477
-0.037542106445867994
0.04658957661609716
0.01024589528154927
0.02435990263761076
0.0473103932245129
0.031773559519643946
-0.06642675624041974
-0.07906700670829228
-0.018034174914888047
-0.07170455748080667
-0.006445974135206761
0.026868740567936353
0.0828338107001149
0.010418841465970866
0.04347771255822485
-0.005044345364340759
0.055855193209647075
-0.0010636274647159492
-0.013794318690431911
-0.02150087025656635
-0.0550739665284883
-0.13022455216839554
-0.045103965567901576
0.01667072626638542
0.07841463330951697
0.16078666508278988
0.07376044913601622
0.013199588144471941
-0.036806035432098594
-0.09713722780685613
-0.1855579038886759
-0.11100018872786191
0.12733837208927673
0.13614108156634908
0.12199128753226926
0.08703141623074413
0.02897867668058888
-0.25442141067679674
-0.1591735679856339
-0.07105467446840623
0.03306687505238442
0.17842963196602984
0.1830414549193496
0.05028355268877464
-0.03298016335274847
-0.09197350219492044
-0.1554252238543043
-0.04664577625599397
0.022266672020421964
0.051486300187262135
0.05040418221166022
0.03252086235633097
0.010550375099764886
-0.006748756536287629
-0.015562558004239583
-0.01623897901286308
-0.011570487604642752
-0.004986211469562815
0.0007671162994933378
0.004231117983091217
0.005204626111435861
0.00432229539826712
0.002524021755570802
0.0006311213123650442
-0.000865112929575195
-0.0018041811112993928
-0.002221909891200685
-0.002185191393410795
-0.0016882981563653696
-0.0006618604209682979
0.0009099669457637056
0.0028229281169015537
0.004533042797744545
0.005186532465482883
0.0038658649787893422
3.843843714700981e-05
-0.005915759079260684
-0.012328069979217609
-0.016301020805787374
-0.014436557934804316
-0.004275764577803899
0.013816723885135142
0.03493518893140357
0.04892234611869306
0.041441971500485536
-0.002865782670870798
-0.09568520845852842
-0.04020952593113083
-0.028075767565943252
-0.03954845903263841
-0.0473730437550508
0.1766160130520875
0.05415953808565065
-0.005025965497725144
-0.005223025482131653
0.03743130056699204
-0.09976027387617013
-0.03946578263253641
0.0015540292953965197
0.016085951809403663
0.007216209424324096
-0.013615991046521099
-0.03062145937407059
-0.02896649638797598
-0.0005251349158017802
0.05110111811998069
0.10793416365970877
0.13918339191956505
0.10830806762209308
-0.014785482350720027
-0.23933556314079357
-0.34258576980979494
-0.2684217546897284
-0.14037309940506476
0.11152883908717566
0.517297195897974
0.6397461646972267
0.5675018495938239
-0.0627581119400205
-0.416648498417025
-0.7994093546477253
-0.803131051271285
-0.48639257433547023
0.20136465373685586
0.5548396902623473
0.8273791168290646
0.7538880328111179
0.30879194167709045
-0.08661390149514324
-0.5104319087758755
-0.65868928716567
-0.5630492430870885
-0.33309609922812766
0.06139498122144214
0.36694127205109267
0.3933180173542776
0.35022021966375294
0.19300172430538123
-0.009090289748903612
-0.07764170218143605
-0.10651317912326992
-0.22913907170706274
-0.1825825336645959
-0.07784663980661975
0.01762562896914107
0.08383128368811658
0.14104575449693202
0.036499180183001474
0.029920429708380138
-0.01852776048277293
-0.05650263799355714
-0.04418445781749764
0.04358486892650392
0.016917811800322466
0.07203462081155733
-0.005888678929129334
-0.03823851187361071
-0.047583904893281764
-0.05275122129951593
-0.0657605951271285
0.10863587095326
0.07117955931170077
0.025385208948725493
-0.024716455553951168
-0.07576616339968786
-0.12567377005309457
0.025429015337760888
0.17354435711803085
0.10939399218190128
0.018936613683920002
-0.11313581050495866
-0.09774833175806034
-0.13620230815928458
-0.01818038838247775
0.07562445837551074
0.1672332187894746
0.07434925304587056
0.005834975576323934
-0.03840827683429225
-0.0635232840229412
-0.07398161051408575
-0.06896093191813345
-0.04107398046244918
0.020789306179046584
0.1255349843094785
0.07333448410153172
0.05147258978168679
0.034798826350433444
-0.008731284699242408
-0.10892946153212628
-0.08366976973403847
-0.13211688265278668
-0.03364815948283808
0.046665691692058024
0.14760274800464393
0.09996299202362209
0.11764065526300961
-0.005242242154204003
-0.09041675030014502
-0.16673594493695967
-0.06035548984835367
0.012445090265378269
0.04771871491866456
0.0517934324200891
0.03659155314101559
0.014647117317733745
-0.004472655887195398
-0.01568033316596239
-0.018071895584558764
-0.01358301975773254
-0.005421564528638593
0.0031518657130239973
0.009495132789857565
0.011824249953332632
0.009291014798421997
0.0021288455602051985
-0.008088499548493324
-0.018265133618351727
-0.024032069035598538
-0.020768787027756953
-0.0054968185241023575
0.02069449718084385
0.050527569920457184
0.06988537461051926
0.059691913966839115
0.000689404672379081
-0.11974292887463588
-0.10089282855721375
-0.12497948369252028
0.041369629928896055
0.04002130523709872
0.11052227638993914
0.07912212783368847
0.1514068196004319
-0.08895322582103575
-0.07506250336917955
-0.047274376788618185
-0.04265088135221747
-0.08670966650706119
0.010455263010448372
0.05325602249377035
0.05601093902623603
0.036759247015736955
0.011701032648145789
-0.008241009386414198
-0.018329828073161546
-0.018910420496421883
-0.013277518598894594
-0.005490398475008032
0.0012049212052378017
0.005099880406712947
0.005993460622468209
0.004700095506697838
0.002421028864889718
0.00022617533736387125
-0.0012323309043692171
-0.0017707174021187105
-0.0015592503301594793
-0.0009393216620126411
-0.00025424831257229633
0.00025844380691786994
0.0005022153473142925
0.0004998326096155006
0.00034245176944166996
0.00013607846840982775
-3.693939595978961e-05
-0.0001348997022917014
-0.00015482095010944374
-0.00011915042227824739
-5.942511721951314e-05
-3.0997116409223833e-06
3.351411559755463e-05
4.6239948405890405e-05
3.988031158438168e-05
2.3420473376322796e-05
5.691189331469249e-06
-7.325030429118712e-06
-1.3307908324012713e-05
-1.2971541051482476e-05
-8.722623158163364e-06
-3.288641300948281e-06
1.242417630804562e-06
3.821998451995682e-06
4.364868016073358e-06
3.403115700694187e-06
1.688011799974935e-06
-1.0655369523803326e-07
-1.5190938548985399e-06
-2.297705547417151e-06
-2.3319938960719476e-06
-1.5987161554796372e-06
-1.70259988625958e-07
1.7154867469657183e-06
3.5763249192207167e-06
4.68116346656849e-06
4.1964796368905635e-06
1.5095418662591971e-06
-3.3346924496345213e-06
-9.247257486662825e-06
-1.39948444789945e-05
-1.4612142316108598e-05
-8.426164271391142e-06
5.45761292108356e-06
2.4675544049379054e-05
4.2870287828423436e-05
5.049773209847805e-05
3.767605071448299e-05
-1.141576222054427e-06
-6.191580196196008e-05
-0.0001274450498929826
-0.00016820046160255422
-0.00014972148536002754
-4.673571551916302e-05
0.00013905266213010944
0.00036414317467154945
0.0005404149138377667
0.0005526524361823656
0.00029959657409290224
-0.0002480552130799117
-0.000991442421667802
-0.0016778642747143037
-0.0019359935013889898
-0.001389944863229468
0.00015829415909210956
0.002528377992696022
0.005031516259938428
0.006515940407354909
0.00566762615176639
0.0015663603736136651
-0.00562892909067499
-0.014129630819135054
-0.0204551251697406
-0.020181994697245454
-0.009626154143093896
0.011791449464332764
0.039195693865710986
0.060976588340555034
0.059652546096925586
0.015463884036172796
-0.08772012069996786
-0.05580379105460415
-0.07962727951185597
-0.13424033469855542
0.01653930974410609
0.21106288705822485
0.07908256125543152
0.03314677828997645
0.06537632228259126
-0.04928330448038036
-0.1446987806830039
-0.05314599816348455
0.003674462803276582
0.01968412828295024
0.004684141490123911
-0.01955323261757385
-0.02598447455903666
0.009786670217349356
0.1020290884365572
0.049610771881871706
0.03454912786804347
0.025239156178415496
-0.016120920578361793
-0.12383068093189302
-0.11962780933175694
-0.007252645259132306
0.0274418535523251
0.010803037208667982
-0.028041177521330223
0.13263151483693159
0.09938264527100506
0.06098832385579236
-0.00758809643400883
0.06491452073795062
-0.14030435882752437
-0.21920710722235412
-0.13759045257893512
-0.03312169709229553
-0.027768200609101033
0.15208775450629536
0.35383433647874696
0.18253026048762458
-0.0033499045077676434
-0.08212774169779953
-0.14803922333247746
-0.2862624568396932
-0.15208767836268455
0.03944160406822749
0.11119975829028796
0.1113278189468007
0.095752460187937
0.1119658854211141
-0.011469454169394938
-0.06795525381744161
-0.0693718479530134
-0.038766250393067865
-0.002291019571096792
0.017318601429845225
0.004694379452521103
-0.04681287133050255
0.06409820947329498
-0.05558145302536057
0.003754515948339415
0.05117864279852863
0.09278930688861987
-0.06933068166658428
-0.036495097645084094
-0.011575728780976282
0.0031066432941970075
0.007285264793550385
0.003255647606945197
-0.004552263387884423
-0.010697604181324588
-0.010302117577149775
-0.0008225632238919566
0.016328105407675278
0.03482063218219154
0.0437048440090168
0.029393317415733047
-0.02074400504618899
-0.1140250254313485
-0.04888121357888125
-0.013710201242378395
0.010961162234030408
0.04747648681208013
0.11493703219243606
0.02421541424163169
-0.02413031810151873
-0.038502079756334316
-0.03231687625622815
-0.019170099949227346
-0.008811992976836798
-0.005043077785442876
-0.005870154449309231
-0.005632680458996868
0.0016152029834064165
0.018446999041877177
0.04126049090291703
0.05945334423928939
0.05741593772398292
0.01948078027728554
-0.06314335398361906
-0.18567489631221645
-0.12631347224973843
-0.04865956378043854
0.08930292231106664
0.12182966363157353
0.2622704120258565
0.09547136554098395
-0.020616594045223462
-0.14394682358507538
-0.13163379035690428
-0.22344716214099575
-0.031376485354503415
0.061403959204331664
0.09252186583658831
0.10696445597718893
0.14338380475809176
0.024775846174223785
-0.04398719334947638
-0.07205057090583768
-0.07448502798711593
-0.06384300005807246
-0.04457410729867229
-0.012034406239235363
0.04404127284197021
0.13339075556430835
0.05914507510894373
0.014452347986061537
-0.016778282116920798
-0.055406268914982994
-0.12080654858056285
-0.02538809447727016
0.028090431666062076
0.04575051421575973
0.039212845839564955
0.021321961709549767
0.0026263078685740834
-0.010462656601319618
-0.015770551345587636
-0.014264115364107143
-0.008517594590986765
-0.001378021245798434
0.004838419876493372
0.008609791299569212
0.009143709151963065
0.006261048561307028
0.0004198413626546402
-0.007107259285960444
-0.014078584503983218
-0.017443442037786944
-0.01407848431915426
-0.0021626211520486545
0.017080744885762153
0.037902308092336016
0.04964597032873735
0.03819571809192564
-0.010560921563683294
-0.10594333200185554
-0.047921281988724924
-0.02468392929565766
-0.013683287676264757
0.013737847297497158
0.08536489432695053
0.020891025502830216
0.026718280986325477
0.09445886263766227
0.0037228093411505593
-0.07153761083667934
-0.15512269544194537
-0.06189687718048662
0.005189648479797715
0.05339705464271874
0.09492169529934395
0.14068063742355233
-0.004061321772177875
-0.14068861971930405
-0.075271850317542
-0.01553312538324173
0.03129650376396716
0.05896452998960867
0.06169506459441635
0.034009461056271895
-0.028235579654027256
-0.1257854321264711
-0.05413090331008085
-0.00335896717929962
0.039581279572982915
0.0869310007744457
0.14640950956416002
0.019796275878611602
-0.09526019792703469
-0.2011917648498451
-0.09680331252505264
0.023430076343538685
0.16618276153123687
0.1339334327737983
0.12081942781134831
-0.0874147809814529
-0.10879135814579452
-0.15790128208202286
-0.039664333846991244
0.05304829017485723
0.13717072615141288
0.03406862528496348
-0.03645700170075707
-0.060826167245225216
-0.03433331993160718
0.03798402256336306
0.1420855027654287
0.057580597046870276
-0.03741610725725724
-0.1599164213586502
-0.11627867021936937
-0.09975333744455499
0.10690871180732811
0.1243872325474663
0.16822107048240767
0.04260609869477517
-0.06071829740932686
-0.15835649647189232
-0.06828572567242244
-0.0034207556926924483
0.03174016522472332
0.04076142886975358
0.03229377457024054
0.016275067307465897
0.0008456878941670902
-0.009240701299233612
-0.012698549176225421
-0.010770361723278143
-0.005909056188941671
-0.0006141242124380941
0.003294254637662113
0.004929638702284476
0.004255721527155931
0.001851287226210982
-0.0013319992151883382
-0.004165330426881093
-0.005523221719991869
-0.0045161439998935154
-0.0008113958569999096
0.005010234813230619
0.011221604957563766
0.015068201181333826
0.013438488796775928
0.004124587162337013
-0.012566308616425702
-0.03240581102315506
-0.046812134812747465
-0.04410181180120499
-0.012684201763171055
0.054366865749029415
0.1548780727989268
0.07536167068835133
-0.00727315452437542
-0.11987438529455229
-0.084859034592617
-0.1128129230486793
0.001180340267358028
0.07618216516099739
0.13990515834254594
0.02154549111982642
-0.05443724466753931
-0.0721355878779887
-0.025661717171410983
0.08090882991263694
0.03456035322884489
0.015413586250198253
0.0001193058187184314
-0.03368011265774215
-0.10282732613610894
-0.015471957323423121
0.029653014170518775
0.041319822497168375
0.032146732521063225
0.01465959625652956
-0.0016300876185067952
-0.011511820075963146
-0.013833791432723092
-0.010293921078234505
-0.003932003337913442
0.0021683368569840786
0.005729081297932619
0.0056788534533635925
0.0022303864762626513
-0.0032426802404631537
-0.008489044294665236
-0.010868434391524937
-0.008107767008333632
0.0007050170133568759
0.014102837643365066
0.0276089101722177
0.033998520262512696
0.02482383437275622
-0.0068491816478883725
-0.06318209791704035
-0.13907922360838487
-0.02192644826820394
0.10566788539699519
0.060756407401493025
0.0545484667641477
0.08887622490299958
-0.0439250657530687
-0.15794517296981922
-0.06918336472819088
0.008119524161752873
0.06283418968166334
0.08620187933348192
0.07060865910248934
0.00966859761713606
-0.09963277340779712
-0.0535290919465443
-0.03868666251241704
-0.03194643813642091
-0.003500932539940492
0.07700572163554982
0.03315708211734295
0.0754706953249784
-0.0018939703611357795
-0.020429111313101274
-0.012848673486793269
-0.01625822504733339
-0.06473687122952884
0.01695049264433625
0.01729288797219601
-0.06091668627297838
-0.0023384166913575665
0.016898979115886177
0.023860549775751305
0.0434260677573396
0.09427039774403027
-0.012743200099863053
-0.07357002182503496
-0.08832420418385865
-0.05866715346726139
0.013194898527656327
0.1234876457932305
0.06485973416823758
0.02522056216230461
-0.011175675045684435
-0.06038517951596187
-0.13461398341417025
-0.03936603587428451
0.026471545945623145
0.06745156156739578
0.08684399715083997
0.08289474071301044
0.04830660911291117
-0.02624614907168599
-0.14571985127219256
-0.10423785035830813
-0.0819453524143657
-0.04759366354153196
0.03297695709641275
0.18491964675277417
0.21346304966768723
0.09882528796644309
0.00011582216437386298
-0.13200869261715797
-0.13790787046993144
-0.23310372343802446
-0.20033709153862472
0.006674679553936261
0.2482612393919916
0.17762114837945878
0.22132001762114292
0.1690567402222273
-0.02314053204156013
-0.21727144925806377
-0.27110775989811536
-0.217820918231743
-0.05526329192606715
0.05123919957250053
0.1541165687881557
0.30289317882448247
0.1256704073975359
0.01952881628109851
-0.04718691840837576
-0.12241937260271685
-0.2531037360374918
-0.06958775125384485
0.022988671764294852
0.04424585137438376
0.030478456333058727
0.22282541154286425
0.05623948301238633
-0.047272543889725786
-0.0799091911921682
-0.04506277271847286
-0.15278811075794357
-0.01642704509245734
0.1483814009602782
0.12306121257541926
0.08601115685119128
0.015149486705124586
-0.10657400773429276
-0.2847616939207863
-0.1098335102881408
0.04097232460544574
0.19548917839227956
0.17549793730593785
0.18780276821510622
0.022063021809131916
-0.14324732494543585
-0.32946521912013194
-0.14653220240642637
0.012439117574330647
0.16822972075942833
0.14598092929668963
0.16401626272911776
0.02632384647930005
-0.0782921505744652
-0.17081253597934398
-0.07353105398557507
-0.0025179939763892907
0.036175101892432046
0.046000090694572324
0.03641161706207823
0.018458572488534983
0.0012180000250901506
-0.010044256345916406
-0.01397360622672752
-0.012042524435882941
-0.007021713883693702
-0.0016271728696226533
0.0023100892752879435
0.004090008065623629
0.003945409602026712
0.002625739582173421
0.000972821828815852
-0.00037610921027965606
-0.0011123020975953336
-0.0012313084340079678
-0.0009227063934132285
-0.0004397716737568902
2.8774518056959447e-06
0.0002820051618620699
0.00037063153424883496
0.00031110286934857474
0.0001764308757097963
3.6259763679180325e-05
-6.362878037124779e-05
-0.00010685246362857719
-0.00010076723211624146
-6.547377903963825e-05
-2.2863507786655444e-05
1.0906053524420588e-05
2.841996186256541e-05
3.020212438365719e-05
2.171399689696103e-05
9.850401857560178e-06
1.6582077984300745e-07
-4.587811859655906e-06
-4.6005314528569835e-06
-2.161418606473284e-06
-3.026997731596914e-07
-1.381104459724066e-06
-5.96965022029024e-06
-1.2353281385541407e-05
-1.6838838004828944e-05
-1.4959966505166478e-05
-3.4324922091832346e-06
1.7608948375039665e-05
4.290993400714334e-05
6.195645270513635e-05
6.128634199431172e-05
2.9504532915474313e-05
-3.5881119947240824e-05
-0.0001220580315250685
-0.00019826048955924613
-0.00022023874286609347
-0.00014360753372162733
5.558481664434212e-05
0.0003593184024027672
0.0006954595369372345
0.0009465301210253545
0.0009864164058032872
0.0007400742021513416
0.00024193595429347357
-0.0003552635147948907
-0.0008929969479972754
-0.0015292402364392504
-0.003363198812979843
-0.009441329329680812
-0.02618001247457125
-0.06512947489598554
0.055254357538197005
0.1086153980101734
0.06171759361264807
0.07866860058451651
-0.07143034419814875
-0.2048673217953751
-0.11469181683219128
0.03374883868684341
0.10145585557938551
0.16944392707729866
0.13007332728535306
-0.12143336973168857
-0.2947519857257421
-0.3132647153284849
0.07380487860350078
0.2761392500329799
0.44853284464505194
0.28622424375431893
0.03591925081032304
-0.27656450522000636
-0.40862143520427247
-0.4651684540249059
-0.07729025057661966
0.19762472433511408
0.2553904429292524
0.21265291862587696
0.174228197425312
0.009920586993160571
-0.054309199443998334
-0.03132360492006047
-0.15833193101092474
-0.07901701663993989
-0.0279189356561644
-0.02090700050425948
-0.05314506187478296
0.09630295329388926
0.055689060545618806
0.0508657722321423
0.09776271127523983
-0.0008400102463325384
-0.05376842556066611
-0.07639166566529866
-0.08449703190409978
-0.08974313542685018
0.10164672406698252
0.08701467949618825
0.06390389399233402
0.027492357231420614
-0.02961672596763914
-0.11524414698841207
-0.0345040093096292
0.012489819293626797
0.030913462701523096
0.029552759602720847
0.018130177819647597
0.004837972519578479
-0.005113658359642474
-0.009728202100742359
-0.009512936480200684
-0.0063298151764142364
-0.0022875581008770193
0.0010166208661181988
0.002808971424704168
0.00307691458310716
0.0022916981274742885
0.0010822949099508555
-1.9679321659761502e-05
-0.0007106242482216855
-0.000926253908449359
-0.0007739493773106951
-0.0004363256134437494
-8.670086747510723e-05
0.00016151693413420042
0.00026818599031989705
0.00025203994436740433
0.00016322493933964186
5.612763074058777e-05
-2.9140212065818325e-05
-7.400621880799796e-05
-7.931772087299509e-05
-5.7945179023690297e-05
-2.6353088984167538e-05
1.854077149369989e-06
1.9123740944698242e-05
2.4087686722624483e-05
1.971743139157587e-05
1.0803814024878564e-05
1.7949229908292481e-06
-4.4650529300868556e-06
-7.0336654722615115e-06
-6.4656511674384795e-06
-4.090092836841944e-06
-1.311590672795891e-06
8.55462242209411e-07
1.959885453365416e-06
2.0475544773848062e-06
1.4645462720202738e-06
6.389713193380125e-07
-8.26498105890436e-08
-5.13475551228399e-07
-6.259613742394056e-07
-5.019452488555319e-07
-2.669565390310733e-07
-3.502660950146096e-08
1.22646276849326e-07
1.8416744645363063e-07
1.656658338684244e-07
1.0229997470721037e-07
3.030584828983789e-08
-2.469812300521253e-08
-5.180013079660692e-08
-5.279639049120353e-08
-3.6963871608635e-08
-1.5420112616821943e-08
3.0194790995377567e-09
1.374501139775945e-08
1.624506605925662e-08
1.276096147999304e-08
6.576879378214202e-09
6.127703984640225e-10
-3.352392611568838e-09
-4.81630657042203e-09
-4.2410977236713195e-09
-2.555021481258223e-09
-6.91817678618584e-10
7.024674023051995e-10
1.3652759671072103e-09
1.3585704433746914e-09
9.303283358088763e-10
3.6890042927493963e-10
-1.0173183869874015e-10
-3.681591065697976e-10
-4.2229916990668116e-10
-3.25234638849333e-10
-1.6276427779698192e-10
-9.571489986052718e-12
8.99816208061744e-11
1.245516422932638e-10
1.072245328286283e-10
6.246312755375385e-11
1.4300720470665092e-11
-2.099537236450683e-11
-3.71442321257319e-11
-3.6142270702660135e-11
-2.4600756369970473e-11
-9.989394937277803e-12
2.008184774788743e-12
8.610773758451659e-12
9.740888120594525e-12
7.055957176470451e-12
2.7943286342296945e-12
-1.1360537798141497e-12
-3.631250999238281e-12
-4.440285094679284e-12
-3.930141020709027e-12
-2.7443776047964022e-12
-1.5008747285046115e-12
-6.085935903802712e-13
-2.1677995985922447e-13
-2.6380896317694986e-13
-5.738458889092693e-13
-9.536207533692005e-13
-1.259098082384221e-12
-1.42230889978446e-12
-1.44460890412867e-12
-1.370795463786622e-12
-1.2591842212337303e-12
-1.1584600590559078e-12
-1.0960329233125303e-12
-1.0773041660522918e-12
-1.0920651695582359e-12
-1.123413588602695e-12
-1.1554822768133499e-12
-1.1780068769545118e-12
-1.1874688207369855e-12
-1.1857150410573713e-12
-1.1774115110365998e-12
-1.1675529511464163e-12
-1.1597846125409646e-12
-1.1557612030263725e-12
-1.1553619565527987e-12
-1.157380353803194e-12
-1.1602991005717229e-12
-1.1628773941396553e-12
-1.164436292435076e-12
-1.1648640757709011e-12
-1.1644427650989979e-12
-1.163615575062407e-12
-1.1627895082392036e-12
-1.1622217407029195e-12
-1.1619944534632145e-12
-1.1620534752411824e-12
-1.1622752513541002e-12
-1.1625308530317427e-12
-1.1627281543707024e-12
-1.162827043262282e-12
-1.1628328267162802e-12
-1.1627778953204551e-12
-1.1627016762862346e-12
-1.1626357547653346e-12
-1.1625969048827051e-12
-1.1625872986545138e-12
-1.162599191486515e-12
-1.1626209791212657e-12
-1.1626422336444694e-12
-1.1626565231479228e-12
-1.1626619497835987e-12
-1.162660076376381e-12
-1.1626541681247188e-12
-1.162647549213167e-12
-1.1626425445840259e-12
-1.1626401219442828e-12
-1.16264008846991e-12
-1.1626415771513086e-12
-1.1626435647510961e-12
-1.1626452482518792e-12
-1.162646214379183e-12
-1.16264642533346e-12
-1.1626460926795728e-12
-1.1626455197936305e-12
-1.1626449735439148e-12
-1.1626446144824912e-12
-1.162644485826824e-12
-1.1626445430759205e-12
-1.162644700102455e-12
-1.1626448712971871e-12
-1.1626449980738211e-12
-1.1626450572132194e-12
-1.1626450551147367e-12
-1.1626450149230217e-12
-1.1626449631610379e-12
-1.1626449202188143e-12
-1.1626448962477056e-12
-1.1626448917552032e-12
-1.1626449009884869e-12
-1.1626449160274453e-12
-1.162644930050308e-12
-1.1626449390574591e-12
-1.162644942082166e-12
-1.162644940378219e-12
-1.1626449362135298e-12
-1.1626449317905716e-12
-1.1626449285836754e-12
-1.162644927146692e-12
-1.1626449272782182e-12
-1.1626449283615473e-12
-1.162644929709224e-12
-1.1626449308031752e-12
