0
9.883078673178336e-18
9.813107026476075e-18
9.798504010155475e-18
9.878603929559493e-18
1.0068900584392146e-17
1.0339573869688086e-17
1.0603884079460686e-17
1.07278809349998e-17
1.0569014276211213e-17
1.004139377530904e-17
9.191004399346872e-18
8.249588677835376e-18
7.628259151358543e-18
7.819006433460873e-18
9.199181290949717e-18
1.177898869708411e-17
1.4983355834044395e-17
1.7595625226941456e-17
1.7984750394869318e-17
1.4668581454534206e-17
7.13072015424326e-18
-3.3644373507861907e-18
-1.3361190004158951e-17
-1.7643663862027303e-17
-1.0784632194961089e-17
1.0302522661578675e-17
4.348410507249456e-17
7.942759907287626e-17
1.0202248613452345e-16
9.23856434415081e-17
3.6557990067408843e-17
-6.475815362537588e-17
-1.88035250692307e-16
-2.852668891300494e-16
-2.934179304508181e-16
-1.5676625134687544e-16
1.4139166423298774e-16
5.478613148732558e-16
9.251944385191708e-16
1.070522560187445e-15
7.775624035748554e-16
-6.370595742686904e-17
-1.3569450152483147e-15
-2.7271604809090082e-15
-3.5437643618408714e-15
-3.0829858621553155e-15
-8.304728096519046e-16
3.143673034948127e-15
7.88020824246681e-15
1.1487395208438573e-14
1.153203685776973e-14
5.924321238475246e-15
-5.852969186681667e-15
-2.1576780645417698e-14
-3.578881160586233e-14
-4.060762649507312e-14
-2.820631059523358e-14
5.2986362477950915e-15
5.564455899222813e-14
1.0779508155877011e-13
1.3709690902128436e-13
1.158474688495465e-13
2.517735500818052e-14
-1.3052343666607247e-13
-3.1226850171256274e-13
-4.456074192555927e-13
-4.367318799712548e-13
-2.0747023484911185e-13
2.5711207025788037e-13
8.646477006588921e-13
1.398706419028512e-12
1.5534459492115168e-12
1.0324391793105413e-12
-2.9977623022558054e-13
-2.257510561087902e-12
-4.239026750981965e-12
-5.281600756515546e-12
-4.3264417080152174e-12
-6.847234394718869e-13
5.408210275085465e-12
1.2372410601754753e-11
1.7281501156631377e-11
1.6523342047346398e-11
7.182120722702727e-12
-1.1120511783651938e-11
-3.4566160982281355e-11
-5.45855442678141e-11
-5.932402892161712e-11
-3.7576895002664464e-11
1.5311542225245127e-11
9.135226185782016e-11
1.6650929531088913e-10
2.0323094970823778e-10
1.6111103030804706e-10
1.514491810408444e-11
-2.2300814023359244e-10
-4.89490080397435e-10
-6.694166421567072e-10
-6.23877268723527e-10
-2.444471872146851e-10
4.756839670820039e-10
1.379375725170304e-09
2.127816363879248e-09
2.262047953136054e-09
1.3594127171723235e-09
-7.370836735788712e-10
-3.6872030992147335e-09
-6.532541493725931e-09
-7.810045392634307e-09
-5.98011754636392e-09
-1.4093049158431173e-10
9.156954869007962e-09
1.9338904622485133e-08
2.5900204273098638e-08
2.350578664231127e-08
8.137489064454806e-09
-2.016134965055149e-08
-5.494982604038133e-08
-8.285032334530468e-08
-8.611496469335466e-08
-4.8835460150891006e-08
3.41492409403731e-08
1.484714581046052e-07
2.559803571608524e-07
2.997389062801683e-07
2.2117940534511408e-07
-1.1979760279157222e-08
-3.745678851873833e-07
-7.630194251951877e-07
-1.0009102159966299e-06
-8.836131583976735e-07
-2.627723748022652e-07
8.479227123291854e-07
2.1854276642268632e-06
3.222242800456703e-06
3.272876761588895e-06
1.7399660424517611e-06
-1.5401810963845698e-06
-5.965197758281239e-06
-1.001887170236423e-05
-1.1487938432330327e-05
-8.148227789660433e-06
1.1455544493749037e-06
1.5269192357676573e-05
3.0065701744935948e-05
3.863365828935916e-05
3.313539152065206e-05
8.116109381980885e-06
-3.542478485666386e-05
-8.678001555369226e-05
-0.00012517646974320593
-0.00012417014933973434
-6.138692566634647e-05
6.808836045872561e-05
0.00023915508746421072
0.00039164344883865836
0.00043960988290780767
0.00029872886143885775
-7.121388316865286e-05
-0.0006209006927590998
-0.0011838133290121293
-0.0014902433342594465
-0.001240243232461853
-0.0002337300089394439
0.0014732875906500425
0.003448322130993653
0.004878189008712734
0.004750700504026658
0.0022408171362888747
-0.002770545639380413
-0.009224947099643558
-0.014725609424585218
-0.01595602142166299
-0.009827439949269984
0.00474871494855884
0.02490398831112328
0.04240954065971159
0.04365427973045027
0.011565204713432958
-0.07061661943288657
-0.0146097562863844
-0.022903277940348608
-0.08659386670831394
0.013863984845602688
0.10507091049614757
0.01531233583531778
-0.03098293209345911
-0.01750942957431136
0.06169532906108156
0.002242150292275647
-0.008543308890251861
0.012163898721395967
0.0474939870410668
-0.11436118816882158
-0.07677377395287478
-0.03398537608413865
0.026225214016907677
0.11707121137375397
0.04635318143371827
0.011531307264532654
-0.0019183479128123972
-0.01840663011991815
-0.06724848129466325
0.023639612933062246
0.03378594771815099
-0.04519195266778663
-0.0070243183328987605
-0.030727397086995224
-0.0832889516613086
0.07502708633683706
0.08354621084799328
-0.026315988522032614
-0.037231842489289235
0.050455470165890255
0.018350692635577807
0.032968006229911744
0.051874320482846764
0.032374905639786386
-0.058698018608188594
-0.23646846104586428
-0.09371051000303571
-0.0031489677134542483
0.07327184199929153
0.1706548919724652
0.10766621531488511
0.07834899960174747
0.05259232973270412
-0.014321334388550721
-0.1657225165472015
-0.025991922287850137
-0.18713590670524835
-0.20439505267221583
-0.003478874322883734
0.10135067721104703
0.18282701842916255
0.27712978946695416
0.16902258843091944
-0.008898216636137834
-0.16196261991278219
-0.208276493721587
-0.05003934196262721
0.05092974522089346
-0.1121115172430194
-0.08841959560394898
0.020402994371438634
-0.05975221615554175
-0.0024491728860124473
0.09059629347417371
0.2652003610442429
0.30109385033413044
0.11392377008831851
-0.22575562811437389
-0.060261682437303225
-0.10779382053486027
-0.43129411905148196
-0.422652550256643
0.19226072719487325
0.12850827624157343
0.3047417521945778
0.40640067694475934
0.46272038548333305
0.046273937395493785
-0.3044110893519013
-0.6478563819474549
-0.40358424991833614
-0.33288375885673616
0.054249847064821645
0.467577321513046
0.5926145182156441
0.4519073520288659
0.18746456037570416
-0.3284136345569426
-0.4582990490103226
-0.35453280347743826
-0.32063356649484376
0.008077790973004938
0.2605680051364273
0.30790278622705464
0.23364096446153532
0.1084330308924135
-0.02341128881859861
-0.14373868966092848
-0.2506505044249878
-0.1457519665364928
-0.02510304865598687
0.12260412375312656
0.11120604701872878
0.14927153851713174
0.03391064266482286
-0.050686784451370495
-0.12950487569082267
-0.029652256664670616
0.027076765842065687
0.029649708055781664
-0.019844784024079003
-0.10699837373384256
-0.008680146757769569
0.10123389793916877
0.045248263290808693
0.036602433685495234
0.07639110318653206
-0.04569520048866714
-0.14756976174886882
-0.04963317985525468
0.02961668473885207
0.0760471492334297
0.08067442935920306
0.03999850699719708
-0.043088074782857526
-0.15797495589065363
-0.08597632436390182
-0.002586807374861694
0.11712581092361209
0.0913917976676392
0.12572620761725448
0.010831705340146266
-0.074395680585023
-0.15588547725449625
-0.056341834743102816
0.010683425410247253
0.042693316652404105
0.04622900409026665
0.032573129984033396
0.013234384612321525
-0.003258519562988786
-0.01265393111726984
-0.01458916679999681
-0.011204670622286729
-0.005525533485695618
-0.00018094779399098002
0.003273794497352623
0.004447946220197278
0.003808476166971928
0.002218401501797962
0.0005214145413291113
-0.0007146426782733419
-0.0012738613399677823
-0.0012305212048422175
-0.0008194469206361491
-0.00030386643031529774
0.0001170825667862638
0.00034690418375677784
0.0003841364085341847
0.0002879052247095158
0.0001372369457146776
-8.919751240591456e-07
-8.801385363057665e-05
-0.00011569442668935859
-9.713253581807949e-05
-5.5099272886128234e-05
-1.1321799511636599e-05
1.990836552400132e-05
3.346099221308664e-05
3.160229261567366e-05
2.05718325446045e-05
7.177617322109455e-06
-3.5355835330253567e-06
-9.211755923627994e-06
-9.930830999429394e-06
-7.289132673677478e-06
-3.3446912555557083e-06
1.9406936504780685e-07
2.3726647016116526e-06
3.011289429456479e-06
2.4763756359158793e-06
1.3657181891889696e-06
2.3709656316568465e-07
-5.509588462645075e-07
-8.777891341623367e-07
-8.108704218686076e-07
-5.156783938704569e-07
-1.6809734452985453e-07
1.0424768441601428e-07
2.4406387738120687e-07
2.564256996434832e-07
1.8428746752719025e-07
8.117730334569666e-08
-9.377639470509852e-09
-6.375107884818478e-08
-7.827605999640666e-08
-6.30581182815447e-08
-3.376601564298532e-08
-4.702665921821383e-09
1.515325340480248e-08
2.2991695104818084e-08
2.078198759671147e-08
1.290346913171006e-08
3.8947959376481145e-09
-3.0198372149755803e-09
-6.453332013152948e-09
-6.613524772476957e-09
-4.652620185812024e-09
-1.9610748075693052e-09
3.534832310794185e-10
1.7077688571148965e-09
2.032152270274458e-09
1.6037256252171075e-09
8.32561146373477e-10
8.500178714105722e-11
-4.145137293372461e-10
-6.013206773856763e-10
-5.320136391211453e-10
-3.222650386406699e-10
-8.905854693218044e-11
8.627096381432994e-11
1.7030727531329925e-10
1.703741848886907e-10
1.1728953241837938e-10
4.712696581831199e-11
-1.1962991715600038e-11
-4.562113249685595e-11
-5.269211435804315e-11
-4.073545808788548e-11
-2.0467666023574458e-11
-1.2611078932163167e-12
1.1284874156098311e-11
1.570429597593866e-11
1.3603640560158374e-11
8.032517934244177e-12
2.0027146323019287e-12
-2.437067074419629e-12
-4.48634363606839e-12
-4.38403957179317e-12
-2.952250733160544e-12
-1.1257173512350243e-12
3.810228341717407e-13
1.2155756923856828e-12
1.3645769505390597e-12
1.0333483248316026e-12
5.0155754066193e-13
8.70312779316462e-15
-3.0582069985825445e-13
-4.094335407251766e-13
-3.4730535380335435e-13
-1.997170735877781e-13
-4.412396461637463e-14
6.797677926068048e-14
1.1759478220753246e-13
1.1225190984151902e-13
7.390831887514743e-14
2.679465128666329e-14
-1.1027375375614997e-14
-3.1107892435846035e-14
-3.379452253042142e-14
-2.4940930580690703e-14
-1.2031669640349269e-14
-1.1158227174505084e-15
4.787064109098959e-15
5.795490626191491e-15
4.188796858342376e-15
2.9040243839506906e-15
4.045638411604664e-15
7.838226460107875e-15
1.2318225079573175e-14
1.3912497151250308e-14
8.863293581443407e-15
-4.794132700882878e-15
-2.529350209392837e-14
-4.6083435132417956e-14
-5.65522176963217e-14
-4.5109496894014794e-14
-4.4329015967938125e-15
6.244252448468964e-14
1.376685658607972e-13
1.8886362419828247e-13
1.7670535935776015e-13
7.032151943091962e-14
-1.3258152301158657e-13
-3.8801379440840714e-13
-6.005398681536717e-13
-6.404733227677106e-13
-3.879233112827008e-13
2.024298206006912e-13
1.0357189425122441e-12
1.842280072254553e-12
2.2090973344834892e-12
1.7001442216533703e-12
5.791193653220474e-14
-2.5660683359400832e-12
-5.448484941355616e-12
-7.318830123614858e-12
-6.6679219190847826e-12
-2.353124001244551e-12
5.625787383560423e-12
1.546342184981903e-11
2.3390470801751413e-11
2.4391373898983706e-11
1.3952717053381948e-11
-9.421012378485948e-12
-4.171872587465777e-11
-7.220327042197836e-11
-8.479887968451748e-11
-6.291491202000046e-11
2.676824460875238e-12
1.0502085448062909e-10
2.150123202680353e-10
2.828842048904119e-10
2.507404797020301e-10
7.637000610818511e-11
-2.368470394699217e-10
-6.151423666312969e-10
-9.098585037850329e-10
-9.272419435057077e-10
-4.977533121434977e-10
4.263258621558795e-10
1.6766679780572535e-09
2.826454474300639e-09
3.250683733789216e-09
2.3191518342588956e-09
-2.959908998729926e-10
-4.283173746669286e-09
-8.473813974752129e-09
-1.0920779660466004e-08
-9.406078175675915e-09
-2.3767079668905437e-09
9.904012168434144e-09
2.4431962819551146e-08
3.535186385879375e-08
3.518796256753342e-08
1.7587650114073804e-08
-1.88959479751549e-08
-6.724348508054466e-08
-1.1051459999824873e-07
-1.2443797541613054e-07
-8.511757716016912e-08
1.8973112907282516e-08
1.7413096538819143e-07
3.335322891555691e-07
4.210842104480813e-07
3.519359054836426e-07
6.921126772106189e-08
-4.1172410357055577e-07
-9.689040293080524e-07
-1.371994655629841e-06
-1.332907273831777e-06
-6.142510491241972e-07
8.242497733299396e-07
2.691495528647447e-06
4.316129855551811e-06
4.75668373374385e-06
3.108767042938792e-06
-1.0277095353227074e-06
-7.058651271557266e-06
-1.3111504937392236e-05
-1.6216030520607216e-05
-1.31309585951491e-05
-1.7840332521325157e-06
1.7028211353418606e-05
3.83678648958742e-05
5.318535388312481e-05
5.039270524633565e-05
2.1144756850766473e-05
-3.549998742678164e-05
-0.0001075278522033575
-0.00016837101395585533
-0.00018155305006817027
-0.000112914184777396
5.1208989965607206e-05
0.0002853522828715397
0.0005147606659750265
0.0006236164973430413
0.0004882790736110718
3.367235188789993e-05
-0.0007015299114808936
-0.0015179336792663371
-0.0020603751528949364
-0.0019024603321304867
-0.0007151719171173045
0.0015148511633579372
0.0042962614940573445
0.006583545975999992
0.006972856540885311
0.004189240662000626
-0.0022058215293537073
-0.011108631443449205
-0.019522094348181782
-0.022948063911095926
-0.01678334229771578
0.0013422945166012101
0.028810461466283643
0.055817522911506524
0.06492526407325164
0.033289647862787826
-0.06231729868003582
-0.038749065160141705
-0.10006252095290138
-0.03379702361250687
-0.011641660795278938
0.005230275344205008
0.057459039739177896
0.17789402259387713
-0.016127605073180635
-0.12656338784209528
0.026038158599189797
0.006851542816522876
-0.026691963638192758
0.08280615449515875
0.10103240972434359
0.010315280051838231
-0.18325796467751665
-0.24632629563969183
-0.12125280780368267
0.06264303263602056
0.17104050955798838
0.244877362477084
0.2861042771406361
0.05512798371746797
-0.1178358169838502
-0.31069087708415616
-0.18433684414238363
-0.16355567613236507
-0.03061970548768733
0.06655530362016995
0.19512650598145515
0.21398067062717105
0.15439724886584896
0.010952285644463416
-0.0549998433967332
-0.10137369413146909
-0.18636904812919078
-0.15107286077824295
-0.009130612289363214
0.05389954999864624
0.07240371317408889
0.08748328477997555
0.1334992537700984
0.02862251832769649
-0.02827420912761717
-0.05446485356836527
-0.0761516334927502
-0.12045652578832988
-0.00964800295947638
0.04075196583020787
0.020258568899850383
0.12007190317919775
0.13079610905356334
0.04346439274243749
-0.14550784718802579
-0.027034924997941485
-0.17316123232827832
-0.13580894835072174
-0.05301391009914043
0.13747338897737355
0.08046776366873702
0.18716257218147286
0.2267311359227754
0.1303401467212279
0.008662409042209895
-0.22063148713634428
-0.40327399342477976
-0.3268755528519456
-0.11634513003793963
0.15006793857025472
0.20779248472957326
0.3661220045030481
0.27441854897487894
0.1052482143766618
-0.04030986224903884
-0.10715580373385832
-0.24868264615108815
-0.38890566431044304
-0.19550629552000373
-0.07127579307251393
0.2348928405866555
0.40315205733770454
0.3142946528601159
0.028345722844033316
-0.22364640817561535
-0.23510116110199838
-0.21257817865857875
0.034989808506108146
0.10167688623440051
0.1841021617541584
0.07807678841541758
-0.023900933576495195
-0.1322019758972896
-0.05708512360594508
-0.005226441654146142
0.022231131027774267
0.029337113647206935
0.02325652701718984
0.01164663498966595
0.0005566998458699231
-0.006600389863983588
-0.009002399837064148
-0.0076532863171551325
-0.004368629540657143
-0.0008996506259352816
0.0015924330754596891
0.0026816984682315054
0.0025392089075903772
0.0016593295015040008
0.0005860081452002484
-0.0002755948243396042
-0.0007347998336625138
-0.0007962763343013066
-0.0005869350654698112
-0.0002715032062803122
1.2711879255265195e-05
0.0001885619833085825
0.0002410194861594547
0.00019904947492719246
0.00011042187646880791
1.991015917590653e-05
-4.356907540790316e-05
-7.014902495630727e-05
-6.509293040511028e-05
-4.159606635721885e-05
-1.3757932107877716e-05
8.146443375240794e-06
1.946594709233415e-05
2.05582739913261e-05
1.4838847923591603e-05
6.592819896919881e-06
-6.805685801119266e-07
-5.070504339012611e-06
-6.2670748934501e-06
-5.0699585646242495e-06
-2.7315549906808593e-06
-4.0018825721851747e-07
1.1997467257964912e-06
1.837976172129518e-06
1.6686810998282086e-06
1.0412244426053423e-06
3.1952808091675056e-07
-2.3675416578870424e-07
-5.149095707011408e-07
-5.303474229454125e-07
-3.7473977387410783e-07
-1.5942741216411523e-07
2.6522582238165827e-08
1.3590994346473763e-07
1.6274340306679802e-07
1.289744533413475e-07
6.739002325919353e-08
7.409246915524619e-09
-3.285330820016799e-08
-4.8084493993298746e-08
-4.2727891353264016e-08
-2.601492086994967e-08
-7.327863978256246e-09
6.781175683262874e-09
1.3593969847884115e-08
1.3665744437144475e-08
9.449833300200356e-09
3.835565089309046e-09
-9.128266709725708e-10
-3.6326758312236865e-09
-4.220869446253218e-09
-3.2768682177794754e-09
-1.657751398421281e-09
-1.1634444345184795e-10
8.952426839048952e-10
1.256153730842147e-09
1.0928155622106615e-09
6.486975613218363e-10
1.6540652473110008e-10
-1.9196840871519617e-10
-3.582327710378583e-10
-3.517286163001724e-10
-2.379352790351306e-10
-9.173956252146976e-11
2.937086409011327e-11
9.684355202159495e-11
1.0933786658354889e-10
8.314918738270022e-11
4.065057177706276e-11
1.0841728974403163e-12
-2.4289092053667226e-11
-3.276978304475279e-11
-2.7917392640252127e-11
-1.6141742802770292e-11
-3.6574244236718296e-12
5.382368932720319e-12
9.423840845648702e-12
9.04244743740883e-12
5.9814637015310224e-12
2.1794915795178813e-12
-9.057813015421244e-13
-2.5755044299131614e-12
-2.828892290041555e-12
-2.107097116440532e-12
-9.93339850775946e-13
2.1129261480078657e-14
6.564376880473091e-13
8.537311344301461e-13
7.123543908311738e-13
4.0077273321729134e-13
7.865491600713967e-14
-1.4968497079252834e-13
-2.474856709960089e-13
-2.3219234776723974e-13
-1.501088664129128e-13
-5.136043543786335e-14
2.714011389992352e-14
6.835031211501885e-14
7.311479156589807e-14
5.33328013115877e-14
2.4187936915116785e-14
-1.792598524492575e-15
-1.7668722415317484e-14
-2.219983683284015e-14
-1.8138873686647683e-14
-9.90769566656215e-15
-1.6057408424061817e-15
4.149776274412138e-15
6.4960904060813786e-15
5.950719482916494e-15
3.744800393245859e-15
1.1787124203526683e-15
-8.080724882311183e-16
-1.7983237912182873e-15
-1.838517600745765e-15
-1.2591720859337837e-15
-4.73177840401301e-16
1.7938625046171395e-16
5.116145151263894e-16
5.000426734995363e-16
2.4747173671992897e-16
-7.60578393084189e-17
-2.950272610015244e-16
-2.8253635066630137e-16
-1.711954490629332e-18
4.705630247775763e-16
9.459686582040437e-16
1.1635582869736314e-15
8.710445461882943e-16
-5.941692345516116e-17
-1.510659304836295e-15
-3.0468186535055144e-15
-3.9481189049638246e-15
-3.4005340606675113e-15
-8.387576540108215e-16
3.635283980825462e-15
8.91904186315325e-15
1.2873932738427516e-14
1.2778283064550219e-14
6.329367141290266e-15
-6.9798916127506274e-15
-2.4569971853372002e-14
-4.025519655214615e-14
-4.51992747627648e-14
-3.0731338145051386e-14
7.285238294279151e-15
6.378279437846245e-14
1.216446415648584e-13
1.531469741786486e-13
1.2746495997294021e-13
2.4063760919112006e-14
-1.5120900335824903e-13
-3.536919676235561e-13
-4.993913156653574e-13
-4.83544717526083e-13
-2.2019542901106167e-13
3.0453132645234697e-13
9.837520342188868e-13
1.5724072222714056e-12
1.7278296919891075e-12
1.1219626874519394e-12
-3.884873326618266e-13
-2.584190704962445e-12
-4.78080652925105e-12
-5.89633157007445e-12
-4.753515887333001e-12
-6.047492052446621e-13
6.2501267626185254e-12
1.4003612249024941e-11
1.9356227234951093e-11
1.8276564553305465e-11
7.563208586376376e-12
-1.3095795176543828e-11
-3.929207041084845e-11
-6.13296128969932e-11
-6.593405733822299e-11
-4.071753803899483e-11
1.920179026538299e-11
1.0443716200141558e-10
1.8767722819401665e-10
2.267416098281006e-10
1.7673772168145036e-10
1.061041881640939e-11
-2.571713251491662e-10
-5.536431099939874e-10
-7.493507541076635e-10
-6.893592858305903e-10
-2.548179183862814e-10
5.575237082159162e-10
1.5666156190132828e-09
2.3893586484511396e-09
2.512127171218567e-09
1.4681316927363764e-09
-9.053535256445403e-10
-4.21030818915286e-09
-7.358643343084862e-09
-8.707894464783861e-09
-6.548881549676752e-09
9.069915220181927e-11
1.0539400074832004e-08
2.1858839884685424e-08
2.8975993443426478e-08
2.594425885326044e-08
8.367001661765022e-09
-2.3536053339743565e-08
-6.235762856193158e-08
-9.298145838308363e-08
-9.555732840859628e-08
-5.253589710575141e-08
4.134716667820799e-08
1.6934622331042207e-07
2.8818295358919114e-07
3.339743240777102e-07
2.417557109379598e-07
-2.3131122330921902e-08
-4.303670393870129e-07
-8.61882480272925e-07
-1.1191112555030623e-06
-9.741248928588056e-07
-2.649172194924094e-07
9.864926571652908e-07
2.478097793609397e-06
3.614224388185076e-06
3.628637481307878e-06
1.8631567099468854e-06
-1.845262011919047e-06
-6.796782890124123e-06
-1.1272739958425469e-05
-1.2791266638222505e-05
-8.887419804360597e-06
1.6622284514203292e-06
1.7516050156097177e-05
3.3939704391865875e-05
4.31700749051279e-05
3.648308553756049e-05
7.935318202610424e-06
-4.1092981675596985e-05
-9.832724772643775e-05
-0.00014032436863406077
-0.0001375434291171348
-6.536491178476338e-05
8.091932084018327e-05
0.0002722276625925975
0.0004404065072430191
0.0004891364806243439
0.00032504857010734353
-9.455347604539149e-05
-0.0007112419719656682
-0.0013355587506160833
-0.0016643026744715783
-0.0013638558015617716
-0.00021675950055683203
0.0017040802525786869
0.003903533240188791
0.005464529976270522
0.005257351507086002
0.0023763552464431156
-0.003279169896989471
-0.010483819393645871
-0.016519989926611175
-0.017664773202340115
-0.01049067002536643
0.0061448675238159785
0.02892071104201027
0.04850859183942854
0.04957403206778863
0.01290872641587058
-0.08046942706380567
-0.044348496421360045
-0.08321616369163953
0.009396104491046102
0.049497503835441055
0.05886505498166264
0.06061706736804857
0.07594754904313296
-0.07700230984094962
-0.18254678836271726
-0.026727171000258235
0.001812826848474006
0.10882604998483172
0.09066515805218008
0.1322094692506667
0.008702037660768904
-0.10807718559977468
-0.24119140909227046
-0.0009717625474044739
0.01819210506318558
0.03534902703321923
0.07599953268851042
0.1635457042905646
-0.08776995063269175
-0.07656249947396057
-0.0144590221574025
0.07626097047580536
-0.0336553408462562
0.023863477925278678
0.01878017500043829
-0.07265142760793424
-0.06434248812987393
0.041596546048592975
0.05491573664838772
-0.004257124550583333
0.09241386467350765
-0.020667531898033758
-0.10515581380431337
-0.12175908366634586
-0.035350357195691386
-0.02275670185797838
0.11792403963595542
0.15958812618453957
0.24417003216277516
0.09000854355569526
0.009417375745888055
-0.26672371380636245
-0.36450649792737555
-0.2517047136578464
-0.039053777164591776
-0.00036782745403037383
0.19297369423292263
0.43329676271592854
0.34626770124952044
0.2798165539411269
-0.08245762667753184
-0.2865096043027099
-0.46281777597078017
-0.48667018711417953
-0.3580934096275006
0.19118739444768468
0.4667354242160124
0.56910131126614
0.5578153370460915
0.03648546038253748
-0.43566948912130615
-0.5124771832786428
-0.4250403722284144
-0.3583019236564394
0.14964027199783514
0.585771937852128
0.4282656867097688
0.11552511318793786
0.030795797454705853
-0.09283321269094019
-0.35089947668515914
-0.2390092802596983
-0.027806785665444245
0.050961323575795234
0.004847407027857877
0.06993239198733449
0.09400590870134766
0.11937636147222548
-0.029956955900287633
0.04615549073629399
0.12652941957125297
-0.02203294433709888
-0.2315479473814618
-0.11997962096376036
-0.08325068695042137
-0.09540483852026276
0.08270357826767193
0.28920847988046655
0.14697605226526894
0.05507508019385974
-0.01043964358599556
-0.08669767681131646
-0.20911106879094155
-0.1973454469363074
-0.04767796627011165
0.06537731229378149
0.1791323290003355
0.1288180392811793
0.1354288884400284
-0.00012050842287300272
-0.09494557214549083
-0.1760152451901056
-0.06985637509048542
0.00561955659075913
0.044587361786733615
0.051953289969196945
0.03894576177982856
0.018034936386955577
-0.0009474447620769874
-0.012637849987982858
-0.01602998729424947
-0.0131180393829924
-0.007141331533043187
-0.0011046859445938248
0.0030759392680686903
0.0047710448229895085
0.0043604299635355
0.0027430352985868297
0.0008651613877649418
-0.0005925420593434294
-0.0013300802613557163
-0.0013820397951232657
-0.0009840180691409112
-0.0004253789483618362
6.070566316093222e-05
0.0003493209156756254
0.0004230005971808162
0.0003377123195640762
0.0001784369416912256
2.2014780082050797e-05
-8.382484461056736e-05
-0.00012465509915942282
-0.0001116193561840238
-6.85653431588451e-05
-1.9942939341227496e-05
1.704109113740691e-05
3.5128500520059453e-05
3.561916242454536e-05
2.4822672601806574e-05
1.0250979673573884e-05
-2.1656093420926335e-06
-9.346774204741418e-06
-1.0976014278839839e-05
-8.584298002056555e-06
-4.394164526810168e-06
-3.726926278786469e-07
2.288063623910832e-06
3.2581510289640935e-06
2.855988822085041e-06
1.7109554348668623e-06
4.5292908864212694e-07
-4.84307762631603e-07
-9.263144342413713e-07
-9.17140868676404e-07
-6.253486145600122e-07
-2.4572077776639876e-07
7.110645196234352e-08
2.4940253576498116e-07
2.8444734862260325e-07
2.1792366375599947e-07
1.0787742235627049e-07
4.6079801359411185e-09
-6.217148714435113e-08
-8.503880016714914e-08
-7.299058155016054e-08
-4.260689172339043e-08
-1.0096043057677855e-08
1.3623034367739318e-08
2.4383007165183134e-08
2.3588019330070448e-08
1.5729657022007073e-08
5.852460348196241e-09
-2.2221707162207506e-09
-6.63837383763979e-09
-7.362663541253593e-09
-5.5250845063772675e-09
-2.6395154862525087e-09
9.363847628071919e-12
1.6824926777901694e-09
2.21650230882416e-09
1.8632292863055677e-09
1.0586975967850198e-09
2.1951042840482368e-10
-3.7992476321472307e-10
-6.40740482805104e-10
-6.059695702225679e-10
-3.950119812113266e-10
-1.383561738080869e-10
6.718287906769487e-11
1.762860888058973e-10
1.903494516871927e-10
1.3989210336992362e-10
6.434387904069031e-11
-3.5224634838921507e-12
-4.536573455849946e-11
-5.7695405663823255e-11
-4.7505972994313154e-11
-2.624515331687198e-11
-4.60870038220155e-12
1.0518635516041348e-11
1.6810313564344775e-11
1.5549423344916195e-11
9.902907745777829e-12
3.2421636089466462e-12
-1.9833333164387167e-12
-4.671251183029608e-12
-4.91538337715496e-12
-3.5371109649890594e-12
-1.562060514615924e-12
1.7472372948697796e-13
1.219174326101446e-12
1.4998723808810216e-12
1.2097858017141053e-12
6.489979948455877e-13
9.179488084748662e-14
-2.8938999614424514e-13
-4.4033819404479905e-13
-3.985372370757583e-13
-2.478110110664432e-13
-7.516380180805447e-14
5.751788539355599e-14
1.2353832126078064e-13
1.2679275110842122e-13
8.931788030744177e-14
3.7757616134879363e-14
-6.637224793112627e-15
-3.2654787120596096e-14
-3.893139657703903e-14
-3.0759933327153365e-14
-1.599468348005001e-14
-1.6614684404457214e-15
7.928921447284876e-15
1.1527815074458714e-14
1.021343028182126e-14
6.2000821465811415e-15
1.7304589392685614e-15
-1.6341253314526247e-15
-3.250345890925041e-15
-3.2563303450817313e-15
-2.241589845116485e-15
-8.974188936167893e-16
2.360488904966772e-16
8.827526046499184e-16
1.019803188941437e-15
7.916406189860065e-16
4.0354039465276446e-16
3.5260904922153914e-17
-2.056383518952137e-16
-2.9082069592314074e-16
-2.509128932527292e-16
-1.4429996717552219e-16
-2.8724736109560756e-17
5.64820047234673e-17
9.590380089405092e-17
9.406297058242181e-17
6.668769337758695e-17
3.1692086794602326e-17
2.7873198929522054e-18
-1.3250297056536456e-17
-1.6145433365472898e-17
-9.82203541062411e-18
3.6249092970655143e-19
9.814309370299278e-18
1.5855198391455818e-17
1.7854157642919662e-17
1.6672304938638485e-17
1.3846360764505133e-17
1.0861337203621542e-17
8.706463996240293e-18
7.748803239545059e-18
7.847288155916864e-18
8.583327315870456e-18
9.493256100759698e-18
1.0229472724223773e-17
1.062620390918761e-17
1.0684418642198518e-17
1.0510288053830227e-17
1.0243441901044604e-17
1.0001140412156134e-17
9.849925033775468e-18
9.8034961611196e-18
9.837847475632932e-18
9.912599937179192e-18
9.989606058343271e-18
1.004402569576023e-17
1.0067184565574475e-17
1.006334201206625e-17
1.0043612816197741e-17
1.0019983589064151e-17
1.0001254853161947e-17
9.991466943019776e-18
9.990388358800356e-18
9.99515683286688e-18
1.0002138036382887e-17
1.0008342403345709e-17
1.0012120556711026e-17
1.0013185426572297e-17
1.0012201443274419e-17
1.0010227902049947e-17
1.0008243629344387e-17
1.0006871312969285e-17
1.0006314128154552e-17
1.0006446453055959e-17
1.000697379524255e-17
1.0007586641521069e-17
1.0008062488542813e-17
1.0008303269650354e-17
1.0008320233779058e-17
1.0008190290377168e-17
1.0008007912530048e-17
1.0007849227413559e-17
1.0007755015650751e-17
1.0007730976296976e-17
1.0007758833828778e-17
1.0007810841848376e-17
1.0007861913398927e-17
1.0007896467004443e-17
1.0007909794374805e-17
1.000790553527067e-17
1.000789147661858e-17
1.0007875601256623e-17
1.0007863526732349e-17
1.0007857622288426e-17
1.000785746304906e-17
1.0007860988678363e-17
1.0007865746486387e-17
1.0007869800336476e-17
1.0007872144671801e-17
1.0007872676307604e-17
1.0007871895200575e-17
1.0007870527039212e-17
1.0007869214053211e-17
1.0007868345401138e-17
1.0007868028764123e-17
1.0007868160143904e-17
1.0007868534033743e-17
1.0007868944780768e-17
1.0007869250767427e-17
1.0007869395053735e-17
1.0007869392033829e-17
1.000786929674925e-17
1.0007869172797382e-17
1.0007869069357945e-17
1.0007869011152557e-17
1.0007868999718423e-17
1.000786902144373e-17
1.00078690573758e-17
1.0007869091092507e-17
1.0007869112893746e-17
1.0007869120357427e-17
1.0007869116421812e-17
1.0007869106500646e-17
1.000786909588586e-17
1.0007869088142155e-17
1.0007869084629776e-17
1.0007869084889971e-17
1.0007869087456085e-17
1.0007869090681062e-17
1.00078690933173e-17
1.0007869094758972e-17
1.0007869094995247e-17
1.0007869094395144e-17
1.0007869093452959e-17
1.0007869092588122e-17
1.0007869092041906e-17
1.0007869091867617e-17
1.0007869091983008e-17
1.0007869092245709e-17
1.0007869092519703e-17
1.0007869092715403e-17
1.0007869092800539e-17
1.0007869092789171e-17
1.0007869092720284e-17
1.0007869092636485e-17
1.000786909256938e-17
1.0007869092533763e-17
1.0007869092529177e-17
1.0007869092545655e-17
1.0007869092570322e-17
1.000786909259248e-17
1.000786909260614e-17
1.0007869092610164e-17
1.0007869092606836e-17
1.0007869092599894e-17
1.000786909259283e-17
1.000786909258789e-17
1.0007869092585837e-17
1.0007869092586249e-17
1.0007869092588093e-17
1.0007869092590267e-17
1.0007869092591973e-17
1.0007869092592851e-17
1.0007869092592931e-17
1.000786909259248e-17
1.0007869092591836e-17
1.0007869092591269e-17
1.0007869092590928e-17
1.0007869092590836e-17
1.0007869092590931e-17
1.0007869092591113e-17
1.0007869092591296e-17
1.000786909259142e-17
1.0007869092591469e-17
1.0007869092591455e-17
1.0007869092591407e-17
1.000786909259135e-17
1.0007869092591307e-17
1.0007869092591286e-17
1.0007869092591284e-17
1.0007869092591296e-17
1.0007869092591313e-17
1.0007869092591327e-17
1.0007869092591336e-17
1.0007869092591338e-17
1.0007869092591336e-17
1.000786909259133e-17
1.0007869092591326e-17
1.0007869092591323e-17
1.0007869092591323e-17
1.0007869092591323e-17
1.0007869092591324e-17
1.0007869092591326e-17
1.0007869092591326e-17
1.0007869092591327e-17
1.0007869092591327e-17
1.0007869092591326e-17
1.0007869092591326e-17
1.0007869092591326e-17
1.0007869092591326e-17
1.0007869092591326e-17
1.0007869092591326e-17
1.0007869092591326e-17
1.0007869092591326e-17
1.0007869092591326e-17
1.0007869092591326e-17
1.0007869092591326e-17
1.0007869092591326e-17
1.0007869092591326e-17
1.0007869092591326e-17
1.0007869092591326e-17
1.0007869092591326e-17
1.0007869092591326e-17
1.0007869092591326e-17
1.0007869092591326e-17
1.0007869092591326e-17
1.0007869092591326e-17
1.0007869092591326e-17
1.0007869092591326e-17
1.0007869092591326e-17
1.0007869092591326e-17
1.0007869092591326e-17
1.0007869092591326e-17
1.0007869092591326e-17
1.0007869092591326e-17
1.0007869092591326e-17
1.0007869092591326e-17
1.0007869092591326e-17
1.0007869092591326e-17
1.0007869092591326e-17
1.0007869092591326e-17
1.0007869092591326e-17
1.0007869092591326e-17
1.0007869092591326e-17
1.0007869092591326e-17
1.0007869092591326e-17
1.0007869092591326e-17
1.0007869092591326e-17
1.0007869092591326e-17
1.0007869092591326e-17
1.0007869092591326e-17
1.0007869092591326e-17
1.0007869092591326e-17
1.0007869092591326e-17
1.0007869092591326e-17
1.0007869092591326e-17
1.0007869092591326e-17
1.0007869092591326e-17
1.0007869092591326e-17
1.0007869092591326e-17
1.0007869092591326e-17
1.0007869092591326e-17
1.0007869092591326e-17
1.0007869092591326e-17
1.0007869092591326e-17
1.0007869092591326e-17
1.0007869092591326e-17
1.0007869092591326e-17
1.0007869092591326e-17
1.0007869092591326e-17
1.0007869092591326e-17
1.0007869092591326e-17
1.0007869092591326e-17
1.0007869092591326e-17
1.0007869092591326e-17
1.0007869092591326e-17
1.0007869092591326e-17
1.0007869092591326e-17
1.0007869092591326e-17
1.0007869092591326e-17
1.0007869092591326e-17
1.0007869092591326e-17
1.0007869092591326e-17
1.0007869092591326e-17
1.0007869092591326e-17
1.0007869092591326e-17
1.0007869092591326e-17
1.0007869092591326e-17
1.0007869092591326e-17
1.0007869092591326e-17
1.0007869092591326e-17
1.0007869092591326e-17
1.0007869092591326e-17
1.0007869092591326e-17
1.0007869092591326e-17
1.0007869092591326e-17
1.0007869092591326e-17
1.0007869092591326e-17
1.0007869092591326e-17
1.0007869092591326e-17
1.0007869092591326e-17
1.0007869092591326e-17
1.0007869092591326e-17
1.0007869092591326e-17
1.0007869092591326e-17
1.0007869092591326e-17
1.0007869092591326e-17
1.0007869092591326e-17
1.0007869092591326e-17
1.0007869092591326e-17
1.0007869092591326e-17
1.0007869092591326e-17
1.0007869092591326e-17
1.0007869092591326e-17
1.0007869092591326e-17
1.0007869092591326e-17
1.0007869092591326e-17
1.0007869092591326e-17
1.0007869092591326e-17
1.0007869092591326e-17
1.0007869092591326e-17
1.0007869092591326e-17
1.0007869092591326e-17
1.0007869092591326e-17
1.0007869092591326e-17
1.0007869092591326e-17
1.0007869092591326e-17
