0
-7.905558582676399e-18
-8.233175248585379e-18
-8.769846416854474e-18
-9.372432337740715e-18
-9.782226506784563e-18
-9.685372481373411e-18
-8.835527398244672e-18
-7.214451259808149e-18
-5.173393915079939e-18
-3.47445600677547e-18
-3.1534822356663365e-18
-5.168467498845575e-18
-9.882252873921489e-18
-1.6538265111695448e-17
-2.2983627133678528e-17
-2.5919677593119508e-17
-2.186256340096126e-17
-8.752655837991719e-18
1.2203762408634717e-17
3.523333942322224e-17
5.0189999966949115e-17
4.501705457625113e-17
1.0579979068623714e-17
-5.313580794932111e-17
-1.317242616346982e-16
-1.9508809741214138e-16
-2.0316360673563983e-16
-1.1987997114403938e-16
6.674677510846155e-17
3.2472706953471696e-16
5.683392698219812e-16
6.691870976494651e-16
4.947060143298393e-16
-2.8925913937871235e-17
-8.463111752029266e-16
-1.7251307572227193e-15
-2.267944524537089e-15
-2.012215639000133e-15
-6.204731114824897e-16
1.8807841673495147e-15
4.9028871702439615e-15
7.2588027293541e-15
7.40081630908239e-15
3.973923666068114e-15
-3.404543009845994e-15
-1.3391955128577947e-14
-2.258064435740763e-14
-2.59786514330459e-14
-1.85502843130741e-14
2.3275836507787398e-15
3.417246072631691e-14
6.765619541470127e-14
8.722862866455969e-14
7.516955338637765e-14
1.9061996607401453e-14
-7.901030548532376e-14
-1.950731501732735e-13
-2.8237089277384756e-13
-2.811854367609266e-13
-1.4074260573981867e-13
1.505740763062344e-13
5.367702281195178e-13
8.825922391536433e-13
9.941782332930585e-13
6.805787275962247e-13
-1.504494929352681e-13
-1.3896920382162775e-12
-2.663367543234926e-12
-3.3637711549417117e-12
-2.8129862635467114e-12
-5.562212472412182e-13
3.2845521590559594e-12
7.735937458134988e-12
1.0958627838331391e-11
1.065124935183436e-11
4.916322408587479e-12
-6.570192436605106e-12
-2.148592843255804e-11
-3.447056167268887e-11
-3.8004153212105735e-11
-2.485960634662981e-11
8.165711953789577e-12
5.633573088948783e-11
1.0470182922055577e-10
1.2954211106019348e-10
1.0495971371290331e-10
1.4382841705303193e-11
-1.3585578832349727e-10
-3.0634533857446806e-10
-4.2481967198816393e-10
-4.0270120510291927e-10
-1.6928590790249726e-10
2.830380800743201e-10
8.584185335784223e-10
1.344723126164901e-09
1.4505895833282198e-09
9.030268744475049e-10
-4.073865265687953e-10
-2.2776368822509286e-09
-4.11097699959952e-09
-4.982479165714166e-09
-3.904370459864731e-09
-2.7634818374624117e-10
5.593680156141999e-09
1.2114186001073694e-08
1.6449300960439532e-08
1.5194131718561487e-08
5.722474636185072e-09
-1.2066966973707183e-08
-3.423512771330214e-08
-5.239867288654332e-08
-5.528186900336009e-08
-3.259463556483509e-08
1.932420969200004e-08
9.185503456547924e-08
1.612171409616627e-07
1.913883795194762e-07
1.4475221230685693e-07
-2.8959516080253483e-10
-2.293754453123422e-07
-4.783893679595213e-07
-6.361795745309147e-07
-5.720350654554134e-07
-1.88749652652635e-07
5.100258041882649e-07
1.363042051120367e-06
2.039443055870822e-06
2.1033729375900893e-06
1.1678286257620923e-06
-8.862621940242882e-07
-3.6958447221558973e-06
-6.314815610731912e-06
-7.341860656586011e-06
-5.346829697655483e-06
4.411965251873254e-07
9.371345563903722e-06
1.8866464099902526e-05
2.457511491608589e-05
2.1486198045020315e-05
6.015626839834547e-06
-2.1399083890885686e-05
-5.418017390937386e-05
-7.928730469909378e-05
-7.989303923297943e-05
-4.1477661114843374e-05
3.96755637957694e-05
0.00014837792851714405
0.0002470465384068619
0.00028122637694377435
0.00019663182254796126
-3.400446570816642e-05
-0.0003818137848542207
-0.0007434354993499411
-0.0009487104066112741
-0.0008057401351974243
-0.00018277164491096881
0.0008921160770395697
0.0021523919402520997
0.003086609909223216
0.0030493356867674595
0.0015031202633902295
-0.0016515581108239928
-0.005770180091436152
-0.00934785148104321
-0.010263846702051395
-0.006484501987599747
0.002837913831406988
0.016147152465738585
0.02861400792396062
0.03214255838604043
0.016598057161670364
-0.027847228414013832
-0.1079574820074667
-0.02541825696536136
0.023392723534022587
0.04559941537610957
0.04881981905920411
0.038464511549445
0.016696195914904267
-0.016442934692336427
-0.0603154803768613
-0.1108022711309217
0.04113592423864586
0.008431224934609979
0.004554096453563092
0.039063585294063015
0.11380418395069201
0.021295786099347937
-0.053942593432895626
-0.1316182732437772
-0.031039023741344283
0.032506214078109934
0.049372904994747245
0.01558529346560438
0.13256010426452142
0.007741752060935357
-0.1436081156780035
-0.0965631612504931
-0.016641027333780326
-0.06361964095665441
0.0006923325875842477
0.20247368982268427
0.1469528479337423
0.014059015073368588
-0.03911311791886712
-0.0693400148908182
-0.13462173904244348
-0.08184904169268276
0.06177022536597539
0.09188405735373066
0.025144209600778518
-0.10612987733932472
-0.06126939443218169
0.0003984824387067904
0.11109598839930925
0.08762938820503537
0.12810373249191834
0.014057470394840928
-0.08195570852053626
-0.1856081502851622
-0.11085024356782126
-0.054856723840522426
-0.00015113226409709448
0.07675731614544411
0.19368230659518987
0.15296833567224355
0.1381381590432669
-0.0808290846523974
-0.13499482629364318
-0.24159206160720179
-0.1933686917335385
-0.1577225042899398
0.11236855416226056
0.25853195506645027
0.2955207342254871
0.1969890431944612
0.09545944696150695
-0.10166397216157591
-0.28432705455776147
-0.30934147045336147
-0.17769856978604523
-0.027751698314592996
0.05306868602342204
0.20149987314943127
0.1447100852731044
0.1692521138337866
0.1009861109089388
0.10073215280780536
-0.12399523421519394
-0.0949648961478227
-0.13363776739061234
-0.1337187187614342
-0.1424476877936342
0.04552105602808015
0.08131436956388828
0.04505295827603666
0.02412015079349935
0.09197257017550475
0.09209959713269185
0.030197939612466838
0.07579449615953043
-0.027477682484177347
-0.14575328679444677
-0.1372840096428422
-0.038033318502502474
-0.054247209258007405
0.03655877233342027
0.07738751079360938
0.11948365556229464
0.00987127174959893
-0.018030454043362988
0.051012607451534665
0.014295219642354457
-0.14499791023927527
-0.052284389071151745
0.06366494859800777
-0.025531282669123207
0.054285071958471286
0.08123007507098377
0.039122316927134713
-0.07997405631623884
-0.0729942785102966
-0.124450183180262
-0.008025745821763514
0.10814817564508596
0.05362608902120742
0.04771291125435074
0.09425367069104516
-0.01905982938743779
-0.11675739752310307
-0.02853640175907004
0.018532444417664835
0.006326835726801218
-0.07078793088556508
-0.00556523235407551
0.019664232137197812
0.028496956061228956
0.04522616013483237
0.09039006897481758
-0.021724678519154828
-0.08334085100519847
-0.09203061995010943
-0.04963862929954349
0.03752753859863521
0.1573241682739304
0.09070748127522156
0.012943037486460788
-0.10193299481020632
-0.0743423033364492
-0.11262482468040493
-0.00951437309542825
0.05681832089266378
0.1175493568554196
0.0057843550663211115
-0.05066684028043147
-0.03466318381045257
0.05730722324752715
0.014511917267820135
0.013598331190265106
0.02239632729090342
0.005565293779962803
-0.06877204312752307
-0.022748718332050985
-0.0643265453493061
0.014122623163742538
0.03390291104345785
0.025417681385116124
0.022304333611382808
0.055773036481511655
-0.04980000202907134
-0.07970313502875388
-0.030448675274468616
0.08951278225877653
0.0599989533587405
0.05095392016429414
0.026737096182470343
-0.047239543065009194
-0.1969377953702824
-0.033548427428633044
0.04901952626343944
0.07221594249613207
0.06756661883605478
0.07022855276153964
-0.08667873433959314
-0.1762850250675787
0.018739606768859184
0.1030869139393951
0.066180764686904
0.08154136082628509
0.10991381943527935
-0.09324630543203606
-0.16734593655754068
-0.1364829684720189
-0.003218701001102929
0.05133715609646652
0.061294596038483785
0.06610088691943877
0.10049397441875514
-0.012747923260273313
-0.06581121932200873
-0.06489795109297826
-0.026826555930497493
0.025135515921707104
0.06527509453574823
0.06932435902502228
0.01873226719213421
-0.09463238105307296
-0.06431684671929823
-0.06746840050945457
-0.06711182323827775
-0.01913132850135847
0.11721489940698346
0.1681514411640112
0.13742710892883375
0.004760717596241805
-0.06831098958337056
-0.12721029958109661
-0.2121352982858874
-0.14988066373228587
0.047040442478720954
0.17401238971215754
0.2243336645281981
0.18140754082241795
0.018213353052800203
-0.09412555720057571
-0.1712212642765083
-0.19966790259289863
-0.12749019713083054
-0.06579181296872173
0.09715649988728088
0.07237332176753324
0.14336637346802833
0.14352199722649805
0.24423145841798613
-0.0423576603631809
-0.04588370399155268
-0.10960351725921037
-0.15863400215278767
-0.27281071598565476
-0.07109366669641023
0.08882068884024362
0.0963803700544799
0.06424064583049342
0.10135046231163165
0.08974092547342921
0.06987907353295725
0.036925442458685814
-0.05240649931816171
-0.0650610459065575
-0.07325419245357918
-0.13737125561355182
-0.09431897243694042
0.04629381887422351
0.09822481885511061
0.08935846778272644
0.05094288932277737
0.008855185859309602
-0.021060809617400172
-0.03341090110384821
-0.03063948984699029
-0.019159619210775913
-0.005790500161527214
0.004560579120541464
0.009739726316390515
0.010008360463706614
0.007072232453642321
0.003016110036515604
-0.00048790542150448226
-0.002551864515569122
-0.003061873080752693
-0.0024298973039687285
-0.0012724741874518188
-0.00014347446680750217
0.0006155295093420637
0.000903781850593893
0.0008043127078174396
0.000490550544141455
0.0001390454528510834
-0.00012672766264154006
-0.00025537743013103316
-0.00025714648227681433
-0.00017808106801088636
-7.252300209769559e-05
1.688232553389917e-05
6.818831202307032e-05
7.938882527527269e-05
6.172041813828738e-05
3.12949638653933e-05
2.28504777423651e-06
-1.6783181338267334e-05
-2.3614965444272634e-05
-2.0573954261230593e-05
-1.2234307680613907e-05
-3.142522519031687e-06
3.590120692124016e-06
6.730634500143211e-06
6.618977027027661e-06
4.484362434894185e-06
1.7353714380746212e-06
-5.451543481145998e-07
-1.818138591328773e-06
-2.0566639737309808e-06
-1.5662693954188353e-06
-7.675766611444181e-07
-2.2864151436579555e-08
4.5547369039153064e-07
6.161097317421708e-07
5.256350642228647e-07
3.0448663153046556e-07
6.961544407880871e-08
-1.007022990182056e-07
-1.770701200563626e-07
-1.7018522710714955e-07
-1.1277569829236866e-07
-4.130069735192209e-08
1.6791863707622255e-08
4.8316253009372603e-08
5.322066154020663e-08
3.977338999773762e-08
1.8918686932176628e-08
-1.3000362085756292e-10
-1.2134744142047872e-08
-1.600393262132375e-08
-1.3593148755147025e-08
-8.013035774004973e-09
-2.159908824427044e-09
2.1398258966856692e-09
4.310473680677977e-09
4.7068053723840645e-09
4.070649023210866e-09
3.031212257763796e-09
1.8306825407910834e-09
3.4071325336947634e-10
-1.6771732539718189e-09
-4.2015638293358646e-09
-6.653724570443357e-09
-7.851975482156196e-09
-6.333791893080981e-09
-1.0367106654469236e-09
7.839946161372254e-09
1.8138945246426984e-08
2.565698434896612e-08
2.5048155347174913e-08
1.1830588264428341e-08
-1.486907822244e-08
-4.9767939120016095e-08
-8.044849850788868e-08
-8.934027301993877e-08
-5.93974939358391e-08
1.7185191411290873e-08
1.2975465056822614e-07
2.437316035230918e-07
3.037644492820826e-07
2.4895308687593185e-07
3.96442988738053e-08
-3.1069135708098e-07
-7.112618619411775e-07
-9.938176225080587e-07
-9.506097484146939e-07
-4.138468532021011e-07
6.384207985836389e-07
1.98683246673742e-06
3.1387576760246962e-06
3.4124594821113185e-06
2.1633040251163398e-06
-8.770159424580865e-07
-5.249822447971702e-06
-9.573532400577598e-06
-1.168884445957253e-05
-9.271470766280249e-06
-8.818254551690026e-07
1.2812012803380913e-05
2.814018927132385e-05
3.8497322735895836e-05
3.589389057637971e-05
1.4090216404814647e-05
-2.7312836384338607e-05
-7.928713603070115e-05
-0.00012235464923035603
-0.00013012117160549126
-7.82696177566275e-05
4.2250240236792214e-05
0.0002118999018999377
0.00037558658633355817
0.0004491760117094927
0.0003440970195631769
8.413596348047599e-06
-0.0005263178511254789
-0.001112137940164793
-0.0014900290971119946
-0.001353074560083848
-0.00046983970870361294
0.001157916373517887
0.003161067971964064
0.004772385762156543
0.004974573832763152
0.0028580548677966085
-0.0018660123758843757
-0.00836053557446518
-0.01441999997001924
-0.016766445931922617
-0.012059286871208727
0.0014463004103843107
0.021998679329589706
0.04294137208987365
0.05267601541763726
0.036661376229080486
-0.018543885063247022
-0.12016502992999126
-0.06488825794653448
-0.037438085574898056
-0.013384157429357104
0.03407285290838037
0.12526588146664328
0.06615696271826547
0.04432413461043358
0.030657384993321993
-0.013296439227697044
-0.12433343004526277
-0.1262721349159407
-0.021928392641608264
0.008990605789965515
0.005408981260540754
0.015244752171365455
0.08343964561148658
0.04094356843031002
0.09759970824317338
0.04088730581340765
0.04095246567667057
-0.1394831862789799
-0.13345745224336186
-0.16037648223643847
-0.022362419601132687
0.09237618668941959
0.20087949581625142
0.11558795592210634
0.037868242505771886
-0.04230033776104463
-0.14070484222331803
-0.0702184200280296
-0.03299967833105892
-0.016761408767442722
0.003567337543507738
0.059423344746585546
-0.020577105749162494
-0.020049531447885835
0.05802450419917444
0.18863226118740906
0.12823403170759445
0.02505592565200009
-0.1653251797406314
-0.2633442914024616
-0.2539109906646426
-0.08561678310170455
0.11707658236002298
0.23155260334478459
0.31203773589040035
0.17089657887128937
-0.026879931876094654
-0.15406220120473213
-0.10005904289520755
-0.1456251748766849
-0.14144323878072898
-0.09667588764339728
0.019841892768280835
0.06689600923698234
0.11106854132461809
0.20613461676874284
0.1780908732365651
0.02033151205783547
-0.09995984423069075
-0.227121892261
-0.19993148632812352
-0.03858660306165763
0.0599765308308123
0.11801296196619035
0.1672716598617098
0.038412236884864746
-0.0464780627578408
-0.07660476982355499
-0.05120567063086273
0.023583743858803692
-0.06224233229267393
0.0793801566990412
0.03550806621037399
-0.007251765064632898
-0.061923231966521566
0.06010165366192117
-0.04949936144330028
0.005235417068713496
0.02528316746323917
0.016813611913480544
-0.009169642638172383
-0.03777307802910124
-0.05196936364147416
-0.035439741686653044
0.02357474280498319
0.12824404353775568
0.07052788029516399
0.031672425122509486
-0.013371429721169953
-0.0884806454633986
-0.2083216441885488
0.027154150775831658
0.033405182447435164
0.03689258991561462
0.06736173520419732
0.14968711245983313
-0.10213688266290664
-0.08758334906166182
-0.019038818138435894
0.08070080854683918
-0.01813785290866061
0.051775150547836435
0.05973975017201598
-0.017477659064216985
-0.19043854041158687
-0.0537717974374909
0.013428281440616805
0.042890084789260895
0.06927984040147538
0.12174577797241763
0.017760299753762615
-0.03887698603279957
-0.055746084071102604
-0.04671758988000408
-0.026334723873539717
-0.00563927952664448
0.009570498633117463
0.01814963864341567
0.021552850208446116
0.02148787175165071
0.018322110937118635
0.010871887146367188
-0.0023582298501875483
-0.02098754259875012
-0.0405688988605195
-0.05152629270169034
-0.04015035148984286
0.008058892425020725
0.1033836970423878
0.046843515449133157
0.027146110790446983
0.02118751869527425
-0.0015468214204115787
-0.07168780859590697
-0.01179718903121635
-0.029656968716452917
-0.11510411900692509
-0.04164853068747832
0.027114767007597355
0.12777909777146734
0.08694264266952997
0.11397830008267316
-0.0006520122175187998
-0.08097491278776466
-0.15678551387264755
-0.05405378145273725
0.012059579243196282
0.039566342767257415
0.03747669431352675
0.020739015594269793
0.00441497123731927
-0.0011998084450023732
0.006471720804365831
0.021623798090052635
0.031660113144740376
0.020721830526028138
-0.025535848742266103
-0.11509431356495738
-0.04620789652074045
-0.006941670736204006
0.021884645730007098
0.06123049841216166
0.1278920396586804
0.030438275562336525
-0.031380202621329074
-0.06371270977061363
-0.07377465613892302
-0.06555977759865048
-0.038237301785960125
0.01193657800170902
0.08707770332373821
0.1828357659725308
0.08612535776122328
-0.022560362915152142
-0.1624018173469698
-0.14375184006618488
-0.16200809492177104
0.0026775388897760087
0.1790049179677119
0.19386492128600186
0.06197385574405053
-0.019845993836924536
-0.0717728672932748
-0.12454909200714771
-0.010551632945616155
0.04440682801143968
0.026510170681942797
-0.06396539775360889
-0.01357797328045064
0.000890853066577406
0.007264447063162682
0.03202089665940566
0.09492070220610999
0.005589400685490095
-0.03708359664188171
-0.04281690692821568
-0.02610350201765107
-0.002089671631074244
0.016724516736729863
0.02253638929022149
0.013185416673167855
-0.007688538801137313
-0.03113763369272363
-0.04421559837575882
-0.03238545334961632
0.016974461229676642
0.11060953084566096
0.046278891005854875
0.011955554900479242
-0.011881692168622062
-0.047348266446002915
-0.11330323341333497
-0.02066680449407468
0.029463051614698033
0.04448216728639654
0.036658052493723954
0.018876709077619118
0.0012953302869693193
-0.010284250257889514
-0.014326399258554896
-0.012319921563211942
-0.0071302537909161395
-0.0015695734343914853
0.00247127834018175
0.004276169554301481
0.004094618464415181
0.0027077225512055253
0.0009879453345207497
-0.0004075033280854586
-0.0011631847203554919
-0.0012786432545126897
-0.0009530662145673351
-0.000449950033460134
8.637877250367943e-06
0.00029607228492677015
0.00038559751113218167
0.0003219919601915281
0.00018133459999174784
3.578750904442313e-05
-6.746647984763041e-05
-0.00011176194340457072
-0.0001049392634197425
-6.789951505589817e-05
-2.3290164992401976e-05
1.219842766908888e-05
3.084970129513525e-05
3.303139353467258e-05
2.4111824202595106e-05
1.0949396676668368e-05
-7.93277308977239e-07
-7.975956850658734e-06
-1.0033610489146942e-05
-8.206833342402497e-06
-4.491861794618775e-06
-7.405788070266488e-07
1.863934659465552e-06
2.9306892233526932e-06
2.6918029616215564e-06
1.7012779035072062e-06
5.440326582307289e-07
-3.5784449994996587e-07
-8.169121914282238e-07
-8.526482016411465e-07
-6.093824287926829e-07
-2.6543782398576886e-07
3.4959552587488585e-08
2.1413140122877174e-07
2.6072882544290813e-07
2.089109809468378e-07
1.1098004198290018e-07
1.4408841945336293e-08
-5.118870498587821e-08
-7.673305065073472e-08
-6.896873864732965e-08
-4.254969805738113e-08
-1.2564992215164745e-08
1.0326069493060145e-08
2.1590787824601387e-08
2.1986302695844802e-08
1.5380678170395468e-08
6.404262900570734e-09
-1.2739328038147777e-09
-5.736926001905267e-09
-6.773673120461034e-09
-5.3180538699030895e-09
-2.737185289936446e-09
-2.4649731833808515e-10
1.4125518826730812e-09
2.028276949862757e-09
1.7890201557205027e-09
1.0771313422718317e-09
2.7958529515411687e-10
-3.3150549573363715e-10
-6.372767798046362e-10
-6.48509327873145e-10
-4.522635047273459e-10
-1.5865918062434705e-10
1.3409957075217708e-10
3.5269048814740045e-10
4.470521343840127e-10
3.8640234996420433e-10
1.6294423606656594e-10
-1.9420192986467594e-10
-6.018830372084731e-10
-9.172122197425729e-10
-9.594330279951528e-10
-5.683745018160609e-10
3.073000753082178e-10
1.5196335880357994e-09
2.67432008279435e-09
3.1776232157657215e-09
2.410111407085883e-09
1.5691288955757767e-11
-3.769826240871489e-09
-7.89024360989948e-09
-1.0511957058075401e-08
-9.475287542119722e-09
-3.1689874781477083e-09
8.357439715743599e-09
2.2453909683680292e-08
3.366590916686417e-08
3.4794447989094164e-08
1.943108994425078e-08
-1.4425049823122684e-08
-6.082289548235839e-08
-1.0417653276771446e-07
-1.2135376276255708e-07
-8.86959007003981e-08
6.628407710879222e-09
1.5401513197917032e-07
3.110480648519043e-07
4.059375040047088e-07
3.558502288918258e-07
1.013212275069458e-07
-3.508772159690226e-07
-8.926268407603882e-07
-1.3089217287652446e-06
-1.3217862735969328e-06
-6.907171294115859e-07
6.470422374109615e-07
2.442404206843139e-06
4.0761879661656735e-06
4.649449683040827e-06
3.2641154960845823e-06
-5.339261380802414e-07
-6.273340374992386e-06
-1.2252470661308564e-05
-1.566382949726532e-05
-1.3335821238760866e-05
-3.084422721627441e-06
1.4637273228218737e-05
3.543168828027988e-05
5.083446748579359e-05
5.012538995762355e-05
2.430212020470626e-05
-2.8486161707445026e-05
-9.787569417492714e-05
-0.00015930591023372414
-0.00017788318548442623
-0.00011957968202837506
3.149407723158765e-05
0.00025472958873772603
0.0004819904656629391
0.0006036021295518124
0.0004982878700678188
8.619797617113865e-05
-0.0006076956551886622
-0.001405059005198195
-0.001973039098720298
-0.0018985351775661031
-0.0008450214560820637
0.001237545808589077
0.003922531240805115
0.006241543143391253
0.006849469579208595
0.0044721173534544075
-0.0014202160639537856
-0.009915259962573437
-0.018271196341429548
-0.022219826531630273
-0.017233834194392148
-0.0007369269412839655
0.0252039836797023
0.05161206385973536
0.061903296470594275
0.03370508429275217
-0.05659344757446733
-0.027433524986702137
-0.08567709798757747
-0.022402594717802638
-0.012612543906644345
-0.019423578537264903
-0.0019985342355652246
0.07460596824418943
0.030165074728689276
0.06321269179422594
0.15032208879871123
0.051754763111536074
-0.0772657099665837
-0.27252785650858424
-0.14865522965706457
-0.09348890700065267
0.12847190891516153
0.16485389196255418
0.2610953116631959
0.048843283583718304
-0.05889313849707846
-0.2655049140744598
-0.18473174881101817
-0.03547868647107281
0.15940775791479456
0.17080972125879273
0.16094002978184951
0.08505782008946657
-0.10056630518561985
-0.22584136508866795
-0.09369894705789165
-0.07210378448218664
-0.09523381573313891
0.12533655968683305
0.08194556390403544
0.04943370477372765
0.06648050302873774
0.12427583126509129
-0.03475084767017801
0.09237597796400134
-0.012572781408584971
-0.06534395580559178
-0.15495072343355082
-0.12431149203176199
-0.16064100943543136
0.0015675753180821512
0.06530307684101218
0.14728852002291218
0.15193856687296992
0.1497975989628954
-0.034341001781579165
-0.021540475474902017
-0.06840462806409635
-0.05024245279802956
-0.04259921768066444
-0.10559786021887259
-0.07422629655377934
0.044028891670893855
0.06472646665230734
0.01747304534117413
0.13568592265525517
0.048315494524391094
-0.024412642675166872
-0.0709232127665183
-0.08530292808660905
-0.06380223368930986
-0.002998370335538543
0.09949644873154272
0.04250326629458333
0.018685929432833082
0.013646755638017297
0.0075491128982175994
-0.021051955567488068
-0.09037231426790424
-0.011138878751453656
0.01569806436631082
-0.0014030260583556531
-0.047361453235401085
0.09527800342423687
0.041943492365623586
0.0027781443477976676
-0.018596546196989135
-0.024206670010699594
-0.019443367536723804
-0.010439913026101847
-0.0020221813679170953
0.003303591935976503
0.0053317448845342
0.005437783114048585
0.005626176908964208
0.00779432270537224
0.013545283221564631
0.02470657933847216
0.04447256306867884
-0.12125293856099743
-0.06313288142428701
0.03071751624379148
-0.028332307327017386
-0.03422792707826131
0.20877933211837005
0.08314101676762657
-0.04098841842464091
-3.2543863223307717e-06
-0.027526830274224985
-0.1443990667459933
-0.1515022330210056
-0.028315419050929266
0.061737188210201396
0.16062781165366988
0.10347250409146187
0.10912581481707702
-0.02318484160933852
-0.11061453116353079
-0.17900658286566246
-0.05446412315535689
0.04245356974061574
0.098551913587137
0.10688652860937156
0.06512153688948735
-0.02460507439743362
-0.15397248649783826
-0.10647548027046373
-0.05754963509177185
0.021539265998411515
0.15646931739370698
0.16188216525301
0.0361639921742685
-0.03843972515353226
-0.09019109281294685
-0.14903412393529103
-0.03816747467640994
0.030934773823513485
0.058881705229989985
0.055024549442820765
0.03257442073792389
0.00431256845851531
-0.019906152195466265
-0.033812756392182515
-0.03432246578139228
-0.02107285915222837
0.0034401241950576763
0.0331531153718552
0.057867049172798876
0.06388774430061155
0.03671555174882062
-0.03423333499982013
-0.1501313805609971
-0.09877658771849974
-0.05460139344170287
0.01610544314782925
0.1457112087122618
0.1545709049904333
0.043199029369507654
-0.00955394594499177
-0.04143908293467396
-0.09654052030080865
-0.013139903342595788
-0.013315662106373362
-0.09703168075464295
-0.04213164836651396
-0.010247982150043801
0.042777575801800395
0.1547147809333537
0.14662349110223016
0.01775734396706176
-0.052593664792765164
-0.0971786745126595
-0.14994654819219846
-0.036354955055915954
0.03200313998995102
0.05740151510799187
0.05176231046718325
0.030638067196548983
0.007803528742496893
-0.008041105772382992
-0.014090314287887356
-0.012275854959226106
-0.0070349610073797576
-0.0029086791447854392
-0.002647373078161926
-0.00621677747500754
-0.010858413497324509
-0.012173899851792928
-0.00602715475794712
0.009155359827148352
0.03034962702808417
0.049007420872436674
0.0520380853574794
0.025078623742252903
-0.042402799744861545
-0.15167472882813837
-0.0912586880669175
-0.03753483495553699
0.03978774067253042
0.16873457432403763
0.1659609644080177
0.03127173653025427
-0.05182847930982029
-0.10985068027291671
-0.17021253311189746
-0.05334474321917695
0.03083620288378478
0.08128789604907562
0.10077686543191507
0.0905998643805169
0.04810158341198863
-0.03161430084274386
-0.15060619639405604
-0.1023311740294248
-0.06851014359823608
-0.02094548484437258
0.07160679638335445
0.23384601106329092
0.0754642404306147
-0.012556978672073319
-0.05524819083661921
-0.08570293098994135
-0.1351504018770824
-0.024800212387644287
0.0379407566260849
0.058330009277068114
0.04962339390991038
0.02726602169855867
0.004123539323841593
-0.012045439428450926
-0.01879247796873213
-0.017560524002667912
-0.011638429922449471
-0.004355460200725169
0.0019838710653344526
0.006335489789745809
0.008549066819070403
0.008780692395930144
0.007056577937253291
0.0032220202093690554
-0.0026981724814650813
-0.009917270036915792
-0.016431561086410685
-0.019086945575610904
-0.014447857958614814
-0.00046838814626796934
0.021432550887937205
0.04468250565652142
0.057246664022692906
0.04351410444736021
-0.011469347091554371
-0.11631314758842132
-0.0680501487752123
-0.049667116139041956
-0.03205396290121902
0.019524995555623835
0.136145578522805
0.13615059088917741
0.01954635638141733
-0.03200179303104633
-0.049573375450650194
-0.067922156748701
-0.11618638108937436
-0.01140612551979583
0.0434419993322868
0.05699073088083516
0.044257294064762
0.02094639082953792
-0.0008121076617380366
-0.014396262585341654
-0.018434399239773837
-0.015149189882129844
-0.008270284007722622
-0.0012860544354568247
0.0035669205409332963
0.005544044751448402
0.005076197840049403
0.0032021494124854235
0.0010200161403848382
-0.0006779451654396851
-0.00154068458365941
-0.0016061562972060608
-0.0011468173806045952
-0.0004986453475315379
6.691070731135377e-05
0.00040385748183485455
0.0004911010155095187
0.0003931530304254539
0.00020857597983570388
2.6744581623858298e-05
-9.66481254175094e-05
-0.00014458658715675067
-0.00012983343262928286
-8.001314037066445e-05
-2.3539712894968856e-05
1.9533555312898998e-05
4.069666784190572e-05
4.1397163884764e-05
2.8931724888975154e-05
1.2022720854330799e-05
-2.425247066647888e-06
-1.0810781418142166e-05
-1.2745557727205696e-05
-9.995377378511514e-06
-5.138419402067449e-06
-4.6294423724302387e-07
2.6397679701017996e-06
3.7798276975572086e-06
3.3225415419695844e-06
1.9971461137453553e-06
5.35756189816705e-07
-5.559842799518449e-07
-1.0734008301771423e-06
-1.0660767522131577e-06
-7.290127551282854e-07
-2.884146222664681e-07
8.030390250131078e-08
2.885656233536339e-07
3.3035881327286625e-07
2.5378872928466516e-07
1.2620210439296716e-07
6.120080485275632e-09
-7.176887067801461e-08
-9.867287753096938e-08
-8.492738058965146e-08
-4.974756024763471e-08
-1.197537220676118e-08
1.5658781230550144e-08
2.826117698953977e-08
2.7422649919750627e-08
1.8341003571163236e-08
6.87550354131355e-09
-2.5231194911495853e-09
-7.68322023721905e-09
-8.552393224734886e-09
-6.435499580413196e-09
-3.089306867081867e-09
-8.716699106420693e-12
1.9432102904281282e-09
2.5723279626243157e-09
2.1682780182358592e-09
1.2364958634830909e-09
2.613503747499992e-10
-4.3715768249021594e-10
-7.428139774059097e-10
-7.045863376157435e-10
-4.606903397056462e-10
-1.6271295099877609e-10
7.656692451744385e-11
2.04093072574127e-10
2.2114241472699416e-10
1.6297237878065715e-10
7.534701685459848e-11
-3.592062267167156e-12
-5.241978636439487e-11
-6.696916528578698e-11
-5.529244010851969e-11
-3.0662540537927857e-11
-5.516892388916692e-12
1.2114039054589933e-11
1.9492346140051196e-11
1.8082676786939672e-11
1.1552084486608475e-11
3.817689890750191e-12
-2.266616721238762e-12
-5.409607541956646e-12
-5.711449508771266e-12
-4.121464398771106e-12
-1.8302445904445848e-12
1.902131681263664e-13
1.4093193020706933e-12
1.7412309647582247e-12
1.4082817942568205e-12
7.584713783678749e-13
1.1079792876902244e-13
-3.3356237143740015e-13
-5.107157434199951e-13
-4.635560118280034e-13
-2.891702782304785e-13
-8.866161221851968e-14
6.585235913945223e-14
1.430823278600015e-13
1.473294470837858e-13
1.0407312672596598e-13
4.424795510659662e-14
-7.405965658639744e-15
-3.7782616477328734e-14
-4.522410305425956e-14
-3.583317724807505e-14
-1.8720059988898e-14
-2.0571166167436914e-15
9.125055923442605e-15
1.3352447142302238e-14
1.1861070625709669e-14
7.216256937658774e-15
2.024511930304669e-15
-1.894379973144741e-15
-3.785878453419168e-15
-3.8047492679517324e-15
-2.632851515165121e-15
-1.0729357375540843e-15
2.4607279455629484e-16
1.0013496538580062e-15
1.1644171348838493e-15
9.019221924520283e-16
4.520099763685292e-16
2.380562046690283e-17
-2.571383518699237e-16
-3.572995109759868e-16
-3.1183958136082882e-16
-1.8841509886130034e-16
-5.4146303225080406e-17
4.511569420150992e-17
9.127512409923469e-17
8.944081857902477e-17
5.781099782739424e-17
1.719137904279492e-17
-1.6450206362982996e-17
-3.5186219802306374e-17
-3.8648535453923047e-17
-3.136695217280002e-17
-1.9557869593142725e-17
-8.56643402360908e-18
-1.5197638123606145e-18
8.335698378896286e-19
-5.165817396215087e-19
-3.789060585113635e-18
-7.25742856483009e-18
-9.768218097822314e-18
-1.0890182745144838e-17
-1.0783526978403258e-17
-9.93273338703315e-18
-8.876393946439602e-18
-8.019391101853352e-18
-7.555751476707192e-18
-7.485582614174296e-18
-7.686258397978038e-18
-7.995732297421814e-18
-8.277545174479872e-18
-8.45397944720017e-18
-8.508719908044026e-18
-8.469390509237288e-18
-8.38280336501109e-18
-8.293314479592283e-18
-8.229894454050589e-18
-8.2027451798662e-18
-8.207011649365045e-18
-8.229825685203392e-18
-8.257261490792882e-18
-8.27906648938419e-18
-8.29050930637192e-18
-8.291827408529891e-18
-8.286328193165525e-18
-8.278230191363429e-18
-8.271012998911708e-18
-8.266603632354461e-18
-8.26534583848751e-18
-8.266474378948273e-18
-8.268760938173192e-18
-8.271067213634885e-18
-8.27266680914357e-18
-8.273320466383177e-18
-8.273171764878856e-18
-8.272561748771867e-18
-8.271850059513472e-18
-8.271295960468666e-18
-8.271014357000643e-18
-8.270992983158315e-18
-8.271142931601346e-18
-8.27135452457287e-18
-8.271539142373985e-18
-8.271649123425659e-18
-8.27167758402933e-18
-8.271645588745091e-18
-8.271585317616407e-18
-8.271525949330562e-18
-8.271485664845636e-18
-8.271470017145964e-18
-8.271474837445671e-18
-8.271491105550895e-18
-8.271509544318962e-18
-8.271523606874088e-18
-8.271530515368176e-18
-8.271530742966648e-18
-8.271526672332317e-18
-8.271521151366375e-18
-8.271516434296564e-18
-8.271513696785023e-18
-8.271513065442318e-18
-8.271513963623008e-18
-8.271515549516966e-18
-8.27151707603183e-18
-8.271518088969187e-18
-8.271518461086574e-18
-8.271518311696668e-18
-8.271517878912429e-18
-8.271517401766702e-18
-8.271517045337881e-18
-8.271516876434876e-18
-8.27151687885497e-18
-8.271516988923187e-18
-8.271517132782487e-18
-8.271517253163737e-18
-8.271517321151587e-18
-8.271517334787766e-18
-8.271517309781425e-18
-8.271517268122077e-18
-8.271517228916165e-18
-8.271517203488034e-18
-8.271517194706778e-18
-8.271517199196862e-18
-8.271517210684116e-18
-8.271517223016735e-18
-8.271517232038624e-18
-8.271517236152433e-18
-8.271517235877919e-18
-8.271517232912343e-18
-8.271517229168771e-18
-8.27151722610027e-18
-8.271517224415749e-18
-8.271517224132202e-18
-8.271517224823525e-18
-8.271517225916111e-18
-8.271517226921898e-18
-8.271517227559133e-18
-8.271517227764465e-18
-8.271517227632486e-18
-8.271517227328234e-18
-8.271517227009851e-18
-8.271517226781806e-18
-8.271517226682032e-18
-8.271517226694532e-18
-8.271517226774175e-18
-8.271517226871465e-18
-8.271517226949587e-18
-8.271517226991218e-18
-8.271517226996777e-18
-8.271517226977781e-18
-8.27151722694917e-18
-8.271517226923397e-18
-8.271517226907457e-18
-8.271517226902708e-18
-8.271517226906523e-18
-8.271517226914564e-18
-8.271517226922775e-18
-8.271517226928531e-18
-8.271517226930939e-18
-8.271517226930478e-18
-8.271517226928346e-18
-8.27151722692582e-18
-8.271517226923833e-18
-8.271517226922809e-18
-8.27151722692271e-18
-8.271517226923229e-18
-8.271517226923976e-18
-8.271517226924636e-18
-8.271517226925035e-18
-8.271517226925143e-18
-8.271517226925033e-18
-8.271517226924822e-18
-8.27151722692461e-18
-8.271517226924465e-18
-8.271517226924408e-18
