0
8.1297139582448e-06
8.129433076448012e-06
8.12912645249968e-06
8.128930254801402e-06
8.12900526802031e-06
8.129471943479349e-06
8.130327627797837e-06
8.131376416740848e-06
8.13221353165839e-06
8.13230356469469e-06
8.131168516427142e-06
8.12865668444307e-06
8.125206817988348e-06
8.121974610680214e-06
8.12067929008505e-06
8.123083443195096e-06
8.130149548163277e-06
8.141101239325443e-06
8.152796635690126e-06
8.1599036994979e-06
8.156256728025221e-06
8.137411040765422e-06
8.103832334701084e-06
8.063517315522739e-06
8.032424004265216e-06
8.031228324028095e-06
8.077873039835252e-06
8.17713882301726e-06
8.310648560956476e-06
8.432482441981987e-06
8.475821450357848e-06
8.373746465389698e-06
8.092159135888222e-06
7.665636369221428e-06
7.220251441439792e-06
6.964550086840349e-06
7.134644879671003e-06
7.89385524522143e-06
9.209969230563388e-06
1.0757625676556896e-05
1.1908505318962467e-05
1.1865131849455569e-05
9.955698975426714e-06
6.038091741633854e-06
8.773726840645565e-07
-3.704701155726087e-06
-5.114135437320849e-06
-8.148362402476965e-07
1.0387949075007244e-05
2.698028010781621e-05
4.391341257192327e-05
5.304020412983299e-05
4.533177182376705e-05
1.4815304162026437e-05
-3.670858852594527e-05
-9.604131809865939e-05
-0.0001384751043273637
-0.0001332891781850251
-5.539951885175534e-05
9.90073319579657e-05
0.00029824845426596825
0.00047015461972864153
0.000514136055631833
0.00033425726628995116
-0.00011078448120883
-0.0007555950749986141
-0.001398379108689988
-0.001721206647574739
-0.0013792565913439607
-0.00015506955823498328
0.0018605150832452268
0.004134485526019064
0.0056982398598867424
0.005373035285175743
0.0022303566586022797
-0.003803329340825461
-0.011412106304773803
-0.017732155737098205
-0.018869604584318144
-0.011240790932655162
0.006430443453425196
0.031028134033464428
0.05379115709298525
0.06089976856790029
0.03654890934227541
-0.03171717794548466
-0.14682769490773231
-0.09758639671834536
-0.05819645305092047
0.006716074050228163
0.13236678986067948
0.1423211794714511
0.03927151776413647
0.001488449903568458
-0.013653079460526995
-0.060042768445674424
0.010236380095891494
-0.0398598629989281
-0.021985094932832547
-0.1173122790707541
-0.07823710239756447
-0.03726493717408866
0.07813838553475354
0.12784137634766654
0.14305077019315202
0.11674650112155167
0.003737852077550943
-0.06929851728483036
-0.18652912869772673
-0.02327776939571023
-0.029119137335845247
-0.017505661973579344
0.03655251373350357
-0.008814261252841958
-0.07368224011410775
-0.07166165249775135
0.0731921678988495
0.2108586790122619
0.154809151534941
0.07975305866991445
-0.07096686703309658
-0.1702531832452078
-0.2894179742872601
-0.08382840147407881
0.01334896148379046
0.18847277442856877
0.23915773560069056
0.16613736312149643
-0.029667806005760824
-0.14312865279135117
-0.1563931812866289
-0.23121831387578143
-0.10762210712933988
0.08826977131413814
0.22844047270064785
0.16431821418431586
0.11193791953482905
0.04631493883003277
-0.09312607634606111
-0.1882370627432995
-0.12389808859564651
0.0286459903480458
0.022960257785961096
0.041928790154234556
0.09673927068288976
0.022434514280069363
-0.128281359258474
-0.09238360722944551
-0.005258889735656944
-0.010892828678855196
0.12765732725153706
0.2201122431258324
0.04625735980349251
-0.03933496553903222
-0.09569923179002449
-0.18035238334990625
-0.13558030200243568
0.01949047452231534
0.08906784343142989
0.09422103623947824
0.06311753803778973
0.02181672665909654
-0.011675426505409375
-0.029235306238542265
-0.03107359456616046
-0.022380174648854067
-0.009771280213077582
0.001340768433652344
0.008007183374753047
0.009759384616745002
0.007842086368895489
0.004193117043290322
0.0005822792824514986
-0.0018804097286806978
-0.00284952597071366
-0.0025717093243107004
-0.0015916113695892357
-0.000472756976653083
0.00038504386395002465
0.0008102162757008533
0.0008290933938258241
0.0005850214393757428
0.00025068868412153557
-3.649700053272704e-05
-0.0002042965252948056
-0.00024423044683397164
-0.00019080594181168376
-9.496889655879082e-05
-2.180192728530864e-06
5.974581074925992e-05
8.283365541954447e-05
7.414768817143015e-05
4.806568408732012e-05
1.9109551710766837e-05
-2.6359031051567902e-06
-1.303810158275621e-05
-1.3019314088831558e-05
-6.412623659770818e-06
2.3023546083523893e-06
9.633777051651466e-06
1.3803646599676562e-05
1.4672807930533616e-05
1.3182456608531965e-05
1.0663879459483058e-05
8.280060186373255e-06
6.724842764797516e-06
6.1788701184438246e-06
6.441733913230548e-06
7.1344123044825525e-06
7.883056374954044e-06
8.433665893552767e-06
8.687277256382507e-06
8.673883909587369e-06
8.495722710318481e-06
8.268861679416023e-06
8.081927398916965e-06
7.978547171961808e-06
7.960271412682068e-06
8.001543396799976e-06
8.06762389680219e-06
8.128796131358994e-06
8.167787661773405e-06
8.180586052134366e-06
8.172820163967863e-06
8.154464059918637e-06
8.135131014246672e-06
8.121208353678127e-06
8.115050492321681e-06
8.115725897992729e-06
8.120514368176302e-06
8.126412167385859e-06
8.131172798730319e-06
8.133729414259861e-06
8.134094245920012e-06
8.132958487135856e-06
8.131227404959444e-06
8.12965943390486e-06
8.128683602726413e-06
8.128386730328943e-06
8.128612033833798e-06
8.129097482941793e-06
8.129596160920832e-06
8.12994770887841e-06
8.130096540394658e-06
8.13007069591308e-06
8.129942386116308e-06
8.129789252788499e-06
8.12966816350499e-06
8.12960510844104e-06
8.129598436047266e-06
8.129629519777787e-06
8.129674800577356e-06
8.12971494471162e-06
8.129739320719362e-06
8.129746118564357e-06
8.129739674283342e-06
8.129726860685594e-06
8.129714012578552e-06
8.129705149001479e-06
8.129701570479035e-06
8.129702451889806e-06
8.12970588042755e-06
8.129709851527135e-06
8.129712927638079e-06
8.129714478246375e-06
8.129714580091055e-06
8.129713733487949e-06
8.129712550755053e-06
8.129711524142622e-06
8.129710916434384e-06
8.129710763280703e-06
8.129710945500844e-06
8.129711283110913e-06
8.129711613777292e-06
8.129711836951105e-06
8.129711922525673e-06
8.129711894347984e-06
8.129711802963286e-06
8.12971170004905e-06
8.129711621892467e-06
8.129711583742694e-06
8.129711582801947e-06
8.129711605742927e-06
8.129711636736128e-06
8.129711663287174e-06
8.129711678864084e-06
8.129711682680584e-06
8.129711677767414e-06
8.129711668593225e-06
8.129711659176521e-06
8.129711652118633e-06
8.129711648512205e-06
8.12971164837953e-06
8.129711651213573e-06
8.12971165629826e-06
8.129711662696502e-06
8.129711669023076e-06
8.129711673280706e-06
8.129711673069183e-06
8.129711666350736e-06
8.129711652687829e-06
8.129711634534391e-06
8.12971161788402e-06
8.129711611514606e-06
8.129711624355168e-06
8.129711661183371e-06
8.129711717826416e-06
8.129711777969628e-06
8.129711814101639e-06
8.129711794544243e-06
8.129711696636706e-06
8.129711523144456e-06
8.129711315669172e-06
8.129711156703599e-06
8.129711152722644e-06
8.129711395634995e-06
8.129711909033282e-06
8.129712596910509e-06
8.129713221550094e-06
8.12971343842069e-06
8.129712903967114e-06
8.129711445487102e-06
8.129709245411444e-06
8.129706957530363e-06
8.129705658386423e-06
8.1297065621138e-06
8.129710501953151e-06
8.129717298532636e-06
8.129725260513602e-06
8.129731140520714e-06
8.1297308323363e-06
8.129720896021437e-06
8.129700639910243e-06
8.129674056658552e-06
8.129650574515027e-06
8.129643565892751e-06
8.12966604651243e-06
8.129724053979563e-06
8.129809622026564e-06
8.129896578154531e-06
8.129942874463042e-06
8.129902095056877e-06
8.129743795336785e-06
8.129477775895433e-06
8.129172612161153e-06
8.128955973896814e-06
8.128986007366372e-06
8.129391087441333e-06
8.130189271854381e-06
8.131215370528603e-06
8.132095991589536e-06
8.132312708999894e-06
8.131373370161215e-06
8.12906988772131e-06
8.125745669137747e-06
8.122446483822137e-06
8.120812761309445e-06
8.122616316456045e-06
8.128963426470816e-06
8.139363338397805e-06
8.151043155428179e-06
8.158989744628139e-06
8.157119998944366e-06
8.140657658555246e-06
8.10924567455424e-06
8.069687216233249e-06
8.036748956193148e-06
8.030506045535922e-06
8.069529914127796e-06
8.160863120585933e-06
8.289856935126293e-06
8.414800208014866e-06
8.471767527109066e-06
8.393228995054177e-06
8.139238054847293e-06
7.733128116500483e-06
7.2867430758610045e-06
6.996692806563558e-06
7.096660984116073e-06
7.76376023850153e-06
8.998412190535236e-06
1.0521582730183087e-05
1.1750090409780053e-05
1.190747248788664e-05
1.0294453652763697e-05
6.678363787932173e-06
1.6786342291495859e-06
-3.0438833167456666e-06
-5.000942438715492e-06
-1.622910137632061e-06
8.522110139513867e-06
2.436223641514774e-05
4.139678155163218e-05
5.1924091421215765e-05
4.6979123462500266e-05
2.0018277043963458e-05
-2.845031906438405e-05
-8.702418411641965e-05
-0.0001327024358169285
-0.0001354890227855296
-6.911522072782975e-05
7.38509919124507e-05
0.0002674084985174543
0.0004455305567027144
0.0005114707682462435
0.00036760922938391325
-3.694756464590518e-05
-0.0006541655373480657
-0.0013033332072511874
-0.0016830999143512787
-0.0014499343860448826
-0.00036286712265912657
0.0015383837487469914
0.0037903800729899607
0.00548898975518204
0.005480146058580894
0.0027850456040103555
-0.0028136652166466675
-0.010220560770055084
-0.016804399807319445
-0.018807791036437954
-0.012563803073577313
0.0035934907264437866
0.027228950632473426
0.05038150122556319
0.0598112611809409
0.03962625427296051
-0.023795701709532473
-0.13581266939825093
-0.08868852683201177
-0.06039343739867764
-0.018515509063981063
0.07121554832658053
0.2344288191813019
0.07954443856047438
-0.005315896775315144
-0.04846510098144158
-0.08523286012371126
-0.1466286800752646
-0.05032589205235362
0.0028860944941762837
0.026211851280781764
0.03889424968801897
0.05621130390087298
0.08098625124013571
0.09969622819091441
0.08502041744286398
0.004826387224378269
-0.1646369808854897
-0.2256556614357032
-0.15138428562058923
-0.08788193761376588
0.03303873255081102
0.27332391574900944
0.26736275226899864
0.2079467375204007
0.04565991102012842
-0.096883433631675
-0.30024345366415306
-0.22138711961369037
-0.2746101245675767
-0.02717309104451034
0.18870839569336292
0.2519462617300904
0.2254787551331825
0.13552676074209474
-0.036157557074206
-0.1455093571291516
-0.06826888985202202
-0.0774025484199624
-0.022588119356121258
-0.11695370294519833
-0.13394065498021918
-0.014788547383278372
0.11526141161818608
0.12633056963088293
0.26480676974483536
0.14173764851745627
-0.06758369268916552
-0.2130801781976127
-0.15270998956699114
-0.13520078252936274
0.011431286725924182
0.0827703044510162
0.09316845124682625
0.06662499571200517
0.027431692731848773
-0.00641700310450404
-0.025871942919337754
-0.030007307427598537
-0.023142629400730936
-0.011483400517463068
-0.00045746058871774277
0.006704147871694571
0.009170060496281574
0.007885170549429502
0.004621579530223371
0.0011204527921262293
-0.0014407911788786006
-0.002609359894285012
-0.0025325970136195475
-0.0016918679618463392
-0.0006299023580832079
0.00024092663513155697
0.0007192952149792462
0.0008001905874990443
0.000604376511148791
0.00029454485319025715
9.187302907999599e-06
-0.00017170072339633264
-0.00023008037831456058
-0.00019273957061639727
-0.0001064763867135622
-1.6157142709094496e-05
4.856468082928672e-05
7.690809359009692e-05
7.339525947096381e-05
5.082111874496445e-05
2.322533057153235e-05
1.0572127212492391e-06
-1.076402895053949e-05
-1.2352239019790305e-05
-6.970369290063138e-06
1.143536881493885e-06
8.455987022941445e-06
1.2981117677671757e-05
1.433155268195967e-05
1.3252134342428855e-05
1.0971842750639199e-05
8.642763746211415e-06
7.009079985304012e-06
6.32482347365808e-06
6.45467580360256e-06
7.059157436201999e-06
7.775466201871459e-06
8.33917268112781e-06
8.630545812661165e-06
8.658744074994023e-06
8.511622214447567e-06
8.299434123340806e-06
8.112229226078068e-06
7.999198225698789e-06
7.968346473715213e-06
7.999128858984244e-06
8.059342798068699e-06
8.119444796772627e-06
8.160771385507466e-06
8.177342004780597e-06
8.173045557744597e-06
8.156793763236129e-06
8.137910354600792e-06
8.123113800293863e-06
8.115445379853965e-06
8.114744181287469e-06
8.118920707787294e-06
8.125300516349497e-06
8.131564260788266e-06
8.13613911858209e-06
8.138166504307692e-06
8.137306867149877e-06
8.13362897134577e-06
8.127701327199821e-06
8.120821126370591e-06
8.115157907297158e-06
8.113527632675795e-06
8.11859740617e-06
8.131558479503756e-06
8.150642569182205e-06
8.170175979405186e-06
8.181002730871325e-06
8.172898321308535e-06
8.1389534705612e-06
8.080906211784848e-06
8.01333030708147e-06
7.963935559167334e-06
7.96756279444618e-06
8.053167072376867e-06
8.226134110235084e-06
8.451939679531936e-06
8.64998937599945e-06
8.706587831302698e-06
8.511751622230633e-06
8.015563939280043e-06
7.287640206278571e-06
6.552203161306726e-06
6.1673233672212806e-06
6.52614680326075e-06
7.883504968955514e-06
1.0150047083469877e-05
1.2736499042859105e-05
1.4553896747360138e-05
1.426021148569745e-05
1.077483956899075e-05
3.962882935727246e-06
-4.749453534150068e-06
-1.217160925337186e-05
-1.3896947948338638e-05
-5.768580835924665e-06
1.3927081425702294e-05
4.219767481653336e-05
7.008809504678828e-05
8.363278200938711e-05
6.782998539234994e-05
1.343346985642663e-05
-7.51500933711981e-05
-0.00017410826519118812
-0.0002406943987681194
-0.0002233041192129336
-8.176592047887322e-05
0.00018622497846099227
0.0005219906725180463
0.0007993900260074188
0.000847822742556319
0.0005104950115976986
-0.0002702998832258555
-0.001367230515338399
-0.002423267170772769
-0.002894271125639782
-0.002208451663352263
-3.1875176225978054e-05
0.003429380289095168
0.007218245912779916
0.009664016706736504
0.00879408185581606
0.003134633490903579
-0.007268773683936806
-0.019987926728235697
-0.030027919228500916
-0.030820002890521732
-0.016612195771773218
0.014056129929111018
0.05478236399978141
0.0891728257128332
0.09179630382351388
0.033202790936215615
-0.11144930722435481
-0.15242340918930639
-0.07766133345556343
-0.050739552295168154
-0.016291844303916583
0.0879401508958792
0.11565403376189481
0.09765588684298603
0.03299130614532078
0.08831137108620739
0.0058636431275152934
-0.08197091783228175
-0.2356518619456218
-0.09399324850750315
-0.06664665423392532
0.06436257201247791
0.13527389744644333
0.18744042096580985
0.055445941773639665
-0.03961937015521128
-0.09054982467011284
-0.09976891186636888
-0.0737283347776161
-0.019044616198326206
0.058173010541684916
0.15040952223956885
0.046309723283758326
-0.07005802978374241
-0.017162512266116075
-0.01173764162203599
-0.06387710394594669
0.02683417246732703
0.07306864018068435
-0.10100654853757463
-0.06296661636337882
0.022376968425429536
-0.014241189997983501
0.04576162204582131
0.20268229953967912
0.03625939782764413
-0.09120989761024792
-0.026578691897964035
-0.01455277757409802
-0.08667472541447108
-0.053757099582411885
-0.10393051640504898
-0.007010420919209224
0.07588033757954295
0.18030466760997108
0.12817861821943702
0.12293293852086697
-0.0480127007934721
-0.20485160242442155
-0.3655087483309087
-0.13995195597576535
0.06738411893965018
0.24761071935313844
0.3754631421621474
0.403824580218995
0.07150600371593986
-0.2747072456706258
-0.45049755674358577
-0.6097538104428357
-0.4392674336460072
0.01972563236970473
0.5260851889132867
0.7839551125952223
0.8002129148164469
0.4740402212123788
-0.37270979159898526
-0.9324342267247164
-0.939242519278975
-0.6163043388707298
-0.26571423750668477
0.49353619157823725
1.0538582088523154
1.1424081983715322
0.37080041902068983
-0.16838413027167493
-0.6577988118649603
-0.883619944725292
-0.966137350218762
-0.12043395970095415
0.3389791637620379
0.7547506200733892
0.8654364850511156
0.352974710338973
-0.1809256039910838
-0.40374223005622034
-0.4157957912581279
-0.5068519880496632
-0.12382872097283996
0.1395826017228917
0.33094472550746246
0.3131629745375653
0.13706881978966864
0.023276603276579187
-0.04144435894446151
-0.09434631449596044
-0.17903869982372264
-0.12737425747615516
-0.1474834431054326
-0.021864194814464714
0.08429365735431472
0.2080823060318187
0.1732022485681303
0.1800393777024206
0.005742873907452704
-0.18541703282397948
-0.22539908600547373
-0.12616684577715753
-0.070522219482634
-0.013801455276922411
0.10391514588551114
0.1391288334909868
0.12587177085316856
0.06232569052957261
0.10726576076127946
-0.012510590316982524
-0.18578243250400472
-0.09605317364950465
-0.001895116709081766
-0.12349094915152597
-0.03831797367276422
0.1136028964549776
0.016678995042025514
-0.037808657016226446
0.029969613390349707
0.07275153761090998
0.10607614189349
0.10585137959670386
0.014591166947586014
-0.044538282069666854
-0.14894427339066382
-0.1579022698137263
-0.09902685705088261
0.03645611872654312
0.0888431871777121
0.11769552661842976
-0.013764799964892617
-0.05349150106784712
0.028202276209915143
0.03259887432481895
0.13234868285973897
0.07734760500964412
0.00628895190726138
-0.13801384099335529
-0.19325668012284591
-0.1670281589767552
-0.03503457682636278
0.05045153040959724
0.14427894304720612
0.28975114051075285
0.10423697871834907
-0.025826342301461077
-0.13905179489124983
-0.08498580317002859
-0.10710794303640624
-0.028583581640947774
-0.044687617979963914
0.07671876749411598
-0.012424739591106236
-0.052715794355256404
0.008680601031682509
0.2054399227447946
0.14393964359668018
0.00199824808440611
-0.06474419885090425
-0.11063046788644429
-0.1861145669490176
-0.12705228696043486
0.049388498116744256
0.14164728864711992
0.1561151913924634
0.09934388311727811
-0.02584466303438206
-0.0186496481949892
-0.07422458318073069
-0.1766278198622353
-0.09474701081663088
0.015892800277123562
0.0048168555744130485
0.11387915768867521
0.16429867549014343
0.1482205275375327
0.028416992273384574
-0.05289968045715833
-0.15847980380311474
-0.13865469767766017
-0.21805069035218902
0.009091597249061377
0.17365516485087887
0.11884793694030442
0.08493893264553577
0.09696732241104535
-0.04100821908345945
-0.14446088071604446
-0.04162310383492421
0.035538487632276836
0.05988323868878751
0.015684073103548555
-0.09732119882707001
-0.06283328309744278
-0.05044407004721188
-0.021901705931133424
0.05967470250257057
0.21993917693794646
0.06603969060486395
-0.015255263768665928
-0.05304963479768952
-0.08299418339428954
-0.1365976155112615
-0.03298035197070899
0.02431742244234338
0.04494811578136461
0.045315636590017416
0.04081197815141697
0.03952925669297173
0.03944460954654156
0.02986972380946301
-0.003330979714094377
-0.07044841728765223
-0.17117331200778432
-0.09125510955461534
-0.004636771355497355
0.11885918609384556
0.1026939289308432
0.1537522271283224
0.05758367887387358
-0.018938989141968846
-0.11805668374673219
-0.07782423895147503
-0.11965292921388838
-0.04094518235534942
-0.015278553390657857
-0.00011820805512922743
0.05029911054801402
0.1708811977934893
0.17492861765295975
0.05050124727884393
-0.03448138033955223
-0.11994875667613017
-0.23870500845355888
-0.20465974914898552
-0.009118977626222808
0.17328159009212146
0.17163871968556138
0.20462777967728188
0.07136355695343807
-0.048943201260007035
-0.1887850833424691
-0.17952239290498392
-0.0394533154889711
0.032667859647195215
0.05697820249659762
0.06607756472318266
0.09596782531644804
-0.022406203193707962
-0.06892639445569834
-0.03683306636095505
0.06743367693721065
0.026309866493594725
0.014670354941464469
0.004646386750900398
-0.028848719681121536
-0.10300753627621215
-0.023878262778909295
0.013860468937170236
0.023852574264618457
0.02265217566456815
0.0236663831058854
0.03233360160192332
0.04402569896369314
0.04546152781095589
0.01953672895706794
-0.047552922922731305
-0.1590498684420227
-0.10302981909129282
-0.05292962867110203
0.025902065636634646
0.16519157453610103
0.18205869676013467
0.07129225381211461
0.005019477226297213
-0.05961609940188697
-0.16734370732504186
-0.15091927324045015
-0.021432656106449104
0.03408383598344315
0.04744157595067984
0.05881868424433247
0.10476593772306038
0.00835327881403808
-0.026068031958464934
-0.01266271701866238
0.020883057087015423
0.041641651553286765
0.021214461332757183
-0.05495507981948682
-0.18098429679254496
-0.12912691001665888
-0.05536224432845208
0.08808004028204801
0.13616272890534184
0.29580811436635174
0.1380100975424722
0.0014539101580377852
-0.19216252204824677
-0.1154259324475498
-0.21245668029966222
-0.08363005100709604
-0.08278504598110113
0.07206817403250287
0.07762000055626729
0.21980856792090767
0.15130965473284855
0.07823775061257596
-0.04057998491135254
-0.08227845103763727
-0.1405794192306688
-0.10423001208089079
-0.03889418244935117
0.023787883559238884
0.08892287780430158
-0.005878011778646093
0.0007153300466421226
-0.01717478792738125
0.016071593047932594
-0.0328724103635219
0.08513538661734762
-0.00401492349496387
0.10035532222469637
-0.024026235475267076
-0.016290437252101563
-0.12392909742829412
0.005916604893083046
-0.06681772683160332
0.028279256229315052
0.07215446392518357
0.05416610368120318
-0.03057696291778707
0.01689716685160345
-0.0012508059462441184
-0.07953225344511149
-0.008992601569042935
0.02220502732634672
0.027250207088501784
0.01860669919223206
0.006136683067146504
-0.00393502451327494
-0.009005965775477217
-0.009247890897165515
-0.006372692561418895
-0.0024609756490186607
0.0008497531605735492
0.002720604550055769
0.003079422446055852
0.002359253294415658
0.0011752622260009747
6.411670007076212e-05
-0.0006557880709582455
-0.0009042034137547841
-0.0007770066104392322
-0.0004518346853157667
-0.00010276718723476646
0.0001526067404028598
0.000269093965547166
0.000261398543444733
0.00017754003474294757
7.16465464558886e-05
-1.5165264930608648e-05
-6.283143692518766e-05
-7.086444936797251e-05
-5.131505045638488e-05
-2.0409368333962256e-05
8.04451360278362e-06
2.607441390938753e-05
3.188681516182918e-05
2.815696223145376e-05
1.955329914616564e-05
1.0549371278057384e-05
4.099983121008849e-06
1.2771653140451845e-06
1.6271915129180456e-06
3.872735521768552e-06
6.61458592281206e-06
8.814162707093323e-06
9.986461016431972e-06
1.0148902652652881e-05
9.63088058104394e-06
8.85396861021653e-06
8.162177599972571e-06
7.73787260196684e-06
7.600218477916886e-06
7.659048733643713e-06
7.78935042530324e-06
7.896165432431924e-06
7.950731831276643e-06
7.991081212005543e-06
8.091158581980199e-06
8.310885190903797e-06
8.645337447375494e-06
8.993892982385924e-06
9.16834978667632e-06
8.95067913406046e-06
8.19517455904414e-06
6.9480836138138455e-06
5.536354520412339e-06
4.565899367444621e-06
4.780157923375039e-06
6.769505409527134e-06
1.0589135185719833e-05
1.542070397322157e-05
1.9469386030397108e-05
2.0282983704918283e-05
1.5580165693178717e-05
4.47478895976511e-06
-1.1277270816122461e-05
-2.6610072593114006e-05
-3.37233134479754e-05
-2.4339775165447217e-05
6.491994536363341e-06
5.602693817981792e-05
0.00011070890757801247
0.0001465761982111123
0.0001350304276486563
5.4238724928228386e-05
-9.618021986900063e-05
-0.0002825175397636365
-0.00043379930793630223
-0.0004551315505995678
-0.0002605739166061596
0.00017933002288678557
0.0007902939619378533
0.0013707684482408527
0.0016175583551312676
0.001216514508045574
-8.583009391837326e-06
-0.0019285356461328528
-0.003994475115055896
-0.005264450753433857
-0.004640554340357848
-0.00132432660175306
0.004602347999245863
0.01167490645194453
0.016898929132685377
0.016209859594400685
0.005625877899834451
-0.017120630421705786
-0.051038570140070634
-0.09120696634626271
0.07038264654284014
0.042462501037156014
0.03146473285412853
0.03922547993339638
0.0625700158989442
-0.10496099227648352
-0.07007808422722138
-0.03699843078918041
-0.006551640099100383
0.022227159116075885
0.04871137397258876
0.06721758760242709
0.06543014286559043
0.026108021984232725
-0.06775603003949919
-0.025618972335510772
-0.042350603558083316
-0.09426609813036162
-0.14047362825864992
0.06950091242559672
-0.017324120821642388
0.027043456125836692
0.19793180252865206
0.25130952037584253
0.10815738261681868
0.07146001951540779
-0.1467073873421205
-0.39497593094637923
-0.2593056353373362
-0.25614004894368325
-0.04776044296462041
0.1212881109330096
0.37503600636265705
0.15759125176649738
0.19988248689463292
0.313301679283856
0.41609889915879544
0.19114237512903168
-0.234383885979081
-0.8050497291461381
-1.0729976291934429
-0.7777633110336554
-0.2852847288682699
0.5166170939896108
1.2902358263246037
1.7273347750057257
1.0782582916445769
-0.24146233751780252
-0.9675918369676157
-1.6582522184250612
-1.770496795538537
-0.991705242693109
0.7479452601844188
1.7911828484516086
2.0394350975057236
1.4646896027648397
-0.5092287734625718
-1.5465613042500057
-1.689558638463371
-1.050365796176136
-0.5537302331165955
1.0460604319074438
1.2841516343158421
0.875566288534121
0.21963891705113006
-0.25092716698842277
-0.4675573683644508
-0.2806958443363572
-0.19268917060250942
0.11134457097697327
0.22117226108605673
0.041106483914080436
-0.39091000839979273
-0.5067621365750122
-0.23621227546300003
-0.058924198360350497
0.5267541959179972
0.7334480566172547
0.6326925557281085
0.1384299650077188
-0.16686924268924788
-0.5705828820093575
-0.5520277774295204
-0.5123958003433746
-0.13275788369053615
0.23028849975440177
0.3146453697770604
0.30193252602472354
0.3636022560640403
0.019374828045329546
-0.08325318915071238
-0.16758855245915955
-0.10980345500606324
-0.012691040952839667
0.021218065537786563
-0.08812105507811417
0.016442104973165075
-0.06471510290010751
-0.09070594673534506
0.009321488118342715
0.11989980535068234
0.12050402659440043
0.06830288515670166
-0.014206419609567417
-0.1450592787602035
-0.18263465260068687
-0.020929619235712498
0.21893601328803206
0.40228255436607663
0.40229665697806355
0.13074145717337315
-0.8258307719706555
-0.5752546611330803
-0.5096242840147014
-0.32842634866322057
0.10303548816132492
1.0721896875131436
0.9388541531814455
0.6838793260712508
-0.0929020169772724
-0.5221697958658881
-0.7782179909539924
-0.7847592046774715
-0.5436357790309255
0.29374854522251914
0.6093718189919566
0.5691528187697711
0.1630418408171677
-0.0450201648231056
-0.14597590989257803
-0.09245447469660208
-0.08939426847315347
0.023680632990996642
-0.007796425562476712
-0.03630402385890956
-0.0998824217472631
-0.015761506230389466
0.01977274184215222
0.026127843463105
0.02977231956640714
0.05492132993385432
0.11620879117850981
0.01529288074919244
-0.05793353900078059
-0.1204381260154374
0.010328782890867113
-0.07827987242693459
0.008335092090284506
0.07132633822180157
0.11562923645320876
-0.053159859953724145
-0.03080767435325893
-0.014909769909752821
-0.0042989575133253865
0.0017844226722833305
0.004221346821440873
0.004127431722626154
0.002691543052989904
0.0009377077599004875
-0.00044586592401770213
-0.0011533374945331023
-0.0011974879943241297
-0.000786805996887909
-0.00019791388119216012
0.000320321704204647
0.0005993998576249038
0.0005682860338058496
0.0002506840389473602
-0.000245284912083024
-0.000742812590327716
-0.001025057954255532
-0.0008870738643243403
-0.000213678580968966
0.0009312817704791631
0.0022394171932127406
0.0031646897834192605
0.003046217570292975
0.001358542929518859
-0.0019567371020552597
-0.006193040243270496
-0.00978183901265035
-0.010563850610894234
-0.006513337760816421
0.003169967871773818
0.016911179463677834
0.03005989413824926
0.03520193184086622
0.0238510392747226
-0.010599999150379496
-0.06948010162658876
-0.14642167806797296
-0.02746211482899032
0.10557531164267563
0.06921845664143988
0.0723103187874712
0.11255494628928775
-0.02258903907355129
-0.15084134723909998
-0.08800878806196052
-0.042068627822285515
-0.011146337815622511
0.013657527804864325
0.04172188905792236
0.07526237377005954
0.10373332763492367
0.10296035861841078
0.040331414237828794
-0.11470684511543479
-0.1779037132003665
-0.1398755222578968
-0.1627900203813962
0.013469904750744678
0.256780843654851
0.22461232713394558
0.14882774494016185
0.029035404168527446
-0.16361532678065138
-0.2748443523547731
-0.15359265803792171
-0.04212420994887857
0.22722153506646903
0.22993825085698386
0.14625985069988565
-0.038567578513021866
-0.12919147570370457
-0.3127412850270352
-0.15415780966199696
0.0011158569689944681
0.21577152382138914
0.1437059046761433
0.21368638908305565
0.01984378440216503
-0.07755056195170933
-0.141588976462474
-0.042391130889158926
-0.040099456766408956
0.028413847125590728
-0.043368379624693865
-0.03142377283137281
-0.08739219644509728
0.050171889016477525
0.04167851530043025
0.13259186564461564
0.14327244658531696
0.06553285542622633
-0.13297171237790362
-0.0980038045440061
-0.0753790635470985
-0.0994227036117338
0.013413243843242365
0.06467181753141658
0.06894129778834308
0.0464843529421487
0.016310304052733895
-0.008324319496304794
-0.021358556853209924
-0.02285467303423642
-0.01656595294658054
-0.007333489422854904
0.0008553744281727151
0.0058080174488969825
0.007153216508728484
0.005786862106435534
0.003125448921477156
0.0004716351183435153
-0.0013512419627206488
-0.0020805532628863166
-0.0018907421826836472
-0.0011786207168254003
-0.00035807008136584466
0.00027524108529742403
0.0005926219013078836
0.0006111591409805727
0.00043484922179872745
0.00019024856368018267
-2.1279759944527788e-05
-0.000145926366171915
-0.00017675341982930498
-0.00013864184346841466
-6.883685769614053e-05
-7.747901423156271e-07
4.496661953909816e-05
6.238013921924129e-05
5.6552937337644436e-05
3.7981653727553476e-05
1.7259385139094287e-05
1.6640459822964952e-06
-5.961875156406368e-06
-6.495989834284492e-06
-2.8450267192701653e-06
1.8565011441903925e-06
5.539223417501885e-06
7.70039181386075e-06
9.135306531558582e-06
1.1134803008967494e-05
1.4501248367045763e-05
1.8766693241806323e-05
2.195231965377288e-05
2.1083376815416192e-05
1.345912551178478e-05
-1.6162080142789342e-06
-2.1250251447532634e-05
-3.835656842207717e-05
-4.2828871833653425e-05
-2.48898569164611e-05
1.98130068216264e-05
8.487620114105035e-05
0.00015005776644771025
0.00018325085911191462
0.00014945637948801603
2.6381241846701682e-05
-0.00017718563722517077
-0.0004076629715274657
-0.0005670919894365313
-0.0005356631475516797
-0.0002180781983847485
0.00039527772483126394
0.0011739228982176777
0.0018303940592291452
0.00197104311305803
0.0012288400638356463
-0.000539574659458552
-0.0030523321217135195
-0.005493034063253623
-0.0066015440730249906
-0.005037597614491547
3.173885826565107e-07
0.008050472849982874
0.016839297219355738
0.022254839710778296
0.01911351866163178
0.0027325000067283107
-0.02909669943237857
-0.07457986172805403
-0.1278985830157632
0.01857774444021572
0.17018754383918416
0.12578161640962573
0.07610972511370091
0.006780796084474619
-0.09443270083584433
-0.22881208830744598
-0.18089739101961202
-0.11969534010771532
0.1917734760363222
0.18124595705124824
0.2523954428168093
0.17745839939199762
0.10205482724396243
-0.23778192943846782
-0.29164821700769844
-0.27283216674419536
-0.14758654140003577
-0.04120697243377609
0.13955253689521432
0.27429745530964356
0.19753832780863384
0.2789563415361752
0.22337493416844545
0.09281364556617276
-0.2538296177501833
-0.5143696641339041
-0.5051488078737125
-0.34548731382102127
-0.07301061240002854
0.3123145714630825
0.7885861227514345
0.6570701765313492
0.3119891861589179
-0.15352124594674213
-0.5076126436147352
-0.7216193535121759
-0.5159010627567561
-0.1292566398382878
0.2790206183415726
0.5990118880783116
0.5271851525375756
0.1289524367110564
-0.17988536599733854
-0.22946973959473038
-0.2761936027486687
-0.17797703594411765
0.025435947388496877
0.12180541703092118
0.1254375114448872
0.06972580998101312
-0.002146913373709909
-0.045106800537233184
-0.017692844707863215
-0.08587804992565073
-0.026481893268878325
-0.030971099291096683
0.09065380343696557
0.10739767089562204
0.16845427032620688
0.00985559659454769
-0.033323214797314135
-0.21167987841888067
-0.14781522629697944
-0.22954472558173836
-0.01352416366982512
0.16085550906050294
0.35173290403224783
0.1965826049143685
0.10283816804896426
-0.14894051239032743
-0.19106499275532157
-0.25024069823248485
-0.13265072991038312
-0.018777390243379797
0.1301680225665687
0.15707272182748241
0.09107766097220958
0.13373703774078635
0.05404232229254717
-0.006023570244797416
-0.11713617590039602
-0.14390801815472873
-0.1275012603650644
-0.07472704836733254
0.04345789404630014
0.08425723938083028
0.11913036705260717
0.01810249800747062
0.036435370325642924
0.006245252061901396
-0.06627841767930796
0.0010772025139772646
-0.028395322379804255
-0.0038001152114280883
