0
-0.00011629862091953194
-0.00011629862060934124
-0.00011629861982655325
-0.00011629861868263024
-0.00011629861753170462
-0.00011629861693690928
-0.00011629861751416558
-0.00011629861965928606
-0.0001162986232251527
-0.00011629862727908568
-0.0001162986301065208
-0.00011629862960214843
-0.00011629862408064825
-0.00011629861335102105
-0.00011629859967806688
-0.0001162985880916719
-0.0001162985855129291
-0.0001162985984410111
-0.00011629862950536211
-0.0001162986739237489
-0.00011629871755706648
-0.00011629873844633166
-0.00011629871309557581
-0.00011629862715897817
-0.00011629848782178064
-0.00011629833275656399
-0.00011629822925330084
-0.00011629825824846666
-0.00011629848235890322
-0.00011629890438979944
-0.00011629943123570522
-0.00011629986409510911
-0.00011629993509422436
-0.00011629939920844844
-0.0001162981682773868
-0.0001162964455007718
-0.00011629479441233028
-0.00011629407030897511
-0.00011629516809308792
-0.00011629860423634065
-0.00011630404260000451
-0.00011630996520881983
-0.00011631373436268334
-0.00011631224262096497
-0.00011630317155467479
-0.00011628659227789565
-0.00011626631736631301
-0.00011625019360979021
-0.00011624857655236451
-0.00011627068324758864
-0.00011631938910916178
-0.00011638612996962756
-0.00011644848277278035
-0.00011647317194126845
-0.00011642616905597273
-0.00011628902571666096
-0.00011607700838017468
-0.00011585114391660186
-0.00011571470520288896
-0.00011578683723371488
-0.00011615305293694
-0.00011680356972961544
-0.00011758281808748926
-0.00011818148982037633
-0.00011819973617405802
-0.00011729166813179158
-0.00011536713681518334
-0.00011278460002185792
-0.00011043485282599042
-0.00010961101237419483
-0.0001116047660776943
-0.00011706897433171872
-0.00012532513382325193
-0.00013392499164310633
-0.00013882987180818956
-0.00013547787809637673
-0.00012072838669144908
-9.523475270622691e-05
-6.532446530391901e-05
-4.3174283931540785e-05
-4.420439970126934e-05
-8.136166482234326e-05
-0.0001573035434813577
-0.0002571162024272465
-0.0003454654561784926
-0.0003721576477405733
-0.00028825143494394973
-7.090451774572502e-05
0.0002502193588783455
0.0005770910392543373
0.0007519418594532235
0.0006003357023483298
7.45481502327371e-06
-0.0009907144926630754
-0.0021375780706330864
-0.002954305357715838
-0.002846712228113021
-0.0013308933389569204
0.0016647927385916366
0.0055260996672118175
0.008859246743831026
0.00972825141481222
0.006298721148989582
-0.0021933780989577363
-0.014438363793625664
-0.026494457817820314
-0.032220802852145784
-0.025092326624254056
-0.0013609813586058254
0.036107699850176575
0.07464033732310628
0.09086516821554196
0.05350181259021429
-0.06985749722556266
-0.1032702813783223
-0.053019021465663514
-0.10147437722024487
-0.0066402247202116535
0.09203723870437269
0.06299807453645305
-0.030226662093388385
0.059023435277416714
-0.048357551591123274
0.03814781004200116
0.07880458101461446
0.008441484642553895
-0.054587937128880756
0.0034484609252295436
-0.09554610334753161
-0.009973463957037704
0.029928288458596353
0.026611995860301964
0.01583220849269774
0.06382922222560553
-0.1385692387932888
-0.08508227863530872
-0.06677762715860948
0.011562310239664322
0.013096472254771636
0.1520410441710793
0.1829686907349872
0.20097384185095032
0.05562203485835967
-0.021803333897934336
-0.18249190104916632
-0.3241268480421202
-0.26466018707208905
-0.1341921662709425
0.011322150628327376
0.15717312970749264
0.2863420585838929
0.3371942040942665
0.1739723896609282
-0.02237004793822008
-0.1418292480012353
-0.11678216558670827
-0.2866828761142975
-0.16631542416802084
-0.02550734077076439
0.11623726953051425
0.08164179131024081
0.11921902417322251
0.08489600925225273
0.027077316415745203
-0.02185912235674189
-0.04726336444499165
-0.0487686401332595
-0.03432782027443729
-0.014250209474584202
0.0030807324112631833
0.013199556715511212
0.01554189168565985
0.012193454797507202
0.006263664726254684
0.0005355136335251651
-0.0032863352865693026
-0.0047138963684828636
-0.004182967904749507
-0.0025789993467676972
-0.0007964001234271518
0.0005433745253459992
0.0011852379084715294
0.0011854114711982212
0.0007795474536542411
0.0002433489372408773
-0.00020810458566837244
-0.00046515271015336307
-0.0005190268760183109
-0.00042752818456320856
-0.0002725566596904586
-0.00012572847054939798
-2.9830917615216278e-05
3.921934533468262e-06
-1.22146934183221e-05
-5.4951839625274536e-05
-0.00010126186902291898
-0.00013543118872342096
-0.00015123783577562476
-0.00015038070862651378
-0.00013904566177052398
-0.00012437845579172383
-0.00011200012204355305
-0.00010493622765706125
-0.0001037295510263438
-0.00010720457462465587
-0.0001133482071389014
-0.00011996645638747184
-0.00012503800645210166
-0.00012689272534359173
-0.0001244201428092911
-0.0001174412437074042
-0.00010719432034853685
-9.667502444941625e-05
-9.043919410736827e-05
-9.352472656427432e-05
-0.00010943007013715323
-0.0001375708147002785
-0.00017118112454425437
-0.000196991073708254
-0.00019791046949719745
-0.00015917100661406783
-7.692017553978207e-05
3.35465765615876e-05
0.00013419238062618686
0.00016975990972675932
8.498622482314647e-05
-0.0001481793815844857
-0.000500960919731818
-0.000868949647651116
-0.0010796494549358746
-0.0009379489649790759
-0.0003091172527144903
0.0007798159164592973
0.002059617700034476
0.0030111941621231318
0.0029768075992142725
0.001404439847023513
-0.001817791335335749
-0.0060497907891821434
-0.00977749997571005
-0.01085253055896906
-0.0071886725926838205
0.0021554473912676797
0.015802646126586554
0.02929202215852721
0.03529307473181673
0.025195585309615267
-0.00799793855833447
-0.06623478974791189
-0.1438214427237492
-0.027225510277263523
0.1018961644030984
0.061097620951179474
0.061099202623363394
0.1018993995537529
-0.027224501260138905
-0.14382711166476056
-0.06624968260453776
-0.008020318388071896
0.025172999628007914
0.035282241088307756
0.029305973250826973
0.015849445808275377
0.002231277217792039
-0.007104446686150189
-0.010796806718082587
-0.009794559340335785
-0.006173669540803286
-0.002049527563989062
0.001116456916183512
0.002741922381068896
0.002976064271366492
0.002357562165658197
0.001457352171924341
0.000634413424760246
-3.908933072290466e-05
-0.0006944794596542909
-0.0014856205739739012
-0.002397299337949294
-0.003132674635364245
-0.003148686431121188
-0.0018640078119124142
0.0010002075931655674
0.005059377706591901
0.009055649278304337
0.010983423977524262
0.008670764504532533
0.0007826280627955688
-0.012012853030861661
-0.026202235967579333
-0.03552133226679965
-0.03250363591090227
-0.011607084142377823
0.02661978662526024
0.07162975490100987
0.10105781025569367
0.08275133418339994
-0.01852269455091022
-0.030569043474202886
-0.16224818505058952
-0.19502674659165078
-0.08153167707790857
0.04683072017314676
0.0643049840886761
0.23162698081900202
0.17949282229923394
0.10043015397686757
-0.047874871356189404
-0.12879886883060998
-0.207368987032306
-0.1320329349630266
-0.12381170602310573
0.023879342204340057
0.13550392817667611
0.2382197820838
0.14763620065702804
0.060321179685451934
-0.04412059821447258
-0.19270816976050514
-0.20526586762126747
-0.08323879459529263
-0.005923661995075348
0.06441174730176173
0.17075867631706335
0.1476690824300801
0.01069866923462574
-0.047650369694986434
-0.054946663192715156
-0.05079807056158164
-0.07696080638624186
0.0314974921051122
0.052251218261507276
-0.021409172534597048
0.01959554656848102
-0.001730412605965406
-0.0519565351622184
-0.09223297108146626
0.11536225994757106
0.0007650458315409574
-0.020565915996451918
0.048063309091378056
0.1839446180832211
-0.05121310310932159
-0.10324643018476028
-0.014900568209408774
-0.015361516146928062
-0.11291096851677561
-0.09281151555594112
0.07888581006957955
0.04656441670687468
0.05381235291556233
0.13314585543589616
0.09980229392643471
-0.04873248170487484
-0.1279701327469157
-0.15908942347299976
-0.162758268044551
0.04296631879554057
0.24029716984936755
0.20761352946480238
0.1179177271558682
-0.05688794429975634
-0.13607708386052353
-0.3185969664676317
-0.176181550630938
-0.056331716814081306
0.10338656304984715
0.15334345581383035
0.30986449128235005
0.34234555628742563
0.17647023538886503
-0.08462091302449855
-0.32627698743299877
-0.5867686387575543
-0.434376768374791
-0.16855947376845956
0.15155246122582255
0.45892658639500294
0.8274004578389046
0.43752046622014107
0.17497286634347853
-0.1342606826561977
-0.6620241341056231
-0.9106549676582675
-0.46519154913283783
-0.18430884870790287
0.16448531524767557
0.8362305263723729
0.8298743747409423
0.4267638926435223
-0.033252085098305184
-0.3320158400159116
-0.5192824207529989
-0.4452829761506609
-0.3017681908486146
0.012491086879538659
0.29627700031781956
0.2254516601289172
0.1188200838424955
0.10282821199076005
0.08439050168736249
-0.06383206805584497
-0.1059257849932525
-0.03627188705961311
-0.06870018485415387
-0.025405649309869178
0.07167361358098043
0.005986873718450107
-0.031827492315945255
-0.04485403835902239
-0.03295536608804675
0.0026170027443523135
0.054076563124373256
0.10311359421893743
0.12012483858839554
0.06824817210481805
-0.08773171269878556
-0.1697526735626044
-0.1761968215760047
-0.07750190266051024
-0.020568961771531533
0.05834876522777792
0.21604842680704447
0.28609930507537445
0.06996781639768368
-0.06083246220848728
-0.15221609885226853
-0.24953706370298864
-0.18123272122899625
0.049724910684884896
0.0638936436664896
0.09460853973106646
0.1732851572617203
0.11654272382520814
-0.0804633135692991
-0.04286818562329786
-0.008358031293552327
-0.01603953829606149
-0.0955594175227043
-0.05955834728590405
-0.10151853302877366
0.000317265938385749
0.0740558215617172
0.14325533413461713
0.218195339183222
0.09325282147879496
-0.04774523019710058
-0.21974750362807355
-0.2232164191465822
-0.2358694935367882
-0.014521382486896477
0.09193260012090428
0.3224229469306475
0.28435976594708046
0.14359399113877885
0.029235119339538134
-0.14674815745797246
-0.26113580669837044
-0.35209543549095146
-0.20294851269513794
0.05632294681022778
0.12930749614561957
0.12102199773478418
0.3035462412985061
0.290347265716964
0.02758484328417757
0.005633819772838789
-0.11201414367509195
-0.2505725069979249
-0.287428949206787
-0.22779156211413926
0.0004360950948086904
0.13114581358193958
0.12853242422575717
0.14862278896756254
0.3041254999201636
0.041144198695362386
-0.0675999508895391
-0.11318717990781264
-0.028904640702204987
-0.1632089329669172
-0.053682815370241846
-0.006613351978214085
0.11568706935827348
0.10003683422366726
-0.018395304337623226
-0.16129744684278713
-0.016419653491918627
-0.0512180685626438
-0.13106162780657413
0.059355102654782096
0.19468976825418718
0.2926158151382775
0.10768459394784363
-0.06126642742254264
-0.15074306911972854
-0.10419088134007355
-0.24309936131554405
-0.044935164563258384
0.06742491889482362
0.12387620862649588
-0.00463899579259826
-0.02358088408519506
-0.033930451157808905
0.050081516940087334
0.08692967325179272
0.09943286556497595
0.07365704317998199
-0.03448847715129923
-0.08640106622624134
-0.1450200221290061
-0.06047761168356448
-0.060978040301019235
0.04917894595801092
0.08497933208902053
0.07204692000890933
0.037360067212860976
0.002205814096439507
-0.021181132017537355
-0.029414267351117105
-0.02538166835792736
-0.014845738210169806
-0.003498054429188816
0.004825713358399612
0.008663895267710347
0.008495939252867783
0.0058518391926693876
0.0024204069564674807
-0.0005514055913884725
-0.0024735139201874767
-0.0033076516257164114
-0.003295958280279383
-0.002690191336670468
-0.0016048453207423276
-4.251864916807455e-05
0.0019410525990374555
0.004030412080675557
0.005533251441848983
0.005470907680558668
0.002929966220720968
-0.0023818635992555962
-0.00956349097141141
-0.01622597953456321
-0.018792486537418822
-0.013594280356078901
0.0013067965641796974
0.024021407075568168
0.047281468413673866
0.05841929286998704
0.04162923457623509
-0.017461058896373317
-0.12597154124617835
-0.07878222375726686
-0.05677221479283923
-0.029864504988910884
0.0353196140071111
0.16540558952781031
0.17140680991380527
0.04471406361826051
-0.040012638321734975
-0.11580719638389787
-0.2117343088564761
-0.14340115463526965
0.0904966631724455
0.10453952849397688
0.11808399892762969
0.14614876405066077
-0.006282576575020671
-0.14463516296153442
-0.08063101254921112
-0.02643127581164652
0.010047778100362125
0.02702397293860294
0.028006704469366882
0.01936985231286213
0.007699450544854166
-0.002112707400163686
-0.007650730476817546
-0.008757945542631141
-0.006728324658141368
-0.0033591455640584146
-0.0002022970803395204
0.0018297948433244292
0.002513075226757742
0.002127984405832223
0.0011859342451209219
0.00018444221430912112
-0.0005432178906283264
-0.0008716648017651433
-0.0008459457921005822
-0.0006044997325605371
-0.00030125253040674886
-5.1681194907253174e-05
8.889095280719576e-05
0.00011966949006624328
7.32609763358799e-05
-8.339800969276245e-06
-9.14550357573774e-05
-0.00015810252272911493
-0.00020385850272612496
-0.00023023198001904228
-0.00023674059412754972
-0.00021714301504654625
-0.00016213043853385075
-6.784443981752201e-05
5.3386209387965415e-05
0.00016584705413306522
0.00021292962042642453
0.00013332714476344112
-0.00010994652044682884
-0.0004954578589630283
-0.000918658018561115
-0.0011944850961107913
-0.001101774951316908
-0.00047161331060766504
0.0006987219095772074
0.0021478181625139894
0.003325971825227114
0.0034997287183578425
0.0020084347815903154
-0.0013653790965965982
-0.006028566929570532
-0.010396996076269736
-0.012103334101432975
-0.008724422336868293
0.001010652537800938
0.015813220602533085
0.030743451913349016
0.037051068386606795
0.02340958746489096
-0.021462572441533295
-0.10547991952634199
-0.030426714134617696
0.008944679529993263
0.023337904301866087
0.025338152953310728
0.02518785266796392
0.027497766070553018
0.030128297838715803
0.025797627344757643
0.006165520416763662
-0.032690186172916316
-0.08521793701316814
-0.13396045352836297
-0.1516454129141755
0.09161484001450403
0.21768340601802222
0.23033733851068822
0.11074096638330405
0.021791460286198754
-0.279163218505552
-0.22394707459671248
-0.2205616635716603
-0.04966275412016425
0.1273933965610201
0.3520436254040646
0.2505899112236664
0.022542114979290106
-0.16014109594972048
-0.14346178269359072
-0.17642482485764843
-0.09718213525845117
0.07494508106363938
0.140250210800469
0.11420918954402663
0.02140914499357374
-0.10916951391262013
-0.046492966773418146
0.041745912849030245
-0.011564559675813848
0.025406512261805538
-0.019505332048319866
-0.12672183316789737
-0.09043029494652458
0.0751667772361907
0.1304645624284172
0.20889910888814994
0.22268487133642528
0.0778742371683162
-0.30271908276521253
-0.3545496932079211
-0.25315566524976907
-0.11108278033839776
0.006303721709039906
0.24911888748579264
0.34444077797090644
0.36299765484423885
0.10176137772932496
-0.11212899651559752
-0.19804453347481907
-0.2875764721318044
-0.2907802491936953
-0.07315111525393857
0.1512779035505186
0.21154410478196206
0.16196306797771667
0.06273959091615595
-0.034796760210767164
-0.09572478183835398
-0.10273534857881075
-0.05377685330659161
0.04122812325884913
0.1634711694832265
0.08867905063951968
-0.00800918556673648
-0.1455364801115819
-0.1304600562130383
-0.15346695813661515
0.00864574980800143
0.18529599303745245
0.20140774877715673
0.06815724829372702
-0.02080319242177132
-0.08622161699698719
-0.15500335768616025
-0.050655229091671944
0.013781100449364394
0.03817123100968922
0.033156300848750785
0.015061788147457348
-7.832775542051654e-05
-0.001680523684313407
0.012107476414482964
0.033550051565139266
0.047104763506224744
0.03372420695487281
-0.022982332929451774
-0.1301699757033255
-0.08090704250315416
-0.05324999963198993
-0.014438468882148926
0.07046924730330774
0.22816792047192205
0.06864588092930853
-0.017988234213944073
-0.058110125310648034
-0.08604487688533623
-0.13380406722507282
-0.02285394285846872
0.0395605977018608
0.05908990091300499
0.049431422316496665
0.026391629038644126
0.0030498223057240483
-0.012790931842262494
-0.018802606622028466
-0.016692637938764368
-0.010115013383394923
-0.0027837624151429456
0.0027189607344968517
0.0053351333037857385
0.005300455480394474
0.003594298505659844
0.0013598704901983177
-0.0005133991604715938
-0.0015746225545540827
-0.0017913562069115999
-0.0014062373841374491
-0.0007603969480282885
-0.0001509592267073103
0.00024542809332767746
0.00038342418157099044
0.00031490768480866167
0.00013709422209276897
-5.4428489648788e-05
-0.00019490887889321682
-0.00025929595263428156
-0.0002554668400219431
-0.00020967239443461967
-0.00015159859636578143
-0.00010384531203272249
-7.748340457174398e-05
-7.284500250054373e-05
-8.337818094919012e-05
-0.00010023506171208884
-0.00011588644209257699
-0.0001259846751845273
-0.00012952999392205965
-0.00012791002029283166
-0.00012353420305155827
-0.00011865763846946546
-0.00011471968589535924
-0.00011224202190202768
-0.00011112524031564255
-0.00011108839918574752
-0.00011200681016363037
-0.00011399144992230304
-0.00011718218509443044
-0.00012136005865282572
-0.0001255864664927426
-0.0001281162897150472
-0.00012678060092848075
-0.00011988076177477783
-0.00010739838220197362
-9.206651698947732e-05
-7.967134014731583e-05
-7.79858664937542e-05
-9.407721561229457e-05
-0.00013038559749556792
-0.00018080817407537783
-0.00022872910616793412
-0.0002490988299731577
-0.00021588618854163878
-0.00011434522781461062
4.515835419940512e-05
0.00021767271925985483
0.00032573372992965544
0.0002786677606437165
9.60990377713265e-06
-0.00047772372453834343
-0.0010698970583127426
-0.0015359626332858212
-0.001573040670687587
-0.000913760797935727
0.0005215189203150839
0.0024768145064559747
0.0042924473092750765
0.0049968369579706925
0.0036058687024309753
-0.0003971593943352468
-0.0065330660305332865
-0.012983477619230426
-0.01671317101675708
-0.014276850555897022
-0.0033282532400159353
0.015469663163011483
0.03678027271133893
0.05003639360928749
0.040758850422922994
-0.00599847491952958
-0.10070075250530677
-0.04440560280657382
-0.025791684872739508
-0.0216406607299474
-0.0011328213809219138
0.06698795644385684
0.00629204055410761
0.02588136927825811
0.1170178794582386
0.0545058785520109
0.003033820160508954
-0.07281837653136093
-0.197782732590978
-0.17813905556710877
-0.00027613842479586303
0.16340357646445258
0.14342122846364752
0.16162171379336188
0.02385655715732415
-0.08040184850422992
-0.17215700784532334
-0.07399728832894703
-0.002283023047895255
0.03677951648297148
0.0466401496645944
0.036855976312937425
0.018614531619205777
0.0011112426814917338
-0.010319701661736853
-0.014308395163347944
-0.012350035180273722
-0.007254620464855719
-0.0017755605812271877
0.002230974161761919
0.004053766001712668
0.003924392080892872
0.0025950865473544455
0.0009105084147263375
-0.0004894189165335996
-0.0012901224602745493
-0.0014738030446431224
-0.0012071397824270488
-0.0007145652496608052
-0.00018652501793541871
0.00025746852654834205
0.0005583844689225345
0.000684364248423249
0.0006033253820782319
0.0002825771430522383
-0.0002793944570529488
-0.001002748172432602
-0.001687159746112282
-0.0020191501781595587
-0.001652302072678326
-0.00036105181078077236
0.0017697516293822947
0.0041971272608739355
0.0059147538337308465
0.005677210868182498
0.0024762738717654864
-0.0038203695102443456
-0.011890370087589393
-0.0187606383023097
-0.020317226410896908
-0.012688573631367151
0.005654854349450551
0.03166969705200254
0.0563412273552954
0.06519283883896516
0.041419025043974
-0.02855070665628613
-0.14851878329722262
-0.10758377948733869
-0.07958182240400082
-0.028525341582510487
0.08065477988956539
0.26931187672580925
0.13508925474362807
0.04927240591570465
-0.036461181447451384
-0.17561155117563626
-0.2097716415624672
-0.1552080269316524
0.0019017795102922288
0.10000704845502141
0.1889815624167646
0.11454939250690215
0.10619487726470345
-0.027518682609769054
-0.09559317757745041
-0.11575283093299706
-0.10449348681706187
-0.07032482296858997
-0.012753791146182244
0.07306135110511398
0.18855145631843773
0.12490387239523622
0.06098031445854311
-0.03218145394243306
-0.1814996103592109
-0.20057262471290072
-0.08201969692938738
0.0028014436412539707
0.09604276442192497
0.2403979559129823
0.06589592621003997
-0.01870949551649761
-0.02734965536225056
0.008720200639873856
-0.14971576027566336
-0.1401432014221736
0.008508535114854204
0.07822718497795955
0.060415273327601
0.1529724349528363
0.1588966156577529
-0.11186592265980563
-0.23801295787421267
-0.18308651839994688
-0.09638496292244704
0.0789494618000534
0.19184258396802453
0.268003065399702
0.09977540084756521
0.04596252377356368
-0.15746252411160988
-0.17933643656341441
-0.27458676099456725
-0.07165320720239761
0.029790699701651092
0.25111293166128
0.22153154490465607
0.16597551660819482
-0.10076447456320507
-0.17220467254371263
-0.24354363434213377
-0.10545889039361722
0.05729747346098743
0.26146434917661004
0.11768823807964486
0.024339014143561166
-0.033712939516235975
-0.08070149332565078
-0.1421591205389994
-0.03723473127492179
0.025864608598450276
0.050092693045143175
0.04621442667891452
0.027874465859567276
0.007142871242127179
-0.008166546264981837
-0.015107610163074046
-0.014612670971530472
-0.009721159070111788
-0.0038093719103589703
0.000660298419838644
0.002678689818713369
0.0025892251142142202
0.0015660055631627904
0.0009273108399813204
0.0015097463031995338
0.003270100606331187
0.005221547512188432
0.005748639049883575
0.0032668768056662396
-0.0029142965606956586
-0.011791456404687756
-0.020297827569085526
-0.023741597794688256
-0.017277225562617578
0.0017070727507988099
0.030883204820168885
0.061019443261909806
0.07602501624323894
0.055965312247577004
-0.0169303911400528
-0.15066972839688664
-0.13706755763328932
-0.14971247622816275
0.051536337608044394
0.10994369370750959
0.2585571327600667
0.10927677550551863
0.04892260645648897
-0.15596507505336044
-0.1476436491523577
-0.1638546382748305
-0.027968127937266416
0.054104959512693666
0.09014929676549548
0.09378051004812606
0.07647887686661298
0.04294252794942244
-0.008664228112881346
-0.08224077516916274
-0.17758137033486004
-0.08582893275768401
0.010803508509057608
0.1344398158260754
0.10397585559041587
0.12804771114597413
0.0018135259249538573
-0.09109235697189028
-0.1726327118092062
-0.06349245792163367
0.021608071297846514
0.07487647341188301
0.09341829006606377
0.0764791289314286
0.02424036183294968
-0.06088394934937921
-0.17136334181428922
-0.09236262497624763
-0.0025679537975799816
0.12114349786321052
0.09661818207513102
0.1300071288647242
0.013100262094655483
-0.07416714366813966
-0.15703844628781669
-0.057976217639615954
0.009334890513357941
0.04204375607247807
0.04628199303706152
0.03300230738145396
0.013550360735628961
-0.0035025900928344995
-0.013664527353540293
-0.016190678225586837
-0.012805851165459688
-0.006240900170549609
0.0008739652121092746
0.0065521834367930866
0.009525614519178775
0.009117057335410725
0.005182513731656669
-0.0017380184905482704
-0.010128264613319766
-0.017318862835252875
-0.019767937651218433
-0.014055509905249078
0.0014230286164549862
0.024478222153031148
0.04766405784116294
0.05831000033921086
0.04079572526399489
-0.018911637613565083
-0.12752782540436924
-0.07960793069807766
-0.05596083413429232
-0.026846625659508315
0.04031910155051585
0.17104526407357393
0.17526957723665298
0.04389705957632181
-0.04773247101576882
-0.13047411676881385
-0.2299364577429907
-0.15800292338566801
0.0888248411034923
0.12356277076154663
0.15831228897704624
0.19444972330626506
0.018279324601098098
-0.19568132564077131
-0.07519050195495745
-0.038614430527180124
-0.08569862348974182
0.006088710398059313
0.0787941334014975
-0.014057820238326597
-0.018467145622073678
0.10866047762084434
-0.009989219968942298
0.02189006577436007
-0.027314051151215737
-0.01416885595855143
-0.013304070058754561
0.09259350454628261
0.025142743785142307
0.12419275373716947
-0.03805162705448727
-0.245245431646698
-0.23126420003850642
-0.08472111029220798
-0.06576381806759493
0.16659907035074156
0.3227236205802232
0.25493288481802334
0.14297829562882888
-0.10285850304030089
-0.22201032231743828
-0.17356638460162938
-0.10488946773101694
-0.1269500353973832
0.09911859031726565
0.1640263559547745
0.10401118962990909
-0.009375649914246682
-0.07986270773651113
0.003926671810825529
-0.040716512080745164
-0.10061175863108293
-0.07836309968590546
0.09462839084248438
0.04559433649018918
0.15142495989270985
0.13698595909818762
0.08353928675774915
0.047781075060881265
-0.11114365871594464
-0.3023804095913083
-0.17947942711718518
-0.12911915529394496
-0.07662270490954744
0.09244381724733632
0.30032713584267656
0.24393946162526342
0.17019876982060073
0.06682281999382833
-0.12963748417146442
-0.31243212722617114
-0.17780916404235303
-0.0014325758649502583
-0.02409497337810213
0.15163080503917628
0.15616014847542786
0.04337672021180526
-0.11934978923883806
-0.05982738520823015
-0.10872894526616227
-0.007468005103916517
0.08340465003706433
0.17665082606916924
0.05429857722526789
0.06963873819808918
-0.04390265451787921
-0.1587182043079351
-0.13763225098224519
-0.021692653904153928
-0.024534388061807823
0.06570480060645457
0.07847164036981939
0.05002980842769639
0.013201042234980667
-0.009925930544316928
-0.01126130718101678
0.0038696649367392826
0.020285118242519707
0.018377368431594623
-0.0197414858005099
-0.1046529780821617
-0.03598883610023414
-0.0018831280112049228
0.018147512920705784
0.04775514184679685
0.10757710750025824
0.010395716139492018
-0.040909753775448296
-0.05239665142504808
-0.03605775855216085
-0.006287805529801157
0.02302892988009806
0.040488883152281434
0.0385878274222181
0.015160532478400143
-0.024991354290649144
-0.06885556808368276
-0.09555051697225718
-0.07950121014373844
0.0031213769447913037
0.16585902490421012
0.20420985712877623
0.09234531382424833
-0.013039129591257217
-0.16187552241146697
-0.19627834544210104
-0.13783533644457402
0.01856844099169187
0.10235953588837529
0.15781465542456102
0.03150430459263186
-0.039031547997590954
-0.03254180810327787
0.05352835401472486
0.004864058145199236
-0.004776247919062139
-0.006730768799064926
-0.03011159365591901
-0.09555528411179992
-0.01150997078913596
0.026049919026482713
0.030575364336472007
0.019675829615821577
0.009313533742426928
0.009060181166562518
0.019524672519733968
0.03248577343627549
0.03374393187634919
0.008173730022518824
-0.05417855246549307
-0.15276336607933944
-0.07408199622157433
0.00629202157044934
0.11720060284887508
0.08287665071837028
0.11471744870196812
0.006988600097314901
-0.062033984720042845
-0.12419079956394209
-0.013231177183862412
0.042934823834997686
0.027586395025345975
-0.06251264684078883
-0.01768998303683571
-0.018376170140274498
-0.039960508481893385
0.141535695646362
0.1445518116669587
-0.020461733287791443
-0.15020016955823795
-0.045179732340848655
-0.10610614581653642
0.06790662957843295
0.07852264441257663
0.12578272399236717
0.006010085572427469
-0.08860867928812102
-0.16891190950180598
-0.04759380482561794
0.06053398938235805
0.13682658317022753
0.1575031276451267
0.09543089401603291
-0.07343970742055997
-0.1600299784422528
-0.15221637000418356
-0.2099957350171607
-0.06954587744264562
0.14323908554695525
0.29325724373869066
0.217436153061517
0.11389648555765053
-0.056526709841319925
-0.15688776760783119
-0.2540876169269333
-0.19985707261860627
-0.01963261007653504
0.08738547778872803
0.1384108169827808
0.15266848171707084
0.1389419692631128
0.0902962420983731
-0.01194684365094192
-0.1867037223419429
-0.23902906566889937
-0.1498008536416623
-0.07446273716125254
0.047387947584577185
0.27430630379421256
0.24360206288113107
0.15779864834452503
-0.017516247895159244
-0.14340331059923606
-0.28876308297335396
-0.11006307847998877
-0.036616319779730705
0.13452432898192895
0.034125519095602505
0.1100539612002138
0.014609402532431853
-0.006623752911856284
-0.12269822389124617
0.07812661680049339
-0.01345418244952866
-0.02740368031484312
-0.011756482017996502
0.17248411550764037
0.05933657065085567
-0.011306090730015645
-0.08109773934701593
-0.16166710661080588
-0.22788454280671397
-0.019347525684733084
0.14885697493278388
0.1684641152887963
0.11859081410477744
0.05036599283225501
-0.020378084485394916
-0.11151925006468244
-0.06616707596117159
0.05929374776843248
0.007395591459068433
-0.07017782904118654
-0.005522726006392506
-0.011277309577177572
-0.08148813590197146
0.003732418686303072
0.07087618081090964
0.144982942789934
0.04325364315056371
-0.02772409113524474
-0.07066845222091576
-0.09355512056219341
-0.10525300886179471
0.0870031134408069
0.07757147849180411
0.060743847869372605
0.029309190348796827
-0.025223888091960564
-0.11061169730384623
-0.031193033643395155
0.013899343914014681
0.03064536949258207
0.028270853404413942
0.016570239343176026
0.0035521522769014916
-0.005861470049017865
-0.009938764398041457
-0.009354223728711862
-0.006023234369144584
-0.002019294556918038
0.0011407162984090951
0.0027668784241124352
0.002906517503493536
0.0020569708666810967
0.0008437736171466848
-0.00022250324659571242
-0.0008638801707027835
-0.00103659947646909
-0.0008589533012047337
-0.0005149910013246893
-0.0001730344959298764
6.1006071498066844e-05
0.0001537317828025694
0.00012805467839629395
3.540611418581921e-05
-7.073072938842488e-05
-0.00015221274967174554
-0.0001924846180366351
-0.00019384783482334308
-0.00016991005038276312
-0.00013732668820780087
-0.00010962816681366893
-9.42241625236409e-05
-9.227749814892021e-05
-0.0001003835556539394
-0.00011288317906566061
-0.00012396424118660067
-0.00012917851258530163
-0.00012636981336771583
-0.000116148044631667
-0.00010196006988647679
-8.962179643864037e-05
-8.60585273508204e-05
-9.710488307420137e-05
-0.00012460134767884772
-0.00016360813273497333
-0.00020110145657429063
-0.00021768248001163587
-0.00019328953938788524
-0.00011651617418614455
4.893381559877873e-06
0.0001368260100240332
0.0002203179847562475
0.00018615352930635026
-1.7030418722257433e-05
-0.0003871203702866583
-0.0008385607346616514
-0.0011960931696440122
-0.0012290445877992501
-0.0007327983853325223
0.0003553296928207993
0.0018429826892500949
0.0032298345619809704
0.003775961620261831
0.0027283621932802627
-0.00031407906030352166
-0.004996670959293358
-0.009942889681671112
-0.012838857151140446
-0.011033980422144622
-0.0026699930478155517
0.011893664616883917
0.028855297188680438
0.04060904624862142
0.03683082884195997
0.007181674776524368
-0.05492841593861878
-0.14887599322160633
-0.06544009859346916
0.011190151318688139
0.09819702326843464
0.20778464407127398
0.14291518377042894
-0.10226197936667059
-0.1370577993526383
-0.16666813807273873
-0.1867352251102373
0.01638049519201173
0.2589888553545587
0.1500424780783733
0.08278295175414682
0.03262194914226907
-0.03707853964327993
-0.16325571735272307
-0.16992996740213534
-0.05867066433581286
-0.006482709606015273
0.027995969142243848
0.09218307708797112
0.22544126052728197
0.047955895558472475
-0.04388726527882009
-0.0746935133736329
-0.08167418005148087
-0.10421716049250783
0.025124314742067607
0.08620575808316379
0.07325540526065717
-0.005723385130542632
-0.131028740375404
-0.07455869628539956
-0.004718064265642995
0.10706645702424082
0.07947384718202694
0.11636945949118012
0.0060199996825661935
-0.07484201236031271
-0.15345894612063626
-0.052897996243216824
0.013643046886828079
0.04436824550740712
0.04652382346512467
0.03188027023564308
0.012139568831143355
-0.0042338207686699
-0.01321047550761399
-0.014694923819939507
-0.011046135703808916
-0.0053990698650884196
-0.0003597586489789444
0.0026639245235698084
0.003512628992861379
0.002898083270332785
0.0018467015905120595
0.0011838216555004099
0.0012054581881355722
0.0016045221353234184
0.0016494892346526765
0.0005570847385391101
-0.0020488034585254785
-0.005742783870739585
-0.00914370207942942
-0.01015833933756332
-0.006695503455882578
0.0022390878487590312
0.015368683644818606
0.028383866047627035
0.034146610078810494
0.02423919709853295
-0.00822054950036452
-0.0652391217564466
-0.1414342511724936
-0.023839545304574123
0.1051892075597943
0.0626356320241378
0.059132474811550706
0.09539899017107381
-0.037640728361434575
-0.1552402308361749
-0.07354332889634105
-0.005144684580823583
0.042698320167045084
0.06708756957220743
0.06718197671600755
0.042528687085680236
-0.006680870698834533
-0.07751153932750665
-0.1617873969561162
-0.045276461924017006
0.08995220022541482
0.06018817863148397
0.07379355206613246
0.1268704384167951
0.0031496607920781248
