0
1.6044381523939801e-10
1.7655037458743431e-09
3.388350740776065e-09
4.239539994780526e-09
3.451695654077277e-09
4.6173605888999623e-10
-4.535007434219294e-09
-1.024084693041669e-08
-1.425542065354217e-08
-1.3618609459359325e-08
-5.9444376889358405e-09
9.069823289839849e-09
2.8285283677233092e-08
4.467071609084103e-08
4.850844089103758e-08
3.0624078009398964e-08
-1.2776801217458086e-08
-7.511601898288714e-08
-1.3666405621985656e-07
-1.6662967785314103e-07
-1.319138592434376e-07
-1.2082084182455482e-08
1.832142749235035e-07
4.0153154934891466e-07
5.486410073584859e-07
5.107131676503558e-07
1.9903818727052724e-07
-3.9167607291537995e-07
-1.1322777635989587e-06
-1.7447840056816147e-06
-1.8529898443942099e-06
-1.110857862152828e-06
6.09438016727658e-07
3.0278608469398283e-06
5.357781698344316e-06
6.399603226634228e-06
4.892243728931995e-06
9.893407399542714e-08
-7.5253615710944065e-06
-1.5866441470913656e-05
-2.1229710906693952e-05
-1.924363727522544e-05
-6.621205711050053e-06
1.6590692726481007e-05
4.509926939527354e-05
6.792934332925492e-05
7.053388007723229e-05
3.988982768350607e-05
-2.8199316872185672e-05
-0.00012191220444036779
-0.00020993820041788
-0.0002455957734836211
-0.0001809165257256008
1.0461520639239815e-05
0.0003077602648618066
0.0006259381500215503
0.0008202970981351046
0.0007231622101853644
0.00021317434690086074
-0.0006980213173492052
-0.0017943091976474013
-0.002642900884453998
-0.002681778976545741
-0.0014214744344253417
0.0012720001308308335
0.004905556128784743
0.008239448021644967
0.009467183436031059
0.006780371206550648
-0.0007365091674083709
-0.01213209014546025
-0.02397288900504933
-0.030608471964302462
-0.025719705354639518
-0.005176746638011927
0.02935796814264068
0.06728089905175881
0.0879401219381476
0.06297923716243535
-0.03738617938529545
-0.03520944459830112
-0.1354036119900746
-0.11960494605502335
-0.1464681253039011
0.04019770185764077
0.09681130998092634
0.26316353629941375
0.14928631137608095
0.13148052325828263
-0.04001536030071775
-0.2236035730211648
-0.2650475910788443
-0.1800867938543702
0.05259325129989975
0.08556508978068583
0.18638041990932813
0.01651026823439804
0.011889837696716189
-0.030100855149265037
0.045291643223241564
0.15577299787959195
0.19684667782405693
0.06440826108672677
-0.3184877990017716
-0.3770740591904552
-0.27077010763371345
-0.09648252024922242
0.08887555981222255
0.43195829557299054
0.44384222351953956
0.17110987013977727
-0.01335341835837954
-0.19773267225409566
-0.3026636546030912
-0.2474996839387646
-0.12271307987070347
0.024128355255718947
0.1872994356171691
0.19075727880432675
0.0718915010763866
0.06797755376675886
0.00939386877137437
-0.07996545439890274
-0.1776671006217602
-0.057236220971668104
-0.08608307471128768
-0.028943754885012156
0.14378044502218001
0.2459205784618798
0.06810145167371759
-0.02329044381953988
-0.0795749707578231
-0.15776426707643898
-0.10730314817423019
0.04013747841462132
0.07529199776653579
0.01027306547764226
0.07356456919394293
-0.09687945325654941
-0.060961495568565324
0.016532844133976436
0.1597842107451183
-0.022333733591162228
0.06262363893412401
-0.006577586588822271
-0.058759356031105964
-0.12267500391726276
-0.020139640134394534
0.038088408717263496
0.052931337309645075
0.03476664346780492
-0.0002531089796876898
-0.034131459686734276
-0.05073279886095911
-0.039375319349410964
0.001566920043928871
0.061532894563827274
0.11642575635052316
0.13081059258103364
0.06492279209852055
-0.11391863592320264
-0.2182944175904639
-0.2308345689183731
-0.10245062289554002
0.03881210635510223
0.26997535606224043
0.2521743906707593
0.2142175366870408
-0.05322611947722248
-0.19112327384019284
-0.2567283065007916
-0.10614023604895
0.01863364740465998
0.09463368100347276
0.1155175622427593
0.08515403773020885
0.01117039100518125
-0.09901949733913339
-0.039297969454898635
-0.0042010367698565405
0.011926339158825305
0.015088781113585826
0.0110885972304939
0.004724793676836256
-0.0007845654990900963
-0.003924728942872115
-0.004578923398867483
-0.0034808242567130167
-0.001644540686332674
6.402044878584875e-05
0.0011440526375377815
0.001480513440764947
0.0012364478012134679
0.0006984700407154063
0.0001409464448233597
-0.00025570771147185467
-0.00042713471517507917
-0.00040264888223870405
-0.00026176484107251437
-9.100127891301198e-05
4.562964134026974e-05
0.00011824978281959459
0.00012780260739212818
9.434560058918378e-05
4.37259674746434e-05
-2.5613590913208536e-06
-3.230592740342133e-05
-4.2689415504037315e-05
-3.738096140144057e-05
-2.2770988484149667e-05
-5.007082459913724e-06
1.139701869065385e-05
2.3501346990057568e-05
2.9157738304620513e-05
2.6420294845488808e-05
1.3827091254112675e-05
-8.314464428749677e-06
-3.6174214260458784e-05
-6.126212086285835e-05
-7.116860465849437e-05
-5.3049159335502827e-05
3.0077220224834795e-07
8.339989351760824e-05
0.00017312436583089843
0.00022961428217029914
0.00020606045174654018
6.770796663620377e-05
-0.0001839705930500199
-0.0004908894564045827
-0.0007340349641809724
-0.0007566979584262379
-0.00041979477642507606
0.00031937718394843453
0.001330189833248136
0.0022725547022583972
0.0026431701757485488
0.001929243589912774
-0.00014360165567157238
-0.0033366793548905063
-0.006716756176467227
-0.008711699457446896
-0.007514850493713322
-0.0018445974600596353
0.008101820097015933
0.01984340976071149
0.02841661104577101
0.027188459001113333
0.0098005097551791
-0.02715025557308797
-0.08168399072649123
-0.14563987208184134
-0.0066585502502524594
0.14700941236482157
0.12053347869208965
0.10835354923126085
0.09465251818458059
-0.1406802404281272
-0.21253522815764847
-0.12166993866095369
-0.05084387477575287
0.03154965369403126
0.16125286408537853
0.16519339790890125
0.050899199410665584
0.0023468075261568874
-0.016312560498554816
-0.05064684430195176
-0.14302380234769801
-0.12111183759355967
0.008699045408212095
0.06133076460654184
0.06726685035296845
0.06367158315759372
0.08561404114343764
-0.04016113215404836
-0.0980667801429055
-0.08383720792052068
-0.003529355403381655
0.12755175021839876
0.08613694135749023
0.04356774572668466
-0.02949867432524104
-0.15680777557209302
-0.15075686569940613
-0.009789239619102389
0.07959541584097438
0.13704544204834507
0.1816904203823858
0.028005908325850346
-0.11392675332996556
-0.2346630748415671
-0.1213699767047821
0.042900252236206866
0.0750895718711573
0.18475599219781424
0.1672958764376773
0.0016908321243492882
-0.14542939148407122
-0.11075639303227956
-0.12406259704109943
-0.0008890826184668146
0.05937340620939989
0.07012357632237133
0.05107845402600731
0.02155159155883356
-0.004296622886372603
-0.01932007876913126
-0.022678179375099528
-0.017599628838408484
-0.008796625337493556
-0.00041608598159394785
0.005057074095221929
0.006965934787102444
0.00601333928279993
0.0035410820559989226
0.0008749824483203667
-0.001083952709516494
-0.001985260728353419
-0.0019365635440063776
-0.0013020090086545242
-0.0004946224299018184
0.0001703875780261701
0.000537978034621158
0.0006027907894981781
0.00045584738252343974
0.0002207645343504739
3.228010528720028e-06
-0.0001353863799325896
-0.0001808823014302277
-0.00015333665510894093
-8.823227907854966e-05
-1.9703429879684395e-05
2.9649084759689085e-05
5.159468461989043e-05
4.9557028883650896e-05
3.3216546573137365e-05
1.3097835159363472e-05
-3.144279270139052e-06
-1.2160670491745011e-05
-1.439285788178433e-05
-1.2426282716031786e-05
-9.118060269182289e-06
-6.209280901641224e-06
-3.80358595427823e-06
-7.528683051770498e-07
4.293961156682179e-06
1.162302593284364e-05
1.9510687099588144e-05
2.411675074262459e-05
2.0543722227958373e-05
5.025721399473163e-06
-2.2295013783553996e-05
-5.5067550982430525e-05
-8.029020778208492e-05
-8.09644593982952e-05
-4.22731247740723e-05
3.975914418398355e-05
0.00014996844190070136
0.0002504139276415002
0.00028588155514886474
0.00020110410257745474
-3.2003098477382056e-05
-0.00038470703127222827
-0.0007526344968931166
-0.0009633084010968978
-0.0008216180233618847
-0.00019281832718356668
0.0008960830084303944
0.0021758750588063854
0.0031274775654720867
0.00309315166781003
0.0015208598919497004
-0.0017013153665708268
-0.005933321125531076
-0.009661131483190795
-0.010736360928364837
-0.007072755309166292
0.002271154491809602
0.01591831450615888
0.029407942048805397
0.03540958030712288
0.02531291521848126
-0.00787981416472754
-0.06611631005613634
-0.14370347707696593
-0.027109179167439306
0.10200989588596684
0.06120850893830251
0.06120826319603164
0.10200913921382673
-0.027110455839999856
-0.14370515080042406
-0.06611800239186537
-0.007880857815019817
0.025313341787950677
0.03541212733224501
0.029412638317040645
0.01592415891973693
0.0022759865000244054
-0.007071875930638358
-0.010742157561775493
-0.009674634995832024
-0.005952369350662667
-0.0017197568393224575
0.001512454707166365
0.003104747015615182
0.003164970463970017
0.002235825478921127
0.0009619869184655173
-0.00014998001072770174
-0.0008363430373920749
-0.0010617516800263546
-0.0009348753237957292
-0.0006095740429798204
-0.0002134206812306507
0.00017775984703393205
0.0005238634231246229
0.000784116612911017
0.00088800734903315
0.0007369946092489796
0.00024682096577725176
-0.0005794556693586758
-0.001577957332621983
-0.002393946816705713
-0.00253818478543393
-0.0015508164699623425
0.0007490604641651053
0.004005277625127411
0.007183126989609962
0.008683491072088519
0.006804877215811878
0.0005268334135954191
-0.009586261088841556
-0.02073906796142961
-0.02798973535452627
-0.02545778439401536
-0.008733786272351687
0.02195739039099865
0.05888596340237164
0.08569835519711802
0.07942874724697194
0.01621985572524313
-0.12014757499278834
-0.1295099320445584
-0.19000895232843146
-0.059431829413219193
0.11574767788784605
0.18578445094076984
0.18243952626024615
0.1087861503910116
-0.06210532514233956
-0.17932605998708412
-0.10040208634162891
-0.0767575374124682
0.05717272171571045
0.08902772508253352
0.028097917306257245
-0.0989939794625368
-0.05493815668860932
0.0002821974160624574
0.10096024721065264
0.06824941627307667
0.10576595615286821
-0.00014546511513395289
-0.07526587700150701
-0.14913038918636112
-0.046407751025538145
0.019005810189722343
0.045596927631857964
0.04188159031880031
0.021774424914102
-0.00036596941465835974
-0.0136371387367889
-0.012877753321667107
0.000633422492102271
0.01983036250597908
0.03369180206592224
0.030150511515565002
-0.0001780346305054103
-0.060155505169707205
-0.1434271524945224
-0.03434020767086691
0.08865570802944377
0.046662916238305166
0.05309122375310606
0.10821793162002785
-0.0023343192566024377
-0.1045719875193543
-0.029607292282364677
-0.005833428427300921
-0.052126531972219066
0.026362790082523315
0.039335256413862825
0.009732850813907953
-0.02988539834173087
-0.04233655147910318
0.008212082213547418
-0.05036854331966284
-0.004722107501785778
0.13880003864764878
0.15212943902520157
-0.011564623384678788
-0.009248737802931905
-0.09501907124714574
-0.1060095796043993
-0.05143212670295767
-0.10837722517931359
-0.026214393019033482
0.06092972766196116
0.016445702921913195
0.08280662773344655
0.26764430648383014
0.13896426944554385
0.03211691696018237
-0.13222554615041446
-0.2237738633017882
-0.2795842572799091
-0.09012887358478716
0.00046116647704510795
0.07974614271848644
0.24260221191385592
0.1648929380750363
0.08322228851608336
-0.013616253810513446
0.020152984324501067
-0.09685622049864599
-0.05121983993207494
-0.11258571685838215
-0.11696610390630972
-0.05947899898684658
-0.09826300879507185
0.03147773160930572
0.19711407331258912
0.24786613525267098
0.20027721239077728
0.03476338845307723
-0.2958213956894752
-0.2493853302601251
-0.07647039328272189
-0.007457514454167656
0.15158546508999177
0.2153600156808958
0.011722806806465386
-0.22640646078661186
-0.06804418494486991
-0.0904873559005014
0.1143351436959875
0.13448916985766537
0.3365740233246095
0.07151014364580896
-0.11115536457916816
-0.24316037275401794
-0.31838282529204553
-0.2829283992961364
-0.04050408318099688
0.32635544125785
0.32512000432558136
0.2224844957084798
0.024365511753111985
-0.1272075512598025
-0.1403131148024322
0.052673806986581743
0.12616341785874585
-0.008589999416189913
-0.1797612889315899
-0.34258672040391985
-0.38316139823001627
-0.14119827028025045
0.3504167129310249
0.6182978352357114
0.5079048746524494
0.1641551889061521
-0.15868321365954446
-0.4605925950294268
-0.5454886736621686
-0.17374674994664985
0.1687350572389334
0.27939451992282205
0.22883399346607036
-0.06065340799874936
-0.44064099417065167
-0.16231243859268402
0.299302878943566
1.0253211948881407
-0.7577372751528112
0.3251072302761422
0.013946035749519376
-0.36178676116528663
-1.0607086555165604
0.8829929483597816
0.05793821946283372
0.06263401179028465
0.08910594949255099
0.11111635662762874
0.08153552414714997
-0.060566005377545064
-0.17566887504829354
-0.10710471095009316
-0.06732313479450838
-0.03140281530235828
0.06046337038320818
0.09255421918098419
-0.04176476518825754
-0.056837011231570235
0.11023830176096693
0.08879938135701934
0.07000963196264427
0.009654987232850454
0.03817259041700077
-0.12412183425401642
-0.15024679544375888
-0.09250227270712251
0.025284675641235918
0.007692451145495817
0.08084888470808449
0.08176894199666751
0.04751142049810083
0.007128640282617037
-0.022089209819819645
-0.034216386102142726
-0.03149070315799646
-0.020111337373039138
-0.006582917178594212
0.004510538477118977
0.011150918243711522
0.013351035330422801
0.01209834205303282
0.00841131259239421
0.002917236249326405
-0.003955982442479608
-0.011385268288200873
-0.017574738957779307
-0.019668247861676896
-0.014492520122974377
-0.0001596863638469829
0.021868500178511347
0.04506298130369565
0.05747337026740994
0.04357280784884556
-0.011535257702687264
-0.1164373567366173
-0.06817251523807795
-0.04975015999642282
-0.032086230625760666
0.01953491785153522
0.13617910214806644
0.13618859453368343
0.019575344236164315
-0.031987548959048595
-0.0495729020144007
-0.06793054417580524
-0.11619775973937847
-0.01141584870683993
0.04343635553008546
0.05698942811673334
0.04425914425098077
0.020949659046945426
-0.0008089613418492014
-0.014394174524836708
-0.01843363191898939
-0.015149497542398752
-0.008271175941635706
-0.0012870379620535746
0.0035661857209341183
0.0055436964055800165
0.005076202626739444
0.003202376119540035
0.00102031254436091
-0.0006776971154875611
-0.001540544505132925
-0.001606128244119127
-0.0011468689857158534
-0.0004987312913852859
6.682980778361168e-05
0.0004038049728795508
0.0004910828163019071
0.00039316218760784486
0.0002085995633327353
2.6769911584478215e-05
-9.662961661858033e-05
-0.00014457819357717086
-0.0001298340843651893
-8.001933989362232e-05
-2.3547517242384774e-05
1.9527141431349157e-05
4.069310608006121e-05
4.1396489724459554e-05
2.8933060353602208e-05
1.2024883762106699e-05
-2.42326274563572e-06
-1.080955655006734e-05
-1.274522303193214e-05
-9.99573798924303e-06
-5.1391352052657195e-06
-4.6368927225695745e-07
2.6392090660695534e-06
3.7795331523927336e-06
3.3224784199687576e-06
1.9972214124140694e-06
5.358679010575591e-07
-5.559120536329288e-07
-1.0734037988483935e-06
-1.0661540637354819e-06
-7.291406905082562e-07
-2.885623916490386e-07
8.016196114411044e-08
2.884439264671735e-07
3.302601698227089e-07
2.537077333477877e-07
1.2612984394476985e-07
6.048208003111905e-09
-7.184574391090658e-08
-9.875659679842865e-08
-8.501699048229605e-08
-4.984065188719843e-08
-1.2069384927751965e-08
1.5565703472516244e-08
2.8169887520118587e-08
2.733315065150857e-08
1.8252825085749707e-08
6.788088845518226e-09
-2.6101823801350877e-09
-7.770168850496763e-09
-8.639418447364304e-09
-6.522918608123143e-09
-3.1776496806886166e-09
-9.862616475111458e-11
1.8512870510058312e-09
2.478573176664255e-09
2.0738740862067877e-09
1.1436860666252748e-09
1.7297185559705407e-10
-5.187371691363138e-10
-8.17162651895896e-10
-7.745747335680362e-10
-5.330155922906455e-10
-2.4682980811688233e-10
-2.8494740132760736e-11
7.392779868938384e-11
7.166658650554998e-11
1.2859852578307428e-11
-4.556974780109178e-11
-6.254638159989722e-11
-2.815725768164101e-11
3.3093069845920266e-11
7.149181922977884e-11
3.210926123394467e-11
-1.186126343321294e-10
-3.6695944734364576e-10
-6.368941002394214e-10
-7.968665420366832e-10
-6.961404405578614e-10
-2.2936631745804498e-10
5.856280579497168e-10
1.5466516130197553e-09
2.261497869967047e-09
2.2322412381792517e-09
1.0398942944926308e-09
-1.4032760692546489e-09
-4.618624904194737e-09
-7.468785221876634e-09
-8.336277787123619e-09
-5.642214565268243e-09
1.3531404336156205e-09
1.1698830941590171e-08
2.224067511367437e-08
2.7897025841246428e-08
2.30444331543763e-08
3.974538837177087e-09
-2.816681203406652e-08
-6.512677517623769e-08
-9.148758290300303e-08
-8.81059940955548e-08
-3.9385072158185224e-08
5.6980971959807264e-08
1.8115586069211807e-07
2.880850054020319e-07
3.1506176146029427e-07
2.023846265635673e-07
-7.54764774617525e-08
-4.774643593414129e-07
-8.775189892940905e-07
-1.0773639312793144e-06
-8.623039942714269e-07
-9.75010340419587e-08
1.1592238140385568e-06
2.57406004117742e-06
3.5415229617806875e-06
3.325159634880141e-06
1.3444684385708632e-06
-2.4485000291999484e-06
-7.236402775755792e-06
-1.1237163582426365e-05
-1.2022251946125227e-05
-7.338285523627739e-06
3.680800271637795e-06
1.9281697882140824e-05
3.443542593405364e-05
4.1414402669404765e-05
3.203439113560293e-05
1.4227868812151173e-06
-4.765789849013399e-05
-0.0001017398010014677
-0.0001370732154318579
-0.000125363034091685
-4.50749058809075e-05
0.00010402788254093391
0.00028840556106611576
0.0004376653152449769
0.0004578604580126261
0.0002641161804067702
-0.0001722787638091713
-0.0007771247717803267
-0.001350143957233207
-0.0015904908343862577
-0.0011866116282820084
3.650466787282923e-05
0.0019519798911166407
0.00401865442118594
0.0053078746088672515
0.004737172741586197
0.001515885665709168
-0.004293891299931527
-0.011310963858157948
-0.016749589157360644
-0.01698206053530159
-0.008857005547296633
0.008419856619475728
0.03140960342485837
0.0514380844652857
0.055376791725879566
0.02872492704876992
-0.03934507864226545
-0.15042786997008858
-0.09311837714413272
-0.043296349168719266
0.030583627778404975
0.15841122752024583
0.15873849076107618
0.03234435021792608
-0.038275024006366155
-0.08330748661995137
-0.13626150455969882
-0.024448854806278546
0.03754336508553691
0.04993840055654047
0.02579252429316076
-0.013640420867592085
-0.04481065827349317
-0.04819441308247425
-0.014550857149199414
0.04959010250490502
0.11857577152046991
0.14831982660981027
0.08265108765576495
-0.13458203291459178
-0.14399499687792525
-0.15629312706960477
-0.14419482156234886
-0.044157149449837584
0.2319336674133633
0.17857674922302422
0.07772470123858934
-0.015365330015736253
-0.07849092339904655
-0.12131140410120388
0.02099470928890528
0.0965010549579605
0.04599486616628933
0.012415765762428858
-0.050338224001097165
-0.17062285826554446
-0.15639971521877957
0.001479726685017603
0.12007325011249055
0.21191576733266737
0.07409761640239472
0.08365567123470526
0.0019297340443009167
-0.012776682983234155
-0.1879629392569132
-0.12072368433806478
-0.16836401420610947
-0.05002650217307016
-0.06041227136652726
0.10710319653353154
0.3340391543846067
0.2550418528026428
0.048194122542994364
0.04139774936784057
-0.06651964386204746
-0.37653570518504503
-0.3616565593436436
-0.050075766601171086
-0.02495461184299708
0.15969916784884686
0.35375813169367526
0.3865518171477215
0.053011403547061735
-0.08438202127155765
-0.27937053532689293
-0.37903605379387534
-0.20445816397693328
0.05699632544341685
0.2453262695713448
0.21145193145591368
0.19861309814585806
0.02943914272024319
-0.0970656478351917
-0.19923435146637158
-0.10149936705612243
-0.023708103434000993
0.0249708482033088
0.04635397505005367
0.04914265036192835
0.04310651540777194
0.03421086493865425
0.02245116501371847
0.002915804898694134
-0.03061680400844515
-0.08118394690070595
-0.1453371151378661
-0.012831357905430444
0.13009185879940177
0.09502245206632255
0.08595538488053467
0.09687750235313654
-0.0863726783255274
-0.28105875080040293
-0.1023119528503445
0.03907007605366163
0.13449295030402927
0.17283663665541982
0.13697100800110143
0.0051087263393049505
-0.04188571705794742
-0.20945281094227328
-0.2793170273287329
-0.005683116283045668
0.07924342815603443
0.05111997648087623
0.17512358053430346
0.28963308357036427
-0.00254830474395359
-0.13279387794552966
-0.15640998583882254
-0.13822096758459743
-0.1396950888462086
-0.011630329338563668
0.2069975884538129
0.28691190028241814
0.20792577343645222
-0.036277350942090815
-0.2278301450136306
-0.3134839747671987
-0.4002661305538569
-0.16496980588551402
0.1204665251436446
0.5529983663224373
0.5638141995418299
0.2990366741169059
-0.17440301099476788
-0.23730231320801604
-0.47085535933393247
-0.4091588488394388
-0.1066438314083631
0.2708573314322331
0.23160350257815293
0.12754029580335646
-0.08159539083561244
-0.06091479192589124
0.07537198806510743
0.15040692510925285
0.12290734388868281
0.09744028073870233
-0.054640520572285
-0.26764493967080827
-0.2539309447053259
-0.08348904017300778
0.024043523423796977
0.09395805126680266
0.18118773947707337
0.15148024668465107
0.06543592543328901
-0.030438744984758407
-0.1049493895295927
-0.13813639254554605
-0.115955644113721
-0.027350994156742855
0.13474640542458527
0.1696568090572752
0.0654948597620943
-0.0008763510091329307
-0.05920096492114014
-0.1377783567952145
-0.0551071062766211
-0.014549580749275582
-0.004068919729441056
-0.0011252573655962412
0.01893243252341362
0.07369478764560114
0.1667772977610701
0.08579496874387357
0.006558856267233922
-0.0973888966053787
-0.24330467272446976
-0.230858464620698
-0.041406462611757226
0.15335240562955976
0.1758497152456212
0.22633768835020784
0.0728792147893712
0.052642595391250886
-0.11455254309900233
-0.10371014762930068
0.040737610309417284
-0.07373253559948167
-0.37655504871364925
-0.13737250197849737
0.014532835571831815
0.0569165231434493
0.13419717857442776
0.5204138809112819
0.3966782796678991
0.05140480517752914
-0.294842293604585
-0.24631536035048718
-0.3839279019689964
-0.4268567201992188
-0.01501335457506919
0.2841939134328004
0.3500592507412103
0.2752513106684804
0.13770133995902623
-0.01354716647504214
-0.1566395580041292
-0.2839433271406335
-0.18606109789612166
-0.04098419913604243
-0.01322255141591124
0.137121270415738
0.23966540632633687
0.0999412886752536
0.09240778729377223
-0.0366105359709988
-0.15684745344809434
-0.13700540841340614
-0.028303333840289265
-0.05363799077833029
-0.0050613191692434915
-0.04957606358830984
0.058950425700856256
0.16538312042359155
0.1006900791848819
0.07495346215625832
0.07820896093880779
-0.11138733617053927
-0.31539042792702027
-0.1440272331468693
0.008872740032762411
0.16284557188153326
0.14147870161617132
0.16159108006150846
0.026018503437391486
-0.07709716841884669
-0.1689448824050537
-0.07172006424927019
-0.001261815343931573
0.036613616410906165
0.04554638316981053
0.03514986182052742
0.01664781428558382
-0.0006692958852508999
-0.011324480981604193
-0.013866749074268367
-0.009936695488651729
-0.002850719062206449
0.0037686113155857995
0.007043713580463443
0.005522242500364614
-0.0004686594083303113
-0.008779043437099211
-0.0157807566201446
-0.01723139322896285
-0.009716962930032515
0.007498722900872363
0.030725910873409062
0.05100455394106435
0.05501776976159346
0.02824688780086581
-0.03998389310631157
-0.15101926091968512
-0.0932291032394573
-0.04243339585177699
0.0326985936747644
0.16154474823558468
0.16195838840707297
0.03408910675633823
-0.039769044075819056
-0.0892350591329603
-0.14632132293315803
-0.03612921126441187
0.028990378486769292
0.05042341843300919
0.040110792907580725
0.01514165922883159
-0.007836759459641001
-0.01703160852038661
-0.008184178691870924
0.014547531346873473
0.039465195478952185
0.04999194161638134
0.029051105881838762
-0.035383793362420396
-0.1449072843840056
-0.08748155322974892
-0.03833984038812644
0.03432083659166133
0.16021060763339104
0.15755961256159456
0.02717267055610856
-0.04763705839344256
-0.09532325165247423
-0.1471436203971302
-0.028618531753883247
0.04564093172096444
0.07274552831789872
0.059013557220695165
0.016179042667156644
-0.041935789436412414
-0.10164690467231204
0.04910008618333045
0.019355255186964317
0.013772575267676576
0.0316922848872043
0.06736884937657645
-0.08836270401152997
-0.04536961623057116
-0.011430617997744013
0.009554384018809571
0.017797148723311333
0.016507699745569742
0.01015135500053833
0.0028348832019538745
-0.0026975460889476143
-0.005338678894268164
-0.005320281194860486
-0.0036290419064016
-0.001413048087428073
0.00043856751242223117
0.0014784549560749836
0.0016780931949769249
0.001282454223126397
0.0006328004829376544
2.4639455479954293e-05
-0.00036778963006971123
-0.0005014105769132214
-0.00042962539984304197
-0.00025025664227807347
-5.874233344939474e-05
8.074325362608508e-05
0.00014381722817864175
0.00013887728830292586
9.244435936856537e-05
3.423709422370175e-05
-1.3269271281660723e-05
-3.919084564065666e-05
-4.337178408398739e-05
-3.2492821516427686e-05
-1.5477203611981575e-05
1.15412002636173e-07
9.945462988833397e-06
1.3064053941888312e-05
1.0963585374063046e-05
6.215791105556652e-06
1.273408489254279e-06
-2.2509441882409056e-06
-3.7790781521164593e-06
-3.567619365029159e-06
-2.321387796843186e-06
-8.090103999573982e-07
4.001892122319438e-07
1.0405188621046732e-06
1.1212461370272384e-06
8.227152836968658e-07
3.7727264306255915e-07
-2.2283956583159545e-08
-2.682874696367454e-07
-3.404827148263327e-07
-2.8020261764870897e-07
-1.5482637621061517e-07
-2.7189855728572187e-08
6.231321431034807e-08
1.000087576922267e-07
9.327598074631042e-08
6.038996492429202e-08
2.07470785466283e-08
-1.1553769083019722e-08
-2.995821349361162e-08
-3.436939374012935e-08
-2.837697148726737e-08
-1.645605870559299e-08
-2.241180393134535e-09
1.1791526643657011e-08
2.360443721751694e-08
3.06471878089344e-08
2.9549821469378728e-08
1.7033747173932906e-08
-7.980422791597786e-09
-4.181105661489041e-08
-7.434908263440381e-08
-8.983837777156688e-08
-7.119487958948814e-08
-7.731074694317895e-09
9.565760669329073e-08
2.1163561850057638e-07
2.907074851774795e-07
2.7267036720599156e-07
1.1007124344955126e-07
-2.0095403526992304e-07
-5.934080588202586e-07
-9.212628067174545e-07
-9.855217279735844e-07
-6.015385155737286e-07
3.016442758126313e-07
1.5803177755904607e-06
2.822311784556607e-06
3.3942847729448467e-06
2.6254676361578654e-06
1.1650922781140105e-07
-3.906171143509019e-06
-8.338744943472989e-06
-1.1234681754562691e-05
-1.0274903178142957e-05
-3.6944291525076235e-06
8.526190244117004e-06
2.363812837076185e-05
3.587216029127074e-05
3.7528710819089614e-05
2.1651913400456263e-05
-1.411073743951522e-05
-6.367709448639601e-05
-0.00011063202338571999
-0.0001303195151432004
-9.721040706153706e-05
3.0230846118735575e-06
0.00015994455041456394
0.00032912238570150074
0.0004342940372682968
0.00038647297947943225
0.00012041620647824293
-0.0003594428139282113
-0.0009407374200155641
-0.0013958940825485146
-0.0014274045738246319
-0.0007738212628471823
0.0006405362542692811
0.0025606069857175245
0.004334600033509326
0.005005446620799659
0.0036061173105408997
-0.00036831215577401666
-0.006441947927391765
-0.012821757005937587
-0.01651679385281346
-0.014122469602051182
-0.0032777471448233887
0.015515591436270425
0.03736718890609465
0.052635363691506766
0.04849835885856883
0.0126927885273825
-0.06129275629880325
-0.16934717056409132
-0.09459552871452152
-0.009952398447839022
0.11438667129532719
0.10063853586117576
0.15418117023942457
0.059314766517366085
-0.01772136763526289
-0.11900038928978582
-0.08159189781221834
-0.12525923518680906
-0.04541831240983548
-0.013769993033971396
0.01354417086271147
0.08283414141382442
0.2289813306299573
0.06531529933658232
-0.01938834747481645
-0.05592426728069535
-0.08373942859446261
-0.13816342486344346
-0.040213205674114384
0.007859866275181648
0.020294712331338404
0.020050466101232376
0.028286486710944376
0.05437366185325596
0.08947160989007143
0.10593266168920912
0.06353200980035373
-0.07828136627488137
-0.1450575999931526
-0.13365949183415318
-0.2053842242759352
-0.0895968788841338
0.10160980352645772
0.25119057476825646
0.21410276628748523
0.2011946676100132
-0.024303563547746057
-0.13652413185385898
-0.2267779771428017
-0.18059106933816754
-0.059378274170315055
0.10849129876712306
0.12660257616858953
0.022270665487728592
0.03555759251615263
0.009247827692786387
-0.018226191462956735
-0.01654699456647188
0.03540425644746226
-0.049878079212372854
-0.06733108500493046
-0.018353502690615264
0.08954399340204745
0.04277154168478745
0.02227791676389274
0.005629311177955401
-0.029323634459881988
-0.10005415279325665
-0.01571852410274927
0.024383586910756937
0.029704820147593184
0.015179154450342295
-0.0030996877812068625
-0.012115522668923009
-0.005300027156216142
0.015418200201530036
0.039218422045853484
0.047958848320175794
0.019855063027484025
-0.06509832383762072
-0.01907997221654675
-0.04150952378153458
-0.11705453818159157
-0.017784561754147953
0.09051928923716653
0.039366589690269425
0.048538018928499495
0.12002083431750452
0.03709710230549346
-0.03079446637075644
-0.11869942028242304
-0.05519969504641483
-0.05347357338169629
-0.10733674982018787
0.006430160792974592
0.1202474270117775
0.06505968093308838
0.06056542634354823
0.10991065661872039
0.0009750321990187769
0.3142241277790087
-0.5652993533511477
-0.23650475399045998
-0.07700077011396707
0.15186444606162336
-0.11001881275483565
0.5587138119700391
0.14435556432435537
-0.007995929024567184
-0.18682537514270237
-0.09482599716834482
-0.02384047738301707
-0.031322463773474106
-0.12409879325670432
-0.052868695893219755
-0.11865259092408013
0.00971553460954858
0.07021768858568754
0.17973587332146368
0.21027174971214652
0.1756907977122198
0.2329970081677161
-0.502059641647971
-0.13007618220547296
-0.1422376815284374
-0.20220935599891687
-0.14066223336455302
0.6379511103885701
0.1416332633696381
-0.022354474427222392
-0.054152753139779276
-0.16000199312490174
-0.14599097545151712
-0.011634999941216802
0.05308067436782318
0.06617729296878265
0.04906415606444156
0.0212894903105823
-0.0032340054459255646
-0.017572850278600363
-0.020888360510650895
-0.016228312852798563
-0.008049855895540563
-0.0002747671949058169
0.004750306372522041
0.00641554642293034
0.005410275713818565
0.0030412241791900893
0.0006028671195293689
-0.001030594340286185
-0.0015510035915178922
-0.0011491724168933859
-0.00032279804343567623
0.00035586633594581206
0.00045139978562468863
-0.00018155509451905628
-0.0013269885257563689
-0.0024379876940130887
-0.002784104814645621
-0.0017124100439956452
0.001020127398260423
0.004939553357159739
0.008718043820369682
0.010361977512169641
0.00781908058495067
-4.672034922335012e-05
-0.01237347107388633
-0.02558061504459668
-0.03358037679045323
-0.029379040818346462
-0.008131756458271818
0.028925406940370414
0.07094960647113809
0.09611889075582082
0.0740268270814369
-0.02749673458473378
-0.03213094311964554
-0.14415522074785547
-0.14078957965124278
-0.17148517709657293
0.0339013031020561
0.14912672097429236
0.23210626747072954
0.10832493231576117
0.16301908073099777
-0.05489337971949847
-0.21838043564552373
-0.20239588173540107
-0.06532675817307558
-0.03759328714129498
0.08003367906227
0.10961937755011476
0.08461133378338577
0.03828264997460371
-0.0044633138846629115
-0.030465265458546633
-0.03733882835847632
-0.029859254430502
-0.015644603605357858
-0.0016475275159176302
0.007802601615671675
0.011395915322027845
0.01014152744206795
0.006198312022475542
0.001776434076114352
-0.0015729812382386766
-0.0032010163810002974
-0.0032328825908630844
-0.002245078748073251
-0.0009201472568973434
0.00020498070658186664
0.0008528835453169142
0.0009968299031334626
0.0007770415578369695
0.00039565481428393076
3.0953188187128505e-05
-0.0002094633124232189
-0.0002962695763328148
-0.00025881128480102235
-0.00015440604742670042
-4.0196973828033166e-05
4.460207974010546e-05
8.43497433174454e-05
8.319728011977099e-05
5.652506051507061e-05
2.2022557905049995e-05
-6.675723525873384e-06
-2.275260232627578e-05
-2.5830253536929286e-05
-1.9723099735385055e-05
-9.708728663655497e-06
-3.4484473548731683e-07
5.687552839683764e-06
7.730932352948312e-06
6.613124036539311e-06
3.843667094659599e-06
8.927337507494542e-07
-1.2528478650321491e-06
-2.2197972699042086e-06
-2.139448735348955e-06
-1.4214761674182326e-06
-5.239290488798618e-07
2.073587262081359e-07
6.053915939068515e-07
6.684064500701963e-07
4.997484465924764e-07
2.3706130480620876e-07
-3.2071435458776917e-09
-1.543127970582987e-07
-2.0176973011842636e-07
