0
0.00010011965401909471
0.00010058751620848074
0.00010093045687364251
0.00010090696019720164
0.00010031591418459488
9.911917399986717e-05
9.75549516348266e-05
9.61808267079002e-05
9.578433179858758e-05
9.712831367122988e-05
0.00010056065988369448
0.00010560199818008596
0.00011070177274188996
0.00011338063857567877
0.00011091323048327244
0.00010152847563799238
8.583631196795659e-05
6.790911223880396e-05
5.528444877198494e-05
5.7261749331848225e-05
8.134200575725852e-05
0.00012848728377463383
0.00018885121213445862
0.00024035791658682485
0.0002524830510864268
0.00019639301721720455
6.0136050289183525e-05
-0.00013566905553843002
-0.00032908951699788414
-0.000423420782838582
-0.0003146628515809614
6.145883408725359e-05
0.0006747556040944715
0.0013606164781018162
0.0018230972479395986
0.0017045215216703
0.0007259012608298943
-0.0011299088264554585
-0.0034577529426881286
-0.0053845984296457955
-0.005727852865165408
-0.0033976473325632896
0.0020140047647512135
0.009639776770003716
0.017030363690415842
0.020453485277458307
0.0160038482220695
0.0014471745074556494
-0.021690188802134074
-0.04669184050711301
-0.06201570077030593
-0.05441413527816945
-0.015071688734687484
0.0521435022327723
0.1225217467866229
0.14552960083978664
0.045924079332922856
-0.06760054749325696
-0.08720209431935012
-0.08734576627345222
-0.10716623258849815
0.0626689893808379
0.2867949185295849
0.285631127970633
-0.17033047616573366
-0.8743811124380321
-0.8104240306887028
-0.39710242082602015
0.4541387296305793
1.8842606834718432
3.264623578334908
-0.5633401632366916
-1.3790820231456562
-2.2331826558837715
-2.5168754161277276
-2.515427026996804
1.9192268287280585
3.192644605223869
2.7545781561471765
1.1352046025748879
-0.5030116235834482
-1.4837382390966822
-2.2458047354022193
-1.3538411913515076
-0.15853924293690475
0.8551572800134534
0.8327739241277798
0.6589189128507573
0.25138452718310617
0.07478371792695741
-0.10876143639080979
-0.05042598878952088
-0.19609054639317047
-0.2519227879382849
-0.3475805944924102
-0.2072672824002868
0.26659682129853807
0.5989539262338863
0.5441824951112295
0.09271879755452349
-0.7151723366584567
-0.975114609342915
-0.5171600626559415
0.07147422003863486
0.9995413858805333
1.8154910678712335
-0.6355819908672297
-0.6246242583026098
-0.7198397527202225
-0.7502795623596328
-0.1686151507954909
2.580097515928735
1.290827719567946
-0.7555582255759646
-1.3323048621439468
-2.214606439218924
-1.772665329504167
-0.23971583642155375
2.74652141123184
2.370184683950505
1.8982178831004215
0.23699449762867414
-0.9911888692573427
-2.277161758721996
-1.8226822206256066
-0.9796602944513597
0.41730661497256816
0.8124620858822454
1.0109592709184783
1.031162383394926
0.7784993496711153
-0.023669354166171726
-0.43519563560215135
-0.8452436907117992
-0.6919972227370499
-0.3878219578992143
0.1270191525945804
0.3945495382348541
0.4207658155634213
0.24529253513374943
0.31587593189191077
0.07831412131988884
-0.21680566500189535
-0.697867210209683
-0.6591239102978372
-0.3629368165455886
0.3378619268473536
1.1650245447346532
2.785978581108083
-1.789001651544731
-1.1767659561248989
-0.9739658841182015
-0.7234674239996166
-1.5212091084194552
3.131989857717187
1.6561406733005744
0.53435533254802
-0.6942333495085213
-0.9823983433347744
-1.0853342896999572
-0.47157842224857666
-0.06742739013756029
0.5507300248196503
0.5226002448923482
0.44880132498065667
0.13701325289111738
-0.03463737237023557
-0.3321152084433948
-0.2628884706429207
-0.1661565819635374
-0.005241129106474569
0.03306437516621171
0.13304328378162555
0.2435689295148062
0.27713195944705454
0.11950136856646142
-0.14878765892477183
-0.22322347476495355
-0.3471345391350755
-0.2950363995371807
-0.1756941554018542
0.14277046557258627
0.19083524259895765
0.25010260636446063
0.3149861021578929
0.4769635506098156
0.3397485692331536
0.06575150232557518
-0.555554872506616
-1.0360737941001805
-0.7380768458592106
-0.264200224865667
0.30378644268348143
0.9275582384032799
1.121453363677693
0.2787191859841645
-0.36254669110763377
-0.5078352921379761
-0.36015223087952813
0.0403860715169389
-0.1277794340474877
-0.028545632120719207
0.05026451250479411
-0.1043082809088708
-0.24732685939929844
0.2968259775194324
0.40394430032526
0.12422445838221123
0.06838147017844276
-0.1910085908489815
-0.10512097046152115
-0.12798189505848087
-0.09687934549137778
-0.22029065197427317
0.12373278815627549
0.17950663733355912
0.19994531658910714
0.03252719067049777
-0.09059222161567175
-0.15683915009041402
-0.1732901776725853
0.034964893399075096
0.2269876560499129
0.34998284410192854
0.14787697829263652
-0.22413567949658775
-0.38182233812801813
-0.29804032490973614
-0.30118868511097324
-0.09092656833312009
1.2309484282248329
-0.8762939446658409
0.1776452119074894
0.702037729936162
1.7381675872958122
-2.100852511072132
0.4297001657037301
-0.731530131694481
-1.3104557567901702
-0.8954940860051176
3.620536147316828
-1.63220334234852
0.4213864144453748
1.142385207193012
-0.24873851986596768
-2.4659116960598952
2.2732505751998096
0.29166701224040864
-0.4975045927174348
-0.7409656158310662
-0.202934590540905
-0.1415284118566571
-0.11214036585456318
0.20284168313799672
0.3478440799223314
0.44666475324706195
0.7693072492256015
-0.27627873109532847
-0.32626524482119157
-0.4264282169867987
-0.5982859231198423
-0.8235568532813231
0.3428226610435204
0.5336222217191074
0.7200866880312956
0.7765705767473474
0.6812803672368967
0.16344987347429946
-0.8108302097737938
-1.5400717887053785
-1.5130802633959706
-0.39290985600532596
0.5258713175989992
1.6004260273698547
1.702771708163414
0.9112099679046681
-0.7343241983879791
-1.4060003323606145
-1.2133490117861108
0.08291953002120249
1.1377399122320562
-0.7422443463588855
0.4131434701814554
1.0390757849124026
0.438580489726745
-2.2084579867831087
0.7656184710693328
0.11823909450412425
-0.7203613578969642
-0.8858022011860857
1.4658392939636458
0.9005188251217471
0.2639076353903707
-0.12939277874947955
-0.4700470600861008
-0.6016231324915358
-0.36120694533796566
0.0679948548414918
0.18140125651397515
0.3551216028473094
0.23288240119031245
-0.09285662559343845
-0.29955565811494406
-0.45206831749365506
-0.020993102290749667
0.4974217982750743
0.7638419951155413
-0.011375901343964885
-0.25908583372089117
-0.22710811240743276
-0.3503053289832105
-0.82826567636164
-0.021070218070799125
0.7346259844553017
0.6974342888395351
0.8967079883970115
-0.47357755804299145
-0.438197438317309
-1.0112213722247005
-0.5728313680253865
-0.46959143393659325
1.1572068490914862
1.1273416458501813
1.585646592457957
-1.0031089911638975
-1.2216894441002608
-0.8452000093002643
-0.19124390952984233
-0.2990929938736453
1.2559758613013412
0.7256836691690597
0.35113904482176433
-0.4566784980308005
-0.7125430324417419
-0.43671684643464115
0.16712485110594072
1.3256407702821924
-0.9003676600788001
-0.21863979246159262
0.08740703147890266
-0.05433396012587668
-0.9250274912688412
1.3596717206500342
0.426165937667155
0.23109458068118194
-0.5318527402681341
-0.8078861150845711
-0.35003591628778485
0.506768685488358
0.46085455344141374
0.8520245459477411
-0.12905022599850174
-0.6267807198407331
-1.1086286369760001
-0.7694202660108123
-0.16419582373080893
1.331468396536649
1.6526715628599915
1.5982187232102465
-1.5693704311885381
-1.473605125400424
-0.7465092790512484
0.040176635013845434
-0.592534124479294
1.5594724513511025
0.9463646251386195
-0.17623254029267438
-0.9722552589404192
-0.029160400539579308
0.45227275685294577
-0.12805948287051871
0.041522139205515896
-0.4101858312354389
-0.23969429315637705
0.1994199387101716
0.13642892173401333
-0.039827419344698335
0.4007084799921713
0.1241326664674892
-0.05375577768908912
0.6664734099396837
0.3182676839348932
-0.5739450234209093
-1.3478659930483192
-1.3881077921908795
-0.5615048514393487
0.49339266234503937
1.8438309457707114
2.5516481241438775
1.624808882907603
-0.33428362519764804
-2.588371574739056
-2.680727763479366
-1.2788071240547718
0.09079884507726459
1.3923216237715714
1.939413121281779
0.8175070217469429
-0.4720674899556185
-0.9092862976779591
-0.18538948388830662
0.724126112756659
1.629534622021733
-0.7705197082354609
-0.7656159620062702
-1.110337345105979
-0.33066344934675196
-1.4865508113825698
1.1985805066926343
1.2528159210027499
0.645208675394743
-0.11360070918684657
0.568409264381098
-0.24659320740020557
-0.5965986757648307
-0.5684707802960156
-0.44778349753154184
-0.08812016668285168
0.2923523709263485
0.2917196458992068
0.2966211424935411
0.6631329902006314
0.5198330119000519
-0.001982217212996913
-0.7177680146965871
-0.7376550796670187
-1.2386818762371385
-0.8845255305486203
-0.30180978124641344
1.4005698220791845
2.1065527607425887
2.4143274004061603
1.050238265127414
-1.0082744646597734
-2.3292969133805284
-3.412386237771159
-2.3494067246532246
-0.4245654697498141
2.5350198647264084
3.7097729669084956
2.6339493317561895
0.03377186632293943
-1.1886713176816377
-1.6345619245102267
-1.8103774564782829
-1.1307561426585702
0.4155326041820803
0.9095368934184672
0.4653645684094028
-0.05512411600537787
0.6603355425812226
0.2929334368616768
0.04240620119882115
-0.1888305603886477
-0.38350916483918895
-0.38249671146013553
-0.2577863102563683
-0.09638866996386543
0.20173925654995611
0.5170311918877061
0.5060308192678195
0.41122413459611806
-0.10879262896191205
-0.3326454037433575
-0.8274676522396202
-1.018808439264101
-0.39778932029570596
0.42716128778350587
0.8440288537700216
1.5425051364583366
0.4432453670357486
-0.5246655156439363
-0.7932546140873136
-0.6880580832690968
-0.5499521407428476
0.5306203322174432
2.157341576004387
-1.1473806720262294
-0.7310806303134846
-1.0150487313541314
-0.32335055044674443
-0.744318879984505
2.3832216403111515
1.384732489280483
0.6002060512601057
-0.20450052230545268
-1.1643114543038238
-1.206365474809332
-1.148587672639288
-0.2437707327580943
0.6128076719124274
1.0208427591469997
0.7871608687668964
0.6490181634500313
0.036199683840064105
-0.5191239005382418
-0.7355480275932156
-0.5222569345555098
-0.33110501731914915
0.0618092147562073
0.3416655438342065
0.4171773173360988
0.37672167844949594
0.2556339037286934
0.025849489137235976
-0.1902566755349199
-0.48898667287746894
-0.3501714350318817
-0.010931696730406872
0.14325354939697105
-0.03070380889401287
0.14483528916135627
0.343274681931146
0.21453919030153903
-0.022124941767839502
-0.17155728417169896
-0.04581299020249858
-0.24444490373969607
-0.3403608226914265
-0.07761835584605305
0.21683087831070702
0.2108715775260522
0.3423830909213041
0.0011599314247056278
-0.07563085661649953
0.20728244454267977
-0.07399657592632991
-0.4344853158080239
-0.15513835986370336
-0.06816528827232173
-0.1574148799144668
0.2267042471586309
0.3434858124544741
0.23825990468438413
0.12749026255431228
-0.0024462918571665675
-0.38385640000302124
-0.4502836022639367
-0.021960580333111664
0.09908323298093974
0.3232075247933307
0.2614850095733266
0.11556855019438732
-0.1255081934363399
-0.2811927128053696
-0.5723371151194223
-0.017200693659210238
0.5663920018010228
0.5556900981108961
0.32218757890055344
-0.3578640843344379
-0.4818800777519111
-0.1971801479063163
-0.388053523143686
-0.4838001340769524
0.5101811960756553
0.565917508363449
0.386380988776612
0.37655493669352674
0.24445115025429268
-0.1661105807931933
-0.42094172732393365
-0.8380986792175725
-1.2497303792586314
-0.00015100448818489848
1.2164441522579763
0.8930834357059082
0.4495342423179233
0.601781376666819
-0.224667466205789
-1.2435060863278224
-0.8405001322422321
-0.3185287383177012
0.32419579254483444
0.5780128918554479
0.3796425489350584
0.2642153106742329
0.12972765105337136
-0.17670077683889154
-0.2514996946204086
-0.11423446601900218
-0.1847476361603645
-0.06688932444110339
0.05628513281446094
0.01563086808817111
0.04081066828766152
0.14247692394010417
-0.1023715303262269
0.24323063760669728
0.2817082582452724
0.29984859549029025
-0.2005560542509215
-0.6666547472582262
-0.264024049691311
-0.26396151951650854
-0.056576353857571295
0.2109600939742946
1.180619278956616
-0.17108488108379
-0.5751578776832765
-0.6934388576006858
0.07567355340033781
0.40684505551149364
1.4763989384814968
1.6193185255913691
-0.7791865309521752
-1.5673857818818184
-1.3178424210551598
-1.8705122542011232
-1.165846807124836
1.4229385252434879
2.28792359993244
1.976465251026148
1.2441130825331042
-0.17878370472997507
-0.8975221896709351
-1.4749040023969715
-1.8265995654477498
-0.8552387039571274
0.23146260691000675
0.9067807719721408
1.0369163524629266
0.9607043093100793
-0.2199436092515636
-0.31072737152177793
-0.24926945375401688
-0.09151145952087376
-0.17482290208727647
0.7294374993387656
0.2656682640004588
-0.4599752831003507
-1.0454312666951715
-0.9821405707520712
-0.07855385816820794
0.6822099323721149
1.4674117164965255
1.5328914690811641
0.4050183523566609
-1.0796872099732422
-1.490276591795778
-1.3085841994615233
-0.6699464373940665
0.6357571335824223
1.5038996183617759
0.8226632442869768
-0.01405098418354895
-0.3587306802392615
0.08324416955000012
-0.3143718809431233
-0.04405840311081328
-0.0038756061536801625
-0.04420208100376861
-0.7315050721670355
-0.3351933041371375
0.36093645797020685
0.627835757342726
0.5532519991064689
0.2119144520278589
-0.3455885299997075
-0.4849393024204072
-0.37067695298627185
-0.1523997587447293
0.036006511498748735
0.4629797595370277
-0.021402277088908468
0.39748664071744205
1.0950969804806856
-0.7784190570439777
-1.0711203251470405
-0.20212447286114404
-0.35082482831180034
-0.6725888765685932
1.462593373014333
1.2259990440896638
0.3052464436622068
0.31857449699131835
-0.32799982847877446
-1.1578545070221042
-1.9477121988987534
-0.2930568473579251
0.1635704915016458
1.0450501811349826
1.3226383944334692
1.8132009918775152
-0.07054756434007455
-1.1004991859530733
-1.5578849343148502
-0.7386370340886774
-0.27954474934311585
0.47056986035317466
1.0354297159315646
0.7725268175583431
0.0383315039773166
-0.02298963232174623
-0.2636498477600606
-0.7004374942915159
-0.6862359671303706
-0.3029219807293115
0.21526413040196973
0.6321914400809139
0.650897858094959
0.46768997802188195
0.15794541866787787
-0.29916391890581545
-0.3636868965253586
-0.26293680119077106
-0.5257239865399812
-0.14079960540891778
0.05041071578563135
0.12643073235374902
0.031983531163733696
0.3114731537395753
0.04467701294328474
0.19785130173810292
0.19978337705972085
0.5476593579113329
0.04219912208285811
-0.3549406657871642
-0.6555966780898571
-0.7906928190490004
-0.7857662738275737
0.42351320478304094
1.1408981086763192
0.8445779950190118
0.3352090258490506
-0.0814519715057487
-0.5718720970827635
-0.7238509493087271
-0.08903106291949155
0.06040434091313409
-0.051251980206109334
-0.11400300194729555
0.035497974807271286
0.17010549152034554
0.428524531741534
0.48350402104644524
0.1309938923720394
-0.29666078284805614
-0.49878781507725894
-0.36815036696436354
-0.16081509797198312
0.11590142808902068
0.2958188596499634
0.2329311524647547
0.17730349060294248
-0.043076933157097465
-0.22995526483352052
-0.21253392684691344
0.16117393890133383
0.23597982409637977
0.36281714197425546
-0.2864977052572565
-0.5048939983344531
-0.2411112923027117
-0.0023712119904592682
0.3285007406022387
-0.1350934405467083
0.2858548943772425
0.2130536301191197
0.4041042092268961
0.5661877020717213
-0.6113948882782503
-0.8152316117599201
-0.6725735470161518
-0.5400049393958879
-0.12484973739773847
2.0672176286934696
1.0799283488799
0.07645936223895992
-0.6513865391731809
-1.4394133974528358
-0.996656130379722
0.2309518777860315
0.8626991891734271
0.9554456325268825
-0.034172385692610226
-0.07676200842892915
-0.17605774645094768
-0.3565238678595718
-0.4434272056461365
0.35342843715363165
0.04591102490671154
0.06362923492207058
0.0441238131302693
0.0222954070318244
0.022625697935605236
0.055720870291861145
-0.08085167664858786
0.0014579832229984144
-0.11238540309070628
-0.036027128522596125
0.021553488332889642
0.057590458851388825
0.8765231693566164
-1.1083105678099916
-0.27287236429218825
0.21648705561369444
0.39639551610618273
-0.5042265781586548
1.3270119855337643
0.08559605711535688
-0.6393698278379141
-0.8487758361013934
-0.7233319921374556
-0.03219106735136563
0.6362209602656786
1.2323934273585904
0.41507136728384963
0.3536037399558855
-0.027075942692809364
-0.5674351361234449
-1.3847927727104237
-0.6069939913775653
-0.3556255630712394
0.00933877658461573
0.5926341371414555
1.4422573650523438
0.640255989365574
0.03870569684479424
0.05831995409155038
-0.05376919934765751
-1.5283729535945045
-0.37111169407739814
0.5193406259957005
-0.6066432505177746
-0.15073238777602463
0.9980615114738628
0.40998015970080276
-0.339185479837167
0.2919213259008222
-0.2099421812941213
-0.21473060654316808
0.06082432356482503
-0.031234348626403487
0.04640419484290859
0.03131378725889875
0.07385576802282023
-0.05346782491897975
-0.15109088101584728
-0.39379398402182875
-0.14004221852728194
0.2514890025760111
0.6032360101396109
0.7069521861907515
0.1277955676046916
-0.5730964213817135
-1.005702970261785
-0.724878010029984
-0.22788508597728557
0.8178268080392083
0.9265629715664201
0.9487781925206689
0.2518602247485792
-0.46063567766395924
-1.0982257844260224
-0.72432454577909
-0.5167590251754431
0.03253169159550757
0.4766831000327833
0.9481147814664184
0.89474400427296
0.2446343397679866
-0.38610731738210663
-0.44507530095644177
-0.5736856273516454
-0.7416343913033474
-0.20825637710740047
0.2780983122997125
0.4461803544599393
0.6492627104045074
0.41495594893997706
0.014968045236175558
-0.33785222243226554
-0.46980852699498726
-0.41694171227830457
-0.0002119284340970154
0.3857795831401092
0.36995240928002
-0.0064855107602042675
-0.3029957464115043
-0.4913033909587145
-0.16635414242726457
0.4427617862033611
1.2657272346597686
-0.004084508985681752
-0.08612012373910695
-0.673312718666004
-0.9914911532110104
-0.9781512436911329
0.5037928174164363
0.6165394917160895
0.6792864470398008
0.9099427951350518
0.6040615228286232
0.36545885627281305
-0.8165554807548702
-1.4680513041025527
-1.1468869414048724
-0.8113531388901566
-0.2612386995994968
1.3558519586552706
2.407596343070575
1.0596198363101326
-0.1774853831970732
-0.8179855801561173
-1.1031833224210261
-1.0764617739549498
-0.4765667797442294
0.31945855589079414
0.49559096390360524
0.5518711207879561
0.24043357906049495
0.3076197052232175
0.05861815093182073
-0.05046440331737039
-0.39835253239040846
-0.374007764666587
-0.3554674371340218
-0.10279860789988081
0.23134146566038546
0.4786934893983702
0.4315937557641831
0.23138298702482127
-0.02266604842576255
-0.24436042936194108
-0.32098312604006085
-0.4780252918944716
-0.4632729377701052
-0.3598728139912718
0.17156037781355019
0.6331953512994539
1.2338375288675818
0.6612907535678225
0.5018589992812641
-0.2906513211511439
-1.2952764155554641
-2.529973000444051
-0.6046012127854979
0.4518050472990809
1.4918989852246594
1.7138144718987374
1.1401091389972862
-0.24296498332003108
-0.8675588253335971
-0.9014337868590077
-0.9356980152570675
0.518230887687045
0.6960464152978878
-0.5965680468680917
-1.0023078650095363
-0.06429806734351291
0.697955917644418
0.7045032591333096
1.0457927956862332
0.4519050795705443
-0.08695457084885867
-1.05414216401651
-1.1177662216307833
-0.4516092818368636
0.10684292380597595
0.2501726142022029
0.5547415577313168
0.6156450274054626
0.387042285612831
-0.25445867275300255
-0.5173413082721641
-0.2790131397113819
0.5426445757771573
0.01941276305652557
-0.5616922717286564
-0.08047866649480355
0.024783153431557098
-0.24403166074661287
0.7476047425508912
1.2607479892562388
-0.21422133394839743
-0.9447914628718957
-1.3440733915221592
-1.1787520176016548
-0.21369142851177897
1.5084351089333805
1.978981078682963
1.770118365390075
1.456459410591213
-1.6758525992877364
-3.4608499806123407
-1.8881808893415506
-0.6129045311009229
0.21709633520868027
1.422382949945269
3.3945386584317
1.1147089024445047
-0.14744288364559105
-2.0264403724463933
-0.16196630228254677
-0.45480697221697847
-0.32903861969249754
-1.0373376852234013
0.37348800767034546
0.23728803036571872
-0.0014755776010244095
0.5220596740388888
1.4106929359838776
0.35444142583998645
-0.4751298119764946
-0.7882969105853024
-0.7171653059737192
-0.5590444180792885
0.2547496076961002
0.5566964429148059
0.41475939336648526
0.09412964087811941
-0.175175165681355
-0.2159265899893963
0.09485571524093143
0.2379981131668716
0.2749618280981987
0.07898820365311604
-0.2292553390672344
-0.649076247703458
-0.48093663411782295
-0.13128884240283484
0.25558573259405243
0.5455323065580704
0.7578439950397325
0.022054672721303008
-0.23907356398655896
-0.09824761348864093
-0.2921731363042165
-0.5832928842574503
0.27285467477625674
0.34761477036036253
-0.053795192115801756
-0.19396230138395512
0.291463114321728
-0.011815859831856297
-0.10131369984507742
-0.16119361140398508
0.2347599331961296
-0.08024847434180359
-0.07016246788224305
-0.10067586452886909
0.2562652350714256
0.018936669148051193
-0.005518155117637993
-0.01948427029244377
-0.030845435719201834
-0.24840802067655796
-0.07902145944227298
0.2723880092759416
0.2007363843525823
0.0993589776772496
-0.038190601311499796
-0.2131518944358843
-0.41681828117404474
-0.23113100251596266
0.16213652737571094
0.36538765875404816
0.5499204035457486
0.4515482329777529
-0.015716164987838267
-0.5291263522578638
-0.9210784422496806
-0.7548532074605379
-0.12732572509071258
0.6978798442925681
1.2393904614260063
1.7536230101010344
-1.1794236055924474
-0.831427478220848
-0.6748666162139578
-0.5330598614950415
-0.7563537103073998
1.5654429598214346
0.7628240629043583
-0.06075528666489378
-0.06250044660886396
-0.47004690153066286
-0.17039333379253185
-0.0881658612335008
0.4373689024669338
-0.12801828976866092
0.10243355123293536
-0.15073295335418838
-0.12441974234703287
-0.2105035189251618
0.03831989852990952
0.09453774935872479
0.23688769722127703
0.13199942977275372
0.02220814762743193
-0.0771928572346159
0.028461299146056003
-0.07453502274683918
-0.19496684660570285
-0.12710087381728125
-0.04812411926342916
0.07655826285827638
0.2824755414379729
0.19447281508660247
0.019443445110782297
-0.05380210865322917
-0.24874962237853854
-0.39420278476612475
-0.12176440691609978
0.12914730549254572
0.300916526415026
0.5094914133021315
0.6479879835572885
0.20865155489617343
-0.678895946921613
-1.6063536278161779
-1.0633124270290808
0.3502898328183474
2.4736934686822876
-0.884222151690476
1.397575818793652
0.932911908310172
-0.5448998831157853
-3.3238542414999523
0.748692620267257
-0.5016308672068825
0.009164999847593273
0.9690498885813439
1.6027514104014122
0.6246486656389763
-0.16399902558952198
-1.0293736332349859
-1.4297315602244967
-0.5427959019727068
0.5747914982495415
0.3840819426776119
0.6252840349888411
0.265214609375187
-0.14842367481875962
-0.3140825462651458
0.2166975837067234
0.04729408141248454
-0.04800487776358792
-0.30638584010763836
-0.3629729671408814
-0.0460095358770189
0.21768176040993215
0.390480300600431
0.4130188910845057
0.0032855181571262923
-0.3295559952148502
-0.058855573470402635
-0.009693814733195395
-0.13358725059284454
-0.29703577299250705
-0.0890905507324496
-0.2494501201346713
-0.11418993745401147
0.5289530964052492
0.7886543309962089
0.2364470880858243
-0.0967384952707189
-0.2912078629582252
-0.48440714809865426
-0.007268920590270574
0.2734623370454473
-0.20392888735800258
-0.8773199760819174
0.13500711579750335
0.6099735534062467
0.7834110003916701
0.3144064882376149
0.060905092956658684
-1.1322925137623954
-1.443719877583913
-0.6994953045065462
1.1798791296362778
1.5202750385288537
1.2512650902215754
0.7141736202604212
0.14009723535801988
-1.0114762662119692
-1.891720530778436
-2.1340612700098243
-0.6095513337938834
0.10780612922554937
1.178472258665025
2.6875816350253623
2.057944435973532
0.14896465047629687
-0.7278332070147902
-1.890922218578892
-1.919895389219227
-0.29950714361683745
0.4748425194975005
0.5141318402856054
0.890990357245477
0.5661606399922496
-0.08153494134427804
-0.3020412267371462
-0.19381731404443564
-0.30406297746276084
-0.22079427903440443
0.03476108212661901
0.41317549866760306
0.442973320405119
0.44450433916586457
0.15576882615688753
-0.633017080294822
-1.448738631909429
-0.9269202328987859
-0.03985197479091971
1.2399011813091767
2.662803597477451
0.6480337542408678
-0.7188785351571759
-1.23256017639361
-1.8856318597641193
-2.001961084420475
0.9788400317952108
2.059363476745984
1.6132672633954497
1.533201410391199
0.0377741614234715
-1.4546014173718405
-2.8156746308207947
-1.5164880841894732
-0.6082975951357692
1.2026082911602292
2.008050495338548
2.736246935259792
0.6413564186781782
-0.9115898827911358
-1.7642304889994749
-1.223285734095642
-0.51719149171807
-0.09944572388143742
0.5796630436828523
0.6396715342646697
0.2996038841105155
-0.20056075891825048
0.3356976384960552
0.22312916798453108
0.08558146535013139
-0.1271858519265108
-0.3049273453225067
-0.3365261969572883
-0.2767291875980173
-0.12992253958545513
0.14552410152407186
0.4163793179058647
0.34703871285740295
0.17700225038035383
-0.08833065343324716
-0.271988558544053
-0.41017490187245725
-0.13627319731284113
0.1283899031183322
0.374647924079549
0.19974305904465953
0.0016570776796953277
-0.22227047680562612
-0.2726048681812451
-0.14467731923071847
0.1710398805272077
0.28416469023926244
0.19813706150678584
-0.0931141766237725
-0.20299161887881784
-0.14564969799869107
0.07124770461366921
0.050831086256907645
0.006926513987012849
-0.03981077576482287
-0.0680541747805202
-0.06282754713177904
0.1781016775849323
0.2405076969276885
0.09507454038914354
-0.09475803239504875
-0.15979911830222335
-0.3114603074974671
-0.13346108774773663
0.016596865990854026
0.19531965857035968
0.2554818406966428
0.22895564531008353
-0.0827167790515858
-0.1069290172723001
-0.08926607267852323
-0.07828078832403663
-0.1114708120715206
-0.006697140293662356
0.03920051551771026
0.045321020901810914
0.0376858641599642
0.039562487742832185
0.06409129412019478
0.11118360463720478
-0.03070263921860694
-0.17888127715419927
-0.14930298561721517
0.04896834328196676
0.01554612729735221
0.15680706145448847
0.08227449609394794
0.0018205339161856335
-0.07493312216926865
-0.13759091549269808
-0.17439204310556106
0.025909800104894125
0.26935997151303526
0.15142403812115704
0.05448185771376226
-0.0491447964324402
-0.18890775991085762
-0.18585220333336838
-0.045177324221476224
0.04507904092754552
0.1088549407167652
0.17306026307185796
0.058952946828447476
-0.022554973369664985
-0.07038140974565203
-0.08886673246045677
-0.08242405420423436
-0.052236012754203205
0.0033511561596847074
0.08509056164290686
0.1879507585198762
0.09817553068044757
-0.0052435513660532285
-0.14432396673232523
-0.1333980122210153
-0.17204546151221942
-0.04345962168236046
0.08026216085771415
0.22771694874975237
0.21718913716145838
0.05015689677245432
-0.08759087560834074
-0.217897979520823
-0.15940768450372184
-0.11938564184371692
0.10796800154160087
0.13637287537122048
0.17857490223628647
0.03837223064888919
-0.0926919646622189
-0.032834943241520295
-0.003250196864239198
-0.019920513982394444
-0.08687274386936655
0.007064301333357382
-0.11309290772150325
-0.014427421557379515
0.13463860229168598
0.15441341770706285
0.0466508263377615
-0.00729212277700869
-0.0419520237210331
-0.09836749634249671
-0.012876562658758368
-0.00745985486241884
-0.0841532758402879
-0.024741289046311926
0.00437345487580916
0.04343255078343056
0.12905703511898042
0.08533039778671461
-0.08128230160677297
0.017958708258790895
-0.04165194368318962
-0.09141788924090781
0.038082164206786305
0.1232400687969558
-0.048158203386891654
-0.07461647062175815
-0.1411581465367826
-0.022778967170720754
0.1087477047321867
0.07605891279543961
0.0882130791757246
0.13670312169964954
-0.0025334388292097623
-0.16136507264171068
-0.16862718962687212
-0.040260635741632765
0.025929233506317942
0.04938245592649829
0.06084020809705621
0.09407211508403666
-0.02184009286906711
-0.06777707780440827
-0.03693419809717367
0.06521438643915363
0.022612910651428092
0.011612459013101404
0.005106898488252496
-0.022588671719648356
-0.09103529799169567
-0.01036374496334394
0.019636123275897505
0.007772509493685631
-0.0322823453142461
0.11359784806588036
0.056404007218841014
0.0024207633615932755
-0.045928027005949563
-0.08756903158348009
-0.12028669163609064
0.06003169986850538
0.05773414348086679
0.07421330270299607
0.1051785224367798
-0.05970708446256893
-0.03414595773823146
-0.030411773114228588
-0.05447356277762686
-0.10319235462783119
0.035023515123075805
-0.023976584010894038
0.13355550944438335
0.11323920127258169
0.10958077904630738
-0.09229148247620039
-0.1105638218269662
-0.15889705069950077
-0.04035513369384678
0.05422773694940491
0.14304204309267785
0.04715648720794872
-0.01567069553551754
-0.034976338164462085
-0.008670148086066764
0.058198300416608624
-0.044126503559002495
-0.1275600453484583
-0.004420983477542224
0.11306509153561196
0.01236768670076311
0.0805706563562322
0.10592303352823042
-0.11858995697968591
-0.19079776787597627
-0.09643864158385577
-0.010265813256255984
0.09801706939094797
0.2547889575967924
0.07424483911679712
-0.04554295269030438
-0.12081650522373256
-0.17611326837235952
-0.03738919910931463
0.07274437576117938
0.13681152789382692
0.14271291407394354
0.08471561377855327
-0.23364444749069405
-0.19598694947090345
-0.17202202348016035
0.0780195118204936
0.19313990107853762
0.19877954461963998
0.09688985525842732
0.06357590159817188
-0.14415118442684768
-0.17484726827338812
-0.06737785911020468
-0.03940836952421868
-0.08336394447481085
0.02928846864565672
0.13733267858824938
0.07645749094464831
0.06772211907994165
0.11153395879012477
-0.01109426969458651
-0.13070398882803658
-0.07787459403885717
-0.07216511223719455
-0.11538582827470578
0.00858650845437157
0.12762420480618955
0.07123056432670447
0.06025272185668842
0.10005778695025971
-0.02068086443346169
-0.1255816309021377
-0.04247999135291249
0.0053365077184806195
0.005807247447673646
-0.03898648762471312
-0.11414175469080468
0.002944872799279516
0.134928717128516
0.09659325940590476
0.08955329843395739
0.1020115313301293
-0.08583466214052712
-0.2926629888209475
-0.12710936556956706
0.016760810948305956
0.15747596452377666
0.11890299111892942
0.1214729154529592
-0.024147317872924144
-0.11892185585395956
-0.17347989235346886
-0.00461899920920112
