0
-2.1944484655153894e-11
1.9406022643804563e-13
2.7593416856602247e-11
4.9804214495417715e-11
5.28689614367534e-11
2.4164332534325098e-11
-4.0603431424586965e-11
-1.3044774164273397e-10
-2.1564686756501467e-10
-2.5151689760248484e-10
-1.9174828232690769e-10
-1.0284465049495003e-11
2.740815011234555e-10
5.809364132792778e-10
7.72109785240584e-10
6.862426973869456e-10
2.0484916660058412e-10
-6.644069919537075e-10
-1.7182677815380964e-09
-2.5445213928242266e-09
-2.603864526594418e-09
-1.4219131791048206e-09
1.1393309890453958e-09
4.618223856958275e-09
7.832934521640152e-09
9.045854661637819e-09
6.497333566684667e-09
-7.399275820586222e-10
-1.1820762892878088e-08
-2.35152616671947e-08
-3.041634823808163e-08
-2.6340794683396268e-08
-6.925926906409031e-09
2.7163663135712902e-08
6.764565958556913e-08
9.828013783055972e-08
9.825405649222736e-08
4.9783929860086147e-08
-5.1361693939634485e-08
-1.859108748681576e-07
-3.0694375185404063e-07
-3.4696780667066986e-07
-2.392384157995446e-07
4.891406461965016e-08
4.802059195857229e-07
9.251710792331126e-07
1.172458890861858e-06
9.854632716236202e-07
2.042675207689327e-07
-1.131032876810457e-06
-2.6839967520794247e-06
-3.815633394643824e-06
-3.7236997122605603e-06
-1.7433034297060284e-06
2.2457035585904285e-06
7.443328480300956e-06
1.1989612064788355e-05
1.3266015525414031e-05
8.74558434891772e-06
-2.7085615040658847e-06
-1.947611144705319e-05
-3.637773689578723e-05
-4.5161834585403706e-05
-3.6787920969027615e-05
-5.42426524931526e-06
4.681525782212491e-05
0.00010630029867514101
0.00014791552592725315
0.00014076970052030486
6.0064211226006785e-05
-9.715229432678619e-05
-0.0002978497957369731
-0.0004684043222886964
-0.0005072950854632802
-0.00031887734057222896
0.00013622467746807085
0.0007893710363780462
0.001435648446689544
0.0017568454224647777
0.0014142981920562691
0.00020657572173933477
-0.001748226164556516
-0.003882254864431261
-0.005197575962282298
-0.004521472079785721
-0.0010264563057571297
0.005051764498081033
0.011671599079510321
0.014458240526235866
0.006603385683072451
-0.02074718660801973
-0.07777856509238279
0.024752969592309614
0.07621870615842742
0.06709266273688912
-0.009180499896868586
0.046820893931660106
-0.1561205071446244
-0.19789953331711138
-0.04859627578943621
0.12565151878329872
0.15390556308897
0.25266932752527904
0.22357981420645057
-0.1410579670156124
-0.4466676464721268
-0.28472051479787513
-0.22847797417439797
0.15927025260992345
0.5082712919300688
0.4207750508531283
0.059830318826413306
-0.04705636216992969
-0.38930121678045004
-0.44736172281869396
-0.07050208655813052
0.13320754408299149
0.19229564800903118
0.15680203163856116
0.08016030936958111
0.004829327532656526
-0.044776816924341274
-0.06207166955346341
-0.053193628229401366
-0.03018755464020546
-0.005096175729717841
0.013627068825516097
0.022218857243770408
0.02091134473350551
0.012445081750669636
0.0006353024130533303
-0.010584354663981877
-0.017667693783071772
-0.017830093463258017
-0.009644244673601095
0.0060037345273844895
0.02481766038238738
0.038403338000766035
0.03464776198377985
-0.00042091355001100465
-0.07946050780955932
-0.010171931089100332
0.007599774847491164
-0.017007106606766534
-0.06694091612017564
0.07973651842904375
0.04565001310053008
0.04986825490669626
-0.0953090137981948
0.01396614551032282
-0.027291782360715697
-0.032525262011639466
-0.02275702277415605
0.17514553218849382
0.13195496629082604
0.02213549334795657
-0.16788179509390708
-0.23156918977812171
-0.138260870178417
-0.03672009325177485
0.13295197735832323
0.22221432021213822
0.25783839959536037
0.032854769338669765
-0.09159882961833511
-0.17417924656281714
-0.07556513183609335
-0.04124172277647406
-0.09011486267769875
-0.0117120636546963
0.02800279880979176
0.07438223144418273
-0.030971786300511724
0.1360478117465513
0.17340882123786971
0.052030195949164734
-0.07667245128325252
-0.0666215015065369
-0.16056048865749753
-0.1766179532791778
-0.10260372883498216
0.09987393608565985
0.08291109684053391
0.29607279387765134
0.17251806097034014
-0.07755733021043293
-0.26461615771116026
-0.011109684875174343
-0.1413850340360497
-0.07473387911632189
0.17641104396836804
0.20416690674156684
0.0018004846640724845
-0.03773196980677128
-0.12012581491748299
-0.046128142503108795
-0.008405542853551258
0.00915460718321577
0.02915685343033655
0.07620095595791301
-0.028435854728545974
-0.0717166045261483
-0.05272182598455858
0.014768741498580042
0.1015077752209106
0.16506338353379305
0.15672917061929525
0.03370336430597421
-0.2252471603760604
-0.40548699966537916
-0.25031479150861413
-0.06843215736635529
0.24408865569038984
0.3729960250785185
0.3568067121862246
0.17070300623759815
-0.06976956248950064
-0.2857281748411792
-0.200309953094221
-0.10377492793022945
-0.22917606592721673
-0.14544213501887854
0.030698848937743457
0.20790954099651762
0.2868673775401389
0.33083532037028135
0.14957015093091192
-0.09859847308397089
-0.28824756061046647
-0.29961024254780266
-0.19310654356327747
0.005426942563972097
0.10493616977301783
0.13687220777267264
0.13682163380085396
0.12770821584568787
0.11071560648674263
0.06685646278263245
-0.03171094199727254
-0.2051066749739638
-0.4509527997117012
-0.33898032744132844
-0.019986666092856497
0.3518272673686994
0.591493962324074
0.6643102863630679
0.2877899595670957
-0.44085935858564756
-0.7993447633156442
-0.7952216307696692
-0.3422394209106054
0.12835306057702509
0.8227715141296273
0.5218502179823676
0.3236846458511727
0.21205396808714433
-0.14000224674784958
-0.5351316308051163
-0.1986429888280511
-0.12470499815047593
-0.23640550611920264
0.03224248946740694
0.1315895696421527
0.17399518137816272
0.10218710010486863
0.05712526659072033
-0.047854148870101296
0.05700215342662068
-0.00742711297874672
0.13518601089699178
0.02847170992640823
-0.20024848330310352
-0.22307715157416919
-0.09875103284357949
-0.0674730200195814
0.04613648570449495
0.6253700072976066
0.05518891120962165
0.1232272821944384
-0.17011926699811336
-0.39667554154386664
-0.6893923226444449
0.05554485865383073
0.15900947759192252
0.5256870199947526
0.409047915905584
0.18878278947450136
-0.02927718977009257
0.01065727573674523
-0.6454179118921394
-0.11774517188694263
-0.05979627744693004
-0.24569025389337362
-0.18122347403496353
0.26520279650900025
0.42107287682836086
0.3704564857174637
0.329680791438796
-0.1539055123813537
-0.18012932813104002
-0.45958917235912733
-0.2760491505381459
-0.06059150703887779
0.014797182622112251
0.22403091448725745
0.0604210477363457
0.20644186988644841
0.10908658789159124
0.16735894028860518
-0.06556897420120614
-0.0672714436110327
-0.3234437636695765
-0.10511953042474846
-0.05259556803095891
0.030059714164541784
0.17023069440877023
0.21553569877107173
0.021359591120358585
-0.1588030605001382
-0.07890296672863562
-0.10310067457449025
-0.007870093950555724
0.21562787172960035
0.1599621033917872
0.00279417321796774
-0.08748995903244695
-0.1429381442910973
-0.1873400043150451
-0.03161507901774395
0.1244220053886637
0.08455768188344484
0.046177712092527384
-0.008034227501691074
0.08669144866627715
0.08080030077525875
0.12080984208658653
-0.035149761529176066
-0.20019203337057553
-0.345279796634264
-0.19553591891326105
-0.04032305878086549
0.24340971264566463
0.36061664183882713
0.3704326138494888
0.07097992180919786
-0.19818468992075966
-0.33790844538456566
-0.26344018381348266
-0.08032057117693457
0.13098484156238244
0.32045870385610553
0.2676258057104824
-0.020312141857020526
-0.3083860834455512
-0.33345663463416636
-0.20846992950239424
-0.035746878570696784
0.27092361776719176
0.5616623597989254
0.43350971311286934
0.03018595721315157
-0.33869501115852374
-0.5653654997860155
-0.5119685693386977
-0.19295974411946637
0.2206553260873314
0.5783568985915415
0.7209202098158115
0.2607402222836332
-0.21754008892583251
-0.5362633648389463
-0.6952612135324092
-0.4503990572173584
0.08661953808912802
0.6246919609233185
0.6558160185104088
0.4207895241114111
-0.10642373562939851
-0.40977514650784325
-0.6036637234674908
-0.20055788802942653
0.11287654677177796
0.2845854694383313
0.2929697548644018
0.13719879929345866
-0.17074972346305223
-0.2092990025853695
-0.14748608650761935
0.05381378280830594
0.03676945585793623
0.037702456218531764
0.07715190495267914
0.1525819802690006
0.036779376305203657
-0.11669951775297421
0.038153632862417894
0.054969198873371705
-0.0901456905982308
-0.3880429811293978
0.4062219667652952
-0.63392154831652
-0.023898521684348594
0.3078376985578742
0.5955225601259421
0.021035016738019652
0.7167149345318363
-0.2108948695566566
-0.8423024312195121
-0.8058458811844342
-0.45602639937413597
0.11782268771686179
0.852921041265936
0.8595648521217598
0.37580744613568257
-0.05016079826169641
-0.3433300226469918
-0.8595391284175047
-0.3359834781639557
0.14661272940732645
0.5793317361399503
-0.38206651323456853
0.16071438451813286
0.12032870476874795
-0.003464585136810151
-0.3454341690652244
0.7123786102299788
0.13913957299110544
-0.13399083525205627
-0.19246514296906944
-0.31224514177877716
-0.33790226865473205
-0.0730045553627378
0.31396514248047397
0.27146715180936143
0.24285838159789686
0.04966385478400896
-0.11409204321711891
-0.27638371490804475
-0.07504352213780409
0.054940666377666855
0.0902232042501442
0.022515043178112672
-0.14267198204188436
-0.1906653273618938
0.09552961213885218
0.3279927635416461
0.3094095458373834
0.03486139299514629
-0.29899700365695925
-0.48088869820240643
-0.2752964425802481
0.17675832218902232
0.5445763811992482
-0.11311614149153644
0.03147066034142186
-0.037420623293612836
0.019479460382863082
0.10645389498552836
0.7129013561132934
-0.25898846067835474
-0.6643827608221169
-0.6934336249415924
-0.46815718978131365
0.13405496118786764
0.8341177529761935
0.8986342796154164
0.5040686231437521
0.136550521892439
-0.36772795057043156
-0.5536426597987206
-0.6745615062735254
-0.844235411238255
-0.6347158651693218
0.07267711059642422
0.9949956540181607
1.54286275922962
0.9408962191838173
0.20523531999692077
-0.41013827479686393
-1.1131626724520653
-1.4555013552451725
-0.6387962488028377
0.12286289142749786
0.575329936492461
0.7475899094268712
0.6579313827369231
0.4375770004370507
0.2962336145245697
-0.06247697685905425
-0.38467604427929575
-0.7908763494148477
-0.7095987805195905
-0.6455089203824095
-0.19675663784500863
0.28056239067603
1.1806893392929292
1.1618608718788728
0.9001539800408086
0.30711742300041167
-0.5874603390618472
-1.7118475612006345
-1.430416282819134
-0.4687876701027187
0.0844557488322893
0.6982984044172273
1.06898211707956
0.9821066760557259
0.6100371704177838
-0.12732324697183345
-0.7328764575629095
-0.4497175386209954
-0.15415574378320507
-0.45378568025619115
-0.011880977096660262
0.49194231212633427
0.16460302530653648
-0.7285913660157008
-0.41656355510334603
-0.09359960206783453
0.39918033194877967
1.09642873101189
0.8553676277634409
0.14545091409426403
-0.31180860655039305
-0.663093337347079
-1.2292868349618826
-0.6285409644876553
0.059377439737776025
0.680279507603418
1.1565883692660905
-0.17277591790379643
0.4015453872155328
0.141854304094801
-0.325544717525025
-1.1824463885281442
0.008601155503860857
-0.0845828479202736
0.02416410225215056
0.40909423927223876
0.6980856263241775
0.650715768955076
-0.038731368684153014
-0.5112396603987217
-0.8966210639379418
-0.6701956616760497
-0.03180782501064568
0.4838523208033659
0.7716037467940559
0.5122963022962926
-0.05899111127451569
-0.16133796600979805
-0.45354665592601484
-0.4073934302878997
-0.08217159747818022
0.28968944910219163
0.10363145148593474
0.17499599318623787
0.12919810413055047
-0.004348906391416161
-0.19275893292087426
-0.196636073221721
0.2324259318518689
-0.4500499047481552
0.010506379825319602
0.2545059443737159
0.293710091045968
-0.09876070437874222
0.4115729871849042
-0.06699701217057057
-0.2295885863831045
-0.34813906219132185
-0.2500407293320482
-0.11023056433676134
0.1395138159112672
0.18674170511165986
0.30809797793758015
0.14303184063556107
0.08005966094909824
-0.14042630494896163
-0.00826725903156232
-0.016249091551863836
-0.03103941812234653
-0.26995865773851135
-0.29007817520637724
-0.19408127583611848
-0.053695008830101906
0.2538597142030298
0.6066870130915558
0.6100805916269986
0.19180241656571023
-0.17420456988823135
-0.6219365462165144
-0.841885350608835
-0.4446358442430644
0.04500673542833607
0.5604304009042695
0.6435285992407688
0.5933285169928791
0.0328920939459663
-0.29481621522450613
-0.5043919212266857
-0.33131617662257146
-0.09674547551672992
0.11493882507211388
0.2626728215213533
0.14349918298751277
0.18306888174957187
0.028173313179169702
-0.25636188731646364
-0.3884961458821451
0.3278538406713415
-0.6067595157193324
0.2960114880017198
0.49217538288848117
0.3887925508294654
-0.46162428013117524
0.4483352887958837
-0.3964965961193719
-0.3054174682936749
-0.15667373323942926
0.016668834482510612
0.026156645647876387
0.114292116398668
0.13354083643930165
0.1253710205570062
0.10585118411558049
0.06181389191369982
-0.04174755322934219
-0.04573160496685667
-0.17770348974755673
-0.23586756148447563
-0.18209489686341884
0.052719324605513165
0.15183110043308368
0.38958222023458056
0.009930653573090907
0.013801281615924353
-0.04106894550013379
-0.0286071019355371
-0.03529205511766782
-0.13880843114692587
0.010457660881593127
0.0011515660220125306
-0.13643903568556748
-0.33755409459689434
0.28122728026249133
0.2009305125061912
0.27970123905768673
0.13964643446426311
-0.034375872691846464
-0.28415123833456535
-0.26081362884090775
-0.2085702017718066
0.04404986340830154
0.28330064587947046
0.3027263384074334
0.09514585293539184
-0.150646528996839
-0.2472326111400962
-0.20312573441350001
-0.01950647050142709
0.10762574526875415
0.18053173913786374
0.1921252996255351
0.12275996285514121
-0.05537812320904382
-0.16676517896938825
-0.21814137208637963
-0.18736888625362993
-0.02082218816856622
0.15877904491690528
0.23647635070267314
0.0866137492407124
-0.042282695105916576
-0.13561765398367492
-0.013356488538036072
0.07516604027495068
0.060291826142466684
0.06365483516263154
0.011374400044350324
-0.15285597662127104
-0.25762584393688664
-0.09993586928387432
0.15029404779373803
0.13816009320249223
0.1081917578215736
0.09081821102892439
0.09544641173432038
-0.08806322704843496
-0.08089739042599466
-0.10356469731028721
-0.16571943080109583
-0.06155222114194872
0.02746929319597246
0.12371458669526005
0.2422620701895812
0.18268632191414
-0.07207873744547812
-0.148746062314859
-0.07134097350598616
-0.2489190571356653
-0.06880388698467048
0.10150919846695182
0.10418834855371148
-0.02370332509073526
0.13575012807870612
0.1730843318473298
0.2524856760543078
-0.07701823712681206
-0.26275709623421284
-0.3282234400597199
-0.2597563846771622
-0.20694193606535377
0.30154027462953015
0.5317326032272712
0.3183101197950604
0.04976836975598582
-0.12868977377577953
-0.2960716736824308
-0.3286618544300406
-0.07609270361360136
0.051098505293646464
0.07934842675532106
0.057846243864771704
0.038081900653750236
0.05377449549964755
0.1067723993607676
0.1628220652054234
0.15912455368787898
0.023109737579796476
-0.10134075439358814
-0.4274150369803731
-0.5080964320049566
-0.23681344595438636
0.1302169263263973
0.5345092034490652
0.6715306047155166
0.35916267572721683
-0.06874018848721726
-0.34082111589825737
-0.6074033883720386
-0.3965060459185511
0.017278449431024235
0.2220341196115885
0.25678576402239095
0.18737602974884088
0.08098765170726945
-0.012199625413825492
-0.06666086272948035
-0.07953067725151942
-0.06272528541301572
-0.03353117141863289
-0.007039353909622492
0.007848763291275979
0.008699471475343308
-0.002949999671159895
-0.02540064636415165
0.1396763673875684
0.08546941685041388
0.0010569893589197582
-0.12477195561552132
-0.09841819206374332
-0.11768897196731419
0.028332479303394203
0.15511977846959044
0.07576800613423074
-0.005861216498635564
-0.09935149218009748
-0.028165328845397058
-0.026454514846228152
0.2673510196805331
0.22025244815104042
0.01766090452779744
-0.32221805853480084
-0.5376084023002107
-0.3230803577348938
0.05459544004176643
0.5258065512537682
0.5818858966692951
0.4473259651874714
-0.12773115856205364
-0.4515540106466386
-0.6589150254427308
-0.27733200214008263
0.19555716258755612
0.49840922329074594
0.4008050112951107
0.09565192067565602
-0.0030528943865389523
-0.8565413440330777
-0.39814734745039637
0.06066917947164348
0.4112298795697665
0.3203464419617688
0.8067149682468759
0.03331293591908817
-0.478654193371598
-0.6192402675239136
-0.4562426646753851
-0.013739785754302137
0.32888445066526834
0.4195952665393561
0.3085100438543143
0.027180368332092076
-0.21981048948693732
-0.2504478766382478
-0.0934363790634022
0.024069687456447043
0.0843506232515102
0.08154125171036485
0.020216715314093404
-0.08757824307435455
-0.025426026309447063
0.024602120090709945
0.07929516396750073
-0.04789327368996877
0.05192223322164635
-0.01690108217021828
-0.05342289812289958
-0.058565443354072606
0.1661812645723903
0.019370187991090252
-0.10063843815751493
-0.19712665342031363
-0.07847005661909325
0.03601495422083728
0.10925586268655448
0.2825344596079324
0.4798097259204933
0.224308380210016
-0.33309688905378865
-0.5811560033862763
-0.8248570180958821
-0.48625408141603166
0.06238695447862219
1.0383372474858357
0.9803636574081888
0.6993973854496117
-0.13057139172865168
-0.5357930595483795
-0.9738098163467133
-0.4585344695234682
-0.30620403783248634
0.28161467869792545
0.39754865506580966
0.3834285142990804
0.17978504743766704
0.28682968551279514
-0.05342921070526918
-0.2531642470384158
-0.359399694429017
-0.22984424764256395
0.08628732397419615
0.15718034076143395
0.16765752786689297
0.11342003184439385
-0.004467144066056401
-0.18191734154126638
-0.011233847151212504
-0.07990423826999306
0.028789350382702587
-0.06772092407313295
0.04303727122486854
0.16278565509698925
0.07932987496820278
0.16849631060218975
0.0021495159223786156
-0.2393397385326979
-0.3546118253701565
-0.11469046327838636
-0.06669241381853103
0.25192461883554773
0.49365713585064114
0.284210705166194
-0.1837492138137922
-0.343957279507085
-0.2412473602147717
-0.11579150269575365
0.005928200056130971
0.3110170772744924
0.19377460852122488
0.04855752024343417
-0.13346519659789374
-0.16245441073094913
-0.045159894537247544
0.019176388827851405
0.03984758576183669
0.032359524849430873
0.014087064282483167
-0.00032692604812287006
-0.002484365559793412
0.008033411799018786
0.023899471717283183
0.0321456986193578
0.01780458239129089
-0.031606159596314715
-0.12194614495193609
-0.05020981174795015
-0.005501200821274923
0.026491159491055686
0.05675494484407456
0.08643815460079922
0.1034145534843013
0.08408730188802076
0.0009493046858279429
-0.1658003352974578
-0.2164046150679355
-0.12429289982306006
-0.03726398071977617
0.11203929982883347
0.18930597366018065
0.2411285493162813
0.08313364939217173
-0.1024375396008228
-0.1597987156106128
-0.14723338592660912
-0.12488608748248774
-0.14732285665480166
0.3376590639881263
-0.11381222646513055
0.4563193344211236
0.6121171906921646
-0.26364270039227217
-1.1511950820519146
-0.1793547422452877
-0.22672374425905992
0.055040687840740427
0.8006330791620911
0.8882166613635618
0.11263058667286717
-0.21277778627514077
-0.6256773851679052
-0.4682172277048662
-0.0428546699317965
0.014223517198550655
0.13578111649837526
0.0050623396054447645
0.12433236412354466
-0.020042699476200142
0.21249063253264314
-0.0017103150366245803
0.2469595415645115
0.016357157122287736
0.34381964484688876
-0.11133984044830088
-0.4230419259478474
-0.7638820490421971
-0.39426130610239885
-0.2843644015911035
0.43198269712326376
0.9853519007037514
0.9040913358724025
0.37741417091947704
-0.5373336355554643
-0.4658661763556795
-0.6453513191864402
-0.45608177692702834
-0.17866958349810683
0.4126475080199755
0.2235898279207712
0.19343625182857732
0.24539761549506905
0.047981553822949316
-0.0043391408607304695
0.010847809726557288
-0.03579328348650533
-0.09269418194874075
0.11036746556682965
0.09782617786661343
-0.3252190190554376
-0.6622584679585151
-0.33598254528891797
0.07772868915986259
0.5978990051238773
1.1830034077446563
0.09108174310718019
-0.12954182227726602
-0.4161325193120845
-0.5452133338734331
-0.8833661468882745
0.44688401158623503
0.37747868833308235
0.2849360975281473
0.17188086825888993
0.25247879296957426
0.14868739186816643
-0.9035887793307925
-0.44579352951475437
0.004917480559109609
0.5444145135347495
0.25985152835624914
0.40699899868855305
-0.0028661426404068668
-0.4015401438771174
-0.6508185232442237
-0.02576885197233837
0.7983811507553982
0.15404622892616818
-0.012640427067104954
-0.33383043466852724
-0.411140259654336
-0.2115288886309401
0.32689575085678185
0.2788116853641706
0.11076199207389657
0.06327329882127664
-0.05807929984309211
-0.08118943380330251
-0.05797602450092103
-0.0512751901099744
-0.12216893608852561
0.07958635395074093
0.12125041927962016
-0.010237314587171113
0.09296479902795511
0.060464132915558494
-0.2561850597381513
-0.18578902861814844
-0.044678825571474345
0.05009940812558267
0.16325573556160988
0.32410723224612636
0.11577381242814036
-0.12490952960489052
-0.29628538408372795
-0.11321605662244015
0.11360467833539849
0.29614027370673535
0.18384622352209493
-0.22525363925296987
-0.4788302104734262
-0.4740547869496542
-0.07534223304281144
0.4541227615306312
0.815020940880269
0.44273673879882713
0.09981408371791216
-0.5050739433072291
-0.6790398109693888
-0.5043443984304913
-0.012618260357647971
0.21640344976889442
0.4337905248729605
0.2897098689238926
0.4059554923218929
-0.2361301314295457
-0.08901961564710244
-0.21842698428943966
-0.2786384734236633
-0.49410861622137425
0.34591726669418144
0.2791721854355931
0.35429522249363565
0.21604109534273272
-0.10085524154098187
-0.36766728642069024
-0.3524707228289451
-0.2139333787926154
0.09551319798727434
0.4165451242627043
0.3656965261890238
0.1229973753117763
-0.1685020881716493
-0.190248510384952
-0.2278780524047972
-0.15126995626770884
-0.001968047786213621
0.2090937765908675
0.0951890628286111
0.08324233354245693
0.003844850229586543
-0.11540068110916842
-0.05301776363641684
0.0052466754656033485
0.06571097180211784
-0.07436008559919167
-0.028106729138139226
-0.019941155769638844
0.11509854876104698
0.1349080028172071
0.19830431837045628
0.07804167533812999
-0.2229225012002934
-0.45692790125524496
-0.3262082034956198
-0.09307788899428837
0.192736884779183
0.4554529773752851
0.3552689792121708
0.2646553177496803
0.06837544114621119
-0.2113125367803608
-0.3714422263996423
-0.18016802719421943
-0.33785646159568905
-0.05807408302441487
0.12751912941997412
0.1435545865803713
0.13328779766637394
0.2198798467488143
0.07663369421559953
0.11283387998591997
0.07741873485162341
-0.1217312735106099
-0.18883334286973277
-0.20984537677215698
-0.22920646326037025
-0.03986868445219558
0.2115541875047036
0.20766354131561002
0.03787228328313537
-0.021940392371848926
0.07752588098574664
0.3552960584373747
-0.39504270810359615
-0.19514219251085982
-0.07128655884896988
-0.04844399988873278
-0.35163409684558
0.5868074345253206
0.5193861139681524
0.18215836226577012
-0.29502380961889796
-0.36805116074381705
-0.4563338037565463
-0.3303268719728333
0.0831016527499169
0.4775796348333688
0.5353116345791272
0.3000167344934307
-0.03350512688611561
-0.3091853779932931
-0.384381532662478
-0.3012659243115643
-0.06706703349641853
0.1497347499577087
0.20755480294379117
0.17057671344759265
0.08711430577948497
-0.02525976474735665
0.01572559057040405
-0.03753808946245227
-0.05010499169843985
-0.0891225167153275
-0.009587356574232693
-0.04436672429188307
-0.0002874134554256539
-0.06062490977719436
0.006957238581851233
0.03898564711243667
0.06403089989632747
0.0930398192196386
0.11515591874657131
0.1009709785632923
0.013208991159664106
-0.17768909832158586
-0.27805959523887924
-0.2618051223607316
-0.0725402336593116
0.16171776602716637
0.3054925068183351
0.39299948812288543
0.21506630948865707
-0.07800452871958648
-0.358051428164369
-0.29240241737249845
-0.31991112551977074
-0.03931211949329885
0.18611468836196654
0.41074933864489926
0.28418041714341635
-0.16646472016563074
-0.1435294785252184
-0.07492016934677091
-0.00318863440336979
0.02760741721415196
0.1839474544563161
-0.14786710397369504
-0.15633526932633005
-0.2048133765173704
-0.03844134060479914
0.20236251669715358
0.3651721423369772
0.0713124312298206
-0.0904821898486811
-0.1603820614704029
0.004128726263996562
-0.05698354932693728
0.006884090366288719
-0.23459122590884893
0.009741934855546358
0.14942931320954575
0.4062998633559342
0.008986268965558585
-0.20911651256193584
-0.20882316973698029
-0.3448878848463908
-0.17117937649246795
0.3469838939383874
0.617013566558918
0.20788611006682178
0.05182007602143952
-0.3384346594343275
-0.4419764986345458
-0.3028818402101903
0.08464946738600117
-0.02688224106722138
0.2420445015993344
0.16937012051416872
0.20389787665516854
-0.05253637824930241
0.15180087864473724
-0.06941683395993403
-0.01674296388083844
0.024690387045809465
-0.18666174649024986
-0.4295955796676931
-0.21646410058453047
-0.008404843124969098
0.1523456167674951
0.40119337586079273
0.6136793321270391
0.18458348668717284
-0.16864804726144356
-0.3793899685939683
-0.3923689611275788
-0.32586619890060214
-0.04825413345085523
0.22552297749150424
0.32046429726606673
0.28018835477834003
0.14840352611774893
-0.03959448757424497
-0.2543752387622367
-0.2637241058210653
-0.22596083529044708
-0.09238224981465872
-0.021617273294427312
0.19722609826062568
0.32092945934108996
0.43899704340246026
0.3808403072375819
0.1480588046315131
-0.43187765288659496
-0.4436236113099904
-0.6333908733044031
-0.790113356040926
-0.37159228797028154
0.42451493865397094
0.7611731590938159
1.66360200174073
0.7558270252625149
-0.3435499403253366
-0.5632669423253982
-1.080049865690307
-1.4146080748266028
-0.1593590708956748
0.8411353942897979
0.6590640726498063
0.623105920770975
0.057344382202760266
-0.15924545311267432
-0.20517710118789242
-0.1053634810430303
-0.10722377282546698
-0.05468566069838611
0.032365364644003455
-0.030691204176721266
-0.1923444521256526
0.026410690628612007
0.11622910868231669
0.16012311127111706
0.015573115116589183
0.1026885594487788
0.0012970059918503438
0.05726761050887329
-0.20403125002927006
-0.06091532666429679
0.02043195984461581
-0.002871692425119473
-0.14589283608993825
0.0017201618892023886
0.06758535567815395
0.08506081681756021
0.08168486178815829
0.07106535391161106
0.050655851221205486
0.005919392308096643
-0.08080641166219087
-0.220244086852646
-0.2092390714897651
-0.03048167612362879
0.14025798622612592
0.3223080655436869
0.3195967086387438
-0.08244974331376866
-0.10984841642430154
-0.18531917535883652
-0.31261346287054104
-0.26767500029880487
0.19830268769150006
0.14405255687368307
0.2172088915046969
0.23578611124084337
0.38025063475844245
-0.19977674861365657
-0.3661452278931955
-0.3678493080999138
-0.22229303259463243
-0.11058165639672819
0.4111014038133132
0.3894821605055125
0.25183583289899225
-0.006721408734820257
-0.22146149302287743
-0.2440406394505457
-0.12362587585125308
-0.09143440489080135
0.045902953502332845
0.10325007365420986
0.10712032243292995
0.08398209841073799
0.05137561526927091
0.01466529503261303
-0.03022480898693397
-0.08998120584196469
-0.16626412163183396
-0.050752500466396816
0.07477102893177003
0.033072063706533227
0.042840782400723476
0.11002804270019344
0.022259694606867404
-0.05170364633730217
0.04291750014875363
0.05614629552942356
-0.055257177584718875
-0.11666563485107952
-0.1277208412213786
-0.06035808231010159
-0.0640275084912889
0.12289317771970942
0.5590045328490804
-0.31201220321292544
-0.06715512546948173
0.09719612085610888
-0.028550064166913625
-0.45965917214550706
0.38886019968553326
0.10513848945834132
-0.11936094005519894
-0.09095358682853723
-0.015165363145083452
0.10164687341906617
0.05060908615866993
0.01932684562196479
-0.007560576650059609
-0.04615703534367409
-0.11034329275616116
-0.009517118215503903
0.05187497647755528
0.07299296151869979
0.054511943310929664
-0.002801839629868746
-0.09807045845039482
-0.029177441751058252
0.00837659289915278
0.021660639035606558
0.01932075408477719
0.009915098154996334
0.0003228764534687156
-0.0052423905168515715
-0.005455704850118431
-0.001459049291564573
0.00397987071112243
0.007529035710289473
0.006432665608828207
-0.00040298308155099435
-0.011585699791843814
-0.022993392214171227
-0.0284787965081472
-0.021771099403310765
0.0005310352519792449
0.03552405885172959
0.07132371375757018
0.08662083037356166
0.053623009969548774
-0.05551311641300485
-0.060224826193061264
-0.16399772018448874
-0.1512427950547423
-0.19121079738835497
0.15090814737742567
0.29905581712538987
0.4540699556560263
0.19144997044041964
0.07328840253719088
-0.5281141721837381
-0.8047400717516763
-0.4990416856578893
0.08767825882976708
0.6642890863620226
1.1083918541365778
0.43415307354495364
-0.21370813059206784
-0.5356271002305141
-0.8340521344175026
-0.7724586149412259
0.2441533127087246
0.6595642059718516
0.5346862111854378
0.31117975434438966
-0.01248887316020046
-0.2839798359135476
-0.381440257783207
-0.1891203366748841
0.024812907854768824
0.22144201866318863
0.19436869648467955
-0.03366256457654916
-0.21698171962342935
-0.09427996478182092
0.00280586549723715
0.13956967054759484
0.1680398981193263
0.1197163241771799
0.003965935479710579
-0.187447425249896
-0.27217277737198803
-0.06967720794385375
0.20220128027112882
0.12592194510672772
0.08066250509718693
0.04022805147837485
-0.025152132946367766
-0.14336339539034573
-0.13371466785853064
-0.002186491340453329
0.05917823396935757
0.06859348018066821
0.04834476551260003
0.01865197205347704
-0.0064187537297288304
-0.02023522744598926
-0.022481940816344834
-0.016711803881755274
-0.007714537641719048
0.0004719646895255827
0.005556970428804696
0.007070386241680234
0.005837917950782229
0.0032445386381842866
0.0005947314791336073
-0.0012663961242345805
-0.0020489472845713003
-0.0019052985696183286
-0.0012204541312270587
-0.000406700280295391
0.0002349133274528237
0.0005675730476472715
0.0006010403590137071
0.00043477774267193194
0.00019399280658060535
-1.8857257430958667e-05
-0.0001476572177655185
-0.00018311115467430582
-0.00014844554340150815
-8.022205283537337e-05
-1.203899698409907e-05
3.4857235645738255e-05
5.366099827477565e-05
4.882604666636068e-05
3.054160489890241e-05
9.448689992737505e-06
-6.843955514137911e-06
-1.5018827659827856e-05
-1.5508138839759552e-05
-1.0981918512597387e-05
-4.693567388083312e-06
7.488847991795078e-07
3.959009260807448e-06
4.755655132058745e-06
3.776785080751985e-06
1.979713762741239e-06
2.253072571210765e-07
-9.550349851774686e-07
-1.404083681056706e-06
-1.250389665048257e-06
-7.632426107624202e-07
-2.170118437135271e-07
1.9627449941969745e-07
3.965680463766582e-07
3.9963564877484026e-07
2.7695392897894796e-07
1.1296130481310019e-07
-2.6032238378536107e-08
-1.0586449563051589e-07
-1.2336750397314688e-07
-9.597322453016303e-08
-4.8713245751981355e-08
-3.623019063348926e-09
2.602894012469974e-08
3.665986881491582e-08
3.193515144603521e-08
1.896665090755849e-08
