0
-4.8848457199122394e-17
-1.1563622332521636e-15
-2.363879701681973e-15
-3.1343591972126973e-15
-2.8344238103733633e-15
-9.905852635619116e-16
2.3846080040550774e-15
6.516644163989368e-15
9.808474562397381e-15
1.0150142921811085e-14
5.660903277407887e-15
-4.250872909531266e-15
-1.7847887571726612e-14
-3.056830741938827e-14
-3.563447184029512e-14
-2.6106914356650704e-14
1.7896572814933063e-15
4.4969242560927884e-14
9.102287926272777e-14
1.189226732639028e-13
1.0438203786742466e-13
2.9933126059400996e-14
-1.0250688404098379e-13
-2.613289405379302e-13
-3.8357555842598203e-13
-3.877718286301913e-13
-2.033296709369708e-13
1.883460036022905e-13
7.145149457858495e-13
1.1939354451799063e-12
1.3632059809531527e-12
9.588862551424415e-13
-1.5269707094796204e-13
-1.834252921578331e-12
-3.587909239409664e-12
-4.5912811517581636e-12
-3.914400126730066e-12
-9.155747493219676e-13
4.275046925217717e-12
1.0371617184808573e-11
1.4895474257385984e-11
1.470432635452961e-11
7.155639663528242e-12
-8.300997170351503e-12
-2.8638287443783194e-11
-4.6666521468684717e-11
-5.216080477027271e-11
-3.5138359584017336e-11
9.081245864724617e-12
7.449184818894133e-11
1.4115780601168607e-10
1.769535514234817e-10
1.463202519323514e-10
2.5797086611317827e-11
-1.7739476720252575e-10
-4.1110208067458163e-10
-5.778616924110023e-10
-5.566328650303775e-10
-2.4876323994267053e-10
3.603985495241543e-10
1.1455256347400243e-09
1.8218286006821244e-09
1.992847964465141e-09
1.2810199614165265e-09
-4.752853986134831e-10
-3.016775431652824e-09
-5.546702436137715e-09
-6.811560123349623e-09
-5.453717824077173e-09
-6.200489363095095e-10
7.324802732712639e-09
1.6271294478369502e-08
2.2391812897766223e-08
2.1029770975252828e-08
8.5132981791406e-09
-1.5463633962431013e-08
-4.573675632329e-08
-7.104141909659012e-08
-7.602316921804643e-08
-4.643085981583406e-08
2.321972832141095e-08
1.2185456569508562e-07
2.1768793956774734e-07
2.6186533728557634e-07
2.0263259180337098e-07
9.158241673208349e-09
-3.01127968569166e-07
-6.431124886203925e-07
-8.666577131701022e-07
-7.928505896528722e-07
-2.85472113430238e-07
6.57090481837039e-07
1.8229192893865716e-06
2.7670629649270903e-06
2.8955571344429987e-06
1.6716492241804789e-06
-1.0864724554691157e-06
-4.910059853114679e-06
-8.533207809634658e-06
-1.0054020743426114e-05
-7.502753228456865e-06
2.268455013103732e-07
1.2331152166032315e-05
2.5384160566592475e-05
3.3503769667315695e-05
2.98249998059175e-05
9.312690129837519e-06
-2.7694996821246748e-05
-7.253438808589348e-05
-0.00010765354962586998
-0.00011010322423142583
-5.971397479214877e-05
4.935024458531675e-05
0.00019739603727646646
0.0003340870498350552
0.00038546337721130506
0.00027667680761336676
-3.1640381432054895e-05
-0.0005033822305127772
-0.0010009549540866542
-0.0012941705273750318
-0.0011199148643295318
-0.0002926329366094327
0.001159365091357267
0.0028840358259500172
0.004191775365818753
0.004200345353914724
0.002159439175944401
-0.002100732897816509
-0.007746258386154398
-0.012766419983354909
-0.01428492745302391
-0.009491956445336128
0.0028838732760093568
0.020940910613876318
0.03845681159577913
0.044974910754777504
0.027648451588073553
-0.025235164601317472
-0.11997592185440806
-0.054066094103435304
-0.015375806428418825
0.015249362460703245
0.05862769823518517
0.1311054008936035
0.040136666999753136
-0.016545816521835944
-0.047818635981522195
-0.0635075443535873
-0.06869851284941846
-0.06056113863399409
-0.02922730265667197
0.0373312701425145
0.14616756324050276
0.0928986267217308
0.05896813395298281
0.014445686691923693
-0.07404045800025769
-0.2329164432788573
-0.07280420851518951
0.01521303975851361
0.056684680457714576
0.08553590712517274
0.13383500196963383
0.02338768073358627
-0.03822235755003559
-0.056584670046490475
-0.0457729955578913
-0.022362930317031286
-0.00031619835645260654
0.012036629730833245
0.012710990878831334
0.004968645231514649
-0.004862424918776287
-0.009986210508580172
-0.0056649219287227565
0.008719459019423515
0.028489618548650064
0.0438692094293478
0.041957440831700714
0.010497146254480979
-0.05728108368632182
-0.15831104180631247
-0.0778955223012775
0.00794079199047094
0.1259350939295177
0.09696030960820323
0.12869912387776355
0.012764537190755647
-0.07242748806567881
-0.1542260639887839
-0.056853310818475736
0.005475009211153848
0.03118603558152353
0.02951582341886254
0.015589809107317588
0.004421785656108707
0.005621544337301787
0.02005243475618884
0.039157242216746414
0.04723590386361123
0.026465580660225942
-0.03625291434191543
-0.142411149722628
-0.07742629132981757
-0.010935935892017499
-0.10298989958305346
0.08474089107949898
0.17570442580611767
0.16751066244138085
0.02764813910724441
0.09851226178620323
-0.08870364203216285
-0.19499600353358176
-0.25539848176709684
-0.06792946207316612
0.006233335116461757
0.031148738982541502
0.2770462010612356
0.20043538448929393
0.03015683332175241
-0.03631055078673814
-0.0259776816726843
-0.1764136573815855
-0.12037760185202973
-0.07458443843192117
-0.03631048559886554
0.011372943937602117
0.08796938730821864
0.2019924176130409
0.14075660055714972
0.06790644839284496
-0.0695167238733202
-0.12616340874412812
-0.14034306984627548
-0.11887738087655647
-0.029928541144091082
-0.006291836679137005
0.04154543940539486
0.005974167880551635
0.1614408196217901
0.14755322573485669
0.1605883105611669
-0.044189586402974726
-0.14009483856080884
-0.21043167213793287
-0.1296864805293908
0.04998442158661415
0.10411007589841142
0.0336425554049664
0.057968784150083885
0.006532741690551598
-0.08860228044292648
0.0017045149756708337
0.10009624962786287
0.021002093145047827
-0.029228074822459926
-0.05056304574012954
-0.0467048527549636
-0.022848867096142325
0.015344448967288378
0.061551759788183065
0.10820587452468938
-0.05332145022900491
-0.031131791049891562
-0.03020868529942411
-0.05010238671885117
-0.08430420042396852
0.07793687237740801
0.047710390248015516
0.03186650840426777
0.029657464472810244
0.03213288379005132
0.024853141772705874
-0.006647021179768001
-0.07021959711058229
-0.16157767299503828
-0.06229321672138092
0.057116578067714086
0.029264346095057202
0.07946264252498941
0.21643120711915573
0.02765433793918201
-0.11868286659039481
-0.06573759381951488
-0.05688272910911128
-0.1251938976668307
0.11343628906139473
0.06233001726346852
-0.05829263310424142
-0.01659240833860326
0.0239805581741351
-0.10289847604557353
0.02620366620065109
0.21859648364022838
0.06277145530741815
-0.06956417496532015
-0.016424188274792695
-0.015072975190282473
-0.09126115435498527
-0.05162203694025168
-0.082012053079469
-0.15326553626694425
-0.03401644306662154
0.09204756232098481
0.20960695990962525
0.4627425472450202
0.36034817468171787
-0.000674214884415595
-0.49762771993474897
-0.5405243869439871
-0.44260367615833807
-0.217110776997375
-0.006471162204705227
0.46153431055457694
0.6062840846123977
0.5363229070775551
0.2194889938174147
-0.10920470072387464
-0.3048387310294812
-0.4491501944086523
-0.5864028978052791
-0.2773794925976128
0.21714123728404958
0.32296842761168587
0.3188701153969339
0.2978390789177017
0.13725786730856582
-0.11412474013153888
-0.23232703926577097
-0.203713254831901
-0.20924582829912308
-0.01545981183774077
0.02395046292503371
0.15711955775844724
0.21874314483132978
0.21730967663919898
-0.06961585565030112
-0.0899465109176702
-0.10356120353408527
-0.16587968374911508
-0.11434000559911923
0.038086184076515484
0.10123171229690539
0.09988433646197947
0.06359087717216942
0.01799452730071814
-0.019916423731717724
-0.04232116003228669
-0.048144362696724945
-0.03971692378642349
-0.020317742932706787
0.006465826655126819
0.03571397338051922
0.059562966118975616
0.06651064467295775
0.04289258563739545
-0.02314219987809368
-0.1361629027236497
-0.08869514606893639
-0.059714043892660995
-0.018015124406109032
0.06987012429173055
0.22967553420899012
0.07105258651361693
-0.015726820129368234
-0.05660949560415716
-0.0854572510073255
-0.1339410748546544
-0.023370447053144436
0.03900130683048356
0.05871420940603224
0.04932531932783153
0.02652545700696015
0.003329998355934505
-0.012469256607234944
-0.018518714752577728
-0.016484912758168182
-0.00998399079759868
-0.0027058637610426236
0.0027752198225081113
0.0053964217387848755
0.005382079211220153
0.0036996010322893863
0.0014835838690375753
-0.0003803486619947335
-0.001440887032803583
-0.001662622948815419
-0.0012845445711118636
-0.0006448389965232552
-3.9051360815201104e-05
0.0003563939824065159
0.0004954525011519135
0.0004289330841875761
0.0002530850029075529
6.289770865694937e-05
-7.70555786348602e-05
-0.00014158203123844557
-0.00013826165031688068
-9.304719268048095e-05
-3.542371157936582e-05
1.2082970099601162e-05
3.837455562279817e-05
4.304412845101184e-05
3.257651278582282e-05
1.5795071708129388e-05
2.5150314433788707e-07
-9.66193882484061e-06
-1.2921719797245158e-05
-1.0954989486046854e-05
-6.294519339370298e-06
-1.3828683601611295e-06
2.1561371224258363e-06
3.723064895850967e-06
3.55357479427616e-06
2.338237066600256e-06
8.401241094846862e-07
-3.6976208471198036e-07
-1.0200028214599359e-06
-1.113372612350046e-06
-8.252734835835402e-07
-3.8564078589451475e-07
1.2784454243914436e-08
2.6089704267099047e-07
3.365331875412113e-07
2.794515274189912e-07
1.5619367290154823e-07
2.949849818025991e-08
-5.986483355633851e-08
-9.774110663447445e-08
-9.122873770416571e-08
-5.8660674796824864e-08
-1.976171166782408e-08
1.1013374078542607e-08
2.7051714803299397e-08
2.876438348912241e-08
2.0878590044678486e-08
9.378467911645242e-09
-8.225496486301727e-10
-7.020636099711474e-09
-8.753190837905937e-09
-7.119975061013573e-09
-3.866384169240515e-09
-6.0207334704826e-10
1.6511216547628128e-09
2.561936433858388e-09
2.3393563265430287e-09
1.4690390962576885e-09
4.60265592416704e-10
-3.2154213362627325e-10
-7.159369358834246e-10
-7.422039247439239e-10
-5.273458752194016e-10
-2.269278475548286e-10
3.391756280794684e-11
1.883366783888015e-10
2.272119802615475e-10
1.808247892135657e-10
9.497055475004118e-11
1.1000508081722738e-11
-4.5443014448125816e-11
-6.668939375367366e-11
-5.890283787739059e-11
-3.517141179024293e-11
-8.962372422382281e-12
1.0196477731580568e-11
1.832460896979365e-11
1.6398940703525947e-11
8.526942259197655e-12
-1.8690481281796208e-13
-5.45055911547968e-12
-4.983964867278273e-12
9.412374008160767e-13
9.590676091552323e-12
1.6474012993013538e-11
1.6671674007618714e-11
6.686864449899873e-12
-1.3516542888622181e-11
-3.895824082901765e-11
-5.94824860037789e-11
-6.185524782697633e-11
-3.4437765625405084e-11
2.6294056681077914e-11
1.0945190434392979e-10
1.8684234794941533e-10
2.1686338443598889e-10
1.572180973534837e-10
-1.4681246679508533e-11
-2.7918725211066584e-10
-5.596219799592758e-10
-7.269824483492373e-10
-6.331472183410213e-10
-1.7276754508305967e-10
6.400016051431543e-10
1.6091257877854936e-09
2.3477394502045393e-09
2.3580383552581487e-09
1.212212668590495e-09
-1.196097296371753e-09
-4.412809273726128e-09
-7.321883985594144e-09
-8.31111066922284e-09
-5.778640790349178e-09
1.0715778564050262e-09
1.1369783936644296e-08
2.2042148143276934e-08
2.804630415815788e-08
2.3713720042496738e-08
5.179809281320195e-09
-2.6664464126546367e-08
-6.385140057302788e-08
-9.115563784432977e-08
-8.938491851324496e-08
-4.253587984017972e-08
5.246826031450277e-08
1.7675842049303277e-07
2.8608062806786167e-07
3.178710165897652e-07
2.1146082465880085e-07
-6.092494039601906e-08
-4.6138691033568386e-07
-8.669094299908453e-07
-1.080580812873056e-06
-8.857435098775017e-07
-1.4130584017092692e-07
1.1048646502802765e-06
2.529853406474595e-06
3.5351913101080095e-06
3.3818509024529955e-06
1.4728683457088306e-06
-2.270003642622513e-06
-7.066654908122287e-06
-1.1164853262030078e-05
-1.2139527040095382e-05
-7.6973481843776e-06
3.1166055222077533e-06
1.8671395378879716e-05
3.405306541632918e-05
4.158076681736107e-05
3.2986033186490616e-05
3.1465634426126367e-06
-4.55632818023059e-05
-0.00010009131915249446
-0.0001369421775167687
-0.0001276947458380845
-5.0149669240626204e-05
9.711889626472335e-05
0.00028200263216585244
0.0004352177016303076
0.00046287022318069516
0.00027844296369447226
-0.00015028752261212055
-0.0007538580048432928
-0.0013363275152515777
-0.0015984188637356324
-0.001224998072413003
-3.110149088780847e-05
0.0018715116740238168
0.0039575147572673145
0.00530741250950795
0.004832833115534541
0.0017163130136745957
-0.004026671483320902
-0.011069894031325002
-0.016668687625732113
-0.01719422489244486
-0.009427875565248975
0.00756328698498332
0.030523511355056737
0.050941989562570664
0.05574187856199192
0.03027240306255187
-0.03668816323104501
-0.14731926874479184
-0.0908121460748475
-0.04336490242678154
0.026848229186664827
0.15080676178526337
0.14889127241217273
0.023958175223482786
-0.04009881672505666
-0.0739501420786724
-0.11456665218037751
0.00379702096679134
0.056672743983280816
0.033198869844799014
-0.06325482669874899
-0.01698870872696507
-0.0037686111439447115
0.004047041469405579
0.03186606542749802
0.09790883668169142
0.010237011054656648
-0.03339984519293049
-0.043009791874673936
-0.03219588313103132
-0.013953875951503693
0.00227248035687009
0.01171961128196731
0.013805590024827286
0.010649983997377623
0.0053525347954678755
0.0006008094050081413
-0.0021076958806320292
-0.0026103621245784163
-0.0017471463945503637
-0.0007762585577797741
-0.0007545691417885322
-0.0020550125030678367
-0.004143246732606281
-0.005688606427439247
-0.005028504418365516
-0.0009238372365021068
0.006568154547777239
0.015393158704564707
0.021326265146150047
0.018625142418584335
0.0015824194917805508
-0.0333314277779853
-0.08544855281958638
0.05109178361105029
-0.013339555697868648
-0.06624778610944537
0.10356321740504826
0.10266876398767871
-0.06896369297902796
-0.017818379504364303
0.04538055259734606
-0.09101923308327943
-0.03648828619712163
0.003510690562160673
0.027590349949282826
0.0370761591143879
0.03419973053736698
0.02097346892053468
-0.0005782803292653388
-0.026942320745177363
-0.0512656599089933
-0.06242292934323512
-0.04616116022300466
0.01126408996010558
0.11772639750483037
0.0700524329623007
0.051421703026075474
0.033108296736849285
-0.019238950865079867
-0.13643195875010997
-0.13670890073020767
-0.020104976878937142
0.03161081665844671
0.049400847027686864
0.06793175127149412
0.11630262843974025
0.011557562714155104
-0.04329843196709258
-0.05686749796153769
-0.044150958025877235
-0.0208585842937537
0.0008593058260747139
0.014359892671729255
0.01826877752747748
0.014838519573665988
0.007863452668487304
0.0009154646480329729
-0.003701136449491166
-0.005235434318853669
-0.004213453813590445
-0.0018823438924930986
0.00037625846836963797
0.0015088641868199538
0.0010681492201925044
-0.0006956520269889451
-0.0029149992175621585
-0.0043478937767908185
-0.0037732023237345364
-0.000495893118066939
0.005148527103386591
0.011481776392980272
0.01560010974739501
0.014114186422756438
0.004532260079237691
-0.012982692702890281
-0.03408058027184005
-0.04973778718629131
-0.04757770863688361
-0.015284577069576514
0.05447792869243121
0.1592505128010279
0.0843104630525161
0.004453288054741403
-0.1096152945164052
-0.08205613353834644
-0.12318352665864624
-0.024661504105133847
0.0394740141251427
0.10629802566530441
0.014250281748750912
-0.006766261189186557
0.0571937309711491
0.000700893149037933
-5.257156763951935e-05
0.017717656210653993
0.011259697478326308
-0.058487831783796594
-0.018160687361886398
-0.07563157847470246
-0.017658003383084004
-0.012325789364994968
-0.015988963822740093
0.016746994054129015
0.12236056979407528
0.11986523661647053
0.006874558803382149
-0.038454926480251714
-0.050263115338026645
-0.06505848895855648
-0.11228641549707971
-0.008222480822936182
0.0453723146158643
0.0581824942201246
0.045680256782576284
0.023271270738320707
0.002173621579988787
-0.012113259576425646
-0.01898558399631133
-0.020512164103522183
-0.018995485468564343
-0.015320187658599207
-0.008654184249769856
0.002473598574025881
0.01821252274417592
0.035426419588247826
0.04675556773572373
0.041545244374503264
0.008902264029930638
-0.05776337429440549
-0.15631551806060692
-0.07371602068454451
0.012226283749197025
0.1270649902142521
0.09178277736516822
0.11589688185220118
-0.005526204763136331
-0.08987242485164143
-0.1612334257873336
-0.04372116493790182
0.04336524969897317
0.08725918389022583
0.08104768491409023
0.02242639244119743
-0.08660231450770875
-0.03886631325161484
-0.02098695840511932
-0.013499439377469299
0.007117768496289457
0.06470128112223232
-0.02112484349003447
-0.03910349629568384
0.010848923731124314
0.11687652555829327
0.05698718132296171
0.0036711365573005596
-0.0692392543585128
-0.17930384823795442
-0.13053342400339735
0.08688033735094522
0.09168120187044426
0.10348748850327263
0.13509998019578895
-0.011561281357590304
-0.14455242924720813
-0.07712881509679463
-0.021812195802330764
0.01397404706782493
0.029325922403685183
0.02860016144652311
0.018733712070286117
0.00651991819441572
-0.003232037295255582
-0.008346655264899952
-0.00893259264955685
-0.006482247776248927
-0.0028871655748118476
0.0003017654444246486
0.0022330870305599768
0.002762693667732432
0.0022381582581686896
0.001209118948806785
0.00018123352159324127
-0.000525616101693575
-0.000808995490374333
-0.0007360791366744572
-0.00046045146112975934
-0.0001424970108586956
0.00010310278861586535
0.00022634373875101956
0.00023373826796658324
0.00016552903903903118
7.075312989434603e-05
-1.1278326615778558e-05
-5.966607133032858e-05
-7.167748383188992e-05
-5.692667895058115e-05
-2.984205328835892e-05
-3.399022285400911e-06
1.4392429628604877e-05
2.1161858359046533e-05
1.88463408001944e-05
1.1504459299714246e-05
3.271585463102205e-06
-2.9578358322854504e-06
-5.97710387153151e-06
-6.023699254495109e-06
-4.174839776298483e-06
-1.7031737698653414e-06
3.9183794343752216e-07
1.5952480963404003e-06
1.8592535553517858e-06
1.4465376301165782e-06
7.343291293859651e-07
5.47047333783149e-08
-3.9237831145120237e-07
-5.529115899126658e-07
-4.820753672802277e-07
-2.8693121613460826e-07
-7.398351098977105e-08
8.382669954439855e-08
1.5754005367784113e-07
1.5505637185832562e-07
1.0513434388414942e-07
4.076318599353427e-08
-1.267794156036861e-08
-4.253892093199218e-08
-4.81684187464973e-08
-3.671029773339839e-08
-1.801310387761897e-08
-5.657143571004039e-10
1.0650353524689119e-08
1.4426182639391826e-08
1.2316889002899759e-08
7.1415669116579564e-09
1.6400099533788973e-09
-2.3524969702944236e-09
-4.1452586254590466e-09
-3.987156045183211e-09
-2.643940264798441e-09
-9.696066070714958e-10
3.9230498519505287e-10
1.1320467465344663e-09
1.2475814069073851e-09
9.321086286694406e-10
4.4203782929981447e-10
-6.191591078447499e-12
-2.8881774092351273e-10
-3.7907729060904344e-10
-3.19603194902068e-10
-1.833379243249398e-10
-3.952946769537875e-11
6.628672228766609e-11
1.1712124761698687e-10
1.183184300897803e-10
8.658337458795988e-11
3.991735820341836e-11
-8.152627265771042e-12
-4.940341922802324e-11
-7.839239835698931e-11
-8.933751143676783e-11
-7.508237374656641e-11
-2.9647113240807194e-11
4.60440563571206e-11
1.3772729770008303e-10
2.1460412775514088e-10
2.3346865505838704e-10
1.5244882701715335e-10
-4.712631202651467e-11
-3.3723265109988743e-10
-6.290571771627989e-10
-7.809469692631844e-10
-6.373475871146913e-10
-9.746807942651959e-11
8.030363942982524e-10
1.8301886011354868e-09
2.551697202881637e-09
2.43479999481613e-09
1.0505023144228735e-09
-1.6547197724476188e-09
-5.114531865390859e-09
-8.061992928915631e-09
-8.747237295722163e-09
-5.519528725563845e-09
2.3016757204747866e-09
1.3528189579871674e-08
2.4603968164078176e-08
2.998320128364129e-08
2.3708464602359214e-08
2.1077369972593028e-09
-3.306943479407715e-08
-7.236729262483216e-08
-9.881091045720541e-08
-9.190739109167199e-08
-3.570320495721247e-08
7.071882469794143e-08
2.0405995298142444e-07
3.1423189199416014e-07
3.3349176210159053e-07
1.9957976163239572e-07
-1.1041550434483564e-07
-5.459268300605337e-07
-9.65179604079662e-07
-1.1521213505291185e-06
-8.797832043968962e-07
-1.579814946851361e-08
1.3574562257058214e-06
2.8588104991037413e-06
3.8227227030388565e-06
3.4622110555331853e-06
1.1862056828947908e-06
-2.995447885227794e-06
-8.128050839720753e-06
-1.2234122139869486e-05
-1.2694283117608244e-05
-7.165558247089597e-06
5.103530552905022e-06
2.1978867657065453e-05
3.781758806195241e-05
4.421239972584617e-05
3.2530294707328015e-05
-1.963956181384816e-06
-5.551180342537219e-05
-0.00011278315392363235
-0.00014771485873041896
-0.00013012536054854027
-3.819837035517724e-05
0.00012590999936083237
0.00032321910264811665
0.00047575938174505914
0.0004823657756548759
0.00025506882895658535
-0.00022989498545187268
-0.0008831062740390305
-0.0014803336709113648
-0.0016947799799237734
-0.0011985712321652155
0.00017635873013130423
0.0022628402691675467
0.0044465759692205245
0.005709905638230548
0.00490013811067823
0.0012206777781221365
-0.005167782611906663
-0.01266883798315497
-0.018203284981046276
-0.017870880525550335
-0.008415022730437684
0.010747678679941516
0.035572041765240384
0.05645213622565634
0.05927334769916333
0.028950324392399016
-0.045004417626705095
-0.16254972787314007
-0.10940262112638366
-0.05802509390852699
0.025695650944529722
0.1715561803968243
0.19373986946121965
0.08381260080797528
0.011485556196062088
-0.06636274987334989
-0.19134260098861527
-0.18915183055336138
-0.06058943482136313
0.018582433043622337
0.08896986096186812
0.19354305016749543
0.16368912466506497
0.010374485172554904
-0.07692763000316326
-0.12425448227812487
-0.16357716394031913
-0.023950991127666868
0.07355801231176853
0.1166480020050379
0.10004118552641196
0.023846028446350587
-0.1063018095614846
-0.07757176834034502
-0.06859953350146039
-0.050628046199335
0.007833648322183348
0.13364185621583
0.14139249218236674
0.028617188754746982
-0.023953667497673317
-0.04683212375142184
-0.0728770040262789
-0.1283012424318895
-0.026728310162354725
0.03184923042615593
0.05729957425660838
0.06267667589067293
0.057484827720628226
0.0434815861957305
0.014446550374913639
-0.040228912161721336
-0.12973605895447604
-0.056313907737108
-0.012380578032412222
0.018415273777811127
0.056685916284617326
0.12126494736841809
0.02410275767615619
-0.03201714432635713
-0.05245012483554375
-0.047351797582839875
-0.027841271153491054
-0.0032907874868006374
0.01952825467119582
0.03574315720451076
0.04111903366968177
0.031374711612597674
0.0027912563858807312
-0.04596496185216495
-0.11171855470994371
0.014272864269573651
-0.05477798886674431
0.09546766052678723
0.07602197953071757
0.0909171074963584
-0.06394137553412305
0.001129861974447096
-0.12643944040405192
-0.05745179750641348
0.001180304470947719
0.04580980122372194
0.07339087275679547
0.07865974938911448
0.05322233605266484
-0.012306237442618948
-0.1235579507504535
-0.07705493043895503
-0.05694193633487752
-0.03593789009713269
0.019019038219455515
0.13795308791455269
0.13887569478965056
0.02201786229553815
-0.030451653210810236
-0.04909118532500374
-0.0682835254368819
-0.11700216536093672
-0.012296823454075047
0.04274722314211152
0.05663073776093651
0.044263592535400784
0.02127980323587849
-0.00023925685355695732
-0.013719540206221296
-0.017845126597054697
-0.014885295549123226
-0.00856615933072857
-0.0022745094554171333
0.001978634922187587
0.003771250839886422
0.0038552702091927886
0.003427680716270918
0.0034041247622290396
0.00394045295476961
0.004344230277556511
0.003404638611238029
5.2456857030179863e-05
-0.005853756957360982
-0.01291651661779054
-0.01810678657784214
-0.017471159346856
-0.00771505651197982
0.01160371370619675
0.035936281195325534
0.054623594585399685
0.05176026948566847
0.009545336645215587
-0.08628174411494353
-0.04037946182718826
-0.04326312591068289
-0.07030815641959745
-0.0853647625411747
0.15142049194206264
0.07354845353505153
0.09896782497229215
0.02484575277442808
0.028107646403149104
-0.12856230079691414
-0.08750575174592316
-0.08685672348526081
0.04593929763587197
0.0966645551202023
0.06359846741582283
-0.04474402137833417
-0.011880858224289095
-0.01514194893025965
-0.02737981348144862
-0.019292279004758148
0.03726904629735346
-0.03484961816625218
-0.022483353159078727
0.0741541252996243
0.0395313715387135
0.043688541558655425
0.04665364539676411
0.006208273844803766
-0.11238446099597663
-0.12718185392762282
-0.03382518737233572
-0.005517254458519585
0.0007651531774705434
0.03336673029470533
0.13344386377572978
0.12450341913785051
0.00711281295132061
-0.03968630197375874
-0.05095898847058486
-0.06513066757631489
-0.11348473149575206
-0.013054159861181039
0.035353388240549434
0.044088161197729084
0.032215489212755646
0.018115996520338226
0.013358059860052836
0.019305885410376478
0.02704880202490293
0.020479359495484403
-0.018301090312239397
-0.10266042240457199
-0.03601876358172827
-0.009085506588078288
-0.0007489886157902401
0.017582729168922104
0.07549782145663099
-0.003167045709765059
-0.005540393057626005
0.06781758697631796
0.0036196054345149155
-0.02060455818763835
-0.03112557196757007
-0.052328477221280166
-0.10243163698035293
0.008104012500924657
0.07522774156346079
0.09809482162999507
0.07604438132587751
0.0077149193123836135
-0.10698659681309641
-0.06308402713283062
-0.04713538422006462
-0.0364738252132624
-0.002175310672325951
0.08478269861868934
0.04608219775947324
0.08988906608622543
0.008156939643704987
-0.02155273371091553
-0.030267080195050214
-0.04968320996772452
-0.10462617638413371
-0.008124971688155541
0.03965434829290679
0.04878823274470846
0.034704626663468116
0.012960518001817689
-0.004716477509386296
-0.012368993420511133
-0.009798037009906169
-0.001139660185381755
0.0073256007404106
0.009604683148020604
0.0022826008317553097
-0.013671829771153447
-0.03199466946812008
-0.04157007921966618
-0.028546763870297198
0.02000919731676479
0.11177160922459672
0.04560837979234394
0.010406993289597365
-0.012896715880844237
-0.04655587120105738
-0.11016312435871256
-0.015811460731742957
0.0341238571164948
0.046152161872825836
0.03260507842156468
0.00781307478718752
-0.015207139837651078
-0.026986360395267583
-0.022855445432561926
-0.0035787863939546745
0.0244513376055307
0.04969565853935169
0.05717112629242286
0.03181787978069672
-0.03667971585856504
-0.14884483381930766
-0.09221551401201264
-0.0420916602175186
0.03293446370095875
0.16193129386649754
0.16225500783018787
0.03364093764343522
-0.041689712747377136
-0.09293037439977625
-0.15119593974933676
-0.04047847972778566
0.027713851745039923
0.05475842744539633
0.05126103980656401
0.031567011402724145
0.008739804150284379
-0.008533978478886654
-0.01675780901729184
-0.016657758322355366
-0.011331549882344739
-0.004379185131422047
0.0014162430525905395
0.004659511572836699
0.005268320264018328
0.004015524097662047
0.0019728563669492816
6.606180976911749e-05
-0.0011607520068301796
-0.0015749797309002175
-0.0013459452091322455
-0.0007813286008560259
-0.00018046805638451344
0.0002558992954064245
0.00045203212040631415
0.0004349335791583637
0.00028824727286080886
0.00010541792118731859
-4.30329579863652e-05
-0.00012312028154750124
-0.0001346824123857295
-9.916878597301253e-05
-4.5176005996596946e-05
3.008947980983417e-06
3.147663887165388e-05
3.751751221630302e-05
2.6849799328974006e-05
9.309003806073131e-06
-5.330207197429528e-06
-1.043991730425633e-05
-4.209548020489768e-06
1.006845626160943e-05
2.4988582910738706e-05
3.1218273718507175e-05
2.072506962039681e-05
-9.42972995382896e-06
-5.374037084770974e-05
-9.687916521341073e-05
-0.00011595307093475138
-8.741510159242489e-05
1.9392544648629066e-06
0.00014277606718605232
0.00029501170581837236
0.00038987715052260806
0.0003471962964783086
0.00010822609285166432
-0.0003230449780735162
-0.0008455394710692675
-0.0012546066882326548
-0.0012827725489662168
-0.0006950530458341431
0.0005764780221455614
0.002302423505767825
0.003896844893652757
0.004499598743223962
0.0032419246781205746
-0.00032914185127242947
-0.0057845494029885956
-0.011511180705388074
-0.01481966695439927
-0.012650680989498933
-0.002887408989534477
0.01400402963954942
0.03359339424500488
0.047142612022782325
0.04298815031140753
0.009854932770063624
-0.05853782216211179
-0.15916174899090071
-0.07776765869915986
0.0089639317319543
0.1271439764198126
0.09728147100534298
0.12714397558760376
0.008963929994610015
-0.07776766131647084
-0.15916175211281758
-0.058537824882886794
0.009854931830594243
0.042988152609602946
0.04714261837416977
0.0335934039887451
0.014004040053267393
-0.002887402576888173
-0.012650684035153988
-0.01481968345940845
-0.011511210380072502
-0.005784585301896089
-0.0003291699210255822
0.0032419228033199383
0.004499639192273422
0.0038969323068318716
0.0023025420741944404
0.0005765874052477812
-0.0006950120807178955
-0.001282859901267424
-0.0012548537904383662
-0.0008459172735058361
-0.00032344315802384214
0.00010799193627080327
0.0003473367636063534
0.00039054046013510573
0.0002961744415221478
0.00014415509463301763
2.980506540499498e-06
-8.742082814696211e-05
-0.00011761065284220466
-0.00010033050375800511
-5.8325734865064296e-05
-1.3547591103988593e-05
1.9375422437118137e-05
3.490872879037632e-05
3.482584751734509e-05
2.4772343638262847e-05
1.093935357555615e-05
-2.053360303465506e-06
-1.176412063653905e-05
-1.7376892205738863e-05
-1.869166184692989e-05
-1.538020827763816e-05
-6.978191474203089e-06
6.331320636325955e-06
2.2534967349732304e-05
3.693463083100032e-05
4.2436185914017706e-05
3.153265175454031e-05
-1.0105962089848322e-07
-4.93743767972108e-05
-0.00010274780094198821
-0.00013666918472666164
-0.0001233021949423518
-4.177810976567931e-05
0.00010740639529528074
0.000290154248600126
0.00043600849321326883
0.00045173985787243687
0.0002540715107836006
-0.000183488454243822
-0.0007846093887290402
-0.001348052080745074
-0.001574320482339045
-0.001156194513888007
7.441866062320252e-05
0.0019830408023204012
0.004023573484926203
0.005269059829189363
0.004648378167549417
0.0013918704831289966
-0.0044124471353300335
-0.01136246301803848
-0.01666973141539459
-0.016733960774584285
-0.008465282425398669
0.008845515877991643
0.031679123824787714
0.05132801813851982
0.05472107036463593
0.027530015819478632
-0.040803209954804874
-0.15158329908996887
-0.09322579701570582
-0.041694210768638024
0.03409850218263441
0.16321742644158674
0.16321742652964297
0.03409850245317504
-0.04169421031379797
-0.09322579642195628
-0.1515832984929545
-0.040803209591438364
0.02753001565939891
0.054721069453994506
0.05132801647181712
0.0316791217613342
0.008845514185512687
-0.008465282707754674
-0.016733958690786387
-0.016669726614606212
-0.01136245628235225
-0.004412440654933235
0.001391873370298199
0.004648373954241835
0.005269046469610808
0.004023552252244513
0.0019830175886302016
7.440375482108281e-05
-0.0011561889443944325
-0.0015742852977131425
-0.0013479874305797402
-0.000784530030503855
-0.00018342495966301722
0.0002540786429204901
0.0004516543982376321
0.00043581881463867036
0.00028989333610925094
0.00010716148485000864
-4.1877033789359276e-05
-0.00012312164594295867
-0.0001361359257560134
-0.0001019199080188864
-4.848883611388937e-05
4.3917860325873856e-07
3.1260923912333265e-05
4.101511423315389e-05
3.439743088583932e-05
1.9484182688577585e-05
3.972333805599906e-06
-7.081287262535139e-06
-1.1867216375221905e-05
-1.1194960091505612e-05
-7.278724944975335e-06
-2.531080043686603e-06
1.2621939601646334e-06
3.2687614439000487e-06
3.519111781816659e-06
2.5801698290876095e-06
1.1815024300245559e-06
-7.191112010696679e-08
-8.425707883731422e-07
-1.06746211662061e-06
-8.768978236347103e-07
-4.828814217080715e-07
-8.299728502689686e-08
1.9590557938978735e-07
3.1128991295408523e-07
2.872299670916095e-07
1.8244071750880408e-07
5.9246851422930476e-08
-3.7177357601626605e-08
-8.65958522435847e-08
-9.086206792575867e-08
-6.52283708741088e-08
-2.8669075996553874e-08
3.4031530986562095e-09
2.2635307157208255e-08
2.7745974233880756e-08
2.2327793072317585e-08
1.1937127488473485e-08
1.6402511714306112e-09
-5.386453852435304e-09
-8.152889801527182e-09
-7.361043347419868e-09
-4.564651388018463e-09
-1.3718916605314814e-09
1.0760818720594993e-09
2.2894600536057275e-09
2.3432997722454988e-09
1.6466659338024071e-09
6.924064616580048e-10
-1.2730043756352388e-10
-6.062653035738481e-10
-7.202760740404343e-10
-5.678147808501635e-10
-2.942875737122947e-10
-2.944998672659858e-11
1.4730626403527938e-10
2.132129545356387e-10
1.8842945044279422e-10
1.1399086722453217e-10
3.134542734629763e-11
-3.0721864875243e-11
-6.041440888188983e-11
-6.036330545115701e-11
-4.150817775286396e-11
-1.6634521453819816e-11
4.291054437636955e-12
1.619340130984916e-11
1.8674947369680488e-11
1.4421778152152847e-11
7.233539288800381e-12
4.2964328623002366e-13
-4.009436438758355e-12
-5.567987043956936e-12
-4.817919003868663e-12
-2.8409883000083193e-12
-7.042312673461787e-13
8.673582399406975e-13
1.5912813953715344e-12
1.553113781687828e-12
1.0446419970292721e-12
3.97144799511762e-13
-1.364111431701191e-13
-4.3149144206846413e-13
-4.836595448411144e-13
-3.65854879633526e-13
-1.7723423378382836e-13
-2.6265218324949947e-15
1.0865535491701937e-13
1.451492609464419e-13
1.2292232237157739e-13
7.045949499207481e-14
1.5231144551175184e-14
-2.449279012261911e-14
