0
0.00012197085503170744
0.00012197085503170702
0.00012197085503170767
0.0001219708550317097
0.0001219708550317129
0.00012197085503171638
0.00012197085503171858
0.00012197085503171767
0.0001219708550317123
0.00012197085503170253
0.0001219708550316906
0.00012197085503168116
0.0001219708550316803
0.00012197085503169341
0.00012197085503172217
0.00012197085503176144
0.00012197085503179802
0.0001219708550318123
0.00012197085503178429
0.00012197085503170325
0.00012197085503157835
0.00012197085503144568
0.0001219708550313661
0.00012197085503140967
0.00012197085503162638
0.00012197085503200993
0.00012197085503246813
0.00012197085503281851
0.00012197085503282582
0.00012197085503228731
0.00012197085503115158
0.00012197085502963169
0.00012197085502825367
0.00012197085502777899
0.00012197085502896592
0.00012197085503219396
0.000121970855037057
0.00012197085504210743
0.0001219708550449651
0.00012197085504294893
0.00012197085503422361
0.00012197085501919494
0.00012197085500161066
0.00012197085498865327
0.00012197085498939401
0.00012197085501141864
0.00012197085505622686
0.00012197085511496064
0.00012197085516675772
0.00012197085518206526
0.00012197085513215977
0.00012197085500378393
0.00012197085481465711
0.00012197085462272274
0.00012197085452094002
0.00012197085461179619
0.00012197085496232923
0.00012197085555051447
0.00012197085622442407
0.00012197085670170002
0.00012197085663299966
0.0001219708557352782
0.00012197085396975983
0.00012197085170282838
0.00012197084976063383
0.0001219708492888129
0.00012197085137333807
0.00012197085647069935
0.00012197086381756643
0.00012197087109895042
0.00012197087468844242
0.00012197087067418592
0.00012197085662102939
0.00012197083362773912
0.00012197080783670247
0.00012197079033431987
0.00012197079455708041
0.00012197083103387615
0.00012197090050951029
0.00012197098789865589
0.00012197106053188543
0.00012197107404941104
0.00012197098747695962
0.00012197078538370902
0.00012197050031309282
0.00012197022459054028
0.00012197009952312302
0.00012197027419128399
0.00012197083649114771
0.00012197173430441213
0.00012197271991449744
0.0001219733585545482
0.0001219731340987911
0.00012197165619560981
0.00012196892564324927
0.000121965561031929
0.00012196285247676983
0.00012196251559910404
0.00012196609301359378
0.00012197409368080403
0.00012198514211716102
0.00012199556246887233
0.00012199985483438376
0.00012199234698357595
0.0001219698897126771
0.00012193487327273195
0.00012189726468101655
0.00012187409358082391
0.00012188515908580516
0.00012194487989756357
0.00012205206554531316
0.0001221814430244071
0.00012228213355066066
0.00012228786417669435
0.00012214069307481975
0.00012182439997983627
0.00012139669632327648
0.0001210036962224331
0.00012085922040380364
0.0001211787204147731
0.00012207404670094458
0.00012343819334984822
0.000124871001566181
0.00012570621029529795
0.00012518534797443455
0.00012277799948799903
0.00011857557556433417
0.0001136071908833844
0.00010987676982181939
0.00010994128533817367
0.00011597164214929033
0.00012845872907715517
0.00014499636713384464
0.0001597855717739038
0.0001645231112153817
0.00015103995118463225
0.00011540499968286201
6.232225474670259e-05
7.824656353888745e-06
-2.2051590683296447e-05
1.7080211568592553e-06
9.852601671288071e-05
0.0002630934733379122
0.0004536310785957919
0.0005913095427505562
0.0005775921167376255
0.00033135498764592247
-0.00016102819310993672
-0.0007997946091524508
-0.0013551409740114688
-0.0015049852015147165
-0.0009401027839790946
0.0004760913162262431
0.0025401809861362976
0.004611953555920593
0.005676932421993897
0.004630029515863119
0.0007689951793899856
-0.005623750520222097
-0.01284678180289073
-0.017794014276427832
-0.016675023039097958
-0.006504864743538874
0.012906442805224417
0.037122021542346895
0.05634036547345167
0.0566581232132635
0.02374056226802637
-0.051666640199277275
-0.16813576761501617
-0.11044359303605714
-0.05129485828841976
0.04139847518414236
0.19352441356477337
0.21418367448752823
0.09029336563609344
-0.010454329500324771
-0.1285499690173776
-0.297523916529267
-0.13083278316383748
-0.016319993038423755
0.07937944584368987
0.19838862749569788
0.17626754938933084
0.029794418651342233
-0.048000142689732454
-0.0847169467674692
-0.11965498877599237
0.007172328190661837
0.06468916693257212
0.03720465587257383
-0.07277073467527692
-0.04515521244738292
-0.046244718009295076
-0.03580511751163379
0.023536586438095954
0.1565577379345902
0.16823689047420806
0.04193774020761545
-0.05561017373423552
-0.16371006204239477
-0.11516185757246736
-0.12648585655523578
0.005516147176966085
0.09998939818827907
0.18318515804182536
0.07863730249801039
0.00043874393499129664
-0.04817167035498027
-0.07135678502185877
-0.0748554094588176
-0.06089430133904305
-0.026176667401909104
0.036325117749146596
0.13281549410902835
0.06366932526001191
0.02049395691910698
-0.01321841085775463
-0.05806291257154435
-0.13312247870586782
-0.051279770971492375
-0.017385422542912535
0.17032282552091774
0.11697200496483784
0.028395890711558333
-0.08908857397165554
-0.026485085963911942
-0.16942718143968005
-0.0976511555731364
0.011585198297132634
0.17645855654381615
0.20259830134820092
0.07815796121062375
-0.024866876833366622
-0.14261956152319524
-0.10741741214711788
-0.1365014708213431
-0.025862104705518217
0.04866204793679561
0.12370385849518417
0.03713058283383798
0.01716317178538712
0.07510916280198816
0.0034018472928904046
-0.0210491647645207
-0.029579700122705138
-0.05289007874639226
-0.11323067956304131
-0.01993814667040724
0.030490362247631363
0.050148077521720076
0.05311389366140237
0.04904676196838008
0.03927424519628462
0.016633237289739224
-0.03104864637503946
-0.11522276786964225
-0.04083735564102712
-0.0026865825699764353
0.014836807403557762
0.03470618140706263
0.08223337668746647
-0.02022314039465145
-0.0574324677668981
-0.023744549727844275
0.07613880471681236
0.027912051089853965
0.009963055927281876
-0.0027929802800473933
-0.034060258481671636
-0.10144667672569367
-0.013313246654853507
0.03177195073227016
0.04289861362542629
0.03297591117589981
0.014709600078480064
-0.002307041642413071
-0.012805576408283588
-0.015520805325005072
-0.0119530105481297
-0.004915958530037406
0.0026235437246058886
0.008222606459438416
0.010240223179128484
0.007939502071985521
0.001610364857280094
-0.007245605735299897
-0.015823279339377487
-0.020304909647383584
-0.016805504855527304
-0.0030296091511671235
0.019680920773474303
0.04464403902684649
0.05946960007529628
0.047893617648825305
-0.005947970984960451
-0.1116207003354009
-0.06676324269724865
-0.054122520725385155
-0.043108819026101676
0.003752272429589766
0.12092859053040192
0.12948605876012412
0.029644571900162578
-0.001040959631950864
-0.0030647113093730818
-0.025232756365757406
-0.11263486551253482
-0.09568699179541415
0.01684512664375372
0.0392282721699459
0.004671353063670154
-0.042658830915148924
0.14273900414964452
-0.0013396170570441777
-0.051490815937006884
-0.001998564253241701
0.13546978925825248
-0.06462036943480894
-0.03571457916513857
-0.011977238354260117
-0.02147751270131735
-0.08136366726766395
0.003903285130967308
0.04105603376040938
0.04401867883950309
0.028875555945426283
0.009449437457990926
-0.005362457815018304
-0.0121676738045658
-0.011969488500500508
-0.008147218827583015
-0.004333026635433336
-0.0027961770777809275
-0.003672435029260642
-0.005127659697621087
-0.004354168829310266
0.0008492428690388213
0.01029136053835993
0.019878109429534274
0.020888496428767805
0.0004348797534598352
-0.05676962921291659
0.03445292589737106
0.06329587482097505
0.02677879744625418
-0.06668468685883544
0.00514097868682727
-0.12183158958870605
-0.20230381032525957
0.009136141047835838
0.14471046533120033
0.2095009414233909
0.1720915837003868
0.16487795688714169
-0.10358456628872414
-0.12611354694242932
-0.17031065591446454
-0.25598908893211225
-0.14408014449075776
0.05877976402759601
0.08053117486520181
0.054039138048533886
0.28569263473399603
0.23095180232679222
0.08360076186888246
-0.0184634290573414
-0.17310973099489807
-0.28630093189834455
-0.24599276428417957
-0.1057801800056023
0.11755304205083528
0.23400866988303054
0.26410604273167076
0.22448849489950534
-0.07835977165663047
-0.24476095111920435
-0.2725354574282209
-0.14843610458890277
-0.04626071680574302
0.2664508513129478
0.21622429281521552
0.21229769394114176
0.04226009933739798
-0.1226088706534614
-0.31443962927890295
-0.15419937986739454
-0.042077431915685956
0.04308840278681366
0.13562747123821184
0.27024190115542707
0.07035406827729004
-0.057812447524280504
-0.12401517630010579
-0.14776031546269666
-0.1511755511222395
0.045350173453923254
0.2235334956325946
0.1652439674565069
0.051468610051824196
-0.13542813758209093
-0.2065065263238199
-0.1611120766152577
0.014630640917595554
0.14410176244283948
0.2529241496787316
0.16219871224038931
-0.11390523871469262
-0.1651053597540322
-0.17901701857378774
-0.1368292831704244
-0.014505752962749767
0.20973836526219625
0.1446201683716473
0.17688326164070162
0.06928786265087236
-0.032248447974235615
-0.1840252692160042
-0.2275122795393141
-0.17636991516157097
-0.012761577980661328
0.10540833747133224
0.2291182052543424
0.20075561404362707
0.04117257419178333
-0.054392285408687575
-0.11113205387806664
-0.163472179056947
-0.0428133026211138
0.03145552513284036
0.055570483418336286
0.039980761203427355
0.004754202793352034
-0.026168589261270372
-0.030478965160091853
0.007939307954561848
0.09583032904438052
0.029289296489977693
-0.005118346279111172
-0.026880792819235295
-0.05665115862031326
-0.11160281484561252
-0.0026829215954414522
0.06543364692828299
0.09225730333015869
0.07898395530034696
0.027472685663450312
-0.05844402343230909
-0.1701545289198643
-0.09214682724266349
-0.002831738402328193
0.12086814641949628
0.09656569240334803
0.13013674362324193
0.013180426299118564
-0.07439414641642869
-0.15767287936406685
-0.058826122234070036
0.008776409500891749
0.04246709430174757
0.04827594020738305
0.036678372373655496
0.018208910330806266
0.0005168921154941559
-0.01254086650597142
-0.020089130475079243
-0.022581708800035603
-0.02031004585119504
-0.012832036614362982
0.00040163666079338206
0.018510413024359587
0.0375074445430839
0.04950152603640013
0.04366640253397746
0.009296585014135769
-0.0596664351147678
-0.16026126993041995
-0.07846793634238561
0.008772622201362521
0.1273723674535634
0.0977422185439239
0.1276460937242286
0.009373679530890749
-0.07750609639583124
-0.1590374794583305
-0.05850114061297046
0.009862789696412187
0.04301335374077576
0.047208967910099035
0.03370313329979622
0.014145034465716749
-0.0027325570440609784
-0.012497324144137404
-0.014677049401665386
-0.011381804089827788
-0.0056658660037597185
-0.00021619955742492215
0.0033540585182968517
0.00461430723623675
0.004015472267922766
0.00242459606661845
0.0007008389862254706
-0.000570072045233605
-0.001158391109673273
-0.0011314368577490313
-0.0007235941788030295
-0.00020191463844738004
0.0002291352494741776
0.0004684401892377844
0.0005118081910168889
0.0004176820704792955
0.00026591295470568103
0.00012499874473702015
3.489447909550483e-05
5.035975026929673e-06
2.260606494945702e-05
6.470439035421261e-05
0.00010919245358966291
0.00014131862666468637
0.00015560674114922346
0.0001541581625531639
0.00014321317963068557
0.00012968263788849663
0.00011874230141774945
0.00011285080313225526
0.00011197666325579481
0.0001145222739159506
0.00011840317425935716
0.00012188976235608409
0.00012403391901107724
0.0001246940001416914
0.0001242891159494753
0.00012344980127559823
0.00012270729050369055
0.0001223082864688831
0.00012218314621525883
0.00012204838926237631
0.00012159359966520723
0.00012068573753160373
0.00011951771768192934
0.00011863381971375053
0.00011878725423074845
0.00012063048989237083
0.00012430575647327102
0.00012907766379203266
0.00013320337605130233
0.0001342301400622129
0.00012981201460427833
0.00011893964946013767
0.00010321624006909448
8.758007291520534e-05
7.979992360668617e-05
8.828287703496301e-05
0.00011829731940588263
0.0001675531320715326
0.0002229436274569039
0.0002607281341152101
0.00025206125825435154
0.0001742465488996091
2.5490923132091874e-05
-0.00016207917587484318
-0.0003185625419846826
-0.00034880428894698426
-0.00016462449885036983
0.0002676959818572777
0.0008792302322179588
0.0014728802808464795
0.0017462740065715095
0.001379945274417068
0.00018527386925051663
-0.0017260254374599085
-0.0038219856997685473
-0.005168307465815432
-0.004656343316379996
-0.0014531216475544195
0.004414549899884346
0.011542543728827263
0.016975559856572203
0.016635188655145176
0.006448846837201908
-0.016018706620036367
-0.04998296000499118
-0.09068945794250313
0.06984880887041416
0.040581915853290046
0.02842985510416591
0.03590182581938432
0.06045603266784516
-0.10410955250521593
-0.06496578403892794
-0.027686445484379235
0.004823636418315061
0.03140796036072293
0.05042859952924521
0.05770479833919466
0.046116871393147935
0.007645058291201003
-0.06258299209376088
-0.16188685527599203
-0.07759159765487234
0.0115647888607788
0.12992856314532159
0.09721152669357373
0.12180094576557421
-0.0019527516365066778
-0.09137584124753154
-0.16936105808617052
-0.05750801313817047
0.02846817508573337
0.07965813327185445
0.0920038477353034
0.06367542944940528
-0.006114341680694595
-0.11609923758796227
-0.060664034903075086
-0.028153600412668445
-0.0014178257262915143
0.03902604599136623
0.11026607093846791
0.02259003719736103
-0.022846947901160212
-0.03350210716131091
-0.022519867911426628
-0.004641997307646558
0.0077452622480492905
0.007550626983302223
-0.005498037550542966
-0.024880835474517003
-0.038920893314579166
-0.033989249996952
0.0010802528750740745
0.07033018815212558
0.16740504553680394
0.07552856964063695
-0.028152898670505612
-0.16458097914840938
-0.14402188794941517
-0.16052889945946117
0.007245080370955051
0.1884832626293919
0.2087690092274694
0.07972748909272792
-0.005695972884352281
-0.07044059086714127
-0.1445549497696987
-0.05432861051099004
-0.013584211903911883
-0.020025392481897136
-0.05741806821354842
0.0975491809884067
0.0661871835063307
0.05957312050733798
0.07400920921400761
0.09191232755302069
-0.11190448107124501
-0.16055542387241947
-0.06546370561538799
-0.02044581196740295
-0.001764653668718854
0.02588501394494192
0.09958450993998186
0.0478307568199897
0.08282403255260412
-0.002373410128048092
-0.031207366651411307
-0.03665276096518934
-0.052261187156776606
-0.1040210784613149
-0.005332104073924067
0.043789542309800374
0.053664217237712745
0.03970681294858744
0.017099289715146314
-0.0029621698581882446
-0.014755215197588455
-0.017505045438921146
-0.013653774440651785
-0.006843672992303035
-0.0003092216263972221
0.003992813423136206
0.005526624671367596
0.00482173613089029
0.0029150563909607036
0.0008398023915734222
-0.0006963287322262276
-0.0014129216196960938
-0.001387729326159463
-0.0009010882667970515
-0.0002742054918165605
0.00024596003160268936
0.0005364122773681078
0.0005909354179223068
0.00047914547839058295
0.00029694476264909486
0.0001269840226131492
1.778042249342254e-05
-1.885811479162636e-05
1.966087281627158e-06
5.280416258764649e-05
0.00010689619744424639
0.00014618670399851131
0.0001636915146238639
0.00016159083995190073
0.00014724970222177933
0.00012918452466986372
0.00011422973103722909
0.00010627149195807377
0.00010624730573316701
0.00011281446048615335
0.00012314793118216525
0.00013360211542879467
0.00014027914012647828
0.00013972783291536756
0.0001299589341937388
0.00011170642894968655
8.949464062104193e-05
7.17671109947962e-05
6.930571492386165e-05
9.157740318982885e-05
0.0001415122798322605
0.00021034644916276184
0.00027512905727957885
0.0003017139144516468
0.00025499202914589024
0.00011555918676895108
-0.0001016440682670183
-0.0003347582930397383
-0.0004782143385468526
-0.00040929467401483585
-3.847408478754912e-05
0.0006275477688648252
0.001433961866736661
0.0020693718357577473
0.002130375746733511
0.0012700426979734317
-0.0005942311051150051
-0.0030824513812321265
-0.0052700034858196255
-0.005838410437012906
-0.003538820875962525
0.0020400808745723534
0.0095294526147931
0.01490133438094524
0.010924955706245592
-0.012860783490632128
-0.06967239133083797
0.02532182767919619
0.05603048869310593
0.006907582980194496
0.06533449166216601
0.02520789954730674
-0.10866664246826688
-0.1166586665789446
0.037332796011216224
0.003832839410379768
0.04183591696731268
0.010031184008876084
-0.043044758342284634
-0.08823113930637994
0.07712530814757655
0.22568922861782129
0.10212801662988656
0.03196422254496152
-0.06319007856704663
-0.2473709000557639
-0.35466801658999125
0.01782026011113054
0.10526776983540584
0.16005584792072347
0.232088677876605
0.15191091368010332
-0.077560360276253
-0.0787323552582541
-0.0886703080387752
-0.14495218923171488
-0.07327695004146965
0.11956927798447059
0.046335902227336634
-0.06526445101673568
0.020007904974460068
0.13689468171971672
-0.08726101017412621
-0.03717760477850219
0.08844310754085839
0.07771795440993398
-0.09122424232246987
-0.045333302498531985
-0.011206234080741293
-0.010611010956783152
-0.05807415499761445
0.03920610644304967
0.07973205661209701
0.06556806607143192
0.0009582201714592439
-0.10768298873547814
-0.05088427164960434
-0.015590715593560898
0.013918419498480007
0.05359136110935974
0.11667837782577939
0.011810897524647706
-0.05693126620650217
-0.0882070527397408
-0.08129464832663581
-0.03542508771789082
0.048552789717325635
0.16492105350987313
0.10039748368927326
0.03436281016918406
-0.056941223120567035
-0.19348493265818414
-0.18500261009133628
-0.028585308644725277
0.08787128344590311
0.17766938834516185
0.24686363327449762
0.09024796345926571
-0.10523432874732135
-0.15041978346916532
-0.24167076736247775
-0.1526014668630779
-0.03465909099986975
0.1722521979320632
0.12231034355159665
0.24580168090094526
0.13744362699744628
-0.04448716410931282
-0.1677908340830346
-0.10846552139847215
-0.13151102241140822
-0.0764908113964511
0.04838855280771644
0.06314853027928843
0.0061411733725034705
0.12122014219188554
0.04593159162594712
0.0036942565215318164
0.001366400429259807
0.03190841799121814
-0.11952637111821918
-0.06851675420918416
-0.025808126333749744
0.004988094318484347
0.026040054616514673
0.04134552283729348
0.05216184376009189
0.0539009100340514
0.035962624748177206
-0.015123873790071844
-0.11018294828340204
-0.05151056411136619
-0.029005474528962842
-0.020073464747377225
0.006295840264263842
0.08236368004569491
0.03351243084938663
0.07157378198960224
-0.008467918909052234
-0.027601215364929287
-0.018243662151379028
-0.017496863332466334
-0.060008062325321625
0.028008320072178357
0.0326430504106076
-0.04621599846552743
0.004429622227483514
0.008214395867330753
-0.004411229377349545
-0.0008157932251167587
0.04899985332577577
-0.03193737133974487
-0.030905141897329864
0.052532451427834054
0.006103404912556553
0.006148781151420391
0.02079866917796823
0.014853824227220576
-0.04418219705072033
0.020129373117291696
-0.0016138327841883086
-0.10170182401946627
-0.05571121770131271
-0.02685218999935397
0.026079999570731524
0.13880164674129128
0.1324667532017202
0.008384921561392788
-0.05167608579767986
-0.07992273433067047
-0.1139783721213549
0.01164191033255754
0.07172720846065747
0.05349529412391672
-0.04276893422500314
-0.0045937656032815095
-0.009188686860681186
-0.026320688552859777
-0.022369868948008215
0.03452062699624042
-0.03128178521833243
-0.008267920050260056
0.09842404053181275
0.06612202598399614
0.05774227907636071
0.02924949900143181
-0.05961554129130153
-0.23402671911210088
-0.09590753150999018
-0.02228833297222415
0.028456393127394605
0.10412276160034857
0.24413552201589664
0.06806401770874905
-0.028841837260897854
-0.07192856109093185
-0.09726000739646248
-0.1397222645413291
-0.023447203052424634
0.04262896487705138
0.06361138414290667
0.05354661296288994
0.029045625974896974
0.0040281070817591285
-0.01310285849160951
-0.019759060639297787
-0.01768429695817695
-0.01074543093714674
-0.002914787394133847
0.0030189444158622903
0.005888364716118915
0.005915418067556437
0.004130570262401196
0.0017532759497601547
-0.00025863530304044366
-0.001412219635999832
-0.0016628887252855226
-0.001264034678618448
-0.0005788659942705987
7.304050486997568e-05
0.0004994462779598167
0.000648976591650295
0.0005759890090573668
0.00038545216075816264
0.0001820822431634219
3.769075439352673e-05
-2.0035107020268495e-05
-1.7182026776209965e-06
5.88633239450111e-05
0.00012194045861466869
0.00015596603770032583
0.00014658086046019924
9.987797524912173e-05
4.024103942470617e-05
3.098953924843132e-06
2.313505201540956e-05
0.00011948022279767549
0.00028131776393230007
0.0004594741007643786
0.0005706310070211113
0.000519223946079817
0.00023687739990373017
-0.0002692621449805687
-0.0008773739441458505
-0.0013452405241540788
-0.0013600426660712811
-0.0006514020631289468
0.0008511992648276347
0.0028683354169348908
0.004706090838582453
0.005358602381351432
0.0038243009160820424
-0.0003958647043509197
-0.006758427500002799
-0.013338884208344526
-0.016982269139977666
-0.01416133667099488
-0.0025484262375075743
0.017024526575904093
0.03889676860693177
0.05209094163176028
0.0417844064728884
-0.007033713930973544
-0.10440866110683926
-0.05038902032313286
-0.032145810400192806
-0.024779913987712524
0.0038891945219817745
0.08570061775347187
0.04390943675787327
0.08688198992591271
0.005768003028610361
-0.023065992650246753
-0.03161417019660974
-0.051870057385256636
-0.10813019767697973
-0.012249520099394522
0.03693680352600122
0.05030066314115559
0.042831713231966204
0.02798507066446957
0.013850655305510306
0.0020855284107165395
-0.01051440648291451
-0.028764141499772425
-0.05557879038926102
-0.0896375524696691
0.07481503522929357
0.04598902132415082
0.03138239989336348
0.03498443562998123
0.05613474843199044
-0.1096041139985172
-0.06827729008065071
-0.025468162904798926
0.014406077039799499
0.04712007201135671
0.06687142688452269
0.06528435743695779
0.032518791679176304
-0.039237886009996135
-0.15105049478398502
-0.09357323333466054
-0.0468475799340565
0.015276279240142531
0.11711989811709339
0.27267121460995525
0.08053363367279402
-0.07488672125925716
-0.2160937027845112
-0.16249362359133548
-0.12260808441077235
0.10775734969033164
0.1409236729651008
0.18924450144383723
0.058005442124284684
-0.057165563198778725
-0.16765625229862838
-0.08615797753918092
-0.021375059399319968
0.024122959461763942
0.05228003768959601
0.06557898833911635
0.06312831989619078
0.03898226055312822
-0.01628459000509972
-0.11125331330608199
-0.048395164815644244
-0.020178697373382123
-0.008317286922249307
0.013366744188392421
0.07334083530600917
-0.004243510852138132
-0.0052737887830816964
0.07094872480667554
0.011452167001871223
-0.0075007150557555215
-0.015013517189162997
-0.03900141426447322
-0.10023901758889234
-0.008679972217581372
0.03698352096381647
0.04669139494099206
0.03457290208648335
0.014418934092375052
-0.0035288954492758927
-0.013880971493847387
-0.01570418508223092
-0.011108490270058313
-0.003570093890922025
0.0034639633840902223
0.0074610546693567766
0.007213460111943848
0.002932998213351416
-0.0038361820307336084
-0.010467585193370856
-0.013758886883781149
-0.010811386658742738
-0.00028344472866068083
0.016215928118746885
0.03308900205986807
0.040703547902269405
0.026844715474171027
-0.020308559261966563
-0.10838185618473037
-0.03751629229245869
0.0009812645476262318
0.02332015675605915
0.04968934634133945
0.09992479379621319
-0.009979636953472816
-0.06951788176981549
-0.07359941697358179
-0.02178552778434517
0.08208985757621245
0.02961921363150101
0.007437171269790951
-0.00238674781574
-0.020777180286075638
-0.06918390325988062
0.03313703157354588
0.07157814697800857
0.038283294677062596
-0.0659518524591409
-0.03012282464355059
-0.032534573187215206
-0.04239627097931961
-0.024088490866911925
0.056208403273224475
0.02283464714603707
0.08393362584213296
0.027812221036676257
0.023879411188180336
0.0284999356630427
-0.005255515070384945
-0.11618186950897251
-0.1248191766420621
-0.027651112006568813
0.002366202791882178
0.008819214193188913
0.04032477833669737
0.13783392913860132
0.12446655007838485
0.0008535614787449339
-0.05279621137925811
-0.06899991912706668
-0.08270082288221109
-0.12207555426341012
-0.0033878482413037757
0.06899400968293969
0.0984493559840282
0.09046788060890344
0.04849088391228951
-0.026902501140600568
-0.1355409196791276
-0.07380405186127893
-0.03195112706348894
0.00548778084281735
0.056091145811496115
0.13428300455425496
0.04692927631995445
-0.008034665292490773
-0.03917848686484986
-0.056371537482475094
-0.06509438737384099
-0.06279911638049092
-0.03906756537822662
0.020122077465608477
0.1253476767120464
0.07654837272953176
0.058724892789871294
0.0427660986325407
-0.00816505362536551
-0.12834330738040217
-0.13856259791240053
-0.03838335626197454
-0.004446780355637198
0.004304183347431918
0.036011356607334954
0.1331239823859657
0.12130367133668508
0.0033078167306036786
-0.04046700962270989
-0.04531971954533598
-0.051932250690954
-0.09575027021712784
0.0009676775839965096
0.03267748039854739
0.009420347381158765
-0.04792418981218312
0.08570451731915427
0.032803696489531534
0.008092717583751631
0.01597820180946372
0.0510961875514696
-0.09854585998444929
-0.04703585578053967
-0.006191231127612886
0.01731124899700548
0.022748007451893325
0.014403816762028605
-0.0003689848978814886
-0.013380523564159448
-0.017733220854599826
-0.00972188251843964
0.009600060326006259
0.03348368112949078
0.04970268000990415
0.04247109811127109
-0.0037792715082298925
-0.0993800280392073
-0.04464489461155083
-0.027221355194055212
-0.023060023843633495
-0.0013651555197115599
0.06742105944868107
0.002540941707438764
0.0051111527115165305
0.05377849829091122
0.10547820186144391
0.10213482771725552
-0.016982887670332437
-0.09917685656352507
-0.16227651652881872
-0.18357346200060545
-0.09820043470277627
-0.009037471227149681
0.19342495457483846
0.2064108974296062
0.09249054435891299
0.06605104733365494
0.09223339202168944
-0.10197481038691818
-0.20834172137996101
-0.11572844471367696
-0.092448499633865
0.0229054768852604
0.020951160091299104
0.11334841549405163
0.12106745794803755
0.06358898114236011
-0.047610155815278096
-0.010047870790279483
-0.026651643412629863
-0.09994851599360326
-0.02667727504738053
0.00515602656351394
0.015931937148935812
0.03121430591990426
0.07703114355375838
-0.024791894747062476
-0.06010501798170106
-0.02431869207000038
0.07715296999955246
0.029722596297980897
0.011834370456577816
-0.001368499593701439
-0.03334157616372608
-0.10150589246784342
-0.014101606089213863
0.03040501084977366
0.04123774849496468
0.031481553155005434
0.014000809810978216
-0.0015890518103152272
-0.010267502225375666
-0.011359422960694391
-0.007227017703436213
-0.0015556070056528552
0.0022387473948811657
0.0021668214024230833
-0.0017415597577764986
-0.007444108647258653
-0.011492148447488196
-0.010202695143754268
-0.0012624117288496525
0.014556741027838776
0.03210646813001344
0.041652996208912836
0.030282421928956214
-0.015009396811011367
-0.10320033192907044
-0.03543806287444633
-0.0030641683842082853
0.011606267217816055
0.03191870103873151
0.08208192791234065
-0.017529268334034696
-0.05377199409903122
-0.022383581674510745
0.07192712929296355
0.016594581261642437
-0.006669015489245072
-0.018906963277516235
-0.04064660013423092
-0.08919422785876549
0.02271629074566829
0.08678191191778575
0.09828606399214757
0.055909946510202604
-0.03685088035916844
-0.16909134574931828
-0.12066743917190041
-0.06358384415813081
0.03210968902795885
0.18905443712061085
0.21349858089451346
0.09084980851450272
-0.011065782943953358
-0.1312442139695912
-0.3010763164978337
-0.1321891659552574
-0.0118661171813977
0.09186978888364225
0.21772344659094353
0.19658697970453556
0.0410401664409874
-0.057227765907569984
-0.1219514831403609
-0.18210869501025742
-0.061912525697484025
0.0249801483186523
0.07554692302353415
0.09309401569662079
0.08164155656123735
0.042118607334425046
-0.027898846218555765
-0.13117803521531612
-0.06650970427370327
-0.02565325550903476
0.006614736008537644
0.04914879076699573
0.11921135332119996
0.027639484245024798
-0.023628385384709374
-0.04089021875540398
-0.03553618926500727
-0.019971793668403154
-0.004176329288245939
0.006158368246371753
0.009747419304088767
0.008513042583466817
0.005748149388030149
0.004311769460787913
0.005355587732076595
0.007866840294042552
0.00911041157281141
0.005864906862376306
-0.00384664336712017
-0.019031934570667913
-0.03466877783114298
-0.041978204054459595
-0.030445916509982365
0.008575359263310654
0.07767399914659551
0.17035244606184302
0.07111206129375436
-0.04027770422558436
-0.18120255177336683
-0.15836273411506016
-0.16369864702520057
0.02304718865878179
0.22531518882064752
0.2579366810299468
0.11821609059443769
-0.015363378402579607
-0.17559620126995232
-0.1932334994688832
-0.08362954723625406
-0.03892809563630278
-0.02874122374118339
0.1912582072802835
0.06626859762738657
0.02949212001037725
0.09357107756997037
0.048552087381507486
-0.13371403844354812
-0.09084991915524987
-0.06022679481170308
-0.071503853829426
0.056673093331795064
0.11597388883028431
0.10558429394781477
0.029782505710249374
-0.10249584816418447
-0.07629776864474574
-0.06929739318154349
-0.0526309715858154
0.004913596382700457
0.12999011339949573
0.1373616116655003
0.025114548041022734
-0.025354843018046386
-0.044268027213324984
-0.06507695677771787
-0.11574479901151022
-0.012584271152867874
0.04164458692330918
0.05539995754480019
0.04333124894535831
0.020767652491833627
-0.0004242924468358958
-0.013732903779761057
-0.01776553196037869
-0.014647380693221084
-0.007992623337619418
-0.0011987702756053231
0.0035445565471502924
0.005497296299379187
0.0050666118968467795
0.003257079960046558
0.0011366616333473728
-0.0005205824577906223
-0.001368560562471299
-0.001440271535552788
-0.0009985030014630543
-0.00036960933309313686
0.00018154545889918335
0.000511582757876547
0.0005987194578234359
0.0005049437160922753
0.0003259690414968004
0.00014903974159909223
2.8836125596437635e-05
-1.767561966776931e-05
-2.8050068949263187e-06
4.629183056160488e-05
0.0001013894000079402
0.00014234275843771901
0.00016053574293627636
0.00015768377646852754
0.00014202345762093558
0.0001238790890114752
0.00011196268624725482
0.00011100934733619921
0.00012080779590543197
0.00013647184842329618
0.00014982470716204838
0.00015182818172191942
0.00013587657327582243
0.00010139590227979057
5.6634745846092664e-05
1.9084171938294042e-05
1.2010779565431402e-05
5.646549923721442e-05
0.00015991918336518316
0.00030501158818280725
0.00044392004974864996
0.0005043459643839007
0.000410926655121781
0.00012051778238068029
-0.0003379412270501776
-0.000835926242983869
-0.0011508987639802933
-0.001021386234547359
-0.0002531527743258029
0.001146236004610298
0.002854349222255288
0.004210632916063011
0.0043466979222909876
0.002495233984370296
-0.0015709418631040424
-0.007110868095336379
-0.012217174281196681
-0.014082420248172056
-0.009877182389439711
0.0018196513958842794
0.01938804919239763
0.036956970131856344
0.04435812879566251
0.028791743834790835
-0.021812167520317255
-0.11457333291688722
-0.04812953254893823
-0.011445195275375021
0.014162088266459294
0.05025691314902583
0.11549029916063147
0.020943988902594815
-0.03173789517142177
-0.049050956546307006
-0.04215075487312679
-0.022908509813164356
-0.0010281427285379772
0.017078621671411894
0.027891746250389357
0.029701820532951496
0.02181673763980113
0.004694976274250159
-0.018966353751789143
-0.04280844658678369
-0.05609595689437813
-0.044733341740014594
0.005528613235905942
0.10423084354820655
0.051253471393517575
0.03383165324944564
0.027165425851615216
-0.0009762182638154649
-0.08271009653603799
-0.04171306301138537
-0.08667985530135908
-0.008679201439193526
0.016670823958975407
0.022815168774523026
0.04357626716893381
0.10474307564183817
0.01836301594978055
-0.01870721016866669
-0.021779556718260047
-0.011973413353053098
-0.008489246662025158
-0.021658494051325836
-0.04862068737776939
-0.0729936895963626
-0.06924893894531099
-0.01152432937246575
0.11475996978539693
0.10157471235584717
0.11120752340097267
0.07702432822883479
0.11387045114727358
-0.06279108343553261
-0.1128108804913449
-0.24849718341126903
-0.22003626874583504
-0.11500415505699321
0.025755808708909256
0.1785430514805409
0.3007334116006941
0.2978549354043896
0.0024463557003309836
-0.2308413952306682
-0.315053531178133
-0.011012728087630182
