0
0.0002644685750943503
0.0002644686294009029
0.00026446868296996234
0.000264468708973643
0.0002644686785970506
0.00026446857408547286
0.000264468403913902
0.00026446821383493567
0.0002644680859681292
0.0002644681194384722
0.00026446839139624356
0.0002644689062411267
0.0002644695512272633
0.00026447008403159147
0.0002644701769645001
0.00026446952891193
0.0002644680291552167
0.0002644659224466816
0.0002644638947175461
0.00026446299111226607
0.0002644643094205386
0.00026446848962319563
0.0002644751327713759
0.0002644823945688964
0.0002644870553510859
0.000264485308488493
0.0002644742956716268
0.0002644540659729569
0.0002644292391976983
0.0002644093821534421
0.00026440716534421296
0.0002644339201937064
0.0002644932774667037
0.00026457490826002297
0.0002646515116527878
0.000264682418019292
0.00026462587216095646
0.00026445898093914845
0.00026419994356088937
0.0002639229339446052
0.00026375403590074006
0.0002638392368117532
0.0002642840350040331
0.00026507794712104577
0.00026603235515101117
0.0002667700659905667
0.0002668017443429926
0.0002657019753834982
0.0002633560184642913
0.0002601966783491109
0.0002573088233702896
0.0002562732202099172
0.0002586753377123657
0.00026532672794711424
0.0002754158732799543
0.00028596603763721547
0.0002920454976817524
0.00028806325274504784
0.00027014170914707906
0.00023902214511575462
0.00020238033064192586
0.0001750687547229524
0.00017596261839844264
0.0002209926548995132
0.0003135850266787418
0.0004357146462815465
0.0005443370069155981
0.0005780787678918472
0.00047684428728208563
0.0002121724646346863
-0.00018037646466710562
-0.0005815859205531987
-0.0007987756696138015
-0.000618107304509281
0.00010234049336665685
0.001320949760754071
0.0027266690684181662
0.0037361597992452257
0.0036236580075095473
0.0017966667901635602
-0.0018336903681557106
-0.006515316805893669
-0.010536689128103616
-0.011514171896024227
-0.007182459217375228
0.0034020700665376774
0.018584190978762995
0.03331959156838001
0.039500270501416364
0.02781652502452272
-0.008958359312287716
-0.07214215792143217
-0.1543634081053484
-0.039585148165887096
0.09309546515267218
0.0625689723593593
0.0781850283934149
0.1347247473696513
0.012266654266095425
-0.1185542965796384
-0.08761839504841501
-0.1160310335460952
-0.009913381687593877
0.0407013102264255
0.058043750655067824
0.0699063361031826
0.10286748280935756
-0.02227009249001017
-0.09196913965536349
-0.09917268173452035
-0.042075766826051145
0.07591162086281458
0.044660130653159096
0.045380505667745825
0.050011047855867755
0.023256207031123452
-0.07255602593363603
-0.07088492509904935
0.005449596758184113
-0.05136444167007869
-0.03293381067075989
0.08340912227461746
0.1306406396596731
-0.05231329945521128
-0.023954595523712843
0.05774959488263806
-0.16610413641685254
-0.05759229260007342
0.013979533491399625
0.06619658172550967
0.09727013320775312
0.08188720430679995
-0.0283919259674289
0.10099292220409495
-0.001200944552938261
-0.19815508180316416
-0.13206818399596312
-0.01601689081683222
-0.0332598803225897
0.05576120580597523
0.10107226068357347
0.14947961960017564
0.03372965211289534
-0.032586732595662644
-0.05371495469050796
-0.045549005051206855
-0.02738646423093346
-0.014446760920021277
-0.013121256659355433
-0.01982805188152205
-0.02339720430420764
-0.010186871276749509
0.029465100802704102
0.0953619200953099
0.17431385986846729
0.04155096188979606
-0.1328848626189634
-0.17450370762168008
-0.09512472613874086
-0.08795195502852136
0.07089906257556909
0.21528296238211256
0.17975142300303423
-0.007688798862080356
-0.12817543220969146
-0.17034650925864078
-0.12736633956457397
0.004091166211366327
0.22153958595038226
0.11253563809828311
0.05198633744922115
0.003795589796552043
-0.07253855788650675
-0.21241899047585364
-0.03732359216448921
0.05003102563895676
0.06506780028997011
0.03609896072813922
-0.0032803791163039326
-0.021811164019592322
0.0033677640855718886
0.08300091424512322
0.01469656890202127
-0.015337908848696374
-0.02826163263380932
-0.04739940832953602
-0.09343010854794734
0.018682504552520046
0.08051620783708244
0.08941316561215878
0.047495893606485505
-0.03834975854438695
-0.15552659651820916
-0.08514237651823546
-0.003540567042586322
0.11328992971310028
0.08350680518646998
0.11392806559954914
-0.002199451095280484
-0.08310497107180562
-0.15307320151402093
-0.03618155467917205
0.04829443015776548
0.08768193877672117
0.07558134767627772
0.011017213337113918
-0.10173502558936719
-0.0527096166422012
-0.02630024563574318
-0.0029449788600726095
0.03732444493196684
0.11043236732645474
0.02458657827861404
-0.02110365547286193
-0.035173431451796154
-0.030193982179047257
-0.018488231400047538
-0.008678789063564746
-0.004032382440493398
-0.0028506481718898304
-0.0005604183915608506
0.007236085443462706
0.02170516340516429
0.03873957383274268
0.04883807753756295
0.0394393818729925
-0.00046061614804701693
-0.07455030862214442
-0.17438999455915852
-0.07801904870089832
0.04626791332202509
0.031130467959331602
0.09887041893026804
0.2516866373430851
0.06759547268390864
-0.09563325266917251
-0.08918416817514657
-0.15824956648401015
-0.12869137174570638
0.00011561334109688655
0.05418000702688245
0.07652114400737131
0.11486444828579127
0.009537164627549395
-0.01509028737493675
0.04601821415740818
-0.01974872098932927
-0.03724031045942402
-0.03637130901786006
-0.04528232436106572
-0.08559798846140491
0.029267096290154393
0.0929854106751676
0.10379435065249976
0.06258839227449062
-0.02687994690445846
-0.15574609155309402
-0.10750797529710217
-0.05776786646570681
0.0220816215447693
0.15767502782561213
0.16363591334732772
0.03827383989368039
-0.03634205425857682
-0.08870491438180433
-0.1489101375452814
-0.04004776654654001
0.02691942715278057
0.05351795776486403
0.05020548401255057
0.031037557166805584
0.008788979029984371
-0.00805139133246026
-0.01606583376342037
-0.01596027665770021
-0.01075743232202291
-0.003972626316004154
0.00167427004538065
0.004818160687424784
0.005378786528545374
0.00411702357090671
0.0020930964541576117
0.00022989688974615815
-0.0009238573931053679
-0.0012329141488355748
-0.000878707162162525
-0.00020478401493629668
0.0004318686519976844
0.0007683798690546145
0.0006936325529180427
0.00026227187294944034
-0.00032613152844528423
-0.0007788322107265453
-0.0007926168593678392
-0.00016349588690363776
0.0010949853136985302
0.0026635987553666703
0.0039139370612669335
0.004041127522223614
0.0023514631303836915
-0.0013407131661906555
-0.0063344083494017225
-0.010877539485031493
-0.012425363510388995
-0.00844975283193781
0.0022598516423646933
0.01812319919975505
0.033687016356407376
0.039592606103136106
0.024068814156764273
-0.024088886174257484
-0.11182227428609846
-0.03876847237017928
0.0037393209445276175
0.03102219959538831
0.06139011552338499
0.11206326943555117
-0.003601815633205379
-0.07670582094889852
-0.10172404276105454
-0.07534958800646914
0.0031130022485059963
0.12937546222583027
0.0910801854252978
0.06632395549773437
0.025763788068946688
-0.06137018460463263
-0.21909956923034304
-0.057491644083283576
0.030565876014979294
0.06730846788715565
0.08384609727796724
0.11247955813539655
-0.019567557817621102
-0.09345831975440998
-0.09937048726268599
-0.035966150148719504
0.08982811846028255
0.06245534196745423
0.05783822457575843
0.045464739992658834
-0.006812826447996179
-0.12598962516319645
-0.12719996774060055
-0.009636324542511995
0.0431571919670336
0.05866586245648993
0.0683213472501816
0.1006478073448733
-0.0231439050480716
-0.09031257724191306
-0.09532869195691265
-0.03805064090495595
0.07701276125097797
0.039944815806744555
0.03415039682478222
0.03616815584035377
0.017754129643018004
-0.049585828973483105
0.011512461316039151
-0.009632331728715785
-0.10748948791377419
-0.05950448298458142
-0.029685253343813785
0.023605044392590403
0.13733413179951154
0.13392403025436464
0.01505592447268013
-0.03870612296037828
-0.06244727582489507
-0.09761718393498782
0.018073878459130714
0.05896395586941426
0.016513138805830576
-0.09923841606296209
-0.061785857956622246
-0.03373384025011763
0.024717277074886728
0.1459700579251545
0.146613475128807
0.023316010963514704
-0.045250205494128476
-0.09101934377480093
-0.14646390603056103
-0.03559786790479858
0.030955810166012745
0.05581478974802884
0.050694983138054144
0.03059895357824511
0.00865412699269439
-0.006958581762177827
-0.013654281547034389
-0.013191916778527234
-0.009445707684923744
-0.006129556087428129
-0.005163650963013717
-0.006049681042430341
-0.006318010567095363
-0.002858835574530258
0.00626040068743846
0.020063520957248667
0.03369689168688809
0.03885280658809412
0.02591819334945523
-0.012404545936043516
-0.07703861846456644
-0.1597501680621879
-0.04346292550222863
0.09339676732176126
0.06938422714749667
0.0920528083906136
0.15297839933849036
0.028441986647003068
-0.11369153335136706
-0.10293403911181008
-0.1549819449583864
-0.06477147666988982
-0.006694577635073852
0.05784635386122665
0.16818253554217286
0.15183596300072982
0.016136349887481964
-0.053318918539570825
-0.08747668140025837
-0.12451940214014165
-7.4594623234136e-05
0.06011081190351559
0.04379765588673858
-0.047446136240268395
-0.00019629161680096997
0.007577304237048623
0.0025777983197235307
0.01207742973998542
0.060200582285995945
-0.034905554260922074
-0.06278734616723906
-0.021429863409355203
0.08268409894349729
0.03518845738709736
0.015509146879528903
-3.3664768688883415e-05
-0.033940811306870496
-0.10310390766199617
-0.01567381676047669
0.029633595321666904
0.04159756513943312
0.0328035151713409
0.015682965939461238
-0.000406763206397394
-0.010431415998736104
-0.01336214073380284
-0.010870841590018037
-0.005743782007516363
-0.0005725046343430006
0.0029935926273606606
0.0044177445516579514
0.004033644840287149
0.002620092611712932
0.0009932547739023912
-0.0002625687070412735
-0.0008926270984210313
-0.0009304965573077304
-0.0005819184479023286
-9.751381579800811e-05
0.0003218039706802675
0.0005692054512281075
0.0006306984007942381
0.0005553950563994678
0.0004170230555339569
0.00028189637963137
0.00019096080556912362
0.00015634346626857112
0.0001681557296500735
0.00020566253102242938
0.0002477317200668006
0.00027956951698486845
0.00029500578033137687
0.0002952508714460965
0.00028580760860153886
0.00027317881995288777
0.00026247225955251905
0.0002563202060255331
0.0002549678474595341
0.000257073663620421
0.0002607107208269587
0.0002641827950427535
0.000266468725592782
0.00026729284002849677
0.0002669367207213848
0.0002659460118189069
0.00026486241093090474
0.0002640555145657919
0.0002636707319165701
0.0002636672775261048
0.00026390142564674076
0.0002642120511378691
0.00026447994849093946
0.00026465060395029815
0.0002647252703151791
0.0002647340007544335
0.0002647063989108379
0.00026465276747947725
0.0002645622560973537
0.0002644175207703181
0.0002642188915778796
0.00026400641939459897
0.0002638667108402127
0.00026391435401288776
0.00026424561207727464
0.0002648741646168802
0.0002656721109944874
0.0002663490285142521
0.00026650112685108247
0.0002657460553914595
0.0002639256802351285
0.00026131565061003414
0.0002587421025787481
0.00025749411293110336
0.0002589567295282409
0.00026398353457077385
0.0002721670086821951
0.00028130708407936826
0.00028745484919702306
0.0002858436469042124
0.00027276368859452486
0.0002480039059878358
0.00021698684083084236
0.0001913662662243468
0.0001869007379901943
0.00021806988949832874
0.00029019602018984936
0.0003915055337475585
0.0004890074677310522
0.0005324356566038229
0.00046899200996762774
0.0002678945147421447
-5.167610720814461e-05
-0.0004010288730864359
-0.0006253172931537303
-0.0005414246615089743
-1.1728718948540208e-05
0.0009618241594697345
0.0021579815783010956
0.003118516595895318
0.0032375206176381895
0.0019759108819155037
-0.0008317991027566207
-0.004676391217151513
-0.00823150079580621
-0.009535832805149646
-0.006607297329770382
0.0015448644685585047
0.013743017844211598
0.025721368885225047
0.02996348100984479
0.016663010897159016
-0.024211466353632416
-0.10030503666008231
-0.014685714361458727
0.03503763435274105
0.05607935770671809
0.05898908589532616
0.05637120987096277
-0.13758627436232115
-0.10719720188970909
-0.03619263897054105
0.08955270951214318
0.07782240009485328
0.12621107627384237
0.02091321568816268
-0.06057678617031747
-0.1434922765369112
-0.04886761092798884
0.011586122702391496
0.03706036407815173
0.03566890940633208
0.020252231960137056
0.0037120731570947215
-0.004773943375457034
-0.0019902095374445907
0.008735415391358073
0.01841762826609794
0.014455177411379276
-0.01659984989231668
-0.08616713465707893
-0.0014381304823870367
0.035507518881588256
0.02717310491412041
-0.020726944479417447
0.09941589728119604
-0.003451577447224374
-0.11869812201476818
-0.033288259539962534
0.06840258941538774
0.0035901884535494933
-0.011019647171201578
0.038201440235059836
-0.04056314950680356
-0.046350707831012375
0.01359744884896235
0.12393672035949901
0.06296152119753118
0.006528830720492039
-0.06605965950297304
-0.16578103321254156
-0.0898216931006956
-0.022113388530265954
0.0608005383386235
0.18027177767152877
0.14603290680618417
-0.049453123862418465
-0.030485636918511992
-0.031771777771518496
-0.0887369566342906
-0.027860099588371386
-0.05990594168280068
0.022345632258709364
0.04178608768965498
0.03130200328658853
0.02668946485708497
0.06009878126968646
-0.044678869865621286
-0.07468149026613065
-0.02838809645326453
0.08487776788866065
0.046480809409401365
0.03125237863273029
0.011906293455415745
-0.03519108678177261
-0.1241958618732569
-0.05588048636899507
-0.017440912648445082
0.013328845718448345
0.0605241435375516
0.14177074926663466
0.062073575284092186
0.012285787309728556
-0.02707899754961394
-0.07807417801063589
-0.15660349548417765
-0.06623778067145968
0.00290472406904894
0.06974624700322654
0.15418716348933909
0.06882124369286956
0.013834239039914063
-0.02305387278760864
-0.06198131341991353
-0.12388890686185601
-0.023928340693754192
0.0323470622622862
0.04916932107213403
0.037855946520953726
0.0128385317546773
-0.012060962170206
-0.026309849789183076
-0.024258286529970342
-0.005971259941148257
0.022486454382465465
0.04949157480328667
0.05954265095966913
0.03663096927406515
-0.03086399334925082
-0.14494377467052838
-0.09452859898824507
-0.05596565165979187
0.001445343545315495
0.10599097925424186
0.27337646943235216
0.10010053274320067
-0.03629935789163077
-0.16961307490911498
-0.1328458354476678
-0.14667288154285654
-0.013144915916035144
0.08321149750410714
0.1680532033946404
0.0672422722931627
-0.001618582916438579
-0.0333436216445408
-0.034469895850141215
-0.01900613234740306
-0.00265935327769968
0.002632688072934048
-0.007367016641259335
-0.02748682691966442
-0.04399252657265635
-0.03801395573288794
0.008888701920447934
0.10817039562787968
0.058634124280042936
0.043772787608020516
0.03361415993193808
-0.008843968393411353
-0.11816102595096312
-0.11672744442405225
-0.007880608666416301
0.025901547664420065
0.019234853175599136
0.01577767996540124
0.0582153312286663
-0.021280188754750635
-0.008146278908983094
0.09122246769158178
0.050559169164914534
0.029323387492166827
-0.017935824197461397
-0.13033573284277253
-0.13043722626707935
-0.018141091200728307
0.029268908231725618
0.05094638501473079
0.09221497274220943
-0.006668432116999295
-0.019802045800892308
0.05890334953722407
0.01481984969265275
0.016109741809511843
0.020875718707772266
-0.013434001824002804
-0.12037620141681145
-0.11701285535845417
-0.000719301637194838
0.048682316068134855
0.06226559152465697
0.07327164721843649
0.10937992687938995
-0.011629141575764834
-0.08203312691040926
-0.10120407582671545
-0.07181993670556493
0.0024712238602711675
0.1169348656666226
0.06393078021325899
0.031269289963916716
0.0024753838093444737
-0.04052263669429902
-0.1132208587861446
-0.024693857507834406
0.024242472784327986
0.040178199773534456
0.03415610452555514
0.01800806003599125
0.0013579896037156603
-0.009938172951226728
-0.013877318994449704
-0.011386836728089957
-0.005024231679883696
0.002196867334032535
0.0076147971370627895
0.00937604974157518
0.006690940646712948
2.678680474720469e-05
-0.008753385015823833
-0.016461801880344677
-0.019115830965110235
-0.0131160814405398
0.0029824621602118438
0.026538345428051367
0.04952974524334227
0.05884973455743126
0.038879125390136306
-0.023736083395996296
-0.13428185133566978
-0.08531242252379728
-0.05550463702753784
-0.013434186113430877
0.07425424329088376
0.23286214039411637
0.07158211035652762
-0.01933372889222892
-0.06497913054564483
-0.09734473840158663
-0.14558326435068458
-0.028821982484114446
0.046069113439537145
0.08167633775780568
0.0842678868253141
0.05808715395089015
0.0022551787821684438
-0.0887211413786497
-0.021565596693623693
0.0002006176800417306
-0.020184177969323758
-0.07132125301419169
0.06518242840209922
0.011348259382733351
-0.011767597092326495
0.011394897453522202
0.08767199877732354
0.01417003208961417
-0.020118316859769572
-0.030413962219456483
-0.03111250345537212
-0.031224823501703643
-0.031790843558416396
-0.02612518754955466
-0.0028638558577678977
0.049148151870857984
0.13585732491614524
0.05492648455911128
-0.0038878021450343804
-0.054775210484239244
-0.10997450035351483
-0.17481526539896536
-0.046492485341362036
0.08222091527134356
0.21567545642637512
0.14809826988244182
0.06062526019937858
-0.07488594185013811
-0.08600637670471964
-0.18764398053728729
-0.17285120199007484
-0.010751296699703372
0.14698883456067155
0.15320639253227242
0.050466022658119676
0.05955259015489633
-0.025366720802100586
-0.03415373948021418
-0.012192757658597862
-0.00870447248024956
-0.06485343146022046
-0.00423637207246256
-0.02767025858342761
-0.11338581023933099
-0.022778671220146603
0.08927109893492971
0.061786391170162554
0.11610171261556254
0.04875400209185342
0.031243462640394827
0.01708731420390345
-0.04557457606152538
-0.19929397416040742
-0.06485325662540656
-0.03490499941132973
-0.07581770366969243
0.06276885463395354
0.23368671383058517
0.07785597686706613
0.014360119205601304
0.037851449019531073
-0.0766157088509794
-0.16379451361377317
-0.057318993804833206
0.018763351063530602
0.053972844319841735
0.05094955329740721
0.022134307984682085
-0.01455042859021484
-0.03978089014320276
-0.03629196888295025
0.008201639355393435
0.0986718917177896
0.03152343442348669
-0.004896769251964557
-0.027790315879445974
-0.056069614185836794
-0.10660233881070197
0.008029228329054845
0.07963966379210212
0.10309282821789673
0.07514381293889491
-0.004964267969070444
-0.1328504282556675
-0.09571335110754758
-0.07087016099264448
-0.028149128979143064
0.06358786443734335
0.2277114066221391
0.07228504241613495
-0.012966814694834582
-0.05367708996934069
-0.08296184908663887
-0.13178809630422847
-0.021155832054623062
0.04146452007602933
0.06098801778946891
0.05027137661792439
0.0246754408173118
-0.0023408563809322056
-0.021595898691336674
-0.028629345166851602
-0.02299770889136082
-0.007314555268643178
0.01342556042065969
0.03225334768646478
0.040824153847713616
0.030776740182543987
-0.00392504692101925
-0.06413699570436325
-0.14336135674351197
-0.027723020272483682
0.10105026209801367
0.060216552975502595
0.06020350996687919
0.10089865264135409
-0.028282128644140057
-0.1445710799591127
-0.06598515787848776
-0.005966015467553259
0.029441396217340897
0.04132584200565946
0.035488825352088096
0.019443528601049524
0.00015191281876137096
-0.01694581110408814
-0.02784657512528774
-0.02957251987813167
-0.02020923840046957
0.0001916139621912705
0.028047680186841707
0.054842462473828645
0.06704813970319808
0.048361155882712246
-0.015557439881691556
-0.13088835168931684
-0.0902509474014954
-0.07076980533357456
-0.03747447348848086
0.04802240402500962
0.21587302951001272
0.07725879228638233
0.01856983166143114
0.0029129851887416324
-0.02123196815470759
-0.10677896433913156
-0.09410947535405585
-0.0003604101650157573
-0.014756075808437519
-0.10108457264066695
-0.006625655497508675
0.1246666317882559
0.13808377136468156
0.05710851295201407
0.07872853842264571
-0.02343776965386747
-0.0893302538304007
-0.15929826138465084
-0.06199900006392441
-0.0071764834717529475
0.014775041168580243
0.027008763904937873
0.056674252180519864
0.12498714410338632
0.040089780667123834
-0.005218101003136727
-0.030508304752671987
-0.0609457226960612
-0.11935315136902383
-0.01994424635539887
0.03434449527071003
0.0505644798295141
0.04169066893528193
0.0217604698102858
0.00200355909952856
-0.011090641780491484
-0.015757179963596362
-0.013617193413083935
-0.007856112940825367
-0.0016251135837485253
0.0029396303134132324
0.005012412710664553
0.004853244199953501
0.003326413867612079
0.0014076361171335922
-0.00016213145773276075
-0.0010221568779660256
-0.0011651461366006556
-0.0008099121373190154
-0.00025020186858724247
0.0002643768432546392
0.0005899609846390311
0.0006944511525108295
0.0006264741604940134
0.00047057356805930804
0.00030765740980683205
0.00019110530691404714
0.00014023422310785558
0.0001467853152567019
0.00018762705049290928
0.00023743050126664054
0.00027737459487945585
0.0002986248704926184
0.0003014204977532664
0.00029166720710478245
0.0002770145813319754
0.0002638303389816152
0.00025568570648144877
0.0002532691933428276
0.00025523096744994834
0.0002593525983429838
0.00026355772850775205
0.00026650680014205354
0.00026774315253254424
0.0002675099314322736
0.0002664162803131521
0.00026511288767769943
0.00026407518668129706
0.00026352244541136076
0.0002634475424424793
0.0002637061205501289
0.00026411348084902066
0.0002645140908394986
0.0002648109774437787
0.00026496152100625753
0.0002649570401701938
0.00026480479214929375
0.0002645243688590422
0.0002641595052625873
0.00026379530484685267
0.0002635639729108801
0.00026362258844167086
0.00026409574551161956
0.00026499285147593764
0.00026612985115719864
0.00026710022947013396
0.00026734072804686333
0.0002663153766981165
0.0002637955476504779
0.0002601527520600998
0.00025652613126444124
0.00025470848473384603
0.00025664319069395615
0.00026355407253328655
0.0002749242273099211
0.0002877397441645228
0.0002965250682472115
0.00029461225151908033
0.0002767348084785804
0.0002424366634231914
0.00019908920013021037
0.00016280198376971488
0.00015555567723933737
0.00019777729511451648
0.0002973713964109604
0.00043855570843890366
0.0005758895887678591
0.0006394521714749818
0.0005550898349714731
0.00027850146659678043
-0.00016560372027940584
-0.0006556270272327408
-0.0009767601841315322
-0.0008727169301040738
-0.00014788945015326688
0.0012011892980070696
0.0028729266141121206
0.004232818263687524
0.0044339184935528715
0.0027125161485086866
-0.0011849405981933848
-0.006578218929844482
-0.011645047680274233
-0.013659662682851945
-0.009828657187461738
0.001322971074761261
0.01834461240767173
0.035633751030085176
0.04331494532038081
0.028775444441882698
-0.020126949091374684
-0.11095799343629174
-0.04317189508367888
-0.006731544646796639
0.01625294567740623
0.04727189280679936
0.10607625221561118
0.0061627295507623156
-0.047525055945418074
-0.05842869887900499
-0.03659205355138139
0.0034921007450392635
0.044646641731849596
0.0685307033291163
0.05768527708633704
-0.0012510325194093246
-0.1133858749252121
-0.07184837757700802
-0.05651011158219999
-0.03673194895095746
0.02174200899247376
0.14746368342883262
0.1546559381076176
0.0386666705372862
-0.022356931755155393
-0.05984599058106421
-0.1040246215168424
-0.17419189312520225
-0.07409413912797784
0.005369647009887719
0.07667067761117718
0.1428380356345709
0.18656708731558622
0.16646216763709915
0.023564209231153772
-0.1022640453210811
-0.2505002400770432
-0.2199196253998826
-0.15792893629078464
0.03575310212016311
0.09075861537101701
0.13760874522332756
0.07683003951848405
0.15396922473113797
0.14720016974495434
0.17121960706592043
0.09741424396829843
-0.21384613346059292
-0.4769511023572088
-0.35153879746861905
-0.2296229111644386
0.15593030717708978
0.9049558962869317
-0.08386919613928298
0.058410917944465214
-0.043608984470905776
-0.2090745672247399
-0.4894670066283028
0.6473561246766528
0.13329543697271046
-0.08512992858834963
-0.2336760915383385
-0.3013162894492971
-0.23952889233699254
0.026760813908869988
0.37771966334255874
0.47323749669342957
0.13334234110450965
-0.06757261747656018
-0.19064853131711076
-0.31154150822900895
-0.2977130782658903
0.007089279220764694
0.18660919627805553
0.245481665849465
0.19813334172209882
0.0600026961656644
-0.15483221972543706
-0.23004974466154765
-0.14160964741315427
-0.05541955997187931
0.06896537495756325
0.2694435569993443
0.1712536797261273
-0.019530510937749802
-0.11597675147989912
-0.14426390700996897
-0.13498953078951795
0.08426018516323043
0.0928122103956869
0.07749245469318636
0.03170517566714415
-0.045291165530772476
-0.14855219375973527
-0.06805969432903272
0.008925027982849925
0.09352811089098975
0.19045426711425809
0.09536746794098552
-0.0033188539042016867
-0.1181377522263556
-0.2543927361374867
-0.2045109285417522
0.05119431372150964
0.13641046395846823
0.2664331743763135
0.23739848315642995
0.022918602602396566
-0.2193298037281476
-0.13321322821939413
-0.14774834192923955
-0.06527890502198537
-0.05863151656821867
0.12198268632528456
0.13500385637497112
0.03130815555985065
0.040844295039676876
0.16586156035944502
-0.017780468906672314
-0.15211569927769067
-0.08436241472426514
-0.05420775663305239
-0.0850569475012616
0.018472710680044815
0.06687147038257013
0.07797295237103745
0.06833356588574263
0.0469035842878146
0.012968202961152015
-0.041417158619296325
-0.12595625426694132
-0.046095087245568524
0.0010701395544992698
0.027558683670641564
0.052117704153007705
0.09609843424161511
-0.020655463805724444
-0.08277294604452685
-0.08112272694278297
-0.014098223739014627
0.11103289352684725
0.07714358982423039
0.05794336025719505
0.021562541683510447
-0.0630113839456421
-0.2183651414303472
-0.05277980109686866
0.04142525185700321
0.0845547986995018
0.1027667143889793
0.12090489373265464
-0.042252007580567706
-0.1751925084481157
-0.07224039138022981
0.06847559426115625
0.04609929996740782
0.05712495271200926
0.09559210318423264
-0.045542165551648514
-0.17189514632214095
-0.08533471598572673
0.016397810317071305
0.1373015243416662
0.07896514614490746
0.036978157502964036
5.455799841263149e-05
-0.04747844503189782
-0.12095400068916907
-0.030585593387381226
0.021298697953523953
0.04005820326348581
0.03606660276644544
0.02100282773226325
0.004623241048243506
-0.007050858844751273
-0.011962608290911983
-0.011074219992206365
-0.006898576737344745
-0.00210691458142103
0.0014112700222514638
0.0029187578401690195
0.002714248012806411
0.001714887115057775
0.0009391863114404011
0.0010546877181347144
0.0021007809743457183
0.0034476762493033278
0.0040097682437003415
0.0026843818849977973
-0.001076077414656686
-0.0067268711502994185
-0.012362498716730926
-0.014963026755232816
-0.011313580226136634
0.0004544761900854756
0.019056047136300942
0.03863593239064819
0.04854782573425421
0.03496173078263403
-0.015642301514810653
-0.1119146966325738
-0.053650496532930705
-0.03024802263705817
-0.02279332936334423
-0.009533688879040478
0.22703474684312114
0.09423948993844655
-0.012859765109269686
-0.10850949237643415
-0.009315754257906934
-0.1262199521835944
-0.058696920124035434
0.006575184787758199
0.09215512873117762
0.022811254412915045
0.017596392183904047
0.08366790221147528
0.013683050690415845
-0.012605435023470769
-0.023166096336094982
-0.0465660562556991
-0.10511754825678418
-0.010361919852105939
0.03790040960179055
0.04914343575300588
0.03754648346509995
0.01719882142180263
-0.00136943326133612
-0.012631911963104871
-0.015656695271730848
-0.012552791526605416
-0.006609908503697912
-0.0007852477689133568
0.003135094458492474
0.004687197303401506
0.0043896833180110135
0.003189352536423497
0.001940786507543384
0.00108163439158484
0.0005635394213803484
1.1657003793802336e-05
-0.000974628684981852
-0.0025003990034731926
-0.004162084436051563
-0.0050527730497198645
-0.004045255878986275
-0.00032533332168216633
0.0059662017930858895
0.013237154266996828
0.018409228557521858
0.017614553861117592
0.007696766015627062
-0.011747964949059981
-0.03645136142948075
-0.05663049693405744
-0.058164830267002594
-0.026247922781890393
0.049007864235140086
0.16674736088948805
0.11194110979923264
0.05679497844796269
-0.03212441594183261
-0.18272177294394013
-0.20617427715690634
-0.09052793206695076
-0.0025050994459735504
0.10229092724295119
0.26420624591029096
0.10510981700372404
0.020243452547535914
-0.020660616026989584
-0.06365307027609318
-0.1559621788764685
-0.13162293714684295
-0.0019310917479773504
0.04672438911011827
0.04781294224534729
0.04483585708301765
0.08016255930638369
-0.014359436321205697
-0.023059172198796815
0.052250615815891695
-0.005158274234438682
-0.021605239989191144
-0.02638118415449813
-0.04547194952441951
-0.09718980359399508
0.009234356003975135
0.07203865537225769
0.09346025585703087
0.07643678485501325
0.0233944398720472
-0.06218927467617255
-0.17252541743086902
-0.09295086046407622
-0.002456876638386501
0.12182653332870699
0.09762046576631458
0.13107147108277176
0.01403715829739531
-0.07346145053261789
-0.15659910623190507
-0.05779488965570311
0.009298267570944062
0.04186899487533378
0.04610608482238721
0.03302396702930393
0.013998111897394305
-0.0024503670351528
-0.011995375102730025
-0.014168592804028282
-0.011013120315868683
-0.005485997676120587
-0.00018271237797553517
0.0033442288367482695
0.004680644090041835
0.004246613147512535
0.0028376066471979128
0.0012174918809100812
-0.00011860790343067891
-0.0009892051814705195
-0.0014289797291622778
-0.0015347169550257531
-0.001340575666671198
-0.0007816444221968974
0.00023790908222649315
0.0017024920394860033
0.003338156283373827
0.0045506510291078595
0.004527631290280168
0.0025365220777154446
-0.001632529889092942
-0.007227428669189654
-0.012326640900395883
-0.014105464354361419
-0.009725415155030993
0.0022168360113913976
0.02004028271077227
0.0377680634991186
0.04510461407367927
0.0291522737296312
-0.022159612706493966
-0.11579454006538341
-0.050060750403979226
-0.01348039455711305
0.013031693496566542
0.05118165031980028
0.11927923708048296
0.027470486082861602
-0.02401310011243054
-0.043134625450631334
-0.04187706088522945
-0.0315165231173765
-0.01920821845388917
-0.006998695809312896
0.006628177661770057
0.023456848985759896
0.041865969144866566
0.05432662761716315
0.04735914013186859
0.004512437947556523
-0.0881386234176152
-0.03557841130828187
-0.028755480405703752
-0.04286768810442384
-0.04017314759736574
0.022774961221040436
-0.015208925150379894
0.06893757630794371
0.0735620274044751
0.1684744776121695
0.09850105260131248
-0.005064199222308872
-0.20714665954741485
-0.15039406123550078
-0.2415787558853583
-0.04807336196346334
0.09367457180912396
0.260121650890837
0.11911818205150054
0.11211277006128222
0.04547934010345204
-0.10735573403492757
-0.19520090173702773
-0.07454237908276351
0.0037639109525002606
0.0031560691555203744
0.1046478717196735
0.10616507820876504
0.02015341706735637
-0.12900460945654746
-0.1077323161609725
-0.07735206996720254
-0.0006442937981703777
0.14952954104714364
0.18196490340077057
0.08277738823953115
0.01785023770872609
-0.05753427061158056
-0.18455949563079305
-0.1871196013479561
-0.06359771290083734
0.012564054033569203
0.08359043660170566
0.19286573421246986
0.1706334215480618
0.025100660323274966
-0.058182988369576506
-0.10921375069960214
-0.1621857769218221
-0.04460528721094465
0.029343955632892153
0.05972337589850018
0.05706656407708268
0.036412574723686496
0.0117394400102619
-0.00752774256054635
-0.017485164197500878
-0.0187184658910072
-0.01426898330805464
-0.0075930652603358574
-0.0011931976748716247
0.0038295316149671898
0.007433882582164141
0.009883568775986614
0.011033084408461593
0.010036341372432166
0.0056729895230718036
-0.002770102173062501
-0.014395536833555139
-0.025913747408121947
-0.031787332067054176
-0.025734679623519895
-0.00358755590084805
0.033149413672468805
0.07435596958548647
0.10067011930233276
0.08663537396796064
0.00799289687391048
-0.14832781528596203
-0.17492024369526057
-0.23978712766058186
-0.09107674989016865
0.12861317129692956
0.26190584330430194
0.3175259839358224
0.26069629235264424
0.018717563879280644
-0.2982839584385468
-0.3678966666606172
-0.22789946193847974
-0.06108162749857781
0.0018147044092261177
