0
0.0005148249883298807
-0.08782141414924331
-0.1975641292298162
-0.14151484389817665
0.08007457904172133
0.07820795412415489
0.06933950049720454
0.0681275188378754
0.08202102136786563
-0.09036959436259286
-0.05708507682912558
-0.028380767458982922
-0.012263394014488838
-0.011810151368439492
-0.025056272928080107
-0.04720752429570571
0.12585314300058914
0.09435628712970248
0.05349810565885319
-0.004492279030739036
-0.08540528188625528
-0.18730744919098047
-0.09706502934658462
0.008367540482491095
0.15549207839533566
0.16489099792416648
0.04285656714818756
-0.022401158406333048
-0.058532188819811454
-0.1019446492598146
0.011449378570059857
0.05482811855886098
0.016532096544836197
-0.09721034719857635
-0.0632281985891425
-0.046192562920705366
-0.0069192316391546785
0.08727465090699348
0.25296775034881414
0.08523681103191037
-0.040951003639835136
-0.16243697860154313
-0.11554163335788621
-0.12439556866067072
0.005838000451234372
0.08898002332618384
0.15212582231581326
0.027223123132464652
-0.05682847397902148
-0.07965188016363009
-0.032264429073796536
0.08193279082591134
0.04759812352894726
0.0395976234633251
0.027343446125547278
-0.018839831321260905
-0.12060109110657155
-0.0858891812047963
-0.10701113605590513
0.03630910243817283
0.16955899529320842
0.1144993171420591
0.08240704525773929
0.07243188626497409
-0.12439071413396272
-0.31776948481611755
-0.11159245359682107
0.09796974084545322
0.11847668731346028
0.1537150923564263
0.1973124874172297
0.03169028363959542
-0.166175813451974
-0.21435799492362922
-0.115802500470364
-0.053526156817647594
0.005991842200094022
0.10207014973714865
0.26582631094929704
0.10851530348665896
0.017018672513230935
-0.041538101271569476
-0.10779231036835038
-0.2155099803740477
-0.18007115544783736
0.005436026429026838
0.1651532272393538
0.128858490294986
0.1190066325630986
0.14190721549097146
-0.013521531625215612
-0.1693497161339362
-0.14774849969842538
-0.1606039490754053
-0.004193077823884575
0.13903337559422566
0.09285747156419226
0.07764317964264111
0.10284319891523577
-0.03558419052100089
-0.15251722965414202
-0.0676486780355759
0.0009777890022794754
0.04145918299048998
0.04969076112467666
0.028789055889948345
-0.012588870742496983
-0.06229643636650223
-0.10709995698711117
0.06426064641189985
0.05748025239513514
0.06962818262210366
0.08833211311885848
0.0945939197605186
-0.13075077871930024
-0.19881682214617286
-0.10607602494052615
-0.03279395969483631
0.05197291510899836
0.18028498339236634
0.17410347363166787
0.037592998111063564
-0.043943428576869774
-0.09834971843854692
-0.1568654428961543
-0.04448019807344514
0.02606868286803212
0.05516964956713794
0.052900072202636365
0.03353087697518792
0.010358072060200944
-0.007581343863728114
-0.016477737114711188
-0.016864828498806498
-0.011779457772098312
-0.004853502004903341
0.0010611126212253662
0.004508120364397463
0.005369752317876973
0.004398638004193995
0.002634639650986917
0.0009355476193767679
-0.0002612044303837992
-0.0009372387565525356
-0.0013207344157524683
-0.001647832136674742
-0.001964139119948006
-0.0020475054662747803
-0.001490722315345928
7.073695282749291e-05
0.0026582903343513728
0.0056992471416358
0.007971143596369488
0.007863492507824586
0.0039915479121198465
-0.003951805614070583
-0.014396543891334839
-0.02357761992749023
-0.02614248912515407
-0.01694261438675197
0.006137844696204768
0.03901113013346465
0.06906611260494558
0.07506698433166376
0.030232772031503513
-0.09158995094956304
-0.10814056617186042
-0.021873655404879844
-0.016556946725006388
-0.05878290311850933
0.09581090294793643
0.09325638173283327
-0.028701302618666158
-0.04896723234731298
0.031564763603721346
-0.011778503547457034
-0.025591283777389714
0.12726788747335763
0.1773692150938577
0.06230448789425369
-0.057262528747990656
-0.1828100276883736
-0.47047898572515195
-0.4375744031344547
-0.18702556590671615
0.35273662639242
0.7837563380066992
0.8086166879096659
0.6332617693462622
0.21257748265233498
-0.6673453728096881
-1.694079533301916
-1.7561118738888915
0.47460956501916307
3.0901805789858616
-3.3645321875795493
-0.032383417206762716
2.1204959239379675
1.407179450736859
-0.006918222412514052
3.9649280967594405
-1.9023713857757416
-2.5143217051239666
-3.229013373048424
-3.5167558589875605
0.22844823562921143
3.9163356801528537
3.0851155117274556
2.6264840290666434
-0.5901596157789426
-1.7450596617417808
-1.763005504582495
-1.3373982039998458
-0.7531828829371134
2.445609158324032
2.733652230729423
-0.3583150146291243
-4.4341481387923904
-4.06081815714549
0.5406315570657778
6.537253005088752
3.303717935740286
1.0979003249583812
-4.947233998402302
-2.3188053079700683
-1.7690406650065396
1.2158792823306244
3.0871877514277144
5.8601049877288025
-3.4667561532469704
-8.684277374066529
-2.3691503908878007
3.8468307083108257
8.32640509439932
-0.34178273049344776
0.5641510416766649
-0.8643786777940345
-5.22811550517596
-6.666360200650592
4.620429198985715
4.130828060675728
0.9393238175454792
1.572971697366805
-0.23744553030744833
-1.9081276069866082
-2.48481906573071
-0.5147241458132141
1.0402047257247578
1.425780135232465
0.8635399323036914
-1.5106224725876967
-1.3180835311850185
-1.014746732255268
0.6264952690091009
2.841447665788119
3.8408078812137134
0.2533521893849344
-3.142793811068913
-3.2378191362443247
-3.0352481737085193
-1.8056723143661182
1.8134140250309332
5.404173101001682
3.9333987252461333
0.2037538856433487
-1.7411813192326466
-2.6664187789296183
-3.3262239762235284
-2.27705547779092
1.2027749182409018
3.0717755948981895
3.8083101476749333
1.2949486430289219
-1.4348128271065115
-3.579055873560034
-4.326670044816629
-3.263023211468916
2.53811331438876
10.5666217323187
5.770723481403213
-0.19498903714940544
-8.330391190408612
-6.745543986058206
-8.187978922040084
0.9938747089060307
9.002755710925518
7.56562595886309
3.9335580706264826
2.101273476894897
-7.877250588904273
-7.7494632073526555
1.5286076132945827
0.46770913746047604
-3.2876952850122145
3.908734604783551
2.253691981393504
2.6286441165706926
3.8164144556862207
-4.945155445660942
-2.479887365061297
-0.32347648279666297
-1.589652851209052
-2.9098106543500757
6.746014957488372
2.806220822341589
-0.5446435378265679
-1.3403220535934648
-2.3405402248341742
-1.9215806382214886
-0.6150967588890534
0.2623735460941711
1.0897930331779153
1.7724208696579253
1.3842436353394225
1.0791881702444877
-0.09689989085356648
-1.29770591622305
-1.5095492943807929
-1.183819642971608
-0.9242287455424414
0.13777299591771908
0.8785220305873476
1.057937144386547
1.1825294895083538
0.6025451657017591
-0.12591235965731284
-0.40779948299575325
-0.5231083954922473
-0.9210237165153882
-0.7300855118439835
0.08839677942403798
0.13235963853058355
0.3028334934997433
0.3196116069616646
0.4344709313881916
0.5657137871976746
0.2704515128903831
-0.23951707436813371
-0.2441803173292392
-0.2402316505880391
-0.6658333420558051
-0.44561073348847546
0.030401570346883407
0.29054176713649854
0.3358943190467656
0.381133923405389
-0.000424176083124644
0.08600355405122889
0.04358653984977538
-0.005770820196835225
-0.1931313611422171
0.1356943667267733
-0.14053511072127475
-0.286450532183549
-0.29232504779554347
-0.07523398792832729
0.10029327475285693
0.18690983860755037
0.3140234041498298
0.3540586966108055
0.10538190170584964
-0.103379986805159
-0.1898596124957129
-0.28369322320170104
-0.29283955582834903
-0.08061305236265803
0.14110095338855091
0.20313646030812174
0.16065236346898823
0.07293721549192098
-0.012083605449851764
-0.06562323201752622
-0.07864651404578754
-0.0580630363110414
-0.021627599289945065
0.006314431839433893
-0.002332991089127902
0.12284172905561114
0.1540274112728705
0.07087896289521556
-0.13128745441477993
-0.2329054633469085
-0.185255228168737
-0.11351305573972198
0.07034307764179432
0.24698005732056885
0.2675850950196683
0.13782749485625392
0.013850987942991635
-0.18811517794343127
-0.17188638243909288
-0.037791035713257815
-0.06238227844618559
-0.08613034706937328
0.08931068707491308
0.09545318337179662
-0.014077200727411227
0.023552230546462674
0.06862789493149735
-0.029833565336936915
-0.03902471140079271
0.05639711929065144
0.056104888449368465
-0.05195304609161721
-0.08659265870625343
-0.0688505819286705
-0.01927436561933369
0.04230391136605599
0.09522579811800963
0.11661272663450972
0.08228184515432418
-0.02891076752260178
-0.22819382920207273
-0.11038876220447691
-0.05150132204678941
-0.012894442100306557
0.048189969076500826
0.16488330632002526
0.14861176805711515
0.18359206163018965
0.030948250956736135
-0.15784180660002045
-0.22224570805360894
-0.17546607136385609
-0.19562400371697808
-0.029530733859823518
0.19139140329483756
0.32828173486167717
0.21338998401657344
0.03806591113948003
-0.04537542550717447
-0.10889913370407464
-0.22681062095713367
-0.25452240344888577
-0.015076438887055357
0.10287621809583322
0.13646818932147817
0.13402008951856445
0.14056333897465384
-0.01162645398914805
-0.10555449251468448
-0.1363963209174636
-0.10618657735883962
-0.019911888387504045
0.1150749126193369
0.08689367706322998
0.07668356662325801
0.05862274129387301
0.003916700359584703
-0.11183654786763311
-0.10042836921701909
-0.15546445294909558
-0.05244540537103323
0.04442911993491655
0.17043770071517697
0.14765605180613664
0.17650908137569885
0.03540584902736513
-0.11079278847785479
-0.2964765734471697
-0.14089798768701906
-0.03970683187198429
0.034107442962865636
0.12048601993982058
0.25803006524056504
0.07098072497175911
-0.03777769941561317
-0.08587822573553813
-0.10438546806721015
-0.12822862523780681
0.011985948539692856
0.09456588430295147
0.10779220286187642
0.049158990919192194
-0.07532165043133103
-0.05104497176985483
-0.05477942583759081
-0.05621811756703288
-0.022209755310584587
0.07650852893580339
0.05767480503915655
0.12149728882348905
0.048795014840962415
0.004675631738819089
-0.0527607949308411
-0.16117678345899403
-0.14390605625218122
-0.004504546362823471
0.07231771003659998
0.114269082214339
0.1526355831989009
0.0147121927859699
-0.08006477943120854
-0.1201875177052947
-0.10029093467668584
-0.020030535726283286
0.11499219607975936
0.09090417647132075
0.08407817802978074
0.06290117588165832
-0.0061632077695627325
-0.14935576710204176
-0.17635645992321303
-0.07489157148330619
-0.012180368779743506
0.05633646681768854
0.17355553845856375
0.16722124219032689
0.04127973593169634
-0.024805412979499522
-0.06868942235683573
-0.13259566573174517
-0.05006612501863866
-0.03633574802853267
-0.0850674082489009
0.028031264218486916
0.13631235442943868
0.07116773853766321
0.05260396560738012
0.08441756162974612
-0.04481777991057271
-0.1559075444222484
-0.07099890050371711
-0.006568695599687688
0.030214221602061823
0.04120224176298348
0.03417488115723713
0.018796322386166207
0.0032538112849966124
-0.00755065110432091
-0.012185139846980183
-0.011731146841687152
-0.008378080365151898
-0.004184242697176276
-0.00037605695858218075
0.0027273804878763836
0.005312687075177049
0.007481575904850545
0.008792349988135238
0.008189477096262967
0.004431581963847784
-0.0030717389820879657
-0.013316848209848972
-0.023123018135696182
-0.027411438238792142
-0.02068335457226472
0.0003591684307082656
0.033667792247420524
0.06934863780964502
0.08924942265764037
0.06976551709289422
-0.012052124598087197
-0.17064475186773512
-0.20552427328602418
-0.10006115657218141
-0.028015364553924147
0.032689750303968375
0.2831166844551176
0.29021708725155865
0.184626544234419
0.07380508712105105
-0.13020315083569042
-0.27505749777073174
-0.33550120996412164
-0.19587696644173488
-0.2568551535846074
-0.06934786535342997
0.00893416101096492
0.34591919825371725
0.37336251840286694
0.549278947859427
0.560332499254008
0.5722147510264356
0.12411047340298345
-0.7511422019253986
-2.0133383457907135
-1.3470573617369448
-0.773030210250123
0.050436421048847796
1.2586586503725332
3.398747688122254
2.9044709896364416
0.4857158217087124
-2.5504572206916736
-2.286805257761389
-2.775691422075665
-2.7051353970114427
-0.011171504935478277
3.1644111088051603
3.635209776874675
3.5527769519736894
0.906025049059809
-1.6204520279268457
-3.463434128509834
-6.171096123442219
-4.88190265472253
2.233278111468294
10.38215806017715
6.128595578110349
2.291137582087024
-5.338571494405008
-5.085556919709053
-8.036479753554907
-2.2240123185823752
1.729069629195254
8.31267767819006
3.707216262851356
1.2177169731403206
2.707457387419703
-5.725739165582207
-3.291981991842474
-0.7943074462934221
-0.7811395939188379
-3.0423425510176876
5.742936966346278
1.8554030534811718
-1.0409127502840474
-1.0300673120379553
1.2069820968196798
4.028166310142395
-4.068546853105975
-1.7116154415599747
-0.9372855212722642
-1.3368190893873624
-2.2994570699675547
6.059824494934591
3.139652792668197
0.7299322314042871
-3.2195405289441728
-3.138605795024219
-1.3341038522991302
0.6929816312898958
1.6804957208632774
4.006080425088057
2.302608689575043
-1.475890899967243
-4.1469597810717795
-4.813608684483159
-4.286161429143804
0.5321006814025705
8.52057858208563
5.595225980989388
3.504629841646316
1.8960676480386738
-3.1308834236850367
-10.29711270206615
-9.246991036508057
0.7123304274385815
5.526935209943303
5.815255003592618
4.5681571513514765
4.540931759208905
-3.522540674974401
-6.817407218464728
-5.252078535022686
1.1923042286650491
8.218738083909756
-0.5238499099270624
-0.6213104399983709
-0.0668063872385194
-2.6225804099977483
-6.011150081641049
3.6189178115010554
2.9411068395182287
1.4524386275940013
1.1023120644967075
0.015665875947995955
-1.2635832634063173
-0.8286127911592762
-0.012715875114210268
0.008747323416117586
-0.6233938513930649
-0.7590774413906953
0.5763118182755895
-0.6823265303733819
-1.175045615054218
0.2960877801070707
0.9581073315472975
1.6776066564126144
2.0381978081498375
0.5255300788730921
-0.5644748229102468
-0.31494809788091094
-2.5296723683409557
-2.2994127127164954
-0.45972608354138256
0.6215885815317967
0.5315292365555215
1.4170685613887901
1.5735241576254406
1.079198518327106
-0.6816961427799979
0.0027285985811603413
-0.3278420603675045
-1.7685216777646149
-1.1211090065843536
0.7868376791226251
0.3171618234923143
-0.025123461994362134
0.5215720914662589
-0.12568770896893336
-0.5881018222452661
-0.09560394227813598
1.2785808183370087
2.231964665538
0.7061574424525286
-1.9819600290668364
-1.5769287306010953
-2.138501481449061
-1.3661359843430096
0.9751525653658711
3.7377892318948622
1.4314017679016828
-0.11980292129234285
-1.661574527493644
-2.3354023890985407
-1.4759773422477758
1.5874757750092001
2.3197894253939384
2.584683658983289
1.3051136354614241
-1.0016308534955343
-4.4393624809842
-3.567372871611478
-1.9347446559881412
1.2376071576614767
4.4473141137270185
8.061010478035758
-2.8612907592895067
-1.590348747978601
-2.0035660585872717
-3.190918938134643
-4.695148731873257
5.539724521871075
2.1001472375314862
0.36394176960532176
-0.23495421424629662
-0.8810035035071521
0.6281132424034991
3.1570377864424857
-2.4423097774627207
-1.9847198926019225
-0.4235638030635731
-0.983610386947483
-2.1833260581087295
3.455671329377257
2.64778131855446
0.7878711456919429
-0.7466918260116359
-1.6151101110210404
-1.47154426911019
-0.7036670358507433
0.8133648777827154
1.3374218989943432
1.470371894111407
0.5862638551170914
-0.5068157976938251
-2.079434193777273
-1.6003528950239847
-0.9034553269451642
0.5720501904838995
1.4737323428996563
1.9978905460626994
1.1743276992378444
-0.18242569679494566
-1.241250519534275
-1.2624140051190884
-0.6886151511262217
-0.6636058118730774
0.1947336104148708
0.9656062623069901
0.9615284452670203
0.26081770852434205
0.06398286913699916
-0.11258396396454087
-0.40909401301843235
-0.5765054440009083
-0.33167674593424473
0.07084484918832223
0.24358187525141675
0.2505607637051648
0.18136458924788632
0.12610693138448867
-0.04069399633660803
-0.06472777323209
-0.10722790908552349
-0.13611345905416847
-0.11847380585544023
-0.018394597380706257
-0.0013646545130649138
0.1565502159132947
0.25894933545031257
0.08371177594134172
-0.01442623174431788
-0.09295636310843054
-0.20568395505338763
-0.1875671460268329
-0.04601655122007364
0.03810671360746877
0.10034579783310654
0.17736613506168564
0.09226425365928176
0.04564403066363309
0.015273688166410872
-0.03597404471520976
-0.14692583638353798
-0.14425593717263727
-0.03262578111763338
0.00803157994878966
0.017457942134366203
0.04418438033908703
0.1324102437790697
0.11063657086082254
-0.014760509723991025
-0.059593608820126355
-0.05631352642006465
-0.04527202831584143
-0.0657056505405725
0.05136324359052904
0.08742705453318439
0.03829885769750871
-0.08581392354346427
-0.06161848086207375
-0.055811066616188836
-0.030473833786401908
0.049433100487811826
0.20804147992764896
0.05255839265845402
-0.028348594300690692
-0.060918478552883716
-0.07874606513009315
-0.11417655431354834
0.008417753943789283
0.0758046137894586
0.08564126530903474
0.04431025963460203
-0.03545567023902263
-0.13638517804898018
-0.03836014960660471
0.07908309035351459
0.03314376801876921
0.03388135878797574
0.08156461643483134
-0.03360310628361869
-0.1292608733489911
-0.02710769890083048
0.05107546141690175
0.0867358216296839
0.06728454225567165
-0.011199843597647988
-0.14134544478746777
-0.10313766109425594
-0.06568423124511621
0.006758604157495197
0.1452580904151579
0.16604861258436487
0.06368275601841275
0.01067595411416973
-0.03550920101163082
-0.12011833215297046
-0.07740980694928234
-0.12011547783028291
-0.03550174719669049
0.010690026905364518
0.06370340166095537
0.16607158401655628
0.14527427898609765
0.006755897069961964
-0.0657162742683349
-0.1032012166340176
-0.14142821416381082
-0.011272560427559641
0.06726352115015868
0.0868070598280611
0.05125768053040168
-0.026839640998797404
-0.12898911589586395
-0.033459399671508946
0.08143506883142851
0.03338368960235244
0.03230944924303002
0.07812777713970566
-0.03903597611046728
-0.1362862659425628
-0.03418097208394966
0.04681547745749817
0.08885789672485678
0.07856335439826129
0.009099548267695788
-0.11710105896291305
-0.0859069091644986
-0.07120906266550797
-0.038458880132936774
0.047787932355380015
0.21413080395938786
0.06968675061337376
0.0019566986350991853
-0.02093082515190861
-0.042165596543448966
-0.10505440551254465
-0.042218843136830525
-0.06831763132200001
0.021937833210438188
0.05048271069431974
0.04893293573582583
0.05049355785274637
0.08324376340799516
-0.0335880659818095
-0.0901176508960294
-0.08415115427407124
-0.019130007863581863
0.0969937061687775
0.051844204316957285
0.028695633901491775
0.007764782979087743
-0.030828663068947333
-0.10312888731260965
-0.017888118099418357
0.025012100231634807
0.0336684940377722
0.021253424617655114
0.0022237201522058024
-0.011246613460987015
-0.011934200238699233
0.0009052867758552953
0.02120163542573749
0.03701146427612294
0.032852803079813406
-0.006645048516871518
-0.09234188670515975
-0.026567931064726207
-0.0008348905910295786
0.0037932802540843855
0.013622118474205226
0.057328649134830684
-0.039774246532387085
-0.061113850993375
-0.0030758401716727344
0.12261255317087616
0.0892149834019102
0.059012565011983195
-0.008681830810779723
-0.1468224704259394
-0.17030504771119753
-0.06987483124183597
-0.013204760710556422
0.046387882453166024
0.15605127036421135
0.14886595744808975
0.03352663634270146
-0.00841587617572279
-0.017087552943026177
-0.0426310612700717
-0.131118154134256
-0.11222298677920217
0.007945917617842524
0.04721743810650209
0.04150143789606098
0.0350657784807408
0.07000851547052324
-0.022426011581509094
-0.02708511063264343
0.05376614382362567
0.002652264752276309
-0.008207108898454295
-0.01039021532110345
-0.03250767284511821
-0.09466908298979818
-0.00549226289367084
0.03768307090310045
0.04572843362009769
0.03311303799423491
0.013429435691251879
-0.003624251963986944
-0.013298125703337028
-0.015154213190501892
-0.011464632563707156
-0.005434331342135338
0.00017206068896744763
0.003741530615329092
0.0048949326649016045
0.004151134541096796
0.0024337707122403783
0.0006331214988947401
-0.0006602702411546261
-0.0012302659873183123
-0.0011653001580789629
-0.0007190029685612744
-0.00017039408607210277
0.0002724842701853564
0.0005112932271379358
0.0005475077950349453
0.00044485597401107017
0.00028606942073095053
0.00013973146506014402
4.411746971840508e-05
7.0467470658755786e-06
1.5952352610990088e-05
5.10115910837338e-05
9.55023978571922e-05
0.0001403064704713161
0.0001824655029999833
0.0002200457662117178
0.00024680313962756664
0.00025010126504853794
0.0002142737395602556
0.000129383570383817
2.6064057644728522e-06
-0.0001329683072858972
-0.00021842663809100573
-0.0001830421841881089
2.702328211357232e-05
0.0004114371122368868
0.0008836086556993595
0.0012628265068131376
0.0013085758790727978
0.0008045068313267897
-0.00032065274471698127
-0.0018735086991046742
-0.0033375103523309033
-0.003939848964521371
-0.0028834942985922433
0.0002742513214014532
0.005198380104258608
0.01049088481353161
0.013764659214642707
0.012249132320917068
0.0039382533975969814
-0.010970105169767633
-0.028885000545212213
-0.04262005093785859
-0.04286396074890028
-0.02160082860038463
0.02301132405535856
0.08174428954609814
0.13158326375075005
0.13746430822581635
0.05971888211975683
-0.13370114043644946
-0.2539059139463349
-0.28241933539671016
-0.17285944619686247
-0.06554587645508475
0.2877443151356383
0.4973489497561407
0.5194748277105092
0.2607350827776951
0.007416120728303693
-0.5269294525886042
-0.7520770066677375
-0.7716842077496324
-0.5926672904956195
-0.180683762592833
0.6483831537807729
1.1287495316430987
1.676013115246613
1.4874494088975063
0.6326840122304821
-0.5742949714849742
-2.1669530840134583
-3.755943998699053
-3.8779821369800853
-2.5191501325579915
3.1927420181719355
9.812400946400599
5.667399940324489
1.766122127342704
-2.6073646676013293
-11.278188934545273
-8.328632773851183
0.18136621781849224
5.998731958378091
4.798320282421334
7.801708100777671
-0.9132271067584719
-3.690935546731044
-4.76527010920889
-0.012546878227616826
0.48507184323550323
0.5799768528428775
-0.5227675268872372
-0.9543568170341103
-0.7479533284740529
-0.04635674015497007
1.4917058177527338
3.9428485234561244
4.888970102638389
-2.8522310491025094
-1.3447345821817271
-1.5744268383997073
-5.135103992955009
-6.68690327772498
1.9318342503834312
1.7427337781779242
3.919148884419903
10.511415405987151
4.997990904075764
-1.2137994236493599
-8.547564690026299
-6.035470100977935
-7.957973397833073
-0.7663947922496437
4.215323278862066
9.575855882371918
2.877226984938966
-0.19427491968706126
-1.0451840748982013
-2.337410525639777
-1.9707096812269853
-0.39783364183563963
-0.37117644049013765
-0.7799388165368568
0.6047930915551184
0.49065999192635656
0.16205882660545032
0.5541728999625963
0.7390689741965498
0.45074368124774383
0.0630193435829095
-0.38068804176616416
-0.7009993183763902
-0.7044081241627441
-0.11914866508715607
-0.3629263267149399
0.05331600934252931
0.8955618579865899
1.9707350982913525
3.7057623078044077
-6.0498673217692405
-3.616418839006435
-1.913556720894051
0.6376654233174718
4.755125394538479
9.556677697959328
1.748565463930384
-6.393520830247083
-4.485889929459931
-8.276437545062219
-1.2281714538592206
4.45358243657254
9.374126116989979
2.4122522286798094
-1.1530537200027244
-4.166226697055737
-4.390728641123549
-4.670295425021736
0.655713832202593
8.465483429441283
5.767737690538938
2.3323509059234864
0.12141588890757746
-8.100779381615144
-9.313992774328
-0.7328507538886977
1.6128286228845488
3.183344116915322
4.624826366278391
1.831955867486291
2.7453968134074924
-1.215548080493414
-2.071466448016802
0.18752796686009796
-1.439280386094341
-5.420083653033505
0.5559644067016265
3.48977722252658
3.2601879660148074
0.14037808420507633
-5.302511274345668
0.0981616002161518
3.8106611526924694
-3.708464267556652
-0.5351501426585734
6.619995452732216
2.958887277276164
-10.586927377025356
0.9231101923751983
3.542717609472985
4.129886849136873
-7.385316343189562
6.049846598052453
-5.162273627858131
-3.690582223460618
-3.1645625212579462
11.678516382166897
2.047847791536087
4.646705269049114
-6.0208341001637
-4.404522048136131
-6.234348974143117
-0.7573248795181642
3.0311751942680134
7.979848995274651
1.7035460277581875
-2.8386515953445057
-2.6355506863978175
-0.5927554520429714
0.36517282791203787
1.00491219722448
0.8827222146686161
0.23046267166674908
-0.7686460040362845
-1.7246605697554493
-1.4281452349169033
-0.7012612420225143
0.6845651541500254
1.8516860894960827
3.474257897722716
1.713423313699709
-0.5290720211804432
-2.2436620452927105
-2.889060814809707
-2.799994552529156
-0.9076503404409856
1.390192601327925
2.633750820865948
2.656044215340366
1.3815005519249028
0.5400525685194202
-1.6814572556906535
-2.2832829727011585
-1.8612347805637375
-0.6533952360147377
0.12719292549058728
2.0689645195455486
2.0814939311183394
0.7104218460664216
-0.9101431771303747
-1.2558944245667762
-1.3818213334081568
-0.899191963881734
0.411762993464705
1.5498500935950565
1.4240464512801434
0.40311632276711584
-0.2881923283067439
-0.7208875530691576
-0.9804168002941068
-0.8848006780854915
0.06773362103904687
0.5066055858208762
0.5565243097014656
0.3836524757095474
0.14289672664804973
-0.057141801891440636
-0.16570536235129227
-0.18158537315270137
-0.13385939301521468
-0.06104092312531803
0.004660580056422087
0.04515058021628804
0.05691578761669896
0.046748394719665146
0.025824054840325628
0.004591874844850775
-0.010227221344606643
-0.01637302026574484
-0.015115758243792913
-0.009565089482471836
-0.003025953611969679
0.002102586075670657
0.004741344628327394
0.004981298149734037
0.0036243909711758814
0.0016724344999824747
-5.684697762441392e-05
-0.0011134714797242057
-0.0014155825340356454
-0.0011354769157532335
-0.0005512627196423475
7.45923664502239e-05
0.0005607265848683466
0.0008179773967576115
0.0008274118835719661
0.0006119905408506427
0.0002215338420463706
-0.0002636450943837914
-0.000720245927268567
-0.0009803544447952622
-0.0008605872898464345
-0.00023055807594165315
0.000891682572884178
0.002253709542868733
0.003346005077539678
0.003494875520796588
0.0020946260100986403
-0.0010544389838010278
-0.005408689099244256
-0.009513375841976467
-0.011188407818542282
-0.008185687897012075
0.0007246788478648416
0.01451163396563133
0.028980023961012687
0.03680629168217146
0.0289743303569403
-0.0023714027709489122
-0.06032699266536682
-0.14023930077406627
-0.028929902086749226
0.09285216259727753
0.0451165150962905
0.04227072914672242
0.08811134029979936
-0.026033855011119194
-0.11955887032053727
-0.018129837739469162
0.05187260529696916
0.06867308985439285
0.01958372132404948
-0.09556686158980766
-0.06260606122455072
-0.05384349171906214
-0.03245382012799464
0.039741746518774615
0.1927481305658068
0.03987953957491856
-0.027002310019586293
-0.037052557230342294
-0.035284135122474095
-0.07458080970049107
-0.007066529760972259
0.12366042483129608
0.08892875261759556
-0.11987419737321015
-0.08763751098303471
0.02563382780941261
-0.11796072593147452
-0.041715790706141426
0.13410970657417615
0.07882465729890319
0.03911956860114179
0.0312919824162772
0.0398170839924605
0.022418841429313996
-0.07986605789476352
-0.1303407828287236
0.014732147627056352
-0.08632601336700897
-0.0584579975720438
0.08715431462669158
0.1469833347639721
0.11903896480596428
-0.00017168891595560582
-0.014001008560247606
-0.12011833882603991
-0.1039580479104935
-0.1348255779965737
0.03255461062512055
0.050429141208448706
0.1662557680145131
0.01046856172473623
-0.012352646080951862
0.07370725650542556
0.019859983635150402
-0.03752108147344195
0.03685724057754137
-0.007953419226812565
-0.1965403775336474
-0.12015135847970272
-0.13804843735493455
0.011936717307181571
0.19573269084854358
0.26343333149928644
0.23464076879020293
0.09456155504772748
-0.19720391479451194
-0.28850537131802684
-0.21464935546913316
-0.18504880172357865
0.01789869689129256
0.22749915099553747
0.27421777946282
0.16818799214606875
0.09053880984704524
-0.0024821403152231257
-0.16388950965307522
-0.2347255216595006
-0.22537670122046613
-0.10690494268880701
-0.016400098364256932
0.1246625797008945
0.18488902349945696
0.3990144494602546
0.154292645154241
-0.007181027649732347
-0.17018389922043203
-0.21809626987966976
-0.40459560057405813
-0.1354947703320388
0.032728539528278054
0.17730245127166286
0.18227223189189706
0.31005487305724805
0.18124886929639694
-0.030876224435393878
-0.1902619013224147
-0.1769005447182224
-0.2626769878293237
-0.0923140350679629
0.32558379812179994
0.016971788122891268
0.03355299005501319
0.04105417401022869
-0.09240446081660206
-0.30689028938061663
0.2396629639673502
0.1630262794428831
0.04732548187734152
0.045450310881878904
0.08687924154394
-0.10790970652357929
-0.2098154387011614
-0.06515043853531388
-0.08607829401119312
-0.05030183308821496
0.09016610914917343
0.19429113874833312
0.11636791343844446
0.09449453192281003
-0.05365085577063929
-0.12766560114803885
-0.13678363725934858
-0.09203682868231242
-0.0018512720714921184
0.1275637057763151
0.08834521066294428
0.06665142401996871
0.040911549676580616
-0.015823824658975954
-0.13001731954079376
-0.12055530117804836
0.0067070314890415456
0.060738866770430215
0.06321078530184625
0.0438380846420295
0.035130189808693014
-0.13214476714597748
-0.03261811424272392
-0.049705169292351616
0.020872630835747648
0.16806115806249972
0.16469508772117186
-0.029087094896462926
-0.05758601859090204
-0.15814193876061072
-0.15033009161914246
-0.029871935104851012
0.030230610780197096
0.07163829254040277
0.13863008758356618
0.06632158099623321
0.07297748767060594
-0.041568739833879834
-0.09179406054808453
-0.09914140839594984
-0.08486055509433578
-0.06588643160138699
0.14518000683314206
0.13715033812867236
0.0971371121715597
0.01002669553648037
-0.13836835130976805
-0.15580839901057197
-0.03876060594573609
0.029016972507257304
0.0734518623391086
0.12395873678225953
0.006633760856300561
-0.06083188937058176
-0.07153837463030333
-0.029469841468736366
0.05179988537736848
0.15139112169054403
0.04475725290311727
-0.0909278695073483
-0.07028307357697475
-0.09418740104885195
-0.1478469084618305
-0.004232339134567508
0.16742911039470917
0.19084313628562696
0.07377672305703371
0.004959464903436225
-0.04179781941302382
-0.09794614407168556
-0.18897495912677864
-0.12614092720896977
0.095650892155553
0.09329250335283765
0.08662575611099749
0.08939349446704659
0.10383802182040652
-0.07904467583787009
-0.07406359442479432
-0.09381456772741235
-0.14170366401182646
-0.00908624542335848
0.1222810332880572
0.07366072438644296
0.061582516095723044
0.09217287276049442
-0.04039298854985081
-0.1512689938009342
-0.05988340798612528
0.015073863142730945
0.05879717581680196
0.06132745505525671
0.017260281393173024
-0.07465638182837801
-0.01155015433374477
0.01364406327111763
0.011830694652119347
-0.0032581804833975467
