0
1.281579848791185e-05
1.281579848791185e-05
1.281579848791185e-05
1.281579848791185e-05
1.281579848791185e-05
1.281579848791185e-05
1.281579848791185e-05
1.281579848791185e-05
1.281579848791185e-05
1.281579848791185e-05
1.281579848791185e-05
1.281579848791185e-05
1.281579848791185e-05
1.281579848791185e-05
1.281579848791185e-05
1.281579848791185e-05
1.281579848791185e-05
1.281579848791185e-05
1.281579848791185e-05
1.281579848791185e-05
1.281579848791185e-05
1.281579848791185e-05
1.281579848791185e-05
1.281579848791185e-05
1.281579848791185e-05
1.281579848791185e-05
1.281579848791185e-05
1.281579848791185e-05
1.281579848791185e-05
1.281579848791185e-05
1.281579848791185e-05
1.281579848791185e-05
1.281579848791185e-05
1.281579848791185e-05
1.281579848791185e-05
1.281579848791185e-05
1.281579848791185e-05
1.281579848791185e-05
1.281579848791185e-05
1.281579848791185e-05
1.281579848791185e-05
1.281579848791185e-05
1.281579848791185e-05
1.281579848791185e-05
1.281579848791185e-05
1.281579848791185e-05
1.281579848791185e-05
1.281579848791185e-05
1.281579848791185e-05
1.281579848791185e-05
1.281579848791185e-05
1.281579848791185e-05
1.281579848791185e-05
1.281579848791185e-05
1.281579848791185e-05
1.281579848791185e-05
1.281579848791185e-05
1.2815798487911852e-05
1.2815798487911852e-05
1.281579848791185e-05
1.281579848791185e-05
1.2815798487911848e-05
1.2815798487911847e-05
1.2815798487911847e-05
1.2815798487911847e-05
1.2815798487911848e-05
1.2815798487911853e-05
1.2815798487911857e-05
1.2815798487911862e-05
1.2815798487911862e-05
1.2815798487911857e-05
1.2815798487911845e-05
1.281579848791183e-05
1.2815798487911814e-05
1.2815798487911808e-05
1.281579848791182e-05
1.281579848791185e-05
1.28157984879119e-05
1.2815798487911955e-05
1.2815798487911989e-05
1.2815798487911974e-05
1.2815798487911889e-05
1.2815798487911736e-05
1.281579848791155e-05
1.2815798487911404e-05
1.2815798487911393e-05
1.28157984879116e-05
1.281579848791205e-05
1.2815798487912665e-05
1.2815798487913232e-05
1.281579848791345e-05
1.2815798487913005e-05
1.2815798487911733e-05
1.2815798487909778e-05
1.2815798487907711e-05
1.2815798487906483e-05
1.2815798487907188e-05
1.2815798487910598e-05
1.2815798487916605e-05
1.2815798487923756e-05
1.2815798487929189e-05
1.281579848792923e-05
1.281579848792073e-05
1.281579848790292e-05
1.2815798487879175e-05
1.2815798487857748e-05
1.2815798487850548e-05
1.2815798487869378e-05
1.281579848792007e-05
1.2815798487996133e-05
1.281579848807481e-05
1.2815798488118843e-05
1.2815798488086423e-05
1.2815798487949155e-05
1.2815798487713825e-05
1.2815798487439494e-05
1.2815798487238718e-05
1.2815798487253138e-05
1.2815798487600552e-05
1.281579848830303e-05
1.2815798489220467e-05
1.2815798490025502e-05
1.2815798490256158e-05
1.2815798489465374e-05
1.2815798487449992e-05
1.2815798484492429e-05
1.281579848150336e-05
1.2815798479937565e-05
1.281579848139281e-05
1.2815798486905426e-05
1.2815798496113719e-05
1.281579850662476e-05
1.2815798514014666e-05
1.2815798512829952e-05
1.2815798498677493e-05
1.2815798471005001e-05
1.2815798435602544e-05
1.2815798405430395e-05
1.281579839839378e-05
1.2815798431389053e-05
1.2815798511391285e-05
1.2815798626258192e-05
1.2815798739617778e-05
1.2815798794729454e-05
1.2815798730624272e-05
1.2815798509697292e-05
1.2815798149801176e-05
1.2815797747637385e-05
1.2815797476866189e-05
1.2815797547192973e-05
1.2815798121943235e-05
1.2815799210652458e-05
1.2815800575102339e-05
1.2815801702915202e-05
1.2815801900932586e-05
1.2815800531885749e-05
1.2815797360893609e-05
1.281579290477475e-05
1.2815788613659454e-05
1.281578669806177e-05
1.2815789480847662e-05
1.2815798317696303e-05
1.2815812367611162e-05
1.2815827732359939e-05
1.2815837603081055e-05
1.2815833926396916e-05
1.2815810650911453e-05
1.2815767871461984e-05
1.2815715349845989e-05
1.281567331503035e-05
1.2815668569412446e-05
1.2815725095526561e-05
1.281585060027216e-05
1.2816023269928587e-05
1.2816185385676549e-05
1.2816250928066029e-05
1.281613154242655e-05
1.2815778726246129e-05
1.2815230863532869e-05
1.2814644740096254e-05
1.2814287000680194e-05
1.2814466507039668e-05
1.281540662922578e-05
1.2817085542664807e-05
1.2819104665151124e-05
1.2820666403711679e-05
1.2820735624935716e-05
1.2818411912003021e-05
1.2813451500405833e-05
1.2806768550955e-05
1.280065673019523e-05
1.2798459557059972e-05
1.2803532021862296e-05
1.2817593843455952e-05
1.2838932797786378e-05
1.2861256527489061e-05
1.287413508046874e-05
1.2865739394680055e-05
1.2827858791574737e-05
1.2762047572050665e-05
1.2684526924990917e-05
1.2626703942175222e-05
1.2628507992096027e-05
1.2723659383157748e-05
1.2919447441703983e-05
1.317779683553193e-05
1.3407700745773254e-05
1.3479347630730208e-05
1.3265571284710038e-05
1.270605612514768e-05
1.1875863998283028e-05
1.1027019575721531e-05
1.056702267139911e-05
1.0948267455672658e-05
1.2471152459463578e-05
1.5047815920166195e-05
1.802007788904319e-05
2.0152774031344502e-05
1.9907569308036055e-05
1.602511045788215e-05
8.307591047624506e-06
-1.667608705948259e-06
-1.0294911486017475e-05
-1.2540220709783598e-05
-3.592696406721314e-06
1.863469586516437e-05
5.0895470029241284e-05
8.311339656722059e-05
9.938329715965424e-05
8.242479406176764e-05
2.129811445262076e-05
-7.952722072958428e-05
-0.00019343434376084719
-0.00027192321033299097
-0.0002558061470579067
-9.815088732404783e-05
0.00020554074324631686
0.0005906366203329476
0.0009154187475585883
0.0009867984109393113
0.0006267677698730465
-0.0002292702969118464
-0.0014320384677479312
-0.002564140812160063
-0.002986600377215242
-0.00202501456361549
0.0007071668789962872
0.004909962595976665
0.009239447610780526
0.011124878728771085
0.006836888064079006
-0.00826234079087976
-0.039558215232701505
-0.09352952302289577
0.021093664818620978
0.09159888833218559
0.10006560458203978
0.024265180691885876
0.04190484158882991
-0.06195781453442288
-0.08622785377594201
-0.20691099186634845
0.02478507015024547
0.07758527331238271
0.02898851889618353
-0.04960817425785373
0.09205135283007151
0.07127128376944354
0.06649613396809448
0.018986666588399686
0.04237241595008004
0.03867266876981888
-0.08227803696507129
-0.18434895177386493
-0.2925027419212819
-0.1902254649094066
0.1715732612812314
0.8571763880645928
-0.47281936375609335
0.22578586249227675
0.17839333287666082
-0.20166641789601533
-0.902556635296202
0.49370513224110796
0.010862623519121662
0.0695592733848167
0.07446103883919523
0.20389051261898755
0.20731697979869854
0.013136954865392096
-0.2544884850407265
-0.25478124647053657
-0.21299708649802043
-0.11356375979890167
0.09311316012908098
0.2724559875984479
0.28304293419131266
0.1580799825359643
-0.1023796485535272
-0.12664431872151488
-0.15733589792890917
-0.034455631170416195
-0.18192550048351233
-0.001622377768616084
0.12434980458603599
0.22544143752970444
-0.0673452555848524
0.07090093948818493
0.05606603531476996
-0.10332100724434447
-0.20187517012207384
-0.0335357159211921
0.009389125508341601
0.13363843668083183
0.14046906285575125
0.022092188067951598
-0.03849748843548723
-0.0637782356087889
-0.07559369596343096
-0.0892944913411893
0.08960083509710753
0.06528449172991434
0.04857122087313005
-0.1479834792488494
-0.11587345560140394
-0.056952982275128315
0.2104918335941334
0.24808046936951392
0.1994386215735266
0.0006510564096165162
-0.2016291262501716
-0.429536059666875
-0.2588977322791255
-0.017081446272387776
0.20349722601623518
0.3200027050179739
0.23072565152785451
-0.006784858674284913
0.015343007106038356
-0.13976059441901048
-0.13870211158294887
-0.058886027279131226
0.02849925005589601
-0.130265804305732
0.03276223991297188
0.105185964591018
0.08838469021377202
-0.009312808821158399
0.022098967342598756
-0.008229982900142286
-0.09209134203328176
-0.021099736380980557
0.014243553884775753
0.024463641986754363
0.020011355353700213
0.009785413346374955
1.3616013443704185e-05
-0.006088781148488975
-0.007887344850723337
-0.006418033382516526
-0.003379577933291998
-0.0003333067737937502
0.0017405675843113907
0.0025348386934116304
0.0022614057492334437
0.0013920034851974301
0.00041375291423821755
-0.00032964815576479276
-0.0006931789384890742
-0.0007031672739868121
-0.00048636404119133906
-0.0001936382938504134
5.588286472967142e-05
0.00020028898635137424
0.00023317533917019395
0.00018525641957912932
0.00010115826974449459
2.039578747562683e-05
-3.307047523841238e-05
-5.2592418396288644e-05
-4.454873166868082e-05
-2.157134578388285e-05
3.6902341063523323e-06
2.2519881433543283e-05
3.1408204574558406e-05
3.1234639611601455e-05
2.538137402702182e-05
1.775952957875794e-05
1.1395316328823806e-05
7.811375793563287e-06
7.104184070879312e-06
8.437742755241871e-06
1.0646725805571399e-05
1.2720806843349626e-05
1.4062779091320824e-05
1.4523056752223033e-05
1.42819258192859e-05
1.3672177216110222e-05
1.301932500240343e-05
1.2542775346008085e-05
1.2326379429210328e-05
1.2342070612237128e-05
1.2499719398526454e-05
1.2698031377756602e-05
1.286023383195801e-05
1.294900954987453e-05
1.2963642802905757e-05
1.292680022275651e-05
1.28688753369347e-05
1.2815673306952617e-05
1.278204935332821e-05
1.2771298009614405e-05
1.2778371595129759e-05
1.2794517981483416e-05
1.2811370228116386e-05
1.2823414142022333e-05
1.2828660039468346e-05
1.2827968764315034e-05
1.2823736366863062e-05
1.2818583132830261e-05
1.2814454158838967e-05
1.2812260792719738e-05
1.2811976107973255e-05
1.2812987891898716e-05
1.281450450195779e-05
1.2815867617614477e-05
1.2816708557375102e-05
1.2816956869844245e-05
1.281675277391075e-05
1.2816326063919036e-05
1.2815891556374509e-05
1.281558760548822e-05
1.2815461042459435e-05
1.2815486185171754e-05
1.28155994778562e-05
1.2815733218915259e-05
1.281583819460002e-05
1.2815892235235663e-05
1.2815897196049036e-05
1.2815869555247484e-05
1.2815829905242411e-05
1.2815795020425586e-05
1.2815774028698858e-05
1.2815768373421974e-05
1.2815774185570615e-05
1.2815785441228884e-05
1.281579663140715e-05
1.2815804290772289e-05
1.2815807327670683e-05
1.281580649277311e-05
1.2815803468382266e-05
1.2815800001695863e-05
1.2815797336152645e-05
1.2815796008707779e-05
1.2815795941860623e-05
1.2815796693487181e-05
1.2815797728617582e-05
1.2815798620351955e-05
1.28157991432887e-05
1.2815799269807941e-05
1.2815799106046542e-05
1.2815798809678277e-05
1.2815798521819646e-05
1.2815798329107013e-05
1.281579825668963e-05
1.2815798282969294e-05
1.2815798363503745e-05
1.2815798453254618e-05
1.2815798520850481e-05
1.2815798553349905e-05
1.2815798553508306e-05
1.2815798533153894e-05
1.2815798506167251e-05
1.2815798483399258e-05
1.2815798470400206e-05
1.2815798467635777e-05
1.281579847220921e-05
1.2815798479999478e-05
1.2815798487395961e-05
1.281579849223687e-05
1.2815798493951249e-05
1.2815798493152765e-05
1.2815798491013281e-05
1.2815798488692445e-05
1.2815798486980554e-05
1.2815798486187779e-05
1.281579848622377e-05
1.2815798486772931e-05
1.2815798487475547e-05
1.2815798488056162e-05
1.2815798488378531e-05
1.2815798488436973e-05
1.28157984883102e-05
1.2815798488105775e-05
1.2815798487915975e-05
1.2815798487794626e-05
1.2815798487754432e-05
1.2815798487778112e-05
1.2815798487834792e-05
1.2815798487894638e-05
1.2815798487937778e-05
1.2815798487956871e-05
1.2815798487954813e-05
1.2815798487940092e-05
1.2815798487922084e-05
1.2815798487907767e-05
1.2815798487900366e-05
1.2815798487899642e-05
1.281579848790317e-05
1.2815798487907887e-05
1.2815798487911362e-05
1.2815798487912506e-05
1.2815798487911682e-05
1.2815798487910322e-05
1.2815798487910193e-05
1.2815798487912577e-05
1.2815798487917517e-05
1.2815798487923436e-05
1.2815798487927308e-05
1.2815798487925535e-05
1.2815798487915484e-05
1.2815798487897313e-05
1.2815798487875427e-05
1.2815798487858663e-05
1.281579848785842e-05
1.2815798487884504e-05
1.281579848793936e-05
1.2815798488012613e-05
1.2815798488078785e-05
1.2815798488101096e-05
1.2815798488043059e-05
1.2815798487886627e-05
1.2815798487651789e-05
1.2815798487408785e-05
1.2815798487272648e-05
1.281579848737251e-05
1.2815798487796147e-05
1.2815798488522708e-05
1.2815798489369954e-05
1.281579848999039e-05
1.2815798489946603e-05
1.2815798488874633e-05
1.2815798486705977e-05
1.281579848387284e-05
1.2815798481385758e-05
1.2815798480671277e-05
1.281579848311038e-05
1.2815798489331465e-05
1.2815798498463851e-05
1.2815798507696735e-05
1.2815798512538318e-05
1.2815798508053724e-05
1.2815798491039846e-05
1.2815798462609051e-05
1.281579843014583e-05
1.2815798407308107e-05
1.2815798410937675e-05
1.2815798454608254e-05
1.2815798540039216e-05
1.2815798649367629e-05
1.2815798742585252e-05
1.2815798764401515e-05
1.2815798662621403e-05
1.2815798415664862e-05
1.2815798060971744e-05
1.2815797710807712e-05
1.2815797540368894e-05
1.281579773796877e-05
1.2815798419847538e-05
1.281579953105323e-05
1.2815800773157807e-05
1.2815801610006972e-05
1.2815801393963197e-05
1.281579962036515e-05
1.2815796259221922e-05
1.2815792045506542e-05
1.2815788560956459e-05
1.2815787946052445e-05
1.2815792169462077e-05
1.2815801958118296e-05
1.2815815718232161e-05
1.2815828973722562e-05
1.2815834899139939e-05
1.2815826319727603e-05
1.2815799044525648e-05
1.2815755663641524e-05
1.2815708207738928e-05
1.2815677698696013e-05
1.2815689008415167e-05
1.2815760836163611e-05
1.2815892910440406e-05
1.2816055111555299e-05
1.2816184990354075e-05
1.2816199779292095e-05
1.2816025388385198e-05
1.2815637954847208e-05
1.2815104756534132e-05
1.2814603957027911e-05
1.2814401164845292e-05
1.2814769292406224e-05
1.281585829916519e-05
1.2817549923110603e-05
1.281936027841568e-05
1.2820466103915056e-05
1.2819913497444994e-05
1.281701218836093e-05
1.2811828735563474e-05
1.280559301336898e-05
1.2800767331058293e-05
1.2800548304843807e-05
1.2807717720870252e-05
1.2823030839401764e-05
1.2843667930182938e-05
1.2862548852276997e-05
1.2869349403859234e-05
1.2853706326046692e-05
1.2810301838329248e-05
1.2744412891041883e-05
1.267546009695519e-05
1.2635646314717821e-05
1.2661505697110914e-05
1.2778413003237518e-05
1.298160119066167e-05
1.3221015466100313e-05
1.3399694797644704e-05
1.3394330267129416e-05
1.3100740852330077e-05
1.2496318182281858e-05
1.1698515655034884e-05
1.0988261425777026e-05
1.0766397639477889e-05
1.1425739814963583e-05
1.3152831198980445e-05
1.5716283986863095e-05
1.8338231366574875e-05
1.9760481291150736e-05
1.858578109878965e-05
1.3885694342162264e-05
5.930266902195758e-06
-3.249420247662423e-06
-9.840045735427883e-06
-9.090855064421136e-06
2.8891957602759287e-06
2.671486049703985e-05
5.751998229605068e-05
8.417433833232862e-05
9.113296511264435e-05
6.35345550365647e-05
-5.07780176347147e-06
-0.00010469637310619302
-0.00020422423741296437
-0.0002545597205196044
-0.00020234435628963194
-1.3788688346808316e-05
0.0002973161919418677
0.0006487761662448354
0.0008907948138426865
0.0008405533447736097
0.0003531350873040586
-0.0005850606331299336
-0.0017733914838997202
-0.0027714721227450434
-0.0029769695642619894
-0.0018282509806256072
0.0008956236465923104
0.004769081805612459
0.00855599065993787
0.010350862827718708
0.008133230773016729
0.0007017794079384166
-0.011252867637094962
-0.02438899289942272
-0.03283490508499137
-0.029664921261100135
-0.0098364835390724
0.025922434750714898
0.06748594256869225
0.09365544712092677
0.07404486925973404
-0.02475022331616639
-0.029555440804325078
-0.15018938417619468
-0.17191014848578284
-0.05423214953984554
0.06215061130308243
0.04142924973549161
0.13558845058477217
0.16950494165425184
0.13322555174872663
-0.01566292934415421
-0.13987726986962537
-0.10413617117293014
-0.15649432252361326
-0.11510752081197223
0.03583147719074553
0.1404627296951841
0.058511358247050754
0.04979013732194877
-0.03975012957790326
0.012431286895285684
0.0014752178831806731
0.09671814000156245
0.04835857125209191
-0.0017946572409418154
-0.10732453502189404
-0.10486198748368802
-0.2058894506465009
0.004470205300880247
0.16094435576955965
0.1059945243638141
0.07639072390283247
0.0930631167258845
-0.04286888649705158
-0.14762297471263983
-0.04785415962742569
0.027639073520397527
0.055064472628298694
0.020452403253759577
-0.07795409238889273
-0.029564136827910998
-0.013579606473741988
-0.0033640182626007383
0.027583495818986507
0.09940923134786354
0.02119524822201067
-0.010742221753795834
-0.01093050944140866
0.00029509908170694465
0.003575444193433292
-0.012658184032526
-0.047059534349579865
-0.08349861943971065
-0.09365491693544298
-0.04446560362757836
0.09060399015444412
0.11929614288196033
0.221550754934861
0.14809119172289242
0.029132685535930288
-0.20772860815218264
-0.21530151642443365
-0.2076847474982267
-0.15143920152326842
0.028984934729241674
0.23255443921757515
0.1553623880557554
0.0649510742422644
0.18297757707436674
0.08098886472648711
-0.10997468722623199
-0.07912802668538269
-0.11112917431211661
-0.26399520309597724
-0.15614388984032693
0.0338657396056502
0.15544393039002355
0.26670614793192615
0.21521430207427925
0.02570764816106846
-0.10157671092452165
-0.1831866537301851
-0.24042908089601786
-0.08933587406584223
0.0629410342140038
0.2147259124645458
0.16266268160597472
0.09588788810151778
-0.004433255761517585
-0.1593473385301786
-0.18274797115229405
-0.07301154814435144
-0.009836483626790416
0.0419360024450226
0.12282463403145207
0.06708496726031357
0.09310224883911253
-0.0010785596196521995
-0.03597927356988344
-0.043732316263094456
-0.058562866822483184
-0.10785480075058776
-0.006414975405013327
0.044766827920644695
0.05561474572233045
0.04163505664154682
0.018379979813513702
-0.002523885337856651
-0.015020459147360712
-0.018166769555560656
-0.014394124910618191
-0.007437016968515914
-0.0006586182943577727
0.0038726501988750957
0.00555491866537407
0.004901096116712961
0.002967944563783032
0.0008254181819180154
-0.0007828222862877007
-0.0015521028990902865
-0.0015508890057526158
-0.0010625963245709485
-0.0004183717675164964
0.00012365075489697284
0.0004320099507036963
0.0004963825580505343
0.00038631261501427777
0.00020019485698368345
2.3998353901533834e-05
-9.09762838061875e-05
-0.00013136062732140675
-0.00011195558037693802
-6.077032785820555e-05
-5.437340845598093e-06
3.526583978899674e-05
5.401987213098185e-05
5.303782785652661e-05
3.987421711853795e-05
2.3107597133664043e-05
9.289466549206524e-06
1.6458008841287183e-06
2.9244637575451337e-07
3.341225497647875e-06
8.224718479308227e-06
1.2746309063942692e-05
1.56289633367417e-05
1.6575714327176596e-05
1.600232325682433e-05
1.4645877224403077e-05
1.3216936224048011e-05
1.2187704895087149e-05
1.173232581577572e-05
1.1782044063981935e-05
1.2135853575464052e-05
1.2571746647090941e-05
1.2923654656712071e-05
1.3112688217092777e-05
1.3139719336655817e-05
1.3055816238713126e-05
1.292788387177797e-05
1.281198503495914e-05
1.2739840476208339e-05
1.2717877449695907e-05
1.2734514854009498e-05
1.2770388283703909e-05
1.2807246847674237e-05
1.283323530926168e-05
1.284424197394474e-05
1.2842336917339325e-05
1.2832856158757518e-05
1.2821538300629352e-05
1.2812587233560446e-05
1.2807924896739028e-05
1.2807430040784835e-05
1.2809726420281035e-05
1.2813072853358934e-05
1.2816040193366446e-05
1.2817842374610002e-05
1.2818345348884952e-05
1.2817869424375477e-05
1.2816922517963255e-05
1.2815972872465236e-05
1.2815317617392609e-05
1.281505295971264e-05
1.2815117975132296e-05
1.2815371314054321e-05
1.2815664815060882e-05
1.2815892207118761e-05
1.281600686286952e-05
1.2816014433414388e-05
1.2815951886307354e-05
1.2815864476816005e-05
1.2815788592425672e-05
1.281574366309115e-05
1.2815732330327248e-05
1.2815745789260331e-05
1.28157707380257e-05
1.2815795177196641e-05
1.2815811673174814e-05
1.2815817999322724e-05
1.2815815917970658e-05
1.281580916588405e-05
1.2815801563911966e-05
1.2815795794669479e-05
1.28157929840606e-05
1.2815792921913795e-05
1.2815794618208534e-05
1.2815796898197021e-05
1.281579883656184e-05
1.2815799954343815e-05
1.2815800204359032e-05
1.2815799827333655e-05
1.2815799171099982e-05
1.2815798542801406e-05
1.2815798128070665e-05
1.2815797977785602e-05
1.2815798041709293e-05
1.2815798221298677e-05
1.2815798418166854e-05
1.2815798564678295e-05
1.2815798633700117e-05
1.2815798632135577e-05
1.2815798586234176e-05
1.2815798526306176e-05
1.2815798475848698e-05
1.2815798446857107e-05
1.2815798440484039e-05
1.2815798450812881e-05
1.2815798469336658e-05
1.281579848840243e-05
1.2815798502891185e-05
1.2815798510315714e-05
1.281579851006519e-05
1.2815798502625502e-05
1.281579848933037e-05
1.2815798472715757e-05
1.281579845706303e-05
1.2815798448419854e-05
1.2815798453428571e-05
1.2815798476725643e-05
1.2815798517429608e-05
1.2815798566082298e-05
1.281579860398799e-05
1.2815798606794821e-05
1.2815798553073188e-05
1.2815798436559473e-05
1.2815798278116383e-05
1.2815798131298252e-05
1.2815798075023514e-05
1.2815798189458524e-05
1.2815798517249165e-05
1.2815799020711307e-05
1.2815799553747326e-05
1.2815799870890371e-05
1.2815799690578226e-05
1.2815798812953639e-05
1.2815797265783859e-05
1.2815795422904492e-05
1.2815794020864128e-05
1.2815794006476314e-05
1.2815796192260088e-05
1.2815800778067081e-05
1.2815806896977864e-05
1.281581242334621e-05
1.2815814289750464e-05
1.281580945203858e-05
1.281579640304854e-05
1.2815776807482698e-05
1.2815756522560878e-05
1.2815745144942094e-05
1.2815753451800677e-05
1.2815788774843615e-05
1.281584938725383e-05
1.2815920096849202e-05
1.2815971917354998e-05
1.2815968346856297e-05
1.2815878994305138e-05
1.28156981037268e-05
1.281546168983056e-05
1.2815254034295603e-05
1.2815194165848515e-05
1.2815397368972003e-05
1.2815916196307649e-05
1.2816678158238662e-05
1.2817448868709254e-05
1.28178535852902e-05
1.2817480421978922e-05
1.2816061774946705e-05
1.2813689948493128e-05
1.2810980567615631e-05
1.2809072938195257e-05
1.2809372536634966e-05
1.2813012858753874e-05
1.2820138946154184e-05
1.282926217757647e-05
1.2837045660386809e-05
1.2838875918897054e-05
1.2830395532009715e-05
1.2809799172825144e-05
1.278020462165161e-05
1.2750973790307733e-05
1.2736723286555148e-05
1.2753171068260014e-05
1.2810029601226805e-05
1.2902733602955395e-05
1.3006402650511593e-05
1.3076311175247307e-05
1.3058411311316167e-05
1.291055773183786e-05
1.2630186246821811e-05
1.2278551601999621e-05
1.1987582497244823e-05
1.1935886040357837e-05
1.2287820460560158e-05
1.3104225846829143e-05
1.425235589086633e-05
1.5358934173332427e-05
1.5854500543966668e-05
1.5140180480758116e-05
1.2865748500528334e-05
9.246549356170732e-06
5.285646670244738e-06
2.7367111317252874e-06
3.675454862107904e-06
9.663605103841923e-06
2.0680923679070654e-05
3.421695939834139e-05
4.506284864440901e-05
4.6312098366916907e-05
3.1778877937485304e-05
-5.351934011481042e-07
-4.502568240875912e-05
-8.683440658674192e-05
-0.00010380067552800973
-7.314393013510182e-05
1.766927267496549e-05
0.00015880061336759409
0.0003099028982818878
0.00040229500077504176
0.0003563623449833435
0.00011444500164607033
-0.00031800475593559536
-0.0008384779197095947
-0.0012415900565497903
-0.0012605757875279718
-0.0006630982012367187
0.0006143383619909011
0.002337243761860617
0.003916028904461854
0.00449096858194978
0.003199944972308909
-0.0003967942031918811
-0.005853105309863891
-0.011541063398416472
-0.014767396132616807
-0.012488029124035726
-0.0026241613793717374
0.014302834727201076
0.03380744539480868
0.04712352991810543
0.042616314581963986
0.009115120003608227
-0.05948834311150855
-0.1599705933197164
-0.07794769910662933
0.009872808176149231
0.129332664186217
0.10042177799968305
0.1302499665458682
0.010497629846143842
-0.07945614573889831
-0.16508225945742597
-0.06818616385399993
-0.0008686551659431671
0.03592816413674077
0.049426552542136785
0.04952453514351109
0.04342485534382648
0.032535110951806515
0.012675200720386628
-0.022686546521229433
-0.07761466483127975
-0.14947537684769618
-0.02742586771270736
0.10526414251279657
0.06572046553073535
0.06511774836255155
0.1043247357808161
-0.026520138859014837
-0.14438581675473816
-0.06738629591964236
-0.009121659813372833
0.02448005400071739
0.035099157704222714
0.029528850830604376
0.016278420294170353
0.0026743067173880266
-0.006764088341500912
-0.010579738189291229
-0.009645563636474131
-0.006007872118661138
-0.0018056538386384377
0.0014342016384225362
0.0030487050753624564
0.0031276145899598097
0.002208204944260869
0.0009427295235661898
-0.000147642321448813
-0.0007874717397650016
-0.0009428419761555967
-0.0007432994105581801
-0.00038143917062427287
-2.968314134401178e-05
0.0002060900188969198
0.0002951172723881522
0.0002637197228415619
0.00016605750541892405
5.6923408410439985e-05
-2.565570757450055e-05
-6.61387474071065e-05
-6.797176199677077e-05
-4.532825589160215e-05
-1.4444116130714988e-05
1.2505840020749659e-05
2.9862899820368376e-05
3.7689948432464344e-05
3.90669538191331e-05
3.7066433967522576e-05
3.272453185659779e-05
2.473559142425977e-05
1.0891658019302473e-05
-9.38387875408024e-06
-3.256778009372155e-05
-5.000504018957147e-05
-4.946534419489554e-05
-1.9697362876767776e-05
4.283334000073857e-05
0.00012727895242365742
0.00020521565018363904
0.00023447712409869397
0.00017211538344028931
-4.698137324856139e-06
-0.0002755946987516923
-0.000561896265602438
-0.0007315373774787111
-0.0006331958090379685
-0.0001597248933257682
0.0006734131726641626
0.001664717724999391
0.0024182740053440405
0.0024266405395981373
0.0012573106698791185
-0.0011887832860333705
-0.004432084028379797
-0.0073111576076015875
-0.008155583705554725
-0.005313220223313668
0.0020143161211051614
0.012843129830377038
0.023753533587875603
0.02892703139122369
0.021141984359500574
-0.006387723437098572
-0.05800412388446243
-0.13461269610732327
-0.0349879678344347
0.040025426748821105
0.08127111321077884
0.06544101681901207
0.1528807498829962
0.09175011146048054
0.029444551894133367
-0.07044146610608247
-0.210075226593779
-0.3446192093774264
-0.18100089350895265
0.008285281676751325
0.15795169712398216
0.37656444351886365
0.5180838272039388
0.16897825072026826
-0.14341312381385943
-0.32378165955734484
-0.4734827645050643
-0.46125909416660726
-0.11216314617556877
0.18086245207336743
0.4282912912268338
0.6119529769643828
0.46611026081954243
0.08391885736563626
-0.24849033629761094
-0.6000405914195155
-0.5436052593557549
-0.3266771778761509
-0.278999347038817
-0.06102616850040507
0.25581204081185505
0.4968521401928403
0.9059052571799088
0.906586602636459
0.3209415868864999
-0.15228315371277054
-1.016648642940369
-1.4479098329995257
-0.9949923367701587
0.05579442749464991
0.4423551778649749
1.029187086110486
0.8848210432184583
0.5735032740174405
-0.10970715135060602
-0.5502739224380409
-0.681101666242106
-0.32595990198637126
0.25896223468218094
0.231877907555422
0.3976483774048387
0.22899307170746125
-0.32003404595648405
-1.2100326109293047
-0.5282137090831786
0.27831236683160343
1.151938145357543
1.1736147895518207
0.7351726636802186
-0.4484997199833714
-1.0898382266386266
-1.6647427424059613
-0.9677587013170482
0.28823731466834707
1.6255752055481771
2.3328456858475284
-0.1880477207220815
-0.4283852189643037
-0.7282647330560904
-1.2047185224467245
-1.6891507805893324
0.895157582934354
0.9054318637561395
0.9161822452268965
0.45059497861450915
-0.06423808079403334
-0.3038021017510503
-0.41801238777683936
-0.38425002553806564
-0.16019633011502368
0.14980151124400012
0.309554732930561
0.14934979914074578
-0.24634597797800015
-0.15670047013789548
-0.04552809316710508
0.015366079361876226
0.12248790560893871
0.3209126379409899
0.19409184477107344
0.06758559160086032
-0.17268351898570836
-0.25207122021655437
-0.27710421383858813
-0.11279132803212666
0.02632886669957429
0.1702845578102575
0.1769666876184428
0.11166353375804353
0.029750062626972492
-0.03316116440129697
-0.06280838332340025
-0.061636836162964934
-0.041258908971820496
-0.015163714382018469
0.006305772286563868
0.01806639319236568
0.019956487327585575
0.014974569999263847
0.0071767746656826075
1.761389773926408e-05
-0.004510523343230121
-0.005964344200499152
-0.005020506783297833
-0.0028541369168588984
-0.0005897386953807424
0.0010306764584976117
0.0017384195708805082
0.001648053372267751
0.0010809141435054667
0.00038897630863439546
-0.0001661484352003139
-0.0004615969554065171
-0.0005006064778681753
-0.00036519149895275146
-0.00016163670279593163
2.155934192029614e-05
0.0001347483909502967
0.000168346001556325
0.0001411063652863879
8.386660361290751e-05
2.5493377618610665e-05
-1.5394800552451867e-05
-3.2469549167077376e-05
-2.915228212944869e-05
-1.3966605833898471e-05
3.993393570302305e-06
1.810843126893583e-05
2.5389185788702477e-05
2.607530036739005e-05
2.237478257118996e-05
1.7052587655704553e-05
1.2363890109090044e-05
9.53808575438968e-06
8.772163667187794e-06
9.548442937763654e-06
1.1058469272198423e-05
1.2561901330910702e-05
1.3592352689969458e-05
1.400220994404348e-05
1.3891589346582386e-05
1.3486136529412747e-05
1.3020562400901137e-05
1.2662125007576622e-05
1.2483247052674295e-05
1.2473762003128706e-05
1.2574416095042668e-05
1.271337299571468e-05
1.2833235283498929e-05
1.2903639567686844e-05
1.2920796012972561e-05
1.2898910670184528e-05
1.2859146478477481e-05
1.2820469128963614e-05
1.279454004518311e-05
1.2784762629612091e-05
1.2788253847237603e-05
1.2799051993615038e-05
1.2811106381366852e-05
1.282019677794416e-05
1.2824577126119363e-05
1.2824611340298278e-05
1.2821884918049795e-05
1.2818261901645461e-05
1.2815201323739594e-05
1.2813450988304504e-05
1.2813075493090241e-05
1.2813687001549432e-05
1.2814732341674941e-05
1.2815726220361487e-05
1.2816377620816358e-05
1.281660919882336e-05
1.2816502926983398e-05
1.2816216022693098e-05
1.2815904289279854e-05
1.2815674051906315e-05
1.2815567174098121e-05
1.2815571677891483e-05
1.2815645252752986e-05
1.2815739589049016e-05
1.2815817645448445e-05
1.2815861060938827e-05
1.2815869019704374e-05
1.2815852061858277e-05
1.2815824626189614e-05
1.2815799115962543e-05
1.2815782778837184e-05
1.2815777340307488e-05
1.2815780493696286e-05
1.2815788100251734e-05
1.2815796152519948e-05
1.281580197572549e-05
1.2815804572413002e-05
1.2815804317544964e-05
1.2815802337679589e-05
1.2815799883807295e-05
1.2815797895674789e-05
1.2815796823043926e-05
1.2815796665192127e-05
1.2815797136174484e-05
1.2815797858210362e-05
1.2815798512753422e-05
1.2815798917945874e-05
1.2815799035596862e-05
1.2815798931504089e-05
1.2815798718456375e-05
1.2815798505518282e-05
1.2815798366260992e-05
1.281579832796977e-05
1.2815798376905558e-05
1.2815798472315615e-05
1.2815798563017577e-05
1.2815798603010522e-05
1.2815798564744852e-05
1.2815798449271313e-05
1.2815798291499922e-05
1.2815798157296796e-05
1.2815798128771303e-05
1.2815798276333943e-05
1.2815798621433961e-05
1.2815799101196254e-05
1.2815799552577689e-05
1.2815799735076241e-05
1.281579940361642e-05
1.2815798425459907e-05
1.2815796909653352e-05
1.2815795292846639e-05
1.2815794313964816e-05
1.281579482561312e-05
1.2815797440211112e-05
1.2815802089135724e-05
1.2815807661516126e-05
1.2815811946869416e-05
1.2815812086217801e-05
1.2815805604555386e-05
1.2815791853335783e-05
1.2815773390128893e-05
1.2815756579079966e-05
1.2815750663984755e-05
1.28157648842336e-05
1.281580391894407e-05
1.2815862934111856e-05
1.2815924443206186e-05
1.281595958094344e-05
1.2815935724047796e-05
1.2815830387340092e-05
1.281564818930542e-05
1.281543430781826e-05
1.2815275757575159e-05
1.2815282791033798e-05
1.2815548051884867e-05
1.2816090697859132e-05
1.2816804305917462e-05
1.2817436428519921e-05
1.2817628247289398e-05
1.2817029664402834e-05
1.281547689894281e-05
1.2813181345264362e-05
1.281084315730915e-05
1.280958989102611e-05
1.2810668901349426e-05
1.2814902157696203e-05
1.2822034255319549e-05
1.2830232942126648e-05
1.2836076835272891e-05
1.283531916106773e-05
1.2824501561045519e-05
1.2803116055517067e-05
1.277556787663023e-05
1.2751856269050194e-05
1.2745893615781708e-05
1.2770920465681507e-05
1.2832590393103189e-05
1.2921780096891237e-05
1.3010508575119542e-05
1.3054781085552292e-05
1.300697569585773e-05
1.2837206917746232e-05
1.2558348609350016e-05
1.2244508350141622e-05
1.2030047806926568e-05
1.207834016284122e-05
1.2518095978611939e-05
1.3359812990306175e-05
1.442198824275673e-05
1.5309122944104433e-05
1.5482421756107562e-05
1.4442147328593937e-05
1.199657056232637e-05
8.535235793493599e-06
5.174375294720827e-06
3.6286016612009444e-06
5.713233679388306e-06
1.2508126964765452e-05
2.339861603865275e-05
3.539488108967875e-05
4.322677448499958e-05
4.0617475666806556e-05
2.279252197243066e-05
-1.0295232132301928e-05
-5.1198503157215525e-05
-8.429575416652622e-05
-8.874522956283726e-05
-4.5726279715161815e-05
5.1112156262609305e-05
0.00018528349861259388
0.0003123320386044452
0.0003655062249745023
0.000275712141133644
4.202496515461136e-06
-0.0004207157940922324
-0.0008787108729276494
-0.0011633050627937094
-0.0010336009674020252
-0.0003129507353745193
0.0009868528691731444
0.0025623259139836824
0.0037991338293740452
0.003895427530809271
0.0021497654007982653
-0.0016326793124789474
-0.006747488674105534
-0.011414712713769053
-0.013035167250051969
-0.009012835850980385
0.0019151908341058835
0.018167339576699772
0.03420256827699564
0.04048013390081933
0.024987771601304384
-0.023693854897498732
-0.11257303579345768
-0.041085776641270506
-4.050055726723168e-05
0.026660572376171893
0.05811762356746562
0.1119705047191877
0.001200109000782578
-0.06674320898053156
-0.08876244766188923
-0.06431143379166437
0.005428299006161774
0.11672967319351718
0.061618460653382674
0.026930907835344915
-0.004503462945329796
-0.05043172729473137
-0.12477541533707673
-0.03426251237625865
0.02223757511061753
0.05126685158234931
0.060330184402610974
0.05349947958266273
0.02903149226435766
-0.020022611992063927
-0.10258698952856665
-0.02518909134480053
0.011707098252891698
0.015323411348169275
-0.00020428114803269304
