0
9.17622789247586e-05
9.176227892475132e-05
9.17622789247417e-05
9.176227892473312e-05
9.17622789247304e-05
9.176227892473832e-05
9.176227892475911e-05
9.176227892479002e-05
9.176227892482167e-05
9.176227892483891e-05
9.176227892482487e-05
9.176227892476831e-05
9.176227892467244e-05
9.176227892456168e-05
9.176227892448197e-05
9.176227892449062e-05
9.176227892463464e-05
9.176227892492166e-05
9.176227892529319e-05
9.176227892561522e-05
9.176227892570029e-05
9.176227892536896e-05
9.176227892454281e-05
9.176227892334177e-05
9.176227892214015e-05
9.176227892152977e-05
9.176227892215464e-05
9.176227892442377e-05
9.176227892817328e-05
9.17622789324146e-05
9.176227893534298e-05
9.17622789347532e-05
9.176227892889388e-05
9.176227891759397e-05
9.17622789032644e-05
9.176227889120854e-05
9.176227888868747e-05
9.17622789024779e-05
9.176227893525137e-05
9.176227898187484e-05
9.176227902741037e-05
9.176227904878574e-05
9.176227902144346e-05
9.176227893058109e-05
9.176227878410825e-05
9.176227862193141e-05
9.176227851485925e-05
9.176227854764333e-05
9.176227878530399e-05
9.176227922963435e-05
9.176227978161772e-05
9.176228023171165e-05
9.176228029896174e-05
9.176227972801147e-05
9.176227842980443e-05
9.176227662199863e-05
9.176227489972724e-05
9.176227416140424e-05
9.176227534200298e-05
9.176227897350424e-05
9.176228468881693e-05
9.176229088083818e-05
9.176229477472195e-05
9.17622931175802e-05
9.176228350409572e-05
9.176226605386329e-05
9.176224481798828e-05
9.176222806459776e-05
9.176222665184492e-05
9.176225018014203e-05
9.176230153086823e-05
9.176237154643752e-05
9.176243655553782e-05
9.176246161457417e-05
9.176241118573533e-05
9.176226630578186e-05
9.176204355187591e-05
9.176180750080027e-05
9.176166676479478e-05
9.176174602498295e-05
9.176213391308993e-05
9.176281840790336e-05
9.17636343374642e-05
9.176425588541813e-05
9.176426391634568e-05
9.176329836815938e-05
9.176126998534271e-05
9.175856149024431e-05
9.175611292101871e-05
9.175528184683152e-05
9.175741668064434e-05
9.176318684186119e-05
9.177185874517768e-05
9.178084297754746e-05
9.178589322880794e-05
9.178223723730429e-05
9.17666233700155e-05
9.173980570734678e-05
9.170849745860997e-05
9.168552143162119e-05
9.168703691654696e-05
9.172651268706466e-05
9.180652768080272e-05
9.191117925288125e-05
9.200319300966507e-05
9.20298874929073e-05
9.19401938374019e-05
9.171075944980773e-05
9.137354398107516e-05
9.103217396105127e-05
9.085247140831964e-05
9.101683386586587e-05
9.16439664704001e-05
9.269341282011026e-05
9.389311034361668e-05
9.473903635666295e-05
9.460896290757389e-05
9.300049220521423e-05
8.984820068735826e-05
8.580951440463348e-05
8.236028178018281e-05
8.154248625814683e-05
8.528652204122948e-05
9.439509136684067e-05
0.00010749307240153024
0.00012044113075900799
0.00012677122885138505
0.00011952254633303372
9.438587519819308e-05
5.336634530551846e-05
7.460259980855257e-06
-2.3545426897045755e-05
-1.5722341542498747e-05
4.961032191763916e-05
0.0001736328487537454
0.0003292839890529399
0.0004582025437814901
0.0004813178351720571
0.00032579244221252396
-3.546756180906767e-05
-0.000543906565581621
-0.0010344420888348698
-0.0012549238906853519
-0.0009397017758887015
6.763842590728075e-05
0.0016744715072341515
0.003441486704006281
0.004600099414923708
0.004243431442411771
0.0016975319711894329
-0.0030063651297369282
-0.008735902348269311
-0.013185990407108624
-0.013374469298500688
-0.006829707298261748
0.006638510010450885
0.022987387179885757
0.0324530651888125
0.01921983943965816
-0.03729346797805069
0.04046485119494495
0.032182531603900444
-0.07609547552295494
-0.08866433572595542
0.00102554933344306
0.008620205224023654
-0.04568988760459104
0.0567611805044038
0.12768041159202462
0.16944132173294357
-0.02237613590267693
-0.051318182994906106
-0.10943769989335607
-0.1679459501403886
-0.1739088321507702
-0.05635411246601211
0.057871095873985215
0.2218784329456902
0.24659534717998122
0.08611644643814077
0.036150287954157215
-0.05282096900215737
-0.15051386217948381
-0.21596769866466609
0.03226544889308307
0.13933814467831176
0.12787876703285397
-0.09829607212136278
-0.16064059575005368
-0.4234844393952662
-0.2240228142448841
0.08634826829119524
0.6954415844975693
0.490029505487016
0.4355092233264807
-0.21543746803770294
-0.48618408345968184
-0.6233342505268978
-0.24539687718021874
-0.10837916752905354
0.5051609714204349
0.7776081866562281
-0.26108565105179476
-0.349645109801028
-0.006838430071751464
-0.34071688314733023
-0.2604028902498103
0.5079911207476397
0.6049944473723557
0.2284490226417808
-0.06210822221022598
-0.5269229768244588
-0.6212515801290444
-0.3769589455351349
-0.0005277733241492011
0.7115826557492281
0.7500982327747212
0.678650054733142
-0.15880136619649482
-0.807199518816533
-0.858920868153237
-0.422963103629653
-0.12377116679784346
0.26378945926362357
0.5527167533239485
0.6766653886104862
0.8417975838996344
-0.08378971226006267
-0.33773355102602914
-0.3984895262408004
-0.7101038766296975
-1.0224368514096862
0.033506469036910944
0.7290424399715818
0.7902535427719313
0.5415370668064419
0.06374902062945552
-0.21924089682551745
-0.5264259498075101
-0.49055584477395564
-0.13056836414782375
0.16210392397958898
0.21994095120650453
0.28369889567593126
0.18436723265352897
-0.06857729110407014
-0.0884821121680049
-0.10356856191260211
-0.14447072349631296
-0.03279971966612359
0.02528158876290304
0.03911676277146338
0.028320614635007138
0.014732463636914427
0.014280212827435248
0.03096876736165599
0.05446375071792313
0.061993271762546064
0.024456702058459432
-0.08442887453977704
-0.0782905275734532
-0.15073436645379573
-0.07346257748230965
-0.0014462707659009726
0.11568099869846198
0.11935042292740745
0.2297512815059059
0.04002182242676932
-0.08076798227235021
-0.1769256230416234
-0.0918482603284881
-0.0554469023452073
-0.07748178350343303
0.05161515262149488
0.15368462680745273
0.052820113490186574
-0.03372168638497566
0.09938221415800388
0.04576780136827522
-0.0074513121250677685
-0.07150887803165397
-0.14788074942391077
-0.22389486872400738
-0.07502775855236626
0.12543053691022776
0.19208550728239443
0.31434842705880367
0.2512899355134622
-0.06112395245055618
-0.29097639405663406
-0.2856994066295489
-0.2513033037456502
-0.14433841954899618
0.11934662161315386
0.24152280239228277
0.3121749728272389
0.18406600530010458
0.05977141002936008
-0.10531350823823946
-0.18648472843402278
-0.26679073348349724
-0.21614051915038132
0.12099241997319991
0.12712021494784415
0.2052300746401187
0.16987362347671262
0.04132534352044852
-0.15466516551918816
-0.18299037602681992
-0.19561560909517217
-0.13323753467867983
0.06524291492915148
0.24690731457025483
0.22801926595593705
0.1833350712977018
0.047169095228101574
-0.07232188961791522
-0.2692729412867482
-0.21416836523144187
-0.1343868818254686
-0.007637749685492333
0.029743130627578565
0.06251262067252063
0.1706611128015711
0.20578674184068718
0.17677130421402343
0.04918049744264988
-0.04127424286288055
-0.16543406701099767
-0.37538572047839985
-0.2862602109207399
-0.072318951792422
0.12051111396357796
0.3500623569026427
0.451114109353024
0.2177130462727705
0.0026225743413839115
-0.2652644485753614
-0.452585994869431
-0.394234176508299
-0.07877686756213938
0.14740903905953837
0.3596070845917704
0.42724513127916
0.19134874513889577
-0.14411774486101442
-0.20500094982522826
-0.22897440283722087
-0.24604329264847175
-0.06622191016339905
0.12108497782905576
0.13694840200026737
0.19742740401037429
0.09990664559635917
0.017217543710596077
0.10222334041164828
-0.09828710605781031
-0.22472948569984003
-0.08702560309011591
-0.05423163541058394
-0.2557338858519306
0.005050484344760334
0.227324952054962
0.2862211186997858
0.21107167121901027
0.17619075685011587
-0.09223997062068416
-0.29535827243637
-0.3342172395824919
-0.08533409504491997
0.013097062969516746
0.16156105625387657
0.18882589094527527
0.1367848035076106
-0.15342202788952242
-0.05042228298719253
0.0637630852874314
-0.005874727728425887
-0.0645453292775384
0.07631703213455625
0.003388807599342146
-0.09456503092657756
-0.023780711816620954
0.01571571193695662
0.02937574240989551
0.025886164883960595
0.014400395298106739
0.0022654985829012233
-0.006150305545760836
-0.009471421062106146
-0.008512832319704603
-0.005158447689000343
-0.0013540694580788974
0.0015317463960097383
0.002924571004270178
0.0029309457994890855
0.0020537786402069825
0.0008887896655157575
-9.617571122070549e-05
-0.0006606053566236594
-0.0007831407054846096
-0.0005879200143748443
-0.00025251877866422953
6.700914148699857e-05
0.0002768732517199223
0.0003519208117381704
0.0003182715919867138
0.00022634358121445606
0.0001262087035293211
5.2107118562756856e-05
1.7585276896912465e-05
1.887216571682811e-05
4.241545153746304e-05
7.269985292386495e-05
9.780616758397295e-05
0.00011180730530977454
0.00011441584354846827
0.00010900242413129813
0.00010020123625218081
9.200090586828914e-05
8.673783038805284e-05
8.497442947818301e-05
8.5975281115194e-05
8.841309146981262e-05
9.099995019697949e-05
9.287446944691794e-05
9.371374124289392e-05
9.363626559576081e-05
9.300288716014187e-05
9.221527093219677e-05
9.157566118945962e-05
9.122914743355227e-05
9.117613865723032e-05
9.132537134889716e-05
9.155603552506408e-05
9.176629762029615e-05
9.189808547350952e-05
9.193912483448102e-05
9.190994699036403e-05
9.184543838840067e-05
9.177869006348118e-05
9.173133839954384e-05
9.171102520527826e-05
9.171415446896709e-05
9.173114090160231e-05
9.175159850224375e-05
9.17678732468618e-05
9.177642645792442e-05
9.177742684663521e-05
9.177333632449225e-05
9.176730011351319e-05
9.17619150330813e-05
9.175862115313247e-05
9.175767757323462e-05
9.17585153533108e-05
9.176021902995971e-05
9.176193934486691e-05
9.176313374944476e-05
9.176362294177456e-05
9.176351337094764e-05
9.176305909939291e-05
9.176252836965554e-05
9.176211475530214e-05
9.176190422616963e-05
9.176188786091964e-05
9.176199947648456e-05
9.176215728853584e-05
9.176229513245956e-05
9.176237734650973e-05
9.176239868187513e-05
9.176237477311075e-05
9.176232961202837e-05
9.176228503130141e-05
9.17622547310577e-05
9.176224302647687e-05
9.176224695181187e-05
9.1762259813233e-05
9.176227454483514e-05
9.176228591148032e-05
9.176229134139194e-05
9.176229070054416e-05
9.176228553750219e-05
9.17622782659674e-05
9.176227153055731e-05
9.176226776002362e-05
9.176226876576143e-05
9.176227524984629e-05
9.176228623521976e-05
9.17622986471634e-05
9.17623074437563e-05
9.176230669065622e-05
9.176229171930745e-05
9.176226200400173e-05
9.17622237735176e-05
9.176219089340851e-05
9.176218253989248e-05
9.176221691041172e-05
9.17623017440302e-05
9.176242446214728e-05
9.17625465717516e-05
9.17626075745404e-05
9.176254198510969e-05
9.176230868937111e-05
9.176192534181202e-05
9.176149377464978e-05
9.176119867700197e-05
9.176126467641619e-05
9.176186882613525e-05
9.176302574035242e-05
9.176448610861634e-05
9.176570636966914e-05
9.176594579421453e-05
9.176451708552907e-05
9.176115610447366e-05
9.175639765531165e-05
9.17517756559098e-05
9.174964711170952e-05
9.175250828607952e-05
9.176184532573762e-05
9.177681555744677e-05
9.179331105369184e-05
9.180408784030574e-05
9.18005156018527e-05
9.177602618484825e-05
9.173054744770604e-05
9.167430930006586e-05
9.162878184427483e-05
9.162261866874694e-05
9.168170534845861e-05
9.18147959148095e-05
9.199925502841944e-05
9.21739937286734e-05
9.224725552801174e-05
9.212403532029365e-05
9.175101405264542e-05
9.116703121670147e-05
9.053743570545342e-05
9.014602880273259e-05
9.032395510814039e-05
9.131398789007664e-05
9.309959247455284e-05
9.526256446851498e-05
9.695598704974074e-05
9.707276923120604e-05
9.464022759228698e-05
8.937745695246616e-05
8.223529518667444e-05
7.564267467586786e-05
7.316753160125977e-05
7.841957456070747e-05
9.329560019709745e-05
0.00011605049083366046
0.0001400433628296919
0.0001541686655791022
0.00014573777516468803
0.0001058133221690453
3.579103789418265e-05
-4.7290446814855896e-05
-0.00011006697237487006
-0.00010981559548752294
-1.0077375927424354e-05
0.0001977386287256275
0.00047394512319905006
0.000722111230324921
0.0008036467616261674
0.00058162718343785
-1.076592015818055e-05
-0.0008966279982580259
-0.001809807541843504
-0.0023162016697725733
-0.0019301300579521459
-0.0003235626251358125
0.002421123684514248
0.005614339230894232
0.007948172353027617
0.007784609931510679
0.0037751691877876865
-0.004300978786932077
-0.014767603683009311
-0.023773572791595962
-0.025938869766480334
-0.01616518277428997
0.007558361179322766
0.041070419139789885
0.0718751657596593
0.07924921559810909
0.03751061260820905
-0.07778234952628078
-0.08244375049991977
-0.1780463064314609
-0.15118620871689645
0.020675193989150697
0.15786167884796515
0.26583124186135265
0.32734867239064436
0.10483088629590369
-0.24564784439240128
-0.3528639382270606
-0.4103559317350727
-0.16753451696162197
0.062241746527729874
0.378243776534647
0.4624723107071686
0.35567166448969223
0.04948348717915485
-0.3021836998546773
-0.558419027812888
-0.36541434140360446
-0.14208484088625978
0.11594482999353735
0.41638640012858974
0.5448895642480895
0.24791302004830706
0.03438268573367125
-0.2015049082004513
-0.3434259835472969
-0.415746247032231
-0.36102744994315245
-0.2429556877353988
-0.07706700531238918
0.318390892441147
1.0680561484785764
2.4026131051350137
-2.1433574533301543
-0.8962308394247616
-0.18757641481499815
-0.30553169561702326
-1.6757592456972825
2.5225354147310166
0.9181835262556769
-0.08921529620395748
-0.5439312918389161
-0.31904561894552214
-0.08116139697588733
0.14792454318249537
-0.18236310939655564
-0.5458834896039106
-0.5592011059085441
-0.22522555832493954
0.40677105285765425
1.5822963976908269
2.6088930539518147
-1.328388275833397
-1.2992498249277893
-1.1313702981522462
-1.527557028297487
-1.8375476868880025
2.4993613472816003
2.4596221828478146
1.3355915249507015
-0.1178061596529237
-0.6621558672858414
-1.2914022171365898
-1.7262837642093614
-0.9373071595003579
0.46882462870045377
0.9937116011129115
1.147077111521312
0.9436550094791972
0.23683604017335663
-0.28945878642562534
-0.6735965823959368
-0.7965223333924318
-0.5007460488592492
-0.13495577833666844
0.26216930847078773
0.34129097111284046
0.3993719760586567
0.3334337295691691
0.20743950057429938
-0.1592158111654885
-0.3825234702189514
-0.2924788492877176
-0.11113086655434663
-0.039555247183200595
0.1425331919458792
0.2670634078139017
0.16428082943583158
0.05275151510467807
-0.06307107506422883
-0.18775243103143258
-0.12596369599009147
-0.07489393355280966
-0.021981889722327348
0.05088552479030043
0.15863892462294416
0.10373222664533928
0.07059442213311566
0.02671773931055019
-0.06927654241085403
-0.054910266805729524
-0.15057803585338622
-0.15025784115078433
-0.01961760119550409
0.09743138591221313
0.06559154313075737
0.1426323627525799
0.16636306554772787
-0.052092378309321404
-0.12744707996027863
-0.09339139819085983
0.006856216222619048
-0.07089603640863461
0.03380038037565673
0.08851440061693894
0.06843577340252142
-0.043526116635150804
-0.055983576164267204
0.0323857727486863
0.03423610158944679
-0.026047065525479245
-0.11372516449401919
0.012503946392460738
-0.0060534120614907875
-0.13706452524205046
0.032880020592816826
0.2899792536021885
0.19014496890465704
0.06455806356117959
0.03522707916774778
-0.16191041472310083
-0.3528150611133414
-0.308771453443886
-0.145109979337536
0.06145883177862792
0.2401298230931384
0.2873247641655352
0.4346602739839523
0.23496410288929062
-0.027656296081142118
-0.30566181879627813
-0.34366105813384606
-0.4361940268441313
-0.2016314669412759
0.019573246368985393
0.3426426995680242
0.3008124606089428
0.20545523577045954
0.1166843543354688
0.032266278891666
-0.10399244513961721
-0.1790792615646777
-0.08103113933483731
-0.07152180951024308
-0.1680360231991078
-0.13985944635197645
0.0813665830862635
-0.02073586312578042
0.0243922233012102
0.4480211658514044
0.42654936083791517
0.2831963698220684
-0.4914025462585769
-0.4055429844566468
-0.5322705559972719
-0.2888172431211613
-0.038461157775600344
0.8865028710941539
0.5520152506771572
0.1957515753268652
-0.18070114949000732
-0.3987100286519544
-0.47697667442896025
-0.20731078909275424
0.056372691798831906
0.19134940528648953
0.28550095536134795
0.21197460385013517
0.00870867084195383
-0.13107926762523306
-0.0564535943367009
-0.04744844973749009
0.0004583853214088651
-0.00797832179805892
0.04545119803520778
-0.0982025932494897
-0.07022435514766011
-0.07428498842391625
0.10902159741313135
0.1147439008929218
0.18597519233460583
-0.031076103534849533
-0.08801234644737237
-0.13232794727222308
-0.10584715660425816
-0.14704240673613977
0.0008874824931611682
0.17719970957352987
0.19004890332784738
0.20791820774324787
0.1611790261784021
-0.04419262260229171
-0.303366819476597
-0.2868577791276428
-0.22115658104318636
-0.08311582521358697
0.18957788922874735
0.27568817422232994
0.24392946228573892
0.13217606740043167
-0.06099372414114293
-0.17103544389087788
-0.05219131710548598
-0.15888097329760553
-0.13033947166087703
0.017109086790545215
0.08898173950238301
0.10474246663622368
0.08711268471510894
0.0529256229253741
0.00850634115604443
-0.04967037882674081
-0.13041780084014074
-0.04201396750170247
0.012221314097621701
0.03541679097491297
0.035774593970171374
0.0235833579270728
0.008169001064461475
-0.004114133298988435
-0.010475256599568465
-0.011097591706611419
-0.007918919742153361
-0.003354188155159832
0.0006421813622236923
0.0030179431019391073
0.003618435236028068
0.0029033196088725406
0.0015761080154633714
0.0002741814093533706
-0.0006063259920141495
-0.0009458228001648774
-0.0008371856952218677
-0.0004788633304936828
-7.42653377879206e-05
0.0002334716039510997
0.00038397705922992416
0.0003880752186808264
0.00029826412106027895
0.000177041768721864
7.374621866655904e-05
1.4004619343894689e-05
4.5056521829355304e-07
2.03477659792743e-05
5.520643583971943e-05
8.866197400555851e-05
0.0001107973897507835
0.00011886772338328905
0.00011552198719056112
0.00010599613871001528
9.553029034898712e-05
8.773318230883664e-05
8.405602473906924e-05
8.413235016201669e-05
8.655984949613432e-05
8.97180718645212e-05
9.23538372127781e-05
9.383712527022879e-05
9.412866941983055e-05
9.357524012095854e-05
9.26597366424742e-05
9.180061199354149e-05
9.124505727483177e-05
9.105481908018959e-05
9.115505191664753e-05
9.1407821902379e-05
9.167828796737301e-05
9.187561284924859e-05
9.196512756412822e-05
9.195851364550489e-05
9.1893137799057e-05
9.181096684890029e-05
9.174379197238056e-05
9.170705252474724e-05
9.170102704605137e-05
9.171631438398029e-05
9.174032018658571e-05
9.176235687890751e-05
9.177627603529519e-05
9.178071856241212e-05
9.177777956501076e-05
9.177108644806852e-05
9.176410504632632e-05
9.175911822635502e-05
9.175694848526192e-05
9.175723780606913e-05
9.175899284672966e-05
9.176112801528021e-05
9.176283786642242e-05
9.176374538311783e-05
9.176386221391701e-05
9.17634423220616e-05
9.176281381904528e-05
9.176224942134844e-05
9.176190172984992e-05
9.176179970322346e-05
9.176188496053273e-05
9.176206199080784e-05
9.176224154353282e-05
9.1762366213183e-05
9.176241680064342e-05
9.176240451059086e-05
9.176235655027641e-05
9.176230192579577e-05
9.176226165595612e-05
9.176224473452137e-05
9.176224899903333e-05
9.176226501022222e-05
9.176228097974812e-05
9.176228728220583e-05
9.176227969421251e-05
9.176226092390952e-05
9.176224017523905e-05
9.17622305885456e-05
9.176224465691993e-05
9.17622883100789e-05
9.176235524515849e-05
9.176242394636931e-05
9.176246012489323e-05
9.176242644228756e-05
9.176229903553165e-05
9.176208680750122e-05
9.176184574016466e-05
9.176167839648315e-05
9.176171030269388e-05
9.176204141905451e-05
9.176268211281299e-05
9.176349614250667e-05
9.176418278372867e-05
9.176432960518124e-05
9.176355089266187e-05
9.176169322646479e-05
9.175904589247462e-05
9.175645525076429e-05
9.175523096012458e-05
9.175676946133926e-05
9.176191615949003e-05
9.177022896224223e-05
9.177944885591129e-05
9.178555859761032e-05
9.178374195867797e-05
9.177029349475864e-05
9.174508938884504e-05
9.171372735561371e-05
9.168808893655608e-05
9.16841313836614e-05
9.171638929947994e-05
9.17899859672163e-05
9.189264588143447e-05
9.199064554829881e-05
9.203298396928939e-05
9.196648847601446e-05
9.176075869853802e-05
9.143636617670613e-05
9.10843020014243e-05
9.086200841445675e-05
9.095435867133997e-05
9.149846989690719e-05
9.248841009443778e-05
9.369509139750415e-05
9.464964221526401e-05
9.47352979028097e-05
9.340551205448752e-05
9.049406151333531e-05
8.65177156358406e-05
8.281799289358539e-05
8.137874588390223e-05
8.422131305682418e-05
9.24301243006723e-05
0.000105074464080112
0.00011849749399167013
0.0001265360864548754
0.00012210340293361156
0.0001001452710731631
6.131079587766117e-05
1.4942815953040032e-05
-2.048034661537187e-05
-2.1148925780961787e-05
3.3438713380187795e-05
0.00014845191064107765
0.0003022800108043139
0.00044163714955429775
0.0004894350133729118
0.00036895457094080744
4.186538788744393e-05
-0.0004506046023013331
-0.0009618042009401144
-0.0012507168833056554
-0.0010458979222610638
-0.00016142565527628384
0.001362171381750431
0.003147107284966876
0.004469951283793573
0.004419505701367692
0.0022398803312917185
-0.0022028941330054456
-0.007990016983680797
-0.012991389881212003
-0.014224322342460584
-0.00887208603749662
0.004118207571816331
0.022238247453231635
0.03806877549096345
0.0391082771503649
0.009276007979033012
-0.0679888766300283
-0.005832914492963822
-0.010602736364745315
-0.08026341932377563
-0.0054050702610333335
0.027183768220498408
0.029301904611297433
0.00618098289472962
0.1534343404165303
0.05786248130113482
0.1028803286582068
-0.12235814813948744
-0.213177196453732
-0.3436348690153809
-0.06940825914048877
0.058836917507055435
0.2745504995542514
0.37458296196832186
0.5084061748793883
-0.015295136516317183
-0.5037070361828596
-0.4438760565299499
-0.06855644525580497
-0.13671730167265794
0.06425695670482323
0.09538435619078871
0.1286407398622486
-0.09520755659895504
0.09615503643843697
0.08258262014237867
0.5473115996863558
0.497278268405192
0.3087976552473204
-0.4074949181857567
-0.9381367378159199
-1.2186089944433576
-1.0299329243455444
-0.45367807132327304
1.2227480012239171
3.783891429503087
-0.203278089695676
1.9979980107005413
-2.4271185037364154
-2.1023620285800924
-2.9119715050951633
1.6916003883566637
-0.9107245671220593
3.0144890628685106
1.2328170250198398
0.03467384316528581
-1.0228245336612014
-0.9189112493371451
-0.7367278654336349
-0.02260669241135145
0.8460672393994727
2.8849511243405637
-1.8699157020394213
-0.7246778963131412
-0.8896160821485731
-1.0634640272115141
-1.8602818792833833
3.720638004288678
3.2074408078963006
-1.4069904670789146
-0.8689580804591248
-0.6061663007454872
-0.8379183940918677
-1.6948194891162431
1.6218273704572266
0.8333166666178575
0.1427435091386054
-0.21724875881976963
-0.4302488276957093
0.270975962928428
-0.2173944401065266
-0.08391911949943383
0.3923556290768972
0.046395088651573324
0.24507619660596047
0.320226058778004
0.014755986541694995
-0.865533435552415
-0.4069743038456347
-0.16407311324103077
0.03353027478387942
0.04271570276513885
0.3467793561951905
0.3896475769727784
0.32167755585008295
0.17068689488884065
0.044636594959102036
-0.23641371964979435
-0.2892890404561766
-0.312417628320192
-0.2412125489317301
-0.124902774589759
0.07132538488024838
0.24251605233102197
0.30795125907246856
0.17497172996423954
0.11309543005690813
-0.05582717088683782
-0.15167444963480198
-0.21955928601853633
-0.1103776237131305
-0.06530505303534541
0.09192294178808134
0.1550231577951472
0.13056875815052577
0.03283223625739856
-0.11915734038024323
-0.10207929461069568
-0.08819856283778194
-0.047081088707526045
0.04967526458459823
0.22167363817091226
0.07366519010251404
-0.006733253619698799
-0.04595877263151292
-0.07690699755033577
-0.12966522477000772
-0.023963893326782684
0.03423597503968717
0.051460808215838795
0.0420035503266528
0.02198503383275069
0.0042975245961920806
-0.004303069473238865
-0.003652479536914409
0.0014210225888309934
0.004003813046906406
-0.0015315830074742415
-0.01653209256823881
-0.03626586817820313
-0.05005422303962115
-0.04378377894807226
-0.0046359533869436385
0.07305957415279078
0.18291514985977977
0.1050448384941861
0.009929082628106142
-0.1326049440366186
-0.14212246751064966
-0.21874139204764328
-0.1412860715343469
0.1253981576910493
0.2156637346845322
0.14615323527773366
0.10370312654832901
0.24366864520866494
-0.09934602911523946
-0.19085153205896566
-0.272329076375086
-0.1419087214839942
-0.14712747804042345
0.006893720630555019
0.2357671729000087
0.24716089853670134
0.11392861840681444
0.05698367090209271
0.04226716056286811
-0.20849282902105915
0.0026135061467709875
-0.026395740763055217
-0.17598232188944896
-0.09079765177953616
0.02497437834061908
0.0025355808181881812
0.09598666493759181
0.1666026405237462
0.06856744804368087
0.03984563051510897
-0.10037991798165148
-0.14890834109684317
-0.11342132885375224
-0.008311493244522556
0.14693667041527275
0.1276132291750694
0.1044297228676984
0.0473808475152116
-0.06669658910283979
-0.24514830817081754
-0.27349334854442975
-0.1168849962555218
0.06896340462007045
0.31990808868180015
0.6455138860490329
-0.18022006045813566
-0.013840936943628255
-0.1238067562803259
-0.36536743268804217
-0.5592229212320452
0.31723477790771243
0.1225667122763217
0.13112726714573825
0.20849260703393085
0.19186067022529535
0.08202172256013009
-0.15117427149822615
-0.1527723772866672
-0.16261433489660876
-0.1988583395677353
-0.05109974675826688
0.11466515359973614
0.14131998117027533
0.0615847757589177
0.08128555998986729
0.17050863396326657
0.06569443898102965
-0.11732249963744999
-0.06234286249202843
-0.029313847813976654
-0.23475998287305813
-0.24188730122174057
0.03609478631051311
0.11932651972303483
0.13521362299303818
0.18988766279269986
0.14491072228207547
0.004970929680587389
-0.08136343137156586
-0.20969176525147953
-0.10119365058776471
0.11755461062182147
0.1329636419515965
0.05998204645418322
0.055037034837608585
-0.07409803431929035
-0.263874749329777
-0.3998840613643933
-0.13463095686715373
0.0815729312480749
0.362010579106792
0.5484029067030557
0.5928372069802124
0.16728038886222504
-0.29764361977853165
-0.7546338669867663
-0.6820558268988122
-0.4486786149537551
-0.11597849318758448
0.3205961238914512
0.8650805371882682
0.8531280177597038
0.30794663822404317
-0.06376656469734958
-0.4354036904663541
-0.798812254205778
-0.701809431908268
-0.20812513267996452
0.3073182475171649
0.5299043021586423
0.5586993621719794
0.26215275522795534
0.05273653736946475
-0.3128936350797555
-0.3126087976887872
-0.22800603061352925
-0.11699709370150281
0.0012213028652861572
0.14618155033331864
0.16431708900165556
0.11176986961853462
0.038555422158166
-0.0213642496643469
-0.05273610834238675
-0.05577781400094696
-0.03985812356040831
-0.01695548570416179
0.0031332866720970107
0.015070572602106846
0.018005285040667195
0.014196391797986539
0.007190785039766492
0.0002874400558239477
-0.004351298838307016
-0.005925642822863278
-0.0047625785256334525
-0.0018823698519366803
0.0014255529819451735
0.003922793272875848
0.004646923960912974
0.0030985606856690044
-0.0005718766364322939
-0.005411119826636695
-0.009657396837519245
-0.011033247753951122
-0.0074386757983823945
0.0020042732920806604
0.015825951842207253
0.029483452880488394
0.03559642075114741
0.025540584336604596
-0.007668685716713069
-0.06595291268288528
-0.14359271723692343
-0.027037785674401744
0.10206260292067021
0.061261516653178964
0.06127363734769184
0.1020908431530315
-0.027014850222329415
-0.14360148119762803
-0.06601265384241391
-0.007778815942192289
0.02540935180937152
0.03550167296060239
0.0294971827299779
0.0160065362362388
0.0023598346795279893
-0.006982824615021257
-0.010645067866484533
-0.009568829063488665
-0.0058405463131651555
-0.0016085544725582253
0.0016133032653709212
0.003185182753198263
0.0032191618302746723
0.00226735818833606
0.0009875167391195365
-0.00010132304448838289
-0.000730006145207378
-0.000871572304358417
-0.0006607953614252111
-0.00029279827542405014
5.9937589842505804e-05
0.00029303456137645716
0.0003777526829620874
0.00034217289466540856
0.00024157322393049695
0.00013120390143810681
4.90696231398924e-05
1.0412643453489609e-05
1.1319791558477731e-05
3.697783642186857e-05
7.029584972655881e-05
9.807113873966085e-05
0.00011367822129350027
0.00011671930640056007
0.00011086118149084448
0.00010119906504940822
9.214315128082801e-05
8.629490186242606e-05
8.429999972563406e-05
8.53651634128693e-05
8.803391528372613e-05
9.088436283863833e-05
9.296009524791924e-05
9.389783783022338e-05
9.382333494789745e-05
9.313286948846971e-05
9.227032093094234e-05
9.157072826339064e-05
9.11946738016886e-05
9.114081163144498e-05
9.130445321128846e-05
9.154776510528746e-05
9.175614654148817e-05
9.186862225281851e-05
9.18818851024451e-05
9.18349676559856e-05
9.178411728634799e-05
9.177673727143848e-05
9.183116332975533e-05
9.192695263009058e-05
9.200861136370442e-05
9.200369763406385e-05
9.185312019133782e-05
9.154684448177708e-05
9.11529675578108e-05
9.082450683719394e-05
9.076942263774655e-05
9.117809068897429e-05
9.211916479929036e-05
9.343616854149835e-05
9.469542903261595e-05
9.524019487364705e-05
9.43855728344266e-05
9.173990844907447e-05
8.756777204894032e-05
8.304004026529149e-05
8.01824989235653e-05
8.137343498019933e-05
8.837606977389427e-05
0.00010111264523833285
0.00011663429959242157
0.00012890797417112099
0.0001299995524345698
0.00011288055564297929
7.541756893397988e-05
2.426484201966349e-05
-2.3314469007540975e-05
-4.179824120474343e-05
-5.189516747416877e-06
0.00010044711083907828
0.0002631165727756584
0.00043575314613920543
0.0005390580153047992
0.00048186828705792993
0.00019919509687046347
-0.0003005587042913558
-0.000897140725604329
-0.00135278284035566
-0.0013611403841931955
-0.0006583894927497525
0.0008222336832521306
0.0028034719946949606
0.00460160662981362
0.005228531579693557
0.0037037121884224192
-0.00045579442770126593
-0.006705684026296859
-0.013144470613479972
-0.016665554898931574
-0.013804923296906968
-0.002288943426412125
0.017038511926309466
0.038575247710490625
0.05147513809784496
0.041068385738701876
-0.007612066262291123
-0.10490532801138423
-0.051822770404726416
-0.0375869562449744
-0.04090621449234634
-0.03517620136346287
0.20377622022983027
0.09004230324217724
0.02305858576688359
-0.011867030107080664
-0.037937596866960785
-0.07826683001144104
-0.14758730569276174
-0.047435165638611894
0.03334183899146835
0.11300525580495423
0.008600379518654682
0.1283128484814939
0.06762285376016859
0.010907424568641822
-0.06189822587273344
-0.16598853311099288
-0.1034396942408905
-0.05965424508569101
-0.006450200247856875
0.0889314194647207
0.25219774083803603
0.09240313068320458
-0.0015555902267624432
-0.0567414969309201
-0.10595322349784335
-0.17566492606437478
-0.07696529380657537
-0.002981347896932862
0.06641291905398987
0.15471853338821612
0.07782527648778598
0.036183899145812805
0.012920564279095445
-0.021695934709938837
-0.10125477383958122
-0.05285624916528435
-0.08882938419835677
-0.0030697264752603207
0.02706706041588175
0.03420274140682185
0.051994085707495294
0.10666191784845393
0.011479862986269783
-0.03440610442574383
-0.04296580757339082
-0.03156454671771926
-0.01665302820985721
-0.008764613507181279
-0.009966007737005882
-0.014078213669475115
-0.009324266758272632
0.017416878962890108
0.07591975536390749
-0.031167152034050162
0.09001983725603747
0.02569522817203361
-0.041819417501455465
-0.12885423942725532
-0.04554327477148323
0.006719044800537493
0.034546306920839445
0.0490750371830118
0.061428489370186745
0.0790976566834832
-0.09546652158605858
-0.0639816715226142
-0.030259797674547152
0.0015914705442049858
0.027775473521762538
0.044357225883773915
0.04669390041378061
0.02979032593691991
-0.009943611337045242
-0.07200993438944289
-0.1495788172400309
-0.029340117397403262
0.10560324652334757
0.07042516952169126
0.07303605170689752
0.11098816599818655
-0.027466481097841097
-0.15839060656503526
-0.09542221974811911
-0.044429295540843586
-0.002095852836140213
