0
1.1944327413693237e-13
1.5957284705774532e-13
1.443371653861999e-13
4.910894460067333e-14
-1.2561173856303266e-13
-3.398591938663422e-13
-5.109908824602376e-13
-5.296442205072928e-13
-2.981233378221597e-13
2.146828709159335e-13
9.193207576045773e-13
1.579876810675493e-12
1.8452303459885093e-12
1.3552224503974604e-12
-8.709712296914873e-14
-2.3236778673700033e-12
-4.7133052902910095e-12
-6.16715990381193e-12
-5.425603762891856e-12
-1.5798049796804248e-12
5.276754429724267e-12
1.3512574152614852e-11
1.986945557287305e-11
2.0124016104116085e-11
1.0608827430242018e-11
-9.657515002897193e-12
-3.6927686254707416e-11
-6.182768165767513e-11
-7.071060011709525e-11
-4.990196746631816e-11
7.5772343998671e-12
9.468492829629827e-11
1.8569012914188401e-10
2.3800602718249047e-10
2.033939112120072e-10
4.845555750674859e-11
-2.202936298355157e-10
-5.364684236468645e-10
-7.717793386150639e-10
-7.633249086487039e-10
-3.737826712639023e-10
4.2606894042389237e-10
1.4802045595072503e-09
2.41672100535762e-09
2.7058158648486273e-09
1.8292342969022986e-09
-4.5762284236346346e-10
-3.8463177758571e-09
-7.306379867755671e-09
-9.174050332176263e-09
-7.604633216827307e-09
-1.3765740951937595e-09
9.144844697532593e-09
2.1266472704523937e-08
2.994335881745039e-08
2.889993835679452e-08
1.3008460978657922e-08
-1.851773224353228e-08
-5.9216824761900455e-08
-9.435578724894706e-08
-1.0339021826480079e-07
-6.671590418718835e-08
2.4124148130233297e-08
1.5580175668704388e-07
2.871271476755377e-07
3.5317630522095895e-07
2.835106356330858e-07
3.368957528963244e-08
-3.777382164721277e-07
-8.418150819028685e-07
-1.1603945259094483e-06
-1.092023502627934e-06
-4.457984713676749e-07
7.952133129273449e-07
2.364650987304453e-06
3.6796952409621653e-06
3.9446101414209615e-06
2.4193130895546327e-06
-1.1835958869965557e-06
-6.2944470834499744e-06
-1.126977503662169e-05
-1.357898425162213e-05
-1.0536555493065046e-05
-5.355964542386985e-07
1.55341840150073e-05
3.3275836966968567e-05
4.4916361360352755e-05
4.117781887113856e-05
1.4976162625774545e-05
-3.38142107909607e-05
-9.425966988886966e-05
-0.00014333653795659573
-0.0001502601937833319
-8.715170975680283e-05
5.553613623133006e-05
0.00025367313176949066
0.0004417953295081313
0.0005213743950237768
0.00039018097478352474
-9.484952100076326e-06
-0.0006365137583157226
-0.0013138922995157524
-0.0017370470003633916
-0.0015498734392311677
-0.0004902478919788991
0.0014264022434202683
0.003753915441669355
0.005585836297056883
0.0057359426708870846
0.00316197383642482
-0.0024350804917486137
-0.010029974388001728
-0.01700892376015099
-0.01954006620050652
-0.013773404854955693
0.0022214890119787232
0.026272403380620833
0.05054928510132937
0.06167055457751391
0.043241940826604895
-0.01918237964006323
-0.13188447602178033
-0.08775325247150113
-0.06460083422627418
-0.028696208087146183
0.05673136085511241
0.22042869978078866
0.07332321844572984
0.00372676481569608
-0.020484939004175466
-0.04337489305459915
-0.10901690124015466
-0.04997868345417101
-0.07964600898509673
0.009598811845471034
0.04224883057400142
0.05133557663568377
0.06881601578403941
0.1178186523193454
0.009075462247821617
-0.05771237325790204
-0.08871189864870505
-0.08962402606342511
-0.061189880499506286
0.001393311299183901
0.10491553649454527
0.052108917507913036
0.03585614215383349
0.03626368937265722
0.022076052003941495
-0.04360081908227179
0.005381971729815513
-0.05234661209392015
-0.017982113433504057
-0.06885980083361003
-0.1603951892665321
-0.034193297043995145
0.16872226870253496
0.09257089322622966
0.1539052686728956
0.13568000987935191
-0.009065605763011797
-0.14448239918800002
-0.13398253960476963
-0.22295571588043997
-0.02779582244745931
0.06550636122786553
0.09356774518586412
0.10220336750009594
0.13249558064870373
0.010845786277784826
-0.054597764860387435
-0.07135108655505047
-0.0561173626958608
-0.027479993503369
-0.0002799674979226608
0.017110546818727975
0.02272582015950032
0.019110732435322377
0.010794907333639962
0.0021180425322881442
-0.004065820837468241
-0.006735031171188111
-0.006343946318929185
-0.00413549282744125
-0.001460248900992417
0.0006866282325780128
0.0018449607476034619
0.002032905929156262
0.0015587441294532321
0.0008098919089291513
9.670976935269337e-05
-0.00041596675282231537
-0.0006967292023722146
-0.0007873998012192373
-0.0007351601215202367
-0.0005507180426724762
-0.00021000069507135462
0.0003032837113052953
0.0009357113748846693
0.0015170055242435408
0.0017638581791194507
0.0013587329856957454
0.00010074239091354781
-0.0019116453705335255
-0.0041431233165465375
-0.005625905672140137
-0.005186691989804453
-0.0019139589406497212
0.004222658407829358
0.011810333155923829
0.017783016595832486
0.017844371177289424
0.007642670619330906
-0.015494340353111051
-0.05083457770907596
-0.09335776627878248
0.06556089965724922
0.03578220903052157
0.025118162020802012
0.03649912946088491
0.06685084960152779
-0.09180761766659133
-0.049519195053678335
-0.015036348006201197
0.006658828192547851
0.015146928444474933
0.013722935357440527
0.007564279283919128
0.0017132866811679565
-0.0005164902095236701
0.0016143937451553404
0.0062675552061986365
0.009817343589982732
0.008295280322351103
-0.0007635525916648301
-0.016485022884084398
-0.03341300762322642
-0.04150340887634799
-0.027815575054439254
0.020149636718352872
0.11026609500549019
0.04221286336494246
0.006075723154731403
-0.01604348095404453
-0.04582292799509578
-0.10343510523845648
-0.003064485009599931
0.04939999867032935
0.056233691483023526
0.026095297760305655
-0.028255481441978182
-0.09203691933078269
0.04967252695028827
0.009934187507182057
-0.002205502319352548
0.016402979299078697
0.06201844513372426
-0.07566192621843112
-0.011796895914145976
0.036374062567977095
0.05293131890056569
0.02692676555164076
-0.04414882186075842
-0.15195204648863486
-0.07727401884414921
0.006428292601818741
0.1260947249890663
0.1007118946619278
0.13479288096070713
0.016616233361215697
-0.07773833117676181
-0.17609617854449097
-0.10114033886596314
-0.06441158564501502
0.13444275516249493
0.10361900263351184
0.05296661606533109
-0.011078258965395903
0.11273695925649768
-0.17773037302741282
-0.08410927595229649
-0.003764033132918489
0.07183753380914214
-0.04405870571153434
0.0632067653688747
0.005702383388013273
-0.010452359122589686
0.013104997877143825
0.06712098818046432
-0.06322274531960116
0.005216029601607941
0.057726773822495095
-0.11449277964594073
-0.11215036354035719
0.07185157175630216
0.04947269116605803
0.03286667313944089
0.02978245716614305
0.040831577922651185
0.05960476889604705
-0.12452616043306787
-0.1221547876696563
0.06002928169276202
0.02117388199754623
-0.034173170479297334
0.10189946163003473
0.03836524169403239
-0.016185807537276962
-0.05375770431606793
-0.06646040960847062
-0.04644001933533503
0.012856208622012463
0.11410995929367154
0.0534027798819549
0.018996193666102418
-0.007210286749862849
-0.045646728750318534
-0.113865476309583
-0.022174275503364177
0.028236801765981187
0.04417073136330502
0.037112094542447883
0.019298871820357708
0.0006429363991639761
-0.012744216507614465
-0.018477527006636726
-0.016877859377115945
-0.009751992550820623
0.00047354858362218396
0.011084273150480474
0.01906397509631033
0.021139962574299714
0.014267948493421296
-0.003329323645965818
-0.030877933184209047
-0.06423460077708829
-0.09638810119252768
0.08022599747748037
0.07001589170579159
0.07062929520778087
0.07146753758889518
0.05574790446165266
-0.19399111399096414
-0.0888107816121844
-0.027633854222233946
0.004616489784445917
0.03414082882199937
0.09177002641132194
0.005199228457837039
-0.007619611327916661
0.0577277741887486
-0.008288176539741208
-0.026523051956830218
-0.024548098246235682
-0.031462948045919724
-0.0735563918750465
0.0282040950671889
0.058683143808452305
0.007809668408644679
0.06980601787548496
0.043583080650941165
-0.06527834833550156
-0.041604031591429454
-0.058316571647281934
-0.07658279180737439
-0.04968035414048067
0.06946100585746938
0.11868163348517075
0.1178627150203493
0.06412680136283694
-0.06717062088320103
-0.11601811556298142
-0.1283679070102193
0.052866426880569854
-0.006098011366677371
0.07256351048804968
0.07809064604508868
0.009827851501524328
-0.12416625446284622
-0.10862417435263139
0.07653914809241169
0.05245498907756344
0.03675660745629531
0.03980038713602767
0.06315298912486036
-0.09908803096086642
-0.05679107951855197
-0.01963840770226013
0.006031521160479919
0.018439648151296898
0.019706622187398267
0.014099854246099091
0.006130122197781963
-0.0008168477742684751
-0.0050404170831753635
-0.006364678128858606
-0.005554478386302804
-0.0036478830482124234
-0.0014660003677235873
0.0005770272644602632
0.0023808293208039395
0.0039023235951983403
0.0049034701137268145
0.004859356677371285
0.0031179883306853605
-0.0007014651915812977
-0.006206850359046271
-0.011866511872168431
-0.015058963279846297
-0.012756480580521581
-0.002869820072019644
0.014014083380425538
0.03308566617422459
0.04473776016562525
0.035659495749191465
-0.008164798346855044
-0.09709132612035526
-0.033409342727918206
-0.008533803308499403
-0.003008300663712386
0.01046381274860051
0.061747330441038674
-0.02287663483771489
-0.026343294208465103
0.05515550631497197
0.010404486438432529
0.014069179985522484
0.03039454256517972
0.019387848158630115
-0.05540764990123936
-0.019020817103380702
-0.07887837354151118
-0.022097565594418434
-0.017338333786251117
-0.02121062735288356
0.01198901149269438
0.11946480251181603
0.1208629860357706
0.01363887709841595
-0.025604863758068773
-0.034150351935502525
-0.05277445427356627
-0.11516462711397074
-0.040240878315045525
-0.029380075891845787
0.13117217512090876
0.06417177550260038
-0.005944961907180545
-0.05917697211228547
0.11647143187355988
-0.07586712000594857
-0.04063114889487851
0.012746764487370568
0.07282472131150995
-0.0711056144751371
-0.026899959239013487
0.0016464051070866554
0.014872836823070803
0.016253340471542508
0.010768748489283324
0.00327253157966186
-0.0026673539031381367
-0.005266124429135695
-0.004439316012324577
-0.0013528387594093484
0.0021787624235172043
0.004303675482241779
0.003688674537221497
-1.6265952876331663e-05
-0.0058708734756097395
-0.011622408084619743
-0.014129690967672453
-0.010340492348248197
0.0012444679879067813
0.018956087212030955
0.036793088416384595
0.044430746289359016
0.028937946706219225
-0.021820189291799567
-0.11493477486340276
-0.048914691239131704
-0.012517113408000831
0.013168512636786395
0.04986497366817517
0.11620601000622331
0.022998585928127133
-0.02865270428719912
-0.045933514145165895
-0.04058863938080308
-0.02463153378564774
-0.007134191962305535
0.007034180908449027
0.016573268688269922
0.021963969514501438
0.023560843430205043
0.02050110814476882
0.010971410954229582
-0.006192344721262842
-0.029189263532752426
-0.051294279797683
-0.060468769212073864
-0.041427397696432035
0.019793655743054014
0.12990809749996365
0.08330040287892986
0.06031530908579309
0.03055884753100175
-0.039017738513862095
-0.1735936274368334
-0.18130822648434206
-0.049284853929011004
0.05301064595673394
0.16389934186636965
0.11679285262769538
0.12961493767263949
0.00029942264695704374
-0.09035037356866882
-0.1702159929539138
-0.06567398192859979
0.006301253282243159
0.04130243256785166
0.045835313884053513
0.03257459363575723
0.01486177340275889
0.0023355770231420557
-0.001316358897577578
0.001649910821224577
0.004861160500700724
0.0007468703998766004
-0.016294974103123104
-0.047380059851266886
-0.08810562222662785
0.07047018891206498
0.038990963535404384
0.026103750608929416
0.03539177358488674
0.0642059121635354
-0.09516768084253174
-0.05258478845195878
-0.01669148681010027
0.0074478136773693734
0.018975228106654418
0.020276140017904145
0.015220728265695888
0.007505449111304612
-0.000306447130267368
-0.006888220033563289
-0.011627213024478266
-0.013929229135254906
-0.012823440411389858
-0.007180312568185094
0.003433928238499179
0.01757668829439033
0.031005083226096148
0.0366836343973924
0.026208670660498663
-0.007371176385619164
-0.06608491631741355
-0.14433753248909997
-0.028575355313967335
0.09978183068036199
0.05873375010241095
0.059505311847113516
0.10236886336594914
-0.023727708973258866
-0.13762094207039846
-0.06008587513604358
-0.008189852343179184
0.008038303264140557
-0.014112381159334986
0.1279370929038498
0.0393047987279198
-0.07428271615064053
-0.006837374163160142
0.048849491440661356
-0.09749102675288122
-0.03300484470476822
0.0574794016570393
-0.010903195284465997
-0.026452325437630878
0.015630677677599153
0.11084396851201596
0.0451051171323175
-0.002747280008641711
-0.05589273108877521
-0.13334016017990818
-0.04488126901828711
0.010752382964098691
0.04377064540973321
0.06820857832745773
0.09597962668185951
-0.06762531612993397
-0.025614248018842992
0.0119505564956768
0.03129177477987732
0.019265943615467473
-0.03228389422834724
-0.12320941959121143
-0.04391445301185803
0.022770163285981783
0.09685731219702302
-0.004889896248747493
0.12589642294423203
0.08707683369144305
-0.1321842999628766
-0.14647527116105952
0.031728964698974994
-0.003671855778223023
-0.05125645663895825
0.0960373814481667
0.047295018293104354
0.009975699300286071
-0.01238048991458849
-0.020529764482474927
-0.018331201065171245
-0.010849352508636747
-0.00261718461262565
0.0034148503852371895
0.006127706306839057
0.005868553087297093
0.003792017618348103
0.0012084266146378988
-0.0008703629692368092
-0.0019280272042810833
-0.001925619252421666
-0.0011590768173591265
-8.262425677948635e-05
0.0008432236711411692
0.0012592181987132712
0.000977819635754565
3.0136081265572994e-05
-0.0013096344505087963
-0.002541677858772268
-0.0030320944891142456
-0.002201661042864604
0.00020181361533860197
0.0038192316288895487
0.007514077855618371
0.009481492574742916
0.007753323067996989
0.0011032099805687683
-0.009827084979227877
-0.021552166337499963
-0.02740237049420171
-0.018233699017942546
0.01569785941130559
0.08205510740369976
-0.016297937147371343
-0.08321373120199871
0.07012537387452011
0.026002866089147397
-0.03767053049005367
0.056117135642019936
0.0880382782545295
-0.1525772735356514
-0.06350472876897664
-0.027734221137511818
-0.015263856183954014
0.011193716197416985
0.0878411559308319
0.04110670302307662
0.08123175178143689
8.520159205325682e-05
-0.026164458227366766
-0.030412832425357493
-0.04609330831005982
-0.09928654785349915
-0.00362795062508306
0.04084962270914096
0.04515090303411733
0.026394877849839425
0.0023452043252494763
-0.013135144504668562
-0.012971404351862684
0.0019991299755004253
0.023503155984384384
0.03775493037159398
0.028702395051582053
-0.017737308348610613
-0.10927778844994637
-0.04403181629731714
-0.009827086747759534
0.013272897202541194
0.04783976881866393
0.11307219970368793
0.020050218980162335
-0.030131969217995005
-0.04497621466904849
-0.036887613412127436
-0.01886684054355626
-0.0011356743444581425
0.010490961745540902
0.014500566220098952
0.012420386690945622
0.007151878630774346
0.0015308374311463824
-0.0025425318303142863
-0.004353249529912462
-0.004156823693616223
-0.002740740728428966
-0.0009827591695980048
0.00045435662319576675
0.001246768299635935
0.0013813405446467305
0.0010421560986221797
0.000481178759029528
-7.857231775259448e-05
-0.0004887067146657736
-0.0006772170302000985
-0.000628051855349994
-0.00036164829747651933
6.959682097390166e-05
0.0005713791076062355
0.000996996850807063
0.0011570129064587742
0.0008658905691486528
2.711524360658654e-05
-0.0012650658719070423
-0.002652693527510697
-0.003527679665074451
-0.003179085779826475
-0.001080713850820903
0.002741473675744991
0.007398214714826174
0.011070119767736548
0.01136254557679671
0.0061561040273548015
-0.005171315546890553
-0.020523696898908702
-0.03444420872999443
-0.038660045494041034
-0.024169459880432172
0.015350911474925065
0.07982091717986826
0.16038348951839887
0.04012366183223989
-0.10131383618606013
-0.08022100325235905
-0.10125853808085233
-0.1532959005677537
-0.011105228323611934
0.15696779791445217
0.17789118038685933
0.06368570545087232
0.00614243203742736
-0.02146128378408988
-0.056498436982870014
-0.13603514863770427
-0.08661107670874067
0.08207919944123297
-0.02185693447038939
0.023596681837238127
0.04752561809664736
0.07863695312055606
-0.060797039042185023
0.04161195392601267
-0.012205768437084626
-0.02899995496230239
-0.021013518135690724
-0.002385455029517925
0.014077231810606893
0.01936050312567891
0.00987931576609318
-0.011667988734293911
-0.03633897423400549
-0.050211403941376215
-0.03720634914683347
0.01661013422958474
0.11811635403898536
0.06327853975838325
0.03622761720272218
0.012395481466177652
-0.034696001802648535
-0.1250316618073958
-0.06513490663813155
-0.045537084425891335
-0.044527534165581466
-0.038125413789567915
-0.0141630283041514
0.21337649206929957
0.19476165957998653
0.24466207413890279
0.05523646697074284
-0.07847448491329773
-0.4263328791978011
-0.5933678181157075
0.09771518585323345
1.405998992150414
-1.2456477143719973
-0.4014510022957133
0.3878336947589281
0.3204849013218752
-0.8994810703732494
1.7057885426066517
0.5792063353925787
-0.14843559347998522
-0.8044149160968107
-0.7018149840255287
-0.4716195257537183
-0.021047561791177817
0.27092942713332613
0.32441813488043597
0.31001192570407504
0.1983842209802764
0.12235460797268981
-0.04132433670957952
-0.2707579700871531
-0.1842689549329272
-0.02077923987128153
-0.022651102569606764
-0.025063261544414107
0.1477152398799478
0.08130874465773037
-0.031528000218331693
0.006960805451634144
-0.001033946223057976
-0.048379296057371624
-0.12266981619483311
-0.007292710375918346
0.11561985360628094
0.0610405995351033
0.03737572871376183
0.04497462981260156
-0.12254078293795087
-0.07495577670080437
-0.02191896649822695
0.02921157362357328
0.07362595370177366
0.10818493017571915
-0.06930102611921407
-0.05988106714846057
-0.0627284581091133
-0.07498837669137727
0.10692644472795934
0.08485781432904387
0.05665229363525198
0.015804811066815444
-0.046258209347695714
-0.13604743306979114
-0.05400183895003116
0.007350609710256473
0.06213290922119592
0.12748516929616807
0.01944037696981859
-0.049866647517402836
-0.07299201958773786
-0.04669145956712279
0.028511988081655816
-0.05220133561412334
0.10070350986803846
0.0700163934463006
0.032317347439273614
-0.03894214647867584
0.03197831642386512
-0.17059845181587344
-0.04879267715721761
0.010487860578665128
0.03302440178142276
0.05134444109550524
0.09740276483390747
-0.003760544517940071
-0.03774437258496901
-0.0015221654812510937
-0.10196968415157694
0.04654006414043716
0.024476131369005862
0.009132319604717526
-0.023432440682271002
0.10397454593769051
-0.027310472454790846
-0.028421872120451497
-0.10003404007679255
-0.031128082777999323
-0.0005377357454851784
0.018543681707789764
0.05216909271818273
0.11938232255535301
0.02829583436160879
-0.02405380765815337
-0.048064553008246975
-0.0556529945469941
-0.05445523043616729
-0.04440517218440727
-0.017966339379121597
0.036112488769756985
0.12701538426731626
0.0564241907034281
0.01576807967086263
-0.012571947516775383
-0.050504226909080914
-0.11779150377023309
-0.026439761764716727
0.022046582276999054
0.03578547734166476
0.02872117523342841
0.015545678222541347
0.007060583637866682
0.007191177814975241
0.012188794704133383
0.01199164063608392
-0.006696965733648291
-0.0563655458475475
0.05535020709482072
-0.071276007890907
-0.026784222008738447
0.006548098387367022
0.05165760865469053
-0.0678456392747
0.0673481479685144
0.06803181696876429
-0.06594788871618422
0.05429556141448847
0.00912143196352154
-0.02533852750562257
-0.07204214241293143
0.05169205174226762
-0.06266301840263323
-0.014024603267345706
0.006624010851808557
0.01250357375386665
0.016215040090167606
0.02512601148131246
0.03831401704080116
0.04611902115977019
0.03277028249256513
-0.0182841803889922
-0.11769689479177557
-0.06435243682892818
-0.042634772263508404
-0.024336665032473913
0.024885760232653723
0.13635345042019778
0.1295130417464501
0.006481234437351373
-0.048147233094419796
-0.0624518728534886
-0.06946162860760864
-0.09953533155943504
0.024726599051692687
0.09011671453609411
0.09176773342411286
0.031211232506419724
-0.08483282688226355
-0.044506155041956215
-0.030549567656147834
-0.021033122656082714
0.008160210108812668
0.07937043315707588
0.008854921387295184
0.003568869569096964
0.060101747339434575
-0.03392770954333791
-0.09653644558487938
0.05279463880553403
-0.0031127344601341316
-0.07666820945491991
0.02533560864035936
0.10115780945072234
-0.04729365843248688
-0.01600031823389116
-4.490981439236635e-05
0.005556861670463071
0.005259266186710937
0.0025549372485622625
-0.0002474694911009226
-0.001995425605067624
-0.002450648370616633
-0.0019341113318022695
-0.0009738532048196809
-4.247327082399019e-05
0.0005784710090455688
0.000816930386641927
0.000751299697306943
0.0005223062173362226
0.00025636544758444384
2.3846123573175786e-05
-0.00016290745128961674
-0.0003217916057742854
-0.0004619756753178094
-0.0005542033163481542
-0.0005266072816240024
-0.0002930520826066055
0.0001917024007033207
0.0008694186982926048
0.001538481476904425
0.0018692993935409147
0.0014969976030130006
0.00018739157603709386
-0.0019656566697074654
-0.004392101269242948
-0.006049006233999433
-0.0056619985748663
-0.002225578172787715
0.004329961777855803
0.012528139468417307
0.019109670146856102
0.019476170192624452
0.008950708993106632
-0.015340877055582566
-0.05257430974533453
-0.09721771691852295
0.060276051565650406
0.03088368775298913
0.02328440857729444
0.04044205782129561
0.07795017904561612
-0.07507244514828074
-0.032745922060544386
-0.007979691205450945
-0.008369150124481403
-0.033787366812450634
-0.07640031082344852
0.07688390624225286
0.040247781726204294
0.02443784313013367
0.03347464047523827
0.0637787858070079
-0.09403009876489125
-0.05143933023234053
-0.01796308402633831
0.0017433046210511142
0.008640020217356183
0.00794840196394854
0.006426198483849056
0.009292061745692894
0.017767835290671136
0.02799798695589705
0.03180659009325385
0.019335301634990313
-0.01696719553928896
-0.07820252194606611
-0.15644646402013646
-0.035414807683059026
0.10493613860154635
0.0809745063258777
0.0979525073228883
0.14594558151019588
0.001464506488361928
-0.16528181329133493
-0.1800543580125842
-0.05534581967509985
0.013967853075590779
0.048527467425948115
0.07721524655941539
0.1279077908485942
0.019779173083526953
-0.040447858583926834
-0.057796062816706545
-0.045125833693170844
-0.018128663591921293
0.008937064859946907
0.02587030035588549
0.027579402097842147
0.014158933061694533
-0.009432951343471604
-0.033920207494936926
-0.04675481426712386
-0.034117290177877214
0.01596508071184848
0.10991432696703977
0.04556894994227554
0.01128640757074576
-0.011991673848818059
-0.04612027070976444
-0.11014041651926028
-0.01569388255697357
0.03499160601040789
0.048167613622431764
0.03554029850030012
0.01064137999302884
-0.014151824871641797
-0.02945292032350546
-0.02979352681567271
-0.014182847635779164
0.01335255339284028
0.04341520001127863
0.061735421760448786
0.051322539199528366
-0.0033814140247762077
-0.11097401474993547
-0.06791345267105679
-0.05596515066552159
-0.04406879069585549
0.005033009726095529
0.12490086499486379
0.13522635404038455
0.03487933016176426
0.000837556004348573
-0.006304450989456013
-0.03179735155680726
-0.11433576415567885
-0.07552752499438616
-0.11448111618483732
-0.009319942774098347
0.074723651392126
0.17328368438328903
0.11112410789713874
0.0949225498124651
-0.08696686936297576
-0.05819337965145644
-0.24463161342141745
-0.06546106237177593
0.07142166459855741
0.16866884708061922
0.035198389104211976
0.08155319312791239
-0.08251764856320776
-0.04760278757955874
-0.0025097296909249657
-0.1325401487722205
-0.01989106569512241
0.1532140377686179
-0.0005463040360534566
-0.07879072087294221
0.10721322711578236
0.1324501105150125
-0.03809564787496247
-0.04222273979774996
-0.11146913610679425
-0.06299549864645836
-0.0952786799152993
0.010664486373098036
0.08480200199158451
0.15865226816105676
0.056349881392351885
-0.010620088379447556
-0.04353854915102897
-0.052148207726729186
-0.04826167155734542
-0.04001463685477056
-0.02883470292686669
-0.009973960828650038
0.023869541916513557
0.07742797029405513
0.14846918836092585
0.026258014340375502
-0.1060603998744457
-0.06587032046668274
-0.06464304980242998
-0.10350608250066416
0.027238364226185464
0.14453441469111608
0.06664027400556298
0.007471362544782194
-0.02660713876331504
-0.036836744813660276
-0.029757461002254015
-0.01402221670365375
0.002352745455239259
0.013635207539955462
0.016921300221871643
0.011976559877866718
0.0008282558390945192
-0.012647112707845468
-0.023200546183652818
-0.025016386637104288
-0.013080211770642482
0.014961876983372674
0.05699364805915833
0.10559969632626119
-0.05087217070296081
-0.025083834623049563
-0.026097713651188112
-0.055044977688694194
-0.10290152031119944
0.048413399365968765
0.02155734825116018
0.03715155148319385
0.10721991018209134
0.030991523075062984
-0.005391871421879821
-0.02509964255863227
-0.05406961107761753
-0.1139807308134601
-0.017126020619964967
0.03525138126732268
0.051026701974627095
0.04293079892314461
0.02390762054803327
0.0037806644565775214
-0.011976228554042758
-0.021553014891195293
-0.02506884085759566
-0.02287257583356102
-0.014754997698160828
-0.0004519810879875331
0.018793370011863576
0.038382163124199654
0.04928828235273482
0.03872331632292278
-0.007062077138891637
-0.09834405202548917
-0.03726353187505336
-0.014742745013306916
-0.010377035174116657
0.00433749532956897
0.06019494896780593
-0.01662530917441578
-0.01087466781975411
0.07749772726710065
0.03216130025954062
0.02283218679798629
0.011164432031876469
-0.04095445244343078
-0.1626709456604411
0.03258007586260187
-0.05020882418641954
0.01025002728044884
0.04530660850359898
0.0880221368772818
-0.034815005927634875
0.09189430954675941
0.07001780164773062
-0.10937336209923534
-0.060727629141858884
0.0020150934461404878
-0.13012192126618605
-0.05987560397161227
0.21418087196505078
0.09362811944800326
-0.02331453470301586
0.05731281926868164
-0.07255444145600823
-0.21902615055035018
0.017029133798827818
0.04051785098572256
0.05945291071679853
0.0805264591357828
0.10535960358436948
-0.07056883772160188
-0.055793498162813544
-0.058681695781355174
-0.08332078801419407
0.07260882200211193
0.017203440296654503
-0.03847906968454998
0.11599573845952282
0.08760375356161733
-0.1212107737485685
-0.11175886434991486
0.11265301387051563
-0.0517343339595007
-0.008492458229046457
0.03884722566932145
0.08643060145710056
-0.06991351473617909
-0.034044616978687776
-0.00852401370515641
0.006121644953780793
0.011424467336389552
0.010294291478176593
0.006009886898612059
0.0013215539230625772
-0.002059049777122135
-0.003527530631806878
-0.003326252471851574
-0.002138181404710691
-0.0007040827002557317
0.0004323027495553698
0.001021807573595205
0.001078947011024311
0.0007800197285340505
0.00034827238855113403
-3.326650761694251e-05
-0.0002642786363772166
-0.0003281574762111362
-0.00026647023303362255
-0.00014461391029848783
-2.2634209800129225e-05
6.156037997135805e-05
9.587765651752263e-05
8.825881919574049e-05
5.671066796889329e-05
1.9827867894724785e-05
-9.355946484570174e-06
-2.5408601830624996e-05
-2.9227215478292378e-05
-2.504051795632832e-05
-1.7320763617753743e-05
-8.781858251996222e-06
3.953554586228379e-08
9.789219303534815e-06
2.0557869410569823e-05
3.0329137137168636e-05
3.451741321258049e-05
2.717851672316852e-05
3.88190300180391e-06
-3.454098510444047e-05
-7.890842260499395e-05
-0.0001112145915728406
-0.00010846151107630266
-5.1297284285930666e-05
6.41143645715084e-05
0.0002150397457363663
0.00034788459579914593
0.00038669813313621255
0.00025767732690682
-7.315111716110543e-05
-0.0005600172745735703
-0.001053647955343848
-0.0013147403101360666
-0.0010796218391207842
-0.00017599706308741705
0.001339237151878326
0.0030752863439093402
0.004306781604725308
0.0041379727142614574
0.0018466887787638062
-0.002657104844799137
-0.008418041079543689
-0.013298800488349366
-0.014351982154538263
-0.008820722411244772
0.004342888286725436
0.022857003227999
0.04006981528572565
0.04525927182646992
0.025773248126149496
-0.029129824403710532
-0.12375205398148871
-0.052454593544648334
0.0010842475258416027
0.06102769930996412
-0.04642214338969935
0.10003445764592207
0.11097333608351231
-0.016559638895376774
-0.097953729965777
0.04347158035443258
-0.0172545875689498
-0.1007154637297882
-0.018973660744998393
0.02571371848105928
0.03931710558960813
0.03252229529929145
0.016757319169604865
0.0010986388138624068
-0.009240082970330027
-0.012857380632924869
-0.011065567315336824
-0.006419234100708045
-0.0014336966384843506
0.0021956089174955938
0.0038233975479914626
0.00366973920397006
0.0024324752654648492
0.0008930408216412104
-0.0003587270444562995
-0.001038680868767848
-0.0011450143238656435
-0.0008553053769694894
-0.0004053500246249982
5.705074590243762e-06
0.00026398471942255775
0.0003450717889761572
0.00028876573671790203
0.00016308858462386975
3.270990900309905e-05
-5.998668422606109e-05
-9.99344678641756e-05
-9.404897589451502e-05
-6.099811766668589e-05
-2.1064744289348656e-05
1.0771220519531474e-05
2.7556366196537048e-05
2.9584227880193065e-05
2.1642235400207143e-05
9.868438027151271e-06
-6.585259167895753e-07
-7.113997608427531e-06
-8.980299409900561e-06
-7.360895625374602e-06
-4.040922059453577e-06
-6.801840455236233e-07
1.6583838583605107e-06
2.620960305996072e-06
2.412737843217789e-06
1.5286345459507823e-06
4.925610630105377e-07
-3.1659585853264833e-07
-7.298582164490097e-07
-7.637570403774585e-07
-5.470473260607579e-07
-2.3934345261310627e-07
2.99860836051227e-08
1.910509078910086e-07
2.333883518870779e-07
1.8740048778347534e-07
9.98659572164873e-08
1.3338725742818829e-08
-4.556976324061077e-08
-6.863364153672924e-08
-6.182534193643953e-08
-3.8238757041886244e-08
-1.139079553859947e-08
9.148890146579115e-09
1.929229007986175e-08
1.969458735921308e-08
1.3807864609157785e-08
5.7774643701906675e-09
-1.1052413133883748e-09
-5.115553937609862e-09
-6.057874858712756e-09
-4.765118850595164e-09
-2.4612570745698443e-09
-2.360319879374693e-10
1.2455549964550214e-09
1.7946169078526057e-09
1.5824226009100486e-09
9.547195198892152e-10
2.59841659234017e-10
-2.6085974990902134e-10
-5.089850559389945e-10
-5.072691241253418e-10
-3.480040201246248e-10
-1.3871434181366996e-10
3.6965995544984784e-11
1.3659881427509822e-10
1.5704537809210889e-10
1.2101196939705514e-10
6.047762178532581e-11
3.316724520350889e-12
-3.388544235870063e-11
-4.685836710914584e-11
-4.045522348525097e-11
-2.3788752326194218e-11
-5.8253040950858025e-12
7.357333094375921e-12
1.3404285061746883e-11
1.3050619188662554e-11
8.757316098413438e-12
3.310012501544913e-12
-1.168864566494829e-12
-3.638353138295441e-12
-4.066374490528939e-12
-3.069212425406554e-12
-1.4812219471414156e-12
-1.4567117784153362e-14
9.179737663592319e-13
1.2217701387055762e-12
1.0330040538230277e-12
5.914366470971172e-13
1.2760395362702057e-13
-2.0568205292154594e-13
-3.524390767087234e-13
-3.354094150271973e-13
-2.2005584411122397e-13
-7.845909057094699e-14
3.558928372445368e-14
9.664355418282061e-14
1.051281293579592e-13
7.77041132712785e-14
3.6110842240912375e-14
-1.4780292600580466e-15
-2.481199837113141e-14
-3.1850214384829887e-14
-2.638278099776954e-14
-1.470742250011752e-14
-2.744741852446513e-15
5.669471441358355e-15
9.214666678244786e-15
8.573563518923363e-15
5.483539190504482e-15
1.8075353926812173e-15
-1.0929691320562928e-15
-2.5983343092571015e-15
-2.75152965836741e-15
-2.0013845074715073e-15
-9.135750623170504e-16
4.868110669178679e-17
6.314389690049979e-16
7.923548494204945e-16
6.361772907444515e-16
3.280625359642659e-16
1.988921809643343e-17
-1.9222489847685706e-16
-2.774160707634418e-16
-2.5573340433345745e-16
-1.731887195021059e-16
-7.787380085168441e-17
-4.200268910892545e-18
3.280664231148312e-17
3.5073466655984615e-17
1.4652036997408155e-17
-1.375721142300777e-17
-3.836193841593258e-17
-5.2887019084290583e-17
-5.650502778842361e-17
-5.209352189801099e-17
-4.3977049979118053e-17
-3.6047224231264103e-17
-3.07082178916766e-17
-2.867336164148508e-17
-2.9363689731658584e-17
-3.1563086263277885e-17
-3.403150117951064e-17
-3.5900419167937645e-17
-3.6807234463959215e-17
-3.682251995877645e-17
-3.626893186992965e-17
-3.552801799191263e-17
-3.4899613786872326e-17
-3.453835617027083e-17
-3.4458788735141625e-17
-3.4582275242477405e-17
-3.479573830377363e-17
-3.4999565139423923e-17
-3.513372237501568e-17
-3.518194147536356e-17
-3.5160724767932726e-17
-3.510217475026446e-17
-3.503826674313364e-17
-3.4990933933601244e-17
