0
-0.0011380509947396212
-0.002614804442595582
-0.0006793668803370261
0.00627210208665724
0.016786523203977447
0.02582670787781919
0.02545446913748462
0.006809185532749272
-0.03698818412817837
-0.10788868982092853
-0.001086822186313962
0.09480799713061347
-0.004463993822918868
-0.08234061443413715
0.0748208038696371
0.07469465830542169
-0.0827193566743748
-0.005076689742960407
0.09404609789154833
-0.0018030588001138733
-0.10825245505999428
-0.036652051011036024
0.008083944710997139
0.027605739802986647
0.02833397081059488
0.018651375725662698
0.006229576421754802
-0.003688569720761665
-0.008794199945327302
-0.009228104166405569
-0.006574611906372513
-0.0028093526236944756
0.00047139438042073054
0.0024122518673152776
0.0028934070324215153
0.0022969468414723027
0.001202450013162288
0.00013300873180652342
-0.0005876174735304663
-0.0008630392783428001
-0.0007709508659670979
-0.0004750522841394991
-0.00014245681185313036
0.0001096560851132086
0.0002322364661398879
0.000234637943749267
0.00016025402151521114
6.048774018854448e-05
-2.421781265999091e-05
-7.296714378336685e-05
-8.375339911490047e-05
-6.715331273275206e-05
-3.8413503106861035e-05
-1.0983362289384451e-05
7.023413623042415e-06
1.3412595605141695e-05
1.0440088581501997e-05
2.4957702974341764e-06
-6.036217385146586e-06
-1.2149748617411268e-05
-1.4683622615193658e-05
-1.4068898647675437e-05
-1.1684547645402095e-05
-9.136293728853233e-06
-7.673281329952424e-06
-7.840837340913078e-06
-9.382750375694898e-06
-1.1367064266887039e-05
-1.250035506267226e-05
-1.1587821602567308e-05
-8.065822730712408e-06
-2.475488184321485e-06
3.316108887069942e-06
6.36119289679743e-06
3.4848060553791435e-06
-7.305232719179128e-06
-2.519797827583846e-05
-4.5400869725637774e-05
-5.9224770357289014e-05
-5.611873340213785e-05
-2.778628495193553e-05
2.643002421269001e-05
9.480562450351315e-05
0.00015183673408602838
0.00016281699795969192
9.560008242756978e-05
-6.207576324259699e-05
-0.0002850081817392624
-0.0005012092412849691
-0.0006002265391506741
-0.00046524303652799347
-2.693234771038079e-05
0.0006748545259786864
0.001447444274514437
0.001951748249864181
0.001784654982096305
0.0006409489414045643
-0.0014788704933008708
-0.0040907442258685785
-0.006184614467820893
-0.006417940459506029
-0.0035891279093485046
0.0026750874314765156
0.011223584854688351
0.018997738304096134
0.02130500177007449
0.012956438169163063
-0.009839342994338501
-0.04735948430679335
-0.09491706366439927
0.057013894489313724
0.02069178637676753
0.007464275112839182
0.023728014460220045
0.06776588488327917
-0.07165491925795067
-0.014675583467078906
0.011934762002264915
-0.021871334986561672
0.05452963589100073
0.01681392977195712
0.05047413985009406
-0.0443478389414387
-0.04885363602959325
-0.1238949030333566
-0.012203857839319005
-0.04544540497330591
0.04448961180987785
0.11223422185023157
0.18722446256108816
0.0670646241881094
-0.08185243693332794
-0.11684095399833465
-0.10747444635270884
-0.12435180227250689
-0.03144380236654357
0.116962146805267
0.2764670600016894
0.21348196232552602
-0.08990517425050293
-0.2266814082484334
-0.1547435897468959
-0.19182832376454956
-0.22099384670373554
0.09140594681951915
0.2682825510383037
0.39243584257129227
0.08482689904465227
0.09835208638653029
-0.07013476125243828
-0.15300235312974833
-0.2783925149225249
-0.14008414749079987
-0.1792121939485894
0.017559538458639123
0.10400093977537186
0.149810630874504
0.21404289567033216
0.32524490366939757
0.0747337821836262
-0.17512178200433862
-0.2713261748567951
-0.2476529961869333
-0.30865056621708864
-0.02719560502298569
0.24322690734449226
0.3468318313543043
0.3042197621550481
0.30152851837702777
-0.10419234702041785
-0.36491901500771984
-0.5155854475511686
-0.3543254354005049
-0.039276032018792255
0.2951313367267255
0.5087574763467729
0.4262761906351072
0.22138692118443992
-0.17724622382285662
-0.25974621369307477
-0.4986760590022943
-0.3170808246685428
-0.07356484737942137
0.12981320902850776
0.21983676218967665
0.31470932628785486
0.2898477176348567
0.1579058152339125
-0.13147586701568365
-0.27370572414154926
-0.18051393598253818
-0.15056912720039814
-0.04816143311320598
0.10555767254282138
0.1291203169195336
0.06887233350038027
-0.01637872724742789
-0.07022375831150086
-0.050910353789085
0.05971428191872503
0.05100413029621159
0.08291600661118358
0.09108610176385959
-0.001991429116124318
-0.07074984719924994
0.03184994336747605
-0.10930426416183883
-0.2617722408255637
-0.14651914348216555
-0.05157988370253371
-0.05712060812849073
0.3336223356507994
0.5666533150338442
0.6229846875828297
-0.5751340109925268
-0.3381612012910004
-0.3729503967076381
-0.3506124593122335
-0.29058023450015796
0.8352659357194433
0.4840191188727946
0.12025402565984389
-0.19775528643733264
-0.42063261985151845
-0.3041433252544358
-0.20773525839716
0.09855572230869857
0.41948683214533666
0.7196020264523065
-0.08211876767923681
-0.10115056260794421
-0.26089404345028244
-0.45980083114546977
-0.5449156197741613
0.29783971106208373
0.3335619350995832
0.2539129499510329
0.14923950794705265
0.0878976704481585
-0.091536056543472
-0.1756820972742902
-0.1644698585145881
-0.058646525061341596
-0.05215432611755685
0.06822209074938759
0.11690816173372358
0.10060357727048895
0.01030667958452813
0.017230612934246558
-0.1264257248823098
-0.08275115441607346
0.07879527396308562
0.08910966443620057
0.08762451025759067
0.031160807610458193
-0.09696598023447449
-0.2795019700117223
-0.06254100393021811
0.03983617836083575
0.13327559492817545
0.12596898288354264
0.11123420958513268
-0.04580380446848311
-0.11522495626168527
-0.10336357246206701
-0.04975163098364429
0.17842557456707692
0.2942124122749053
0.002121692929021337
-0.18691316835618446
-0.13909208340297563
-0.2847286268728332
-0.21410722247457126
0.11490467073118525
0.35936543169512614
0.3705066266084609
0.17840813106685494
-0.21150757744384038
-0.2096119424473645
-0.2264302242040992
-0.25882638719115364
-0.08516334014329
0.328190849274418
0.21232362523896053
0.1804785506215237
0.019628496468062393
0.09330780403556733
-0.04486923878368187
-0.2320354249605761
-0.4789584959584261
-0.16291747375755422
-0.03558184010796206
0.1549698557238977
0.43584403690784107
0.7870568615508922
0.5378093534386438
-0.6125242786883224
-0.7536990037518064
-0.520352731887553
-0.4647324137859671
-0.26097128168880207
0.8580008777642737
0.8442816953542842
0.38169063737755693
0.05631540022187909
-0.23875397539051274
-0.46859965048725977
-0.40656065712303013
-0.18741315975301798
0.1224240954723923
0.13212699138403441
0.11386823127262541
-0.02199693011250919
0.04450665532654136
0.01748228405321166
0.5673715619376067
-0.47653670687556793
0.07688999071037753
-0.008578857213929977
-0.18276147966173104
-0.49728855271139244
0.6009546709625647
0.27095263689120425
-0.32404161052003577
-0.017315511422410324
-0.03706456620650066
0.19703330426474014
0.07779143222437421
-0.18576418828697822
-0.16593642264382263
-0.017007295206203064
-0.08080754229008041
-0.09728243296165792
0.582565981213629
0.18612479546440297
-0.08418228661835252
-0.24516360949642063
-0.32095123611157866
-0.1312995298475307
0.11398098273457975
0.21257879844577446
0.16216713817537626
0.15333657072417461
-0.032407845198343645
-0.2184050584624939
-0.22499666253330192
-0.06281180008468619
0.06887670968307866
0.1778766511861563
0.07146024320214676
0.14968315973687382
0.003120689028665923
-0.1840520029422563
-0.22755779095003048
0.06334242138409915
0.08899904981575515
0.05847563577618821
-0.013949967472477936
0.08739280541960451
-0.022982385461777857
-0.13266847453271358
-0.03140908454554316
0.08874728137066767
0.03267813800530828
0.0011912554199543096
-0.009349991806786783
-0.006233853172971855
0.001478682240921684
0.005423199191711709
0.0004034787775664389
-0.013679210936696037
-0.030947979525483307
-0.04017853250813057
-0.02718212877974217
0.021284059731720453
0.11300240799223911
0.04670720024392246
0.011002860102357804
-0.013414882508119615
-0.048774281751532464
-0.11422050842680441
-0.02098002745128139
0.029625966905370175
0.04489243199607099
0.03709490776971548
0.01919359791927083
0.001438105888127813
-0.010295335134764898
-0.014431951279715818
-0.012456172768889127
-0.007251898674427354
-0.0016569689164786308
0.0024178465809638477
0.004248744616877506
0.004089147613733356
0.002729326725812097
0.001047388780588859
-0.0003048422092996141
-0.0010309722068243055
-0.0011586267976453682
-0.000912044075286112
-0.0005600516098196742
-0.00029503817782934924
-0.00017327364119860698
-0.00012234856967907994
-2.6985851897504223e-06
0.00030205347252846914
0.000797945479926937
0.001330419535931552
0.0015998311935337245
0.0012574187648411238
7.118350141050106e-05
-0.0018826388997665406
-0.0040799721186053906
-0.005555616416542856
-0.005133930313094176
-0.0018986039706945723
0.004187821949760413
0.011723475105834935
0.01765835523276294
0.017715769155960542
0.007561420991490961
-0.015471432494201015
-0.05066765131246991
-0.09305234607272078
0.06593017157813784
0.03606743558422162
0.02512756282760791
0.03606527451037099
0.06592686712973427
-0.09305502834044209
-0.05066773446292188
-0.015467485323165667
0.007569450213733481
0.01772591551299556
0.017666565481780964
0.01172444584069467
0.004176874730396504
-0.001922904621803623
-0.005167245574363663
-0.005586665117839612
-0.0040920836131640385
-0.001858841990321579
0.00013998371854637327
0.0013634045210183863
0.0017123233106376217
0.0013977363258175553
0.0007606845515919495
0.00011788307555287634
-0.0003282728664128038
-0.0005109330453957746
-0.00046991280727916735
-0.0003001355411920461
-0.0001018146575299441
5.272413139513881e-05
0.00013134581968915192
0.00013736721872498306
9.551554259162095e-05
3.637937853288742e-05
-1.5251016467474525e-05
-4.595817053083327e-05
-5.369889288720098e-05
-4.429370708667636e-05
-2.6794531026721918e-05
-9.575991720257992e-06
1.9288051982499735e-06
5.7957885278415425e-06
2.9799779162772747e-06
-3.843639846575702e-06
-1.142958308304267e-05
-1.6832886856306184e-05
-1.7985217137803673e-05
-1.4087893515687931e-05
-5.907205477788257e-06
4.079913828540123e-06
1.1893776970617305e-05
1.2871072262204813e-05
3.2223121896559157e-06
-1.7876963662597795e-05
-4.631578131575572e-05
-7.223687102304166e-05
-8.149670998541202e-05
-6.004770812150404e-05
-8.241041132297199e-07
8.878245319090478e-05
0.00018219332035518352
0.00023559242108825277
0.00019948601789672048
3.97684638883667e-05
-0.00023656021658504195
-0.0005609947156919521
-0.000801582512385535
-0.0007911103391527305
-0.00038901243684761136
0.0004339470374734396
0.001516755688742453
0.0024772778934733382
0.0027725850213318652
0.001873769435430691
-0.0004644078418563363
-0.003916938511602469
-0.0074168452948146415
-0.00925076725439953
-0.007532695216029806
-0.0010478784002932633
0.009722339462265965
0.021773289591205485
0.029433392821592755
0.025315765696590945
0.0024560392251129727
-0.042807490057549184
-0.10822345583913139
0.015428164686924966
-0.057105232364637055
0.09055048974502047
0.07126744692546068
0.09005208944726481
-0.05771257993641622
0.015337047855039473
-0.10721376955318127
-0.040484480775740836
0.005652716957534446
0.028198931898304917
0.030282424510936913
0.018914518844886704
0.002398305919358752
-0.011775857983682483
-0.018265889731979564
-0.014592233317196847
-0.0015051363376653564
0.0168840169143022
0.03339167811918492
0.038859414419784445
0.024361511567526486
-0.015631062289280722
-0.07999998055551277
-0.1591535473512183
-0.03620224963861722
0.10821560082072731
0.08860076262912861
0.10763467841783042
0.15300348798817123
0.00021487705652530406
-0.17887026848310877
-0.20480461655295415
-0.08128921632566125
0.00794802307334153
0.09454594175419875
0.014892408918756418
0.1975226455757088
0.05303476801629712
-0.030185081424232766
-0.0833627646448725
0.050868348670474774
-0.07051804039604498
-0.08024823327435365
0.007013288547430562
-0.002186822340789124
-0.08211671539089295
0.005514235051016909
0.10188806142687842
0.04068803020708416
0.03965880321047847
0.09642199196587524
-0.010301076724452988
-0.11449456413387762
-0.05360883179605964
-0.05903178076451309
0.05123681536743768
0.07642061484980886
0.03337409292148218
-0.04574279386399476
-0.11814866958476941
-0.13779647719645266
-0.06577456901062388
0.11708112580943703
0.19839143776000928
0.3282310892336425
0.2240188839579183
-0.01130024535217062
-0.2605610245044938
-0.5617009077830234
-0.48705614016955273
-0.14313213932587895
0.2055828871026257
0.4952850862304807
0.819245779136486
0.5999739880867984
-0.21017406229867647
-0.6994391210973695
-0.7513937437190993
-0.6053138058153041
-0.24113569113366704
0.6041304200175515
0.9974184849990486
0.7684902218739925
0.0883144628978283
-0.5216994175172475
-0.7546393115535172
-0.6755985967995127
-0.29334603421028044
0.24029530727587733
0.804190554676955
0.6686656770432343
0.062460656546610045
-0.23982338932619962
-0.30694157584090165
-0.4251576401841833
-0.27060438698711925
0.3092151583779682
0.300762948236471
0.11962879120874562
0.001804587098970193
-0.20412422438627184
-0.24303440271256074
-0.059672466946487306
0.1926140152727796
0.1415475134239666
0.18767183061315448
0.10273255532041553
0.03727931841363236
-0.2636813078986611
-0.24190305791108638
-0.11087167488698951
-0.05047968055558122
-0.013760620896585345
0.25657196951748307
0.2076678982673486
0.05935128977453725
-0.004051772557547358
-0.030583004097045768
-0.08776980224536786
-0.04414823562064018
0.04985407575203518
-0.02271302360819209
-0.2369987869117854
-0.12729041751270376
0.0018872113126785252
0.05579004228193129
0.12477857375604227
0.461535630735664
0.0671873493912665
-0.10900749965415008
-0.15637542767824225
-0.18090113882418812
-0.28237102368792083
0.0624310437095661
0.20705671446388937
0.13427650589574677
0.05059826754482639
-0.01923044085388696
-0.03552757068560391
-0.14533503756910535
-0.08468527536833703
0.01623842384935479
0.02415583469231811
-0.00891362889129817
0.14289437210563466
0.07149209057015637
0.13380679706557044
0.05919027557174815
-0.03533868547360396
-0.22531284507341554
-0.15998753534269805
-0.25057131920186615
-0.06990080842444321
0.2359375966838173
0.32825310384128514
0.2562877383634212
0.04536209942645756
-0.10336792130498944
-0.40331285937575767
-0.26953343932465573
-0.11017168029251898
0.27326013998426063
0.27794695199408015
0.2903445515458768
0.08257537704688224
-0.18129955851054386
-0.33078132560598517
-0.17271482334940788
-0.08122939290347961
0.0009481298791981196
0.1495859153941975
0.23892182736885434
0.12144555215506031
0.013927917467601528
-0.10676029417909284
-0.09829231905558333
-0.04109678612724229
-0.024058751366831454
0.06936211148988768
0.17334609471811535
0.050141634932912675
-0.10159369476223544
-0.2422715783850442
-0.293974527563771
-0.15347820608926843
0.08372340134230022
0.29272512305844334
0.4911331724668644
0.42506160454545655
0.17808717055499584
-0.19527281867765428
-0.619709963619849
-0.5491229404931577
-0.3350998787825946
-0.22748216847858085
0.19022523870953537
0.5402334642691343
0.5836483153623682
0.5694628713008143
0.21671425571244532
-0.26389758018219134
-0.5162478327914521
-0.5712582728084924
-0.5881434510346404
-0.022648357912289693
0.37043449768324227
0.5061102251245625
0.3244754076163193
0.1496897328637517
-0.13531325949367076
-0.29516573898026666
-0.13404110462088026
-0.08142470459932477
0.02121630098438457
0.1295402263784758
0.20173067747179124
0.0026880875621016938
-0.09092400610030599
-0.08484795227543084
-0.1629159870947398
-0.08733714835665309
-0.005491982093942735
0.1374297257390691
0.1833754518495911
0.14902504038185935
0.02067156740140118
-0.041465185056453226
-0.09082668018609082
-0.1782597469071176
-0.1373634844933512
0.0239986735583318
0.12397318225440115
-0.0002358899687582259
0.09662048980322505
0.05642685090521874
-0.0913977067582391
-0.1355327613511452
0.11500594571880002
0.03165342374481301
0.1702763065068567
0.07894990422234505
-0.09055369509787604
-0.16952003870162163
-0.16124368460836752
-0.23680064561389078
0.059302008158575926
0.19406163010509608
0.22597942340397323
0.1871177182664317
0.07374980011741696
-0.1512357744585233
-0.1456705173511908
-0.170400188078766
-0.07294935624386986
0.12259769395640355
0.01781681779336761
0.03556499936523282
0.01181850241964157
-0.013516127034159994
-0.0049038849789256635
0.06251401327828215
-0.0007535797366459419
0.0007390517559729173
0.04956990418677474
-0.08001416229483094
-0.016282738500646248
0.015743207764751025
-0.001218513486979541
-0.07431135217574208
-0.0005520047391932619
0.030892612890648267
0.03482501017557152
0.02567932925599133
0.01402084987702483
0.004824070839096547
-0.002203374890262854
-0.010658032778466227
-0.02471106581964852
-0.04666849474422267
-0.0757553199894424
0.09141438123111957
0.05899914045417757
0.029804126722502936
0.004156736969572597
-0.019522825471244787
-0.042795935917762255
-0.06508200642332762
-0.08266492163877139
0.11040208268509644
0.11979658615914256
-0.05186242863676963
-0.006581496915374742
0.04940848069724343
-0.09233939953315437
-0.03993912494780148
0.0007697250662199036
0.026848732993415177
0.03762767428383816
0.033557050673490234
0.015482190985070123
-0.015131556224602676
-0.05522417879875802
-0.09924943937835654
0.06066351108480947
0.033056396944707446
0.024493875012530225
0.037133374115920055
0.06773207850214255
-0.09135286019785915
-0.04956050965439616
-0.015067188096402406
0.007427991432151455
0.017326350504608602
0.01726520466456512
0.011460129406979741
0.004050536511355715
-0.002008187156902261
-0.005329530875987204
-0.005882234758688627
-0.004457232714466969
-0.0021021474476198686
0.0002805706660108242
0.0021030319246475864
0.003070602110829917
0.003073998015016079
0.0021041688671787637
0.0002571278625919621
-0.002172733021923755
-0.004580817600347033
-0.00603365637854571
-0.005448495970593175
-0.002011659165716414
0.004237513442659832
0.011860641519885506
0.017808095037166776
0.017826770189445618
0.0076132967071875805
-0.01547314419973299
-0.050702736233289816
-0.093097607150414
0.06589258528132459
0.03604642589649707
0.025123593272544494
0.03607332477987367
0.06594001248953069
-0.09304275835441532
-0.050659844755813074
-0.015464827746937599
0.0075679682730623934
0.01772227648495912
0.017662696791011633
0.011721639106918882
0.0041756163234342066
-0.0019227899371098128
-0.005166297607556651
-0.005585486593498416
-0.004091129352153175
-0.0018583310027827527
0.0001400511275686267
0.0013631684068606893
0.0017119708909539135
0.001397427530637165
0.0007605115863532445
0.00011786333755333078
-0.00032818049792800326
-0.0005108008541712322
-0.0004698156806603178
-0.00030012699046560147
-0.00010191009315461947
5.2555200656596726e-05
0.00013117641790172532
0.00013729567108608943
9.563335116039977e-05
3.672809609904119e-05
-1.4722467811279905e-05
-4.541687671067104e-05
-5.341034467421372e-05
-4.454795160297023e-05
-2.7778958555628187e-05
-1.122542862235047e-05
4.482819798882847e-08
4.471899352713731e-06
3.194478316609138e-06
-1.3039679560931973e-06
-6.467801676797464e-06
-1.0489517887824263e-05
-1.2585294194146944e-05
-1.2840571443792472e-05
-1.183745307909683e-05
-1.0271176887158958e-05
-8.693052457353231e-06
-7.4250707183643725e-06
-6.611970253405311e-06
-6.330483121566486e-06
-6.668901666875506e-06
-7.718112945833467e-06
-9.465835500281605e-06
-1.1642647761281549e-05
-1.3612765608527806e-05
-1.441557420362848e-05
-1.303105209760425e-05
-8.859716919734876e-06
-2.2899671692477875e-06
4.890623584467016e-06
9.543016656881418e-06
7.929905720916686e-06
-2.78870850907031e-06
-2.262783652260715e-05
-4.712145549040091e-05
-6.691530950856323e-05
-6.953572666986778e-05
-4.3725774589831816e-05
1.429903905519746e-05
9.46456110641287e-05
0.00017067707694173702
0.00020241925477688594
0.00014851795742749514
-1.4182518362624133e-05
-0.00026866463493633837
-0.0005428041487676721
-0.0007129211943809479
-0.0006347878295012842
-0.00020273389303511732
0.000575992301468501
0.0015194397141499796
0.0022595527091949065
0.002316085959527028
0.0012689894833987987
-0.0009985674502563096
-0.0040656128253011405
-0.006868737806581219
-0.007856896472539048
-0.005485372465583702
0.0009868207289200812
0.010592937767363265
0.01999724810005405
0.02348951497341518
0.01394382782876519
-0.01525388423144037
-0.06773852809830554
0.05804778824313216
-0.030055166440158168
-0.11858569964017925
0.008944357403701704
0.1679265172811286
-0.03185015795990865
0.010548831681280233
0.08656485608005718
-0.019505348398758504
-0.1259410890116169
-0.04842787426787563
0.0038326236887689345
0.029430086268789568
0.03338093555228682
0.024114249242196514
0.010234762182088013
-0.0018233519977193854
-0.008783515790304121
-0.010283392084206028
-0.00787835817502744
-0.0038401790793225806
-0.0001713967251222867
0.001955562097694605
0.0023214950447305047
0.0014572351562779882
0.00026912852015689807
-0.0003669227310789777
5.765285014444171e-05
0.0014806935296265544
0.0032415255199011684
0.00425506775655659
0.0033869561350262744
-2.461695123746183e-05
-0.005633944256332242
-0.011754730440743077
-0.015482619168053898
-0.013471727264494488
-0.0033816858408134134
0.014281785557441634
0.03453207061625318
0.047276634019719724
0.03842366436404476
-0.007036955322683828
-0.10055157361293116
-0.045526305263694555
-0.03461181127011378
-0.050013419371838556
0.13311770801113834
0.1414970446157301
-0.0012786909809445572
-0.07798898242264514
-0.07931752888763313
-0.2052075834774309
-0.06795308708678997
0.10245482946589946
0.2528163578395381
0.30555496416563216
0.16685643515751666
-0.05351824009963212
-0.213466992087805
-0.3089520997034669
-0.4547724788454669
-0.285873725255667
0.015959234866821246
0.2734438856145853
0.4550766838708006
0.42362054279282574
0.5088750373357914
0.3156125376594976
-0.6329631775706953
-0.6275913210350413
-0.3010787524689379
-0.1734296605453221
-0.2285604850269849
0.27391476186520936
0.3588367834924835
0.28121968430376887
0.07266595819793364
-0.09973833849547664
0.04359888893929751
-0.1102615869948865
-0.057496198202547914
-0.1583519261903949
0.18827259407907893
0.37449006000360696
0.21657625678737594
-0.20981695794076305
-0.3371547782495476
-0.485312343783524
-0.46356793748810476
-0.4028052006898307
0.18317528720869744
0.7197225656116637
1.0993419156167994
1.2419554393565035
-0.2929523840820908
-0.6398810920447612
-0.9257453148497357
-1.1681375813334949
-1.01006658962
0.6857071876646242
0.7826268845703829
0.7792010039013403
0.7158328391954882
0.31190022364904785
-0.24960791852900602
-0.49180381889878194
-0.5855313089655001
-0.48765980352386673
-0.29816854476846577
0.15201879877899172
0.4836894335620756
0.5349587588838728
0.32755091774172823
0.0489778820893945
-0.14270873344337043
-0.29537824855857137
-0.43214262349438287
-0.32776280736332897
-0.10329782011193232
0.15707346460358357
0.17180920170664327
0.42205981856558905
0.5205593871890246
0.40161907992002593
-0.462448040012294
-0.4229163706832956
-0.40761507443442835
-0.2822811708827492
-0.2336611362294134
0.4212012722749582
0.404991831246663
0.2418667583565564
0.024615773337113515
-0.003325288555460732
-0.04865194720137574
-0.1556088962662307
-0.18722331465326503
-0.20787591624066495
-0.07271301726377435
0.1743215606901364
0.2964246413610774
0.2597042411154439
0.2350038614556737
-0.19125519574821243
-0.39994135907172285
-0.32387887954504607
-0.24437309875005078
-0.2066697705805972
0.1455627460706032
0.5248463577706635
0.5579894111809524
0.36366115487773853
0.1608593092147626
-0.09018459055377825
-0.6248136386644508
-0.8076922595558992
-0.48546141555817635
0.025142981340907245
0.3094677624367838
0.5975619525686645
0.4975595135185452
0.3419783983719345
-0.037431283046356865
-0.3020873073967093
-0.3734481275586437
-0.1887017474202155
-0.060435267935544205
-0.05100022900815044
0.03435763224631624
0.03737862898638914
0.025090616161473237
0.06346976823924455
0.19346415547932447
0.2154658602517412
0.08643824780670194
-0.06915217228643965
-0.1374164405230091
-0.188624439295135
-0.25458665272797926
-0.11720652293277975
0.08786664559245588
0.05336282792102632
0.07368229163467305
0.21743442542247754
0.3075655900365902
0.11543688114029928
-0.028650617034051012
-0.21113391901420117
-0.30468374063865145
-0.3418326852656532
-0.10201937362240135
0.08336851246480925
0.3100454487830057
0.2719848302035186
0.23527264929804084
0.023412338014950757
-0.18241991801854512
-0.23084662176819765
-0.18252750395201647
-0.09504540673675363
-0.01568659880724958
0.2171534576021812
0.1674618665058843
0.19576093702356498
0.059074320213181604
-0.08127401978132605
-0.24626004477402677
-0.22584206290680436
-0.17241262774342883
-0.005615306888902371
0.17131907657356224
0.2484563246761781
0.28716310272981344
0.10706541708943916
-0.11362054356156905
-0.22532990714594053
-0.2877922625774958
-0.15198942060379847
0.15033605404315745
0.20780177421961937
0.22393919048884897
0.010197619617887375
-0.21880234961273437
-0.2473226487325893
-0.060211209163800634
0.1533254267255187
0.19404170794045852
0.24827676642456603
0.08906164772047027
-0.11523636253365953
-0.3868249598912699
-0.12481688657808468
-0.0988803909881365
-0.05457469509246296
0.07010715593759152
0.3222912294320028
0.31412788814169745
0.21335331901513094
-0.05044316042661895
-0.1646403123162258
-0.40453511423511535
-0.40731074236293363
-0.15940178963672189
0.19741669503427917
0.34362601219917815
0.3526451121786224
0.26683916440689287
0.08843608820188123
-0.21186340501167605
-0.4736261329511126
-0.3233339082446543
-0.16025064373163453
0.04165748924252246
0.3166169035729289
0.4829418067907668
0.32369340265028784
-0.017961199029909
-0.2253000631022094
-0.3813831066341684
-0.3400175508821587
-0.10604589610664039
0.16770883501278053
0.1666169380196012
0.1896473880872793
0.1230071114037492
0.019941874347917336
-0.10898860576088248
-0.09489789753390597
-0.0013464175371977992
0.08977769859272272
0.09468500455199647
0.14478598065326204
-0.1972230358558406
-0.3252409294462347
-0.1858721472163019
-0.08654693091951057
0.0838417206704558
0.42632638198778294
0.40406634840765787
0.025032960412182313
-0.1586589741234073
-0.23508744822102842
-0.10687861369462659
-0.06448131346137165
0.034171800753396424
-0.026307628815480825
-0.019570943743248356
-0.08753940408912683
0.04313390423017769
0.041634941677987584
0.1547898732014686
0.19463377156710945
0.13556940541782997
-0.07727546423221304
-0.11031542411695469
-0.21970630160056587
-0.23273226883514062
-0.13896504948185323
0.10549616040628981
0.1621603726799375
0.2885107567258116
0.1185667235895845
0.05244269249550191
-0.1421521633097141
-0.11821727591904374
-0.13273760749679644
-0.031027653877093258
-0.03676480686696338
0.05040776400279688
0.05051986714322578
-0.005264407225206987
0.11581464082815439
0.0403695731730852
-0.015304590532037365
-0.045418142053580676
-0.051849550704909105
-0.04011535450988034
-0.015992756980227053
0.01611978452777468
0.05309604601176571
0.09209006900478085
-0.07021516894733064
-0.03744009823760102
-0.01257339273694896
0.0030044053777011012
0.009883094933489258
0.010220072886674276
0.006871192709122873
0.0024919704986677456
-0.0010689099255792203
-0.0029680837782095366
-0.0032194675804399987
-0.0023554194408326994
-0.0010621039251076055
9.376705985884496e-05
0.0007982871248984033
0.0009950947465987288
0.0008078980345995664
0.00043536885607054133
6.138072284341244e-05
-0.00019706842871117382
-0.00030187966000679175
-0.00027681091140650165
-0.00017737788337212756
-6.189153289750993e-05
2.774661905777805e-05
7.308251452022519e-05
7.625261177737358e-05
5.1755945789902635e-05
1.7393057946400514e-05
-1.2496875654569208e-05
-3.023593515359221e-05
-3.47550835371166e-05
-2.9500264720793272e-05
-1.969965796711546e-05
-1.0078836114265564e-05
-3.5717926850991654e-06
-1.0640232935467352e-06
-1.8687389349717895e-06
-4.518463587797685e-06
-7.509346913051165e-06
-9.783462146366148e-06
-1.0894924258332532e-05
-1.0924149065151477e-05
-1.0259487563021438e-05
-9.363035443091214e-06
-8.599456262482538e-06
-8.15805318868193e-06
-8.058142825003497e-06
-8.20546180608998e-06
-8.46327468439386e-06
-8.710610402346798e-06
-8.874194576139607e-06
-8.93378049542338e-06
-8.908986007002752e-06
-8.838533302713553e-06
-8.761155998745117e-06
-8.7035159064072e-06
-8.676324088223651e-06
-8.676863285510743e-06
-8.694773762701967e-06
-8.718097961788326e-06
-8.73760072540111e-06
-8.748647346092729e-06
-8.750947821498182e-06
-8.747030812584478e-06
-8.740394484689295e-06
-8.734039373205373e-06
-8.729713471172874e-06
-8.727854947705958e-06
-8.727997757963749e-06
-8.729332902004527e-06
-8.731164981127623e-06
-8.73311833216662e-06
-8.735077680861445e-06
-8.736956145696534e-06
-8.738445526488098e-06
-8.738909926907949e-06
-8.737532992597963e-06
-8.73372939763789e-06
-8.727702647668097e-06
-8.720909222563881e-06
-8.716123256935278e-06
-8.716839679551316e-06
-8.725942528813835e-06
-8.743889023882878e-06
-8.767040266554191e-06
-8.78705565801997e-06
-8.79226841876312e-06
-8.771510354591608e-06
-8.719916491462377e-06
-8.644992541499069e-06
-8.57010406815749e-06
-8.53217017238883e-06
-8.57133516139468e-06
-8.713053659833163e-06
-8.947016247113861e-06
-9.211468863175178e-06
-9.393784929851103e-06
-9.35644174293714e-06
-8.990344471016878e-06
-8.285091567431461e-06
-7.39138639079703e-06
-6.640278620847686e-06
-6.4846955898677996e-06
-7.346972733736627e-06
-9.392962105918154e-06
-1.230142622352176e-05
-1.513962776156298e-05
-1.6468066171457208e-05
-1.475574902496009e-05
-9.081588605941473e-06
5.766156618517836e-08
1.0169257328635362e-05
1.683439992582194e-05
1.4767960654623454e-05
-7.975390617234743e-08
-2.781015262066841e-05
-6.223467786596224e-05
-9.0273755064749e-05
-9.440290513723079e-05
-5.8709210296482996e-05
2.233102254614283e-05
0.00013509969246791926
0.0002424373693558158
0.0002882915326506725
0.0002143733920471954
-1.2415336077978456e-05
-0.00036905065783419375
-0.0007551580433119545
-0.0009975794508010414
-0.0008934525863912477
-0.00029291632531868594
0.0007963339778394445
0.0021215165071113646
0.0031673257533660635
0.0032579349954691148
0.0017975771616280407
-0.0013883720247875506
-0.005721657069208916
-0.009718158708444091
-0.011194258544033315
-0.007942883693471537
0.001173978028932344
0.01499864357713396
0.029217696588762332
0.03646168563048815
0.02780611636032748
-0.004340788326736182
-0.06266983961957856
-0.1420997728257816
-0.029200276761912548
0.09512758071235297
0.050177896845839405
0.04910838716520878
0.09424989169020259
-0.02412173355690226
-0.12520774129184034
-0.03246291533428491
0.03231806877397454
0.05391514678330855
0.02683897348046339
-0.043327103634295636
-0.14047055718099832
-0.04079495759455708
0.081763773517077
0.048286919110722124
0.0678397733801995
0.13333540015902953
0.022368719760566234
-0.09655373425538223
-0.05401825941907256
-0.06920579382700741
-0.14262464565737826
-0.05489611627517982
0.027536065832688257
0.14131413806127546
0.11336820405579902
0.15104846467403985
0.0390059963310345
-0.0557849709086924
-0.17257257013926391
-0.14315241998061412
0.019015638519648024
-0.07686587083410379
-0.0023322480826955226
0.0807552450161381
0.2078899532564588
0.0010665605806254343
0.0629499693874656
-0.022307426284851946
-0.08245546830699117
-0.14758318627254502
-0.04120758303516211
0.025041366792122034
0.05195986629916657
0.04936732252691519
0.03087302936776481
0.009025993041080569
-0.007723504603008666
-0.01587736985026687
-0.016015778287566482
-0.011047218319616452
-0.004414962562803791
0.001184956057786249
0.004373176303504166
0.005033363300683086
0.003883471994344889
0.0019443202155269932
0.00010917930995293712
-0.001088492270986713
-0.0015095861140873709
-0.001308077641805227
-0.0007754694343927228
-0.00019942964664690837
0.00022448326518645638
0.00041996592262634296
0.0004099644350960417
0.0002730694163426308
9.857442794241559e-05
-4.529788801577983e-05
-0.00012493019066541457
-0.00013908359843229433
-0.00010739242774630137
-5.6575685099465636e-05
-9.503419018607076e-06
2.0521191791429976e-05
3.0396583286716736e-05
2.4443316284856056e-05
1.0330986224425564e-05
-4.5432912733630055e-06
-1.5261398291099322e-05
-2.0007377172269728e-05
-1.9494437097315594e-05
-1.58137800307391e-05
-1.1276534717721729e-05
-7.612403026308595e-06
-5.643839895651622e-06
-5.362672108894883e-06
-6.237448583400361e-06
