0
1.0925067513272255e-09
4.528510096844049e-09
7.724936880717647e-09
8.967471292658927e-09
6.509669734773195e-09
-5.850074851481829e-10
-1.1511558768195596e-08
-2.3109316334021057e-08
-3.0052280006212186e-08
-2.6217042418528362e-08
-7.2376773986462045e-09
2.6322554429704963e-08
6.638773808779436e-08
9.698868684134541e-08
9.755135275146126e-08
5.036329327384243e-08
-4.903634549036926e-08
-1.8196680483515983e-07
-3.0237982710265276e-07
-3.4366814281736725e-07
-2.395576754979567e-07
4.303797392373292e-08
4.6844878184989096e-07
9.09918789302813e-07
1.1592046788796527e-06
9.819041382881787e-07
2.1779015687161697e-07
-1.0971725000841875e-06
-2.634675601784329e-06
-3.7661785953830173e-06
-3.69840083535894e-06
-1.7686446428633996e-06
2.152820710522377e-06
7.289474897670727e-06
1.1815214112486069e-05
1.3145078306203675e-05
8.768704011997904e-06
-2.4692235338621166e-06
-1.9013097536751288e-05
-3.578951962703151e-05
-4.466573344985858e-05
-3.668186293090101e-05
-5.986446028229672e-06
4.547558059962737e-05
0.00010439600373652142
0.0001460660796722692
0.000139935929681006
6.12792554536079e-05
-9.324146088319768e-05
-0.0002915159184547965
-0.000461235273384209
-0.0005021923043354611
-0.000319464370594049
0.00012675929536789404
0.0007696123522262685
0.0014066710403252186
0.0017211882814238294
0.001372105492120292
0.00014844435463933902
-0.0018506299821379614
-0.004084013673834641
-0.005578498751302833
-0.005158651467626861
-0.001913567482112916
0.004187089081691314
0.011735318314236493
0.01767742571115055
0.017735709628500396
0.0075770373300263405
-0.015462821318718435
-0.05066568520699092
-0.0930538180369979
0.06593045853527614
0.03607516284107547
0.025146833745907007
0.036096342015160494
0.0659643647752543
-0.09302234440557135
-0.050654755328811085
-0.015487622157293185
0.007511546091399537
0.01764154033488527
0.017586521872872456
0.011695131712019444
0.004246481622093539
-0.0017270512493637606
-0.00486420842907363
-0.0052593849744388245
-0.00388356539595022
-0.001936550001652366
-0.0003475632817181248
0.00047260974756447975
0.0006274122213553141
0.0005449632358634928
0.0006996336369988447
0.0013436531171088391
0.0023346743270842804
0.003122809494504457
0.002927236291107004
0.0010831937401746302
-0.0025251817325243255
-0.007100302801812078
-0.010836054122233972
-0.011282083350571855
-0.006257430037893576
0.004789030301007185
0.019317905105768706
0.030689366965444
0.02819844743407784
-0.0014662044802792008
-0.07143006672412201
0.008871569951704794
0.03700390245925803
0.019859685152851022
-0.025492788624900495
-0.07283573813254636
-0.09019990305675477
-0.04599619352266585
0.08256808507125206
0.10063416328575199
0.18950823556491792
0.10643740902553829
-0.007839563079043231
-0.21479638046124963
-0.1611656968059195
-0.0651159350261942
-0.1106547421252692
-0.05253996351032019
0.16968364698671456
0.2130902799969361
0.11452930723467254
0.08143417223298273
0.09357250166831406
-0.08486902015430804
-0.28724596965151716
-0.3272824346119728
0.010321158760294484
-0.03262405833709587
0.19858172765688822
0.35242372396871097
0.2546324069603852
-0.09895162410851734
-0.13766274155381428
-0.3025552142886615
-0.2311467246179547
0.05260393299443227
0.1395133720836871
0.2289066440809703
0.11975577353299634
0.004578510676923115
-0.13100255720297416
-0.10372305896761473
-0.1264445848169481
-0.003925685359320982
0.06730817265723005
0.095364436340746
0.08796664195852491
0.04884522577743441
-0.022653672194684876
-0.12881968341137354
-0.06953543258822291
-0.039540094248748076
-0.028970882146766387
-0.02749199335551082
0.1695816934031095
0.1561601782114325
0.11457882935469148
0.02127332022946638
-0.1415445917556102
-0.17180142317447405
-0.23675457163461902
-0.07101528330036973
0.013641489701853304
0.10786221806436465
0.07891723052816883
0.34715128283693814
0.0723214774802491
-0.044890233526638824
0.2550595924464514
0.2216106044036039
-0.8692090263847477
-0.4829066075225685
-0.010488240319002286
0.024789051627435242
0.13944599972568358
0.8511298492475866
0.4444859558661914
-0.045238298708295606
-0.4257776166393227
-0.524374820945784
-0.36093553653795474
-0.13213809703859294
0.18579420620125311
0.41781704268190684
0.3645132963333053
0.18327562178081988
-0.013988528151368737
-0.14402496549328034
-0.12128398515498966
-0.22286931434369545
-0.26058125141007826
-0.16905348540714546
-0.014478683858488932
-0.022726118595148705
0.1799551143609437
0.5245859190893392
0.4677962916660032
-0.019176136480386678
-0.2372418621798232
-0.32699361120276543
-0.4290246620400054
-0.2508801711724085
0.14953307690722262
0.3619471690604417
0.20864360297809917
0.1257931509332604
-0.05032638960990069
-0.08846200320318019
-0.1602362162117115
-0.03518650435826554
-0.07778713761224028
-0.049497227890163725
-0.11626688304682734
0.14064075777603355
0.31479640898667605
0.7711804008000892
-0.5464437761927999
-0.2974418486146367
-0.3219717656341351
-0.22494153001550884
-0.5751552985828764
0.8783186744694963
0.57910940283479
0.13841605151418687
-0.0758283886809235
-0.13003909907526104
-0.30025796653107917
-0.2419590155785708
0.034354846309767643
-0.02610895275543401
-0.12805477345549013
0.05389610888831608
0.04593099897286614
0.14339961527033296
0.1844472850922674
0.3360440538033533
0.09723384260662087
-0.07973437141291671
-0.3550828504490797
-0.26344823425541586
-0.28343712135512034
-0.023821582662660497
0.17036629700795772
0.19534279736458995
0.1581448039226517
0.14814469773683575
0.018304244538253196
-0.02015384517923694
0.009678758272521897
-0.1333752342190184
-0.08919986228428815
-0.07966459655066409
-0.09921312853052891
-0.11527831688119088
0.12164698571884622
0.06118623654722843
0.13456547996172954
0.14033713071607362
0.23938536387828727
-0.03826902697345475
-0.1759874976609548
-0.2472819690248497
-0.09422407661302289
-0.11465685954140127
-0.06239289226629663
0.1397684169089601
0.17838523386104616
0.1257075510065197
0.020844638906051698
0.060644423557137735
0.001975171889891789
-0.025998790919819055
-0.10315308799781121
-0.09806963483130077
-0.05076715231610122
0.037839847724600896
0.007917652487539707
-0.06583726405170277
-0.08794517858658464
0.03897195488658018
-0.007093249197351084
0.012453156948171853
0.28260307595915557
0.331065573622292
0.03857890489546734
-0.1365522069407585
-0.12429493870312423
-0.4082083790967711
-0.40114642907468595
-0.04007155833636041
0.19707546508749893
0.2570168091869787
0.2700522666793402
0.31513682872507953
0.0013514102612557706
-0.12998015831313056
-0.18505166882859006
-0.08680284776606349
-0.14297703492785052
-0.020911449679259876
0.06631239469816866
-0.03880938199515498
-0.04799710694724197
-0.04528053352307563
0.09007253387828604
0.0597514590307136
0.12610322020788559
0.09954667932123244
0.13666810240334168
-0.050323870947110945
-0.17497630386762594
-0.15361290988370707
-0.08407602067728841
-0.03142085289379602
-0.023116528408747186
0.14697045665188374
0.10911537110132526
0.10720246615416378
-0.009095179995142429
0.012331636746719037
-0.1736561587599408
-0.10823039120683804
-0.12979600422639884
0.02024428611981352
0.18750946493633328
0.19351639197564444
0.027970900605073692
0.0482951206822003
-0.012468391646022113
-0.23147172865289956
-0.0799901987636877
-0.010362542222338088
-0.049476470108760155
0.00018817994202655682
0.15346903371051093
0.03253893922762582
0.057624839344517016
0.04126435213172416
-0.012673083636259037
-0.10579307453720989
-0.039791926711979
-0.011390180751155873
-0.009634931684657061
-0.016490509415184023
-0.010428768402808628
0.028152326546405128
0.11137044980960582
0.040011336668039604
0.0028740498158663116
-0.020226917502132905
-0.052710832350117365
-0.11473053558048839
-0.018199268425282196
0.035061128570420506
0.0518119154681967
0.04366494252505581
0.02295092953148746
-0.0002458710780618164
-0.019212570603527105
-0.030183752336276744
-0.031274159358916316
-0.021766151251741663
-0.002370319461152585
0.023583791635847198
0.04874622878334744
0.06126315958176458
0.046253056803494605
-0.01039071824660042
-0.11662062598806149
-0.06913858809419322
-0.05091031678233916
-0.033007506779053356
0.019051988669514987
0.13612406253526996
0.13642142149537737
0.019917691339310116
-0.03168266928119433
-0.0493868050391928
-0.06787763835961576
-0.11624562773493859
-0.011512554141411016
0.04333890391609586
0.05692189232754784
0.044231596836411306
0.020956003898915485
-0.0007831499548858451
-0.014364094498737446
-0.018410230633353772
-0.015137619234834278
-0.008270292595298531
-0.0012933869731937507
0.0035572403301101785
0.005535897614447452
0.005071561222484187
0.003201179847900866
0.0010216691884118352
-0.0006751481642304082
-0.0015380359491469159
-0.0016044274611710422
-0.0011462096299629462
-0.0004989364449833866
6.614167994714171e-05
0.00040302589465594703
0.0004904891881802187
0.0003928710394784889
0.0002085905720951199
2.6942176385909595e-05
-9.639649947500593e-05
-0.00014437937451166962
-0.000129718992438053
-7.999298702078307e-05
-2.3585207373470553e-05
1.9461168467104242e-05
4.063032828746023e-05
4.135563576221096e-05
2.891869224888583e-05
1.2030989712650102e-05
-2.407491592891869e-06
-1.0794258304862468e-05
-1.2736279277329374e-05
-9.99363295004776e-06
-5.140030798224531e-06
-4.6200576132866485e-07
2.64764338906587e-06
3.7947687596610706e-06
3.339131524170729e-06
2.0053299907794226e-06
5.242377954809771e-07
-5.943191949723152e-07
-1.1355073227664668e-06
-1.134661326738866e-06
-7.732185955970149e-07
-2.715336681780571e-07
1.8591166062776403e-07
4.825289561207177e-07
5.682850447097652e-07
4.437131796120877e-07
1.4641921456107758e-07
-2.5201791327335665e-07
-6.426971227992706e-07
-8.825782046024186e-07
-8.190494297913966e-07
-3.4333010993129167e-07
5.354257720895028e-07
1.6224385468704504e-06
2.517468659546332e-06
2.6845031344059207e-06
1.631251100243591e-06
-8.253476844418285e-07
-4.288990739675282e-06
-7.6409018397032e-06
-9.1692885871188e-06
-7.066723753997253e-06
-2.643188922242568e-07
1.06129487433246e-05
2.257054777548424e-05
3.034403776689983e-05
2.767529039315121e-05
9.81943933566087e-06
-2.3238530298674083e-05
-6.403092642210335e-05
-9.694417377821943e-05
-0.00010118517811092999
-5.802214532027969e-05
3.878745506356924e-05
0.00017267088920453033
0.00029916405979427764
0.000351633997922279
0.0002612475473489553
-1.0385652971560423e-05
-0.00043462567315244314
-0.0008910095373227068
-0.0011733121321709896
-0.0010413705229777492
-0.0003196709596474466
0.0009787869979811321
0.0025497924614430734
0.003779400509673705
0.0038677243916580895
0.0021168032647493873
-0.0016640244489494695
-0.006767146670704953
-0.011412528065452333
-0.013005854365613044
-0.008961410539924856
0.0019699040081061605
0.01819396941575288
0.03416537494754257
0.04035408682866924
0.024777101679633623
-0.023940754790395726
-0.11276182438711703
-0.041095983734278016
0.00023027464193408752
0.027235715090117966
0.05888412131483261
0.11265546913973354
0.0014124324956506778
-0.06738882427151956
-0.09045247843826197
-0.06682676280849158
0.0028387657244741673
0.11528569005381274
0.06267603453335516
0.03138792609656969
0.0030771770412804955
-0.041730246319405036
-0.11870197866990952
-0.035464698753178876
0.010042412678685081
0.027831236660505174
0.03140338005850611
0.03229247738701064
0.035612667837913496
0.03817949957188647
0.02992771004792988
-0.001661393820315206
-0.06544260787869312
-0.16096332131589366
-0.07573473928101322
0.012864100348785022
0.13111972984294737
0.10019089120371823
0.12856701242251434
0.009007705814732904
-0.07874902658679328
-0.1607825450800141
-0.06045782194506725
0.007978322037645133
0.04159226351848426
0.046789256652279974
0.034851311041857104
0.017167569908966666
0.0018361657806723914
-0.007630408205218801
-0.011654796862984634
-0.012727409081688068
-0.013250797753558339
-0.013930756141942467
-0.01327231925693755
-0.008369658245834893
0.0032237956451420958
0.02114439133430091
0.04027935978944079
0.05021894924853846
0.03682873309765532
-0.013980777060836617
-0.11115842999083171
-0.05384488522494471
-0.029177542390012003
-0.013972934040941357
0.019676790655794536
0.09632401648238254
0.028986864523941294
0.013377443631183573
0.026350576458749834
0.029218224251480407
-0.02460894138826116
0.02087471325432222
-0.06450334049670967
-0.0876114657036777
-0.026679540077109428
-0.03187197548009641
-0.03232046814090813
0.05131212115526549
0.0909853499914327
-0.06480617805292184
-0.0042374091473182255
0.04016766346344145
0.19142505970294163
0.13706257849391026
0.1477128169811335
-0.09626844616852005
-0.27496801121343944
-0.4036949637250385
-0.22109253738048362
0.003373543966384818
0.24243678585886505
0.2712942172234189
0.22644593845059025
0.17476378351310393
-0.09932057425248018
-0.08647896657511707
0.07155879053631976
0.015958247953686326
-0.19323815646594053
-0.24673538471608927
-0.16789968324647112
-0.11152142714707508
0.019841231705096905
0.14609805889995733
0.37494078511160933
0.3728554308700248
0.15119949718883785
-0.128151985254901
-0.33025294789052145
-0.3168898262533619
-0.32097205062213463
-0.1356290060374927
0.27810842168785815
0.36884821663037237
0.1672477098786995
0.06440911779883311
0.0041604507561097915
-0.1085680415939394
0.013768973226656482
0.07008225734358503
-9.239921344259763e-05
-0.19338994483300279
-0.43173692763296834
-0.3692586478124853
-0.019644590218139725
0.19907682000170215
0.4128196493715067
0.8490505103750338
1.0206418098028807
-0.6537323902812777
-0.7955522984042364
-0.5964980886937217
-0.55875926141573
-0.6683378595579372
0.7896039939354778
0.7815071267551874
0.6637860307168622
0.3340373182069438
-0.18731986216126434
-0.54223794372684
-0.39864149929513343
-0.4113120903282887
-0.1972217484773664
0.0660118508668782
0.620755808857667
0.500129222583178
0.1033552080037742
-0.21329626407546298
-0.12729248454428863
-0.32812651801472814
-0.2931766838163109
0.12986955337536454
0.32982327784060733
0.12938921809371456
-0.02219851828745365
-0.057157650503510286
-0.2967525246063648
-0.26035785316261084
0.12187973584868368
0.2933233850441986
0.25656162384148795
0.3674130526096141
-0.05737257998322051
-0.3184666835227069
-0.3045192044020498
-0.26531910295626915
-0.19764916629428245
0.1508915981794374
0.2618414717265513
0.21745646198578666
0.2745052820297038
0.049337551037665926
-0.08156017891234932
-0.16729329020462885
-0.26114236135059377
-0.20051060232404277
0.0046881219057862055
0.17216300609404667
0.13768962155586567
0.14108195846864205
0.013532657353272866
-0.029849379573458564
-0.19162943587679832
-0.08964291105255406
0.046733589445034036
0.18005888113581112
0.0684176623330744
0.0706482035912817
-0.04591266874433576
-0.09633621929716349
-0.2709285816404707
-0.13405768281090039
-0.03182555951765496
0.09176096232622687
0.2744933286288662
0.3189223855479063
0.18628184737782064
0.0060446313318742164
-0.0998252585244778
-0.3849861884151672
-0.45039533940805904
-0.23097789648945552
-0.004416829369968651
0.17852413626957406
0.45103327642596946
0.4890083467011445
0.2861823325619375
-0.04507918823463344
-0.2471906073640746
-0.4743575950854376
-0.4485115398138821
-0.22941789724439143
0.19178057902179454
0.2756741459923545
0.30312471521904927
0.3423871169305559
0.026642057974265464
-0.2519536561905044
-0.13273870205877517
-0.06795528910769101
-0.10317921976806262
-0.06310816977835627
0.05427960868198881
0.07537962489717824
0.0428607150784897
0.005225114760441719
0.00717469371544041
0.08289265022113228
0.053189314061691764
-0.07357314514637846
-0.0978681667931961
-0.024650108930847563
-0.06039353345717463
-0.012860743855764512
0.10654381615791615
0.07941074502828739
0.07826669458178295
0.06775197239529177
-0.19049112157522774
-0.13064357436228863
0.024061878458063728
0.06525298747679355
-0.0004041102660414735
0.046101863830458854
0.03220890705897998
-0.010003710571870002
-0.046907356958391606
-0.04593153168304744
0.02171241364243697
-0.022247185240876866
0.033167661615226184
-0.015155797510988785
0.013701971974029642
0.08544081496767032
0.1548714010111333
-0.02579492318445515
-0.09552532954660169
-0.07244163341034844
-0.14509731628783923
-0.271027039545031
0.015120670154255729
0.18469066820744273
0.2939085862392613
0.16574458738564388
0.1817977673738256
-0.11215766237116874
-0.1885795398516447
-0.3148910832414721
-0.13308917009530843
-0.04941172809377924
0.16302044387147094
0.15082801211907418
0.16220354114939467
0.03071640310372855
-0.03405374992421003
-0.047498722470810675
-0.04402617451831697
-0.06723589850160544
0.04059625602446002
0.04740810447088193
-0.06263597349177609
-0.08654755991542042
-0.003576940831445709
0.020145827060453363
0.024210855620248342
0.045505233337813714
0.1110180813426577
0.0338910878523671
0.013749203863265173
-0.15915779350359663
-0.0979711466824188
-0.014059447861444176
0.08532310163922295
-0.0037443418367291504
0.11560030233937052
0.038674883437867943
-0.041414421116523804
-0.1326204278418308
-0.042059536611006115
0.02512658640663163
0.06537030952561812
0.07527966847014869
0.05067997933507483
-0.012660569830761598
-0.11651026447150759
-0.05707119758056265
-0.02316623000930378
0.0028720776303211315
0.04150980870574436
0.11080381820363863
0.021696988989244596
-0.024404690326960018
-0.03504138020171673
-0.023623588705405457
-0.005187993337221323
0.007662838778538259
0.007742107353412685
-0.005211769795725339
-0.024610597080506544
-0.03870640156550553
-0.033835888391229856
0.0011529731482702286
0.07025800253766395
0.1670873314660809
0.07488079034129191
-0.02911808962523929
-0.16567875367505897
-0.14487253995137533
-0.16062944670500692
0.008337847912594232
0.19088587288343953
0.21200215194592797
0.08256850577259736
-0.005112152050434673
-0.07420588083953587
-0.1543214940801261
-0.07062419400641792
-0.035475693756899705
-0.0454681143308313
0.11569411685250044
0.07023199293432413
0.038267188960017275
0.031712076101693715
0.05191507222813424
-0.10872606221016062
-0.06242991223532713
-0.02103690894699122
0.007688671449449353
0.021427936203030375
0.022493462043762815
0.015765415884634214
0.006465351112084196
-0.0014533356819776417
-0.005992020127638405
-0.006970501172390129
-0.005395485116874173
-0.0027022642468706214
-0.00014672498992597093
0.0015210388580306827
0.0021046599285447698
0.0018189559124460102
0.0010715613214370256
0.00026473610973992993
-0.0003282650613350253
-0.0006011210033171611
-0.0005863430876292868
-0.00039417645781124853
-0.00014968651898396225
5.167758050296437e-05
0.00016296796581760417
0.0001825647831109876
0.0001380343834020391
6.681483053605669e-05
9.165520187928195e-07
-4.106576961728605e-05
-5.482428868872215e-05
-4.643422364858058e-05
-2.6646117917105905e-05
-5.816465233530013e-06
9.176995992903986e-06
1.580232674928734e-05
1.5066867299276006e-05
9.903282847882717e-06
3.5479867734741503e-06
-1.5796101437495337e-06
-4.331479910268447e-06
-4.7220318193860575e-06
-3.496701075994307e-06
-1.6310259451180202e-06
5.805713914771281e-08
1.1087057988654558e-06
1.427772517982852e-06
1.1844423367932227e-06
6.611322595921547e-07
1.2384228087915314e-07
-2.547579200627404e-07
-4.148914887951661e-07
-3.8685011172074074e-07
-2.4846901612658773e-07
-8.339866444025661e-08
4.7106843727123243e-08
1.1505307628760925e-07
1.222080368585749e-07
8.861491494532202e-08
3.963753325945403e-08
-3.879329208133988e-09
-3.041256714034173e-08
-3.7888986837230677e-08
-3.0834096320572186e-08
-1.6546458750664462e-08
-1.8649300629706607e-09
8.680718419330574e-09
1.3292883218493751e-08
1.2348779925034847e-08
7.468563397026337e-09
7.021316842380776e-10
-5.9333764920662685e-09
-1.0606847060654724e-08
-1.1736546621796013e-08
-8.207489063070942e-09
1.4268375472587366e-10
1.1885349462559849e-08
2.356269964221369e-08
2.99284095912918e-08
2.5256206295555925e-08
5.748570635536575e-09
-2.749913574783392e-08
-6.614874574165364e-08
-9.444181150444975e-08
-9.258090430269867e-08
-4.409139099572618e-08
5.414827637578121e-08
1.8260870262644513e-07
2.9556386614803815e-07
3.283959364808008e-07
2.184568512605574e-07
-6.292239363935897e-08
-4.7658007069183866e-07
-8.954463897464234e-07
-1.116133841424328e-06
-9.14867061309718e-07
-1.459263814019613e-07
1.1412334381363686e-06
2.6130687643764653e-06
3.651427395693662e-06
3.4929877506164893e-06
1.5211757680494097e-06
-2.3447996036979356e-06
-7.299145746840795e-06
-1.1531994584308094e-05
-1.253854177865312e-05
-7.950097436631317e-06
3.21957517976064e-06
1.9285805750203683e-05
3.517297690532031e-05
4.29476723873175e-05
3.406965737958929e-05
3.248448969103048e-06
-4.706317950579515e-05
-0.0001033835494393413
-0.00014144459599874345
-0.00013189091046591315
-5.179387553422815e-05
0.00010031817727059342
0.00029128004437902833
0.00044952910023939686
0.0004780845697213885
0.0002875864506103473
-0.00015524468036740574
-0.0007786572636225187
-0.0013802642893002753
-0.0016509482790162244
-0.001265220082341294
-3.2050384562884446e-05
0.0019330986728877384
0.004087583662092887
0.005481610687300011
0.004990923741552603
0.0017710314436662955
-0.004162301581376275
-0.011439531968058152
-0.017226018966915925
-0.01777356200400217
-0.009756515289689724
0.007792813116251808
0.031522160152541535
0.05266437943652206
0.05776017918222598
0.031765772531588014
-0.036756168127126454
-0.14981347105829762
-0.09589770042653879
-0.050017236293348206
0.02103055692376853
0.14921449013116148
0.1547909314265901
0.03876208018601692
-0.018718741221115037
-0.053327010832136784
-0.10679823310842784
-0.01580033109801935
-0.0028747477201973093
-0.07177737295183954
-0.008051143619036288
0.015693171900412667
0.03138103930685032
0.06632998053356472
0.13603122294332898
0.041115958024229356
-0.03048902706058772
-0.09709130803248472
-0.175153134782677
-0.07314159122816548
0.009944135726880403
0.0808440077860375
0.1452051838114651
0.20144282912247566
0.0389490076850627
-0.15775658044778368
-0.2004606114636655
-0.0883573518512787
-0.00334328231349871
0.08790874975575114
0.02553238234358133
0.044478560933969395
-0.03752166071126136
-0.02902479157958116
0.031181339512716642
0.27685286022206695
0.2250107536059747
-0.005246475503934406
-0.26834837182038496
-0.3685125744281238
-0.24548649360572203
-0.1776931990758275
-0.005801001404652653
0.22739864489522232
0.4315059448465899
0.4316902934584189
0.35378478750090936
0.03866299226291129
-0.31607649760862055
-0.4988304920128907
-0.6292307587840177
-0.32417329175517906
0.10382655557985064
0.41576377272405707
0.3939596273834988
0.3863979031137393
0.06483679145138778
-0.19269611218934365
-0.09340756465109838
-0.000920575866089659
-0.09518390709491152
0.0700176977945197
0.20481615989452215
-0.2893941573305775
-0.5081936113675914
-0.25284195993292885
-0.06221980062623487
0.13462668656554902
0.35543068617254414
0.7072841485707768
0.552381826019197
0.10964742908216844
-0.5054248746143061
-0.4130488447605034
-0.49349863153162804
-0.3256321362053932
-0.1557853068427657
0.2975357550498958
0.40894383985459754
0.19502802563346502
0.06248254534403671
-0.03220023214408833
-0.005420570388283232
-0.051185076864926245
0.1691913298496415
-0.05179247265073756
-0.04043204109749122
-0.11314447531154918
-0.15194277101397888
-0.18917565984245946
-0.004972029276159994
0.06216672482801259
0.09472226568689839
0.171403772376911
0.1452771470993278
0.030688576358817235
0.00213160772091421
0.004749599638921013
-0.026903191191009236
-0.14718049330535313
-0.1807716709114852
-0.1127027375038324
-0.09045449471542864
-0.03855276224751399
0.11782107581033104
0.427019869549695
0.29148828745992794
0.062207731842800026
-0.14978682524002898
-0.24799286533748602
-0.31979512857169523
-0.21117278832380804
0.08511109553965485
0.2251939644811076
0.09689428554720096
-0.003596004603326105
0.00591422017463982
-0.022936117029871694
0.12265721119684765
0.21750145131052234
0.008134044737339537
-0.17034167039996786
-0.17437965234933978
-0.23507251410520172
-0.15013489009125555
0.1119824572307953
0.19708247899022996
0.14480599981382108
0.1703866198394163
0.05518466484184143
-0.05075536032137709
-0.015045627099330584
-0.10256276267461253
-0.1545432566100263
-0.17345424314952634
-0.11838463881775321
0.08718068268261571
0.1370090355612135
0.11832660610479
0.08938559449415408
0.06456729408813908
0.01080249892740831
0.4560307467306096
-0.6925829189484115
-0.12565428741087317
0.08957167062452019
0.12269356903838846
-0.41665973847452037
0.5150700798423381
-0.01688299674309094
-0.14036203688485904
-0.19057676560774803
0.07773671857510292
0.2813599236561491
0.20460905556830192
0.002603790651902654
-0.18749119316018134
-0.22993133801439744
-0.17415930737366536
-0.04466495362680153
0.1601120723348723
0.2611190225300599
0.08876941455793909
-0.12524061458720223
0.048384553054051115
-0.16311628332368827
-0.132862019312139
-0.034169347292204444
0.15664698247154493
0.05537016422725242
0.26557005261751115
-0.022206210852839185
-0.2265973957974482
-0.16862508356935946
-0.06567467568449757
-0.12976504207442544
0.22901735426056782
0.3965244995326786
0.15081240950270086
-0.13522011632254982
-0.2844838254165962
-0.304068674899516
-0.1782319139994302
0.12882811867473581
0.26028743051316816
0.2493724609467721
0.5053263793915622
-0.5910349300219185
-0.2809500361814464
-0.014686035112068542
0.5618701151280424
-0.7832408388889541
0.5367685234732424
0.12852618982826466
-0.18293219408208505
-0.5575489634833336
0.4541073689652441
0.10268546169889121
0.03087154879448859
0.06635496899342336
0.019588513965676957
-0.11340446448972907
-0.14530872986023047
-0.09213108908068224
0.02908545663559413
-0.001439418001151435
0.1896339576537665
0.16549884781398116
0.08030946811182206
-0.11351184785080677
-0.052883445352455254
-0.1505682665941199
-0.18591716100599873
-0.10444205498810147
-0.02822588537703445
0.12446466520533557
0.21562275659720095
0.26756826239475934
0.2540664484084912
0.10691132317175821
-0.4629230769423301
-0.33631628073895115
-0.15969299606716128
-0.13113825823479974
-0.0035704785481614288
0.4973893422851137
0.24881408697717158
0.10899633289180423
-0.09356460600901942
-0.15902350295686107
-0.3069048120633465
-0.16553927765798612
0.0339423181796882
0.2572128046822988
0.2628107052172822
0.2003120131652275
0.015452075018621884
-0.3370327306196173
-0.2771417739305308
-0.1873381260427849
-0.010886109012202296
0.13698988612496138
0.34854438979738056
0.10089611514733633
0.03913239924761732
-0.030051639181195976
-0.13388056227791914
-0.12165801534054667
-0.050610770735789685
0.0262061869457818
0.06764861616961082
0.047801217104396915
-0.0438722828870677
-0.004203119333517706
-0.01910188764086341
-0.06730452622715356
0.0750160945978914
0.029262760711452847
0.010009455715191094
0.022272705773180655
0.06117541750563844
-0.08600002355294382
-0.03613267591482958
-0.0062423070016804924
-0.010439996319175568
-0.0586411329597161
0.042977116635821
0.09055564493729126
0.08144841698492129
0.01466467556984137
-0.10674299137228571
-0.07231989701925452
-0.0619342838493946
-0.04662367142780755
0.006611535519165413
0.12704014939883773
0.13197793656696863
0.021201330522117853
-0.023706079087915277
-0.03465947466153166
-0.0486412742354717
-0.09834136248279675
-0.004697184610239013
0.026765599630453545
0.005273483847047836
-0.04941642836551612
0.08672252959841902
0.03544769087317105
0.011085539595773804
0.01797977859876538
0.051017117651267936
-0.10122708033140396
-0.05197281610541981
-0.011985131530304102
0.013016551522985129
0.022730291382334282
0.02083790795616078
0.012751937486463562
0.0035310213191079914
-0.0034232044694724956
-0.006737639230416808
-0.006709073852223575
-0.004578394953152996
-0.0017883639262009138
0.0005434686144932507
0.001854477437830474
0.0021084000886809648
0.001612922399740312
0.0007970455538135825
3.2491654755621965e-05
-0.00046134226001685327
-0.000629954006864029
-0.0005402257357942479
-0.0003150156263101748
-7.430215040002613e-05
0.00010116566457572393
0.0001806388136955609
0.0001745934030798863
0.00011632384304964022
4.318088373606576e-05
-1.656474669779462e-05
-4.920293789275722e-05
-5.4511688116815116e-05
-4.0872603516480874e-05
-1.949749389829858e-05
1.0719511167870143e-07
1.247842632715237e-05
1.641510028214168e-05
1.3787344821118928e-05
7.825419069713351e-06
1.6129129560544907e-06
-2.820928718252065e-06
-4.7467564238826685e-06
-4.485144617316164e-06
-2.921032226956302e-06
-1.0205071194119425e-06
5.002474332781405e-07
1.3064965879510858e-06
1.40924152910135e-06
1.0348135882031765e-06
4.752159843837353e-07
-2.704892164704656e-08
-3.364182687407567e-07
-4.272659036467485e-07
-3.5151777732134556e-07
-1.9397823696666002e-07
-3.3810920209985435e-08
7.807486108431185e-08
1.2452221764825314e-07
1.1508068055894227e-07
7.322018308177562e-08
2.3900116521814058e-08
-1.4760661164460992e-08
-3.4621482276955836e-08
-3.639373382684826e-08
-2.616801272572311e-08
-1.1539348077187128e-08
1.3136411060597307e-09
9.035203533132529e-09
1.1102134189185984e-08
8.946638564047314e-09
4.7915882344434254e-09
6.66992148261308e-10
-2.1521806887489616e-09
-3.2662720042457948e-09
-2.954090168219363e-09
-1.8367961940224022e-09
-5.584771354199287e-10
4.231164374292219e-10
9.108745133493487e-10
9.34068374434376e-10
6.560820008764013e-10
2.7421041079359547e-10
-5.431613895152843e-11
-2.466463019444553e-10
-2.928263048770086e-10
-2.321313358183264e-10
-1.2273865669456175e-10
-1.6644459063061095e-11
5.427979978114138e-11
8.083469131787421e-11
7.103487427533409e-11
4.1287854308117924e-11
8.195340512561778e-12
-1.6694911913574907e-11
-2.8633863407205137e-11
-2.8655156510319408e-11
-2.1129045099811384e-11
-1.117423048346667e-11
-2.7868448044243623e-12
1.9933682047424674e-12
3.000591480708197e-12
1.3064200246105559e-12
-1.5687430456602403e-12
-4.294616558905039e-12
-6.076032282833566e-12
-6.704362322115206e-12
-6.407161075204235e-12
-5.6170151659146285e-12
-4.761351580241403e-12
-4.131050026509675e-12
-3.839887783033848e-12
-3.854103909341042e-12
-4.0571118279851035e-12
-4.3162726196856235e-12
-4.530150604795639e-12
-4.648683821380278e-12
-4.669927041041909e-12
-4.6229869308282295e-12
-4.54754169963714e-12
-4.477585909140058e-12
-4.432917490421674e-12
-4.418178118637552e-12
-4.426972125826031e-12
-4.447914420342586e-12
-4.470013068948618e-12
-4.485952468542632e-12
-4.493024363302185e-12
-4.492280247612989e-12
-4.486822673051474e-12
-4.4800845203764205e-12
-4.474637223149164e-12
-4.471705305669905e-12
-4.47127921276556e-12
-4.4725715188521e-12
-4.474548148828491e-12
-4.4763414137188315e-12
-4.477459470932257e-12
-4.477801659459857e-12
-4.477546222710237e-12
-4.476992296921046e-12
-4.47642223364704e-12
-4.476019719747189e-12
-4.475848734878647e-12
-4.475877564828434e-12
-4.476023835455641e-12
-4.4761988044640255e-12
-4.4763373722770846e-12
-4.476409698683276e-12
-4.476417558373849e-12
-4.476382176621742e-12
-4.4763304672590524e-12
-4.476284551074495e-12
-4.47625661828935e-12
-4.476248774449482e-12
-4.476256087572807e-12
-4.476270710677397e-12
-4.4762853992358255e-12
-4.476295548944387e-12
-4.476299661810015e-12
-4.476298672435118e-12
-4.4762947631868976e-12
-4.4762902254242954e-12
-4.476286704965729e-12
-4.476284925963157e-12
-4.4762848035854704e-12
-4.47628576757908e-12
-4.476287118364296e-12
-4.476288292678477e-12
-4.476288989151644e-12
-4.476289166098266e-12
-4.476288959143846e-12
-4.476288573813981e-12
-4.476288195774676e-12
-4.476287940230635e-12
-4.476287841879212e-12
-4.4762878736581245e-12
-4.476287977866078e-12
-4.4762880954080125e-12
-4.476288184734318e-12
-4.476288228353292e-12
-4.4762882294499626e-12
-4.476288203299152e-12
-4.47628816806229e-12
-4.476288138064078e-12
-4.476288120734765e-12
-4.476288116825277e-12
-4.476288122626109e-12
-4.476288132762191e-12
-4.476288142480666e-12
-4.4762881489044395e-12
-4.47628815124043e-12
-4.476288150261502e-12
-4.47628814749035e-12
-4.4762881444493045e-12
-4.476288142185762e-12
-4.476288141120005e-12
-4.476288141144464e-12
-4.476288141851119e-12
-4.476288142769071e-12
-4.476288143534479e-12
-4.476288143964693e-12
-4.4762881440486656e-12
-4.476288143887372e-12
-4.4762881436211844e-12
-4.476288143371631e-12
-4.47628814321042e-12
-4.476288143155376e-12
-4.476288143184671e-12
-4.4762881432581975e-12
-4.476288143336782e-12
-4.4762881433940636e-12
-4.4762881434200034e-12
-4.4762881434180235e-12
-4.476288143398995e-12
-4.476288143375113e-12
-4.476288143355607e-12
-4.476288143344952e-12
-4.47628814334322e-12
-4.4762881433476744e-12
-4.476288143354654e-12
-4.476288143361055e-12
-4.476288143365094e-12
-4.476288143366378e-12
-4.476288143365519e-12
-4.476288143363573e-12
-4.476288143361544e-12
-4.476288143360097e-12
-4.476288143359468e-12
-4.476288143359554e-12
-4.476288143360065e-12
-4.476288143360686e-12
-4.476288143361183e-12
-4.4762881433614465e-12
