0
-0.0037809700607102812
0.05250575807939673
0.13000215433849974
0.04215377805834516
-0.0076675363197603085
-0.026083724100785643
-0.026149654424559163
-0.021879757752061347
-0.022866981028084005
-0.03071960841689061
-0.0384000142018836
-0.03277901620187929
0.00012616967885237837
0.06866335707693358
0.170026518256118
0.08818871641613767
-0.002996569237268266
-0.1317243555969193
-0.11777577471886727
-0.16381405460012155
-0.052343342629270734
0.049879072092727135
0.1812752572501034
0.17270196173894303
0.03748570913696745
-0.0320698804776632
-0.060871313743713365
-0.08202930658248467
-0.12644401244436596
-0.014701421581242843
0.04644317259305731
0.0627821009725671
0.04813852061830585
0.018944329059652657
-0.010156266237517182
-0.028818764836523077
-0.031820708151151254
-0.018949558267223957
0.005335863650176797
0.03223700547005114
0.04926666967473393
0.04183361731539887
-0.0038390080178010797
-0.09675291317889466
-0.03725139923053332
-0.014756002412114062
-0.008311827259011433
0.009853659630743495
0.06862646196314273
-0.008299459223542463
-0.007684980495239079
0.0702979923229462
0.012073776305615347
-0.006344282407583665
-0.014002271759202016
-0.03856692360838154
-0.10049801497398254
-0.009465519446008796
0.036029663603970884
0.045994166306781485
0.03448575400835227
0.015088495047360083
-0.0022695796493716726
-0.012550030330203868
-0.015091521030662447
-0.012046868178298838
-0.006571027773795834
-0.0013784285399721802
0.0020238268271433905
0.0034191694672858035
0.003475323385648962
0.003126054915250004
0.0030046443823903437
0.0031203516920859315
0.002871585626130456
0.0013865654495982265
-0.0019172303803205808
-0.006751423517174876
-0.01160803758284014
-0.013898102189571493
-0.010738913177100393
-0.0003505584547101705
0.0162598405330901
0.033927049836057495
0.04301185013107272
0.030740152544872668
-0.015706729514141746
-0.10502953013706846
-0.037973155769304295
-0.00540113576110727
0.010731058049956927
0.03365102936620668
0.08647262786450659
-0.013083726135486575
-0.056699765214234706
-0.04773786344050523
-0.002010406090844995
0.0526769103081419
0.0784472532717347
0.031490496029653474
0.06903373820266562
-0.04118033646467161
-0.11062680285017454
-0.12187289973398875
-0.025874636704644655
-0.14705849497037496
0.0034966662751907017
0.10903391116731759
0.22686638586183
0.17286117460676476
0.11610130095798586
-0.013547989976449173
-0.10641933000746258
-0.24809321218157554
-0.2964066423217199
-0.06793614703978328
0.06175867661367848
0.14486868444055118
0.24053684250869675
0.19444242511022852
0.02586454415445349
-0.0741750595847297
-0.13465517354823642
-0.19083784349941108
-0.07113034950220624
0.010632460073928382
0.05557268963814326
0.07410270723012569
0.07762056703614294
0.07145664747679076
0.051991183554309796
0.009044450545975078
-0.06742573694693975
-0.17906712431276223
-0.1130038026870231
-0.04109072866403709
0.07412121399745887
0.06816084240486173
0.16198877904152797
0.15265827748996888
0.011043977919060971
-0.11209104308808084
-0.0734882010894455
-0.12240634073509517
-0.0880481950461276
0.02702165381812303
0.04622003510292963
0.012206009958448666
0.1768125153833436
-0.009249244564549472
-0.1046443721987922
-0.08286507941334183
0.06458551209565225
-0.0735434218539579
0.07139421886164513
0.2499068647143734
-3.124622840818446e-05
-0.14318877318760578
-0.03438178948339817
-0.10608304097705007
-0.16022839137182976
0.032961645500192614
0.12860886641562871
-0.004785169292240173
0.10077652564932364
0.10090316104229924
0.03175186648953167
-0.09127053663310239
-0.07011176343210647
-0.11857217797857386
-0.05762372385830388
0.08658927572015462
0.08215374848557087
0.09007822221225674
0.06482000864535958
-0.04160643528225833
-0.07199025680704045
-0.05461927322772195
0.004860967882342862
-0.07220850972433722
-0.03855827287961287
-0.027755989982972382
0.034293935682873936
0.015276373356535722
0.16289614739002067
0.09518667706642776
-0.0026001869485894205
0.026484492799074996
-0.07812063978608261
-0.18067719247836336
-0.136560750423742
0.015456004724510789
0.05450116114466615
0.17376346119942027
0.17499079573294649
0.06515370164416052
-0.14268447507982931
-0.22531205489507622
-0.14578585540471017
-0.05449757225744615
0.10304526934361119
0.17326526228215244
0.18099733687930847
0.12090464851280028
-0.042395513779206494
-0.16520058619863054
-0.10987537875813382
-0.12959452818708458
-0.05760343596693881
0.09644050061247998
0.14357923330976996
0.10904985231536522
0.02576582145512633
-0.06987085575619136
-0.13982215252057248
-0.14591820081053314
-0.05344987594368445
0.16211800321449926
0.10679031565428324
0.16164368805946783
0.08234782398554709
0.006793389287441327
-0.13009893625252072
-0.1784028695099109
-0.15782639072492638
-0.05038386305158362
-0.0040559213196296505
0.053205753568958035
0.19310538803647156
0.0661634306433327
0.08631872472356342
0.025135403557675184
0.0170211791771227
-0.025934427267640937
0.006959509163231607
-0.15280919135528437
-0.13468099135450054
-0.11931264953321813
-0.04039321142090943
0.0017862232224197898
0.117967821637172
0.20435766208520434
0.12059877825060573
0.07720302293345938
0.03567041720077493
-0.0791604448750748
-0.1584306155535346
-0.08629356409825957
-0.1209934023220437
-0.08476300978254571
0.03549401695425385
0.07794502139208412
0.08985325535847487
0.11116789180700008
0.16277960622557303
0.04286144933799004
-0.06800976757025724
-0.19533664093993008
-0.15760816216654802
-0.15711488941111096
0.021506226273063474
0.20461600681455167
0.21811267777877535
0.07658713758819856
-0.02208771316106777
-0.09486969313811412
-0.16606148292858036
-0.05816958043782009
0.014933631287401211
0.050389854836595076
0.05449248017053043
0.038459742872285894
0.014087702734056027
-0.009164374692809134
-0.025208908074153786
-0.030974512022115125
-0.025598653473917245
-0.0100127322298666
0.012734944216895763
0.036723275713747
0.05278693474450107
0.04946784148516593
0.01581662646766911
-0.05432395185604774
-0.15799589778325637
-0.08089901945820216
0.000905390292104859
0.1150212837249772
0.08420893178296805
0.11853611972660731
0.011326415469062498
-0.059524895883226465
-0.125524458680093
-0.01925647258389102
0.03335952917493421
0.018178860679216695
-0.06539716979441743
-0.0057070513004476445
0.017549981225043833
0.02833937931764754
0.04924687123850129
0.0977737683829605
-0.01499289427565671
-0.08324668335360316
-0.10398391041412293
-0.07510557813915363
0.004237315609661829
0.13078831098352686
0.09334836558849342
0.07056539135112758
0.03257891617711362
-0.0529671978330985
-0.2122080627333766
-0.05684148468891457
0.020311642623807063
0.044218726155241216
0.05155720828710867
0.08193926009208166
-0.030830034110616026
-0.06544904775747487
-0.016901010273235106
0.10275408859903126
0.06652454376475171
0.03764457364423782
-0.02254200114350531
-0.14534274376991596
-0.14668244851618154
-0.023148697854677835
0.04614627461692546
0.09240222316025908
0.14738751307900225
0.03478592101994824
-0.0344677849436487
-0.06195246971324326
-0.057814574002993585
-0.0354785961133408
-0.007268632034066043
0.017831618178167027
0.034300761139103804
0.03900660849977922
0.030149183383437993
0.007106833504863542
-0.028664914475069327
-0.07236035098020482
-0.11539120525789254
0.05310295017931469
0.04259491906764951
0.056488867059426205
0.08855414622953763
0.12263119995726167
-0.06331422240578045
-0.08953246784558681
-0.16584687263233003
-0.08564955275083473
-0.02554652723139403
0.04850278099715844
0.17047123888848206
0.16296839031478466
0.029749652862790434
-0.045133510677185816
-0.09151549593402843
-0.14328356104578654
-0.028438159536845132
0.03764394799451825
0.05430598822756859
0.033624532537403926
-0.003985627647674077
-0.034924692829005365
-0.037333934177025775
0.004618218011386294
0.09743398402318489
0.036606900387039114
0.007334234020356281
-0.012083114697884109
-0.0448374437199753
-0.10981663271653763
-0.01732992980448712
0.032258382423571645
0.04678623370877523
0.03849179081342567
0.01985291486186518
0.0005545839172541613
-0.013724170590563765
-0.02088064331283188
-0.021061829806838378
-0.015325905903256132
-0.0049432411063620426
0.008462870877056048
0.022218299573118834
0.03196735910350527
0.03180405446494349
0.015595347497134286
-0.02063952782227495
-0.07613340500891541
-0.14392911159769528
-0.011902235735909273
0.13338831438392768
0.10126926596321088
0.09252595179398974
0.09856452283281313
-0.09486516355776826
-0.30088708509465956
-0.12514564044704427
0.03646932691814787
0.19453486399462036
0.1591169976170655
0.13326879177506953
-0.08917851353514758
-0.12038332166180465
-0.17185350772158034
-0.048181602183946314
0.055631525744260814
0.15235853959397666
0.05779698352160812
-0.014216357306774388
-0.05499767049176458
-0.06203633921364454
-0.0387977437781576
0.00551229349195548
0.055811191675178916
0.09129719905166762
0.08719675960683478
0.019093813425104564
-0.13043127893686438
-0.16480651704570246
-0.06916803792119
-0.011404805727408913
0.050791334142385465
0.1588334325628917
0.14196421140534038
0.009886681206624415
-0.04815793004849127
-0.057899066072358917
-0.05050334461335584
-0.05245449162668594
-0.0779732721530757
0.07413831961725327
0.018883386049950653
-0.020337508684168778
-0.019232161028029503
0.03956313733273129
-0.04004632486810356
0.12863969538785824
0.11554402469769795
0.07934084714998893
-0.022205646298689007
-0.21937349654976673
-0.31938419866893925
-0.10203273334065176
0.07483621644733827
0.2610106798371475
0.29619493113146217
0.19647067232021623
-0.04913506894747726
-0.27080145525436056
-0.3030136449028188
-0.16997535293734317
0.12215144968957141
0.18390366116886595
0.23479519320901354
0.09475509754893276
-0.020476613838018232
-0.29862923924298135
-0.12730931091853914
-0.09186897018425304
0.022042444790856947
0.22132705393987132
0.2972056690481477
0.02092955801682583
-0.05293846959999984
-0.17571258832439596
-0.19014095212096355
-0.11807985275077369
0.045016979507446264
0.12726637339084038
0.1711697074317272
0.022140562885613956
-0.08140940529414933
-0.11455583720719037
-0.06918859869586978
0.044718326923561764
0.1995843258275996
0.15354221481046723
0.058166372071127445
-0.12922378681182312
-0.23131605420249476
-0.23973915050566955
-0.11265491902296888
0.016045064297035273
0.2175368407928129
0.34498602529048006
0.21505729627921666
0.0012681303633899378
-0.15803357005174082
-0.14004467280483748
-0.2135366471254809
-0.2189442227730129
0.041256814568474694
0.19988671944856365
0.11263452081705773
0.041318133824685056
0.0385182871378822
-0.06272210671844573
-0.0530664034919282
0.054287478131296564
0.028669326189364356
0.029581971808091596
0.01581915953918438
-0.04529821202766156
-0.1705041329683804
-0.15727598774036783
0.013651610973076647
0.17006995743916029
0.1370659814188107
0.12731851566127445
0.13726606691634596
-0.048890422272458746
-0.24891802522284778
-0.2707368117575624
-0.10502249436673598
0.07344568723171942
0.0954087131062575
0.1818984045816852
0.33095643985159656
0.11274799509627066
-0.1236753477171596
-0.2336173232868542
-0.25626554431663984
-0.19885922108974483
-0.03218591428879712
0.10054184057886649
0.2648692788158708
0.3137831541119076
0.07219570687050338
-0.0671473911699805
-0.13572604319020806
-0.17364206771241034
-0.21341588329555636
-0.06976615348686428
0.061105463657914506
0.1934187967198709
0.13925705647766654
0.09748144507679056
0.049003581106537235
-0.03968447133512105
-0.2062825272887645
-0.0798491592698028
-0.07016517375548477
0.03718179343453779
0.0790019848675232
0.10747841983444419
-0.01933155930896051
-0.04696060377241838
-0.13267099211233832
-0.052079808173107825
0.19585003649736937
0.18654173258478038
0.07226288970254045
-0.009226323735390623
-0.12072992976294579
-0.31025336247886603
-0.19982158151748047
0.0167744893364515
0.16602172048654734
0.27984103547806627
0.18049676120467767
0.07202446403789135
-0.05824129211323043
-0.229290268848071
-0.25258983669364765
-0.12170369624045746
-0.010639774811697275
0.11791667262100194
0.2979552477006532
0.1455569378179785
0.05089620054947256
-0.019528957232729485
-0.11117780886038528
-0.26486627473571345
-0.10170447972382256
-0.015198828945810301
0.026804050108313274
0.07145186326243447
0.16566468703800624
0.14177505850489858
0.008733812764850852
-0.04868686032703055
-0.06322825686119771
-0.07403401785866576
-0.11517845722037291
-0.007414144215957656
0.04489252362546217
0.051668668394165285
0.031537038647356706
0.005029799515007811
-0.01140157400679334
-0.009435456255737414
0.00939824334617568
0.03431933912738157
0.048104397978423016
0.03184891080718084
-0.02898852903333945
-0.13865589839400802
-0.08734120145891593
-0.05158466958191433
0.0002598155454649777
0.0986595842557302
0.2627913170003727
0.09378191716969204
-0.02549011328513582
-0.12351800492696487
-0.22902583956890044
-0.16050373541526058
0.07900026102888708
0.09996026447732846
0.11899154217240927
0.15007037147833255
-0.001492412183338181
-0.1401228458580156
-0.07660890863508418
-0.02275321745860193
0.013177795172365172
0.028607941499665033
0.02636820969126494
0.012915185317391808
-0.0038669474721260153
-0.016591990777084138
-0.019838570230982705
-0.011274725625660308
0.007456900211238363
0.030249938601970932
0.04689673824132098
0.044841559600847694
0.01254054460858641
-0.056100195023609974
-0.15765080805039944
-0.07744694908271339
0.008155689925301468
0.12549290213297104
0.09523883522951589
0.12529827336078797
0.007991962146544617
-0.07723211300842546
-0.1567678427911126
-0.05452137435833405
0.014430132922837758
0.046231277136489994
0.046743235195883054
0.02768683346094768
0.0023398608852064446
-0.01787737823016757
-0.025481747760441514
-0.017889575587067098
0.002325227064762742
0.027685386009800025
0.046769467077941176
0.0462902013456277
0.014510285589100039
-0.0544502098543052
-0.1567490833669972
-0.07730763639881426
0.007803697206234853
0.12502474120591942
0.09496611327021931
0.12535678699340463
0.008303303395323891
-0.07692318477722741
-0.15679030234718436
-0.0551308569141695
0.013205947173958553
0.044702660972365
0.045563012405719236
0.027699240865340247
0.004262889965566219
-0.013877721013015395
-0.020183244230598484
-0.013164496932160144
0.003810669086231239
0.023334898770893054
0.03538506964709295
0.029479961310075267
-0.002475951015799573
-0.0632136727816005
-0.1481229178782177
-0.04561337249051408
0.05950958496647161
0.18050907284721832
0.12349042228568391
0.08542155418459989
-0.1430401037280819
-0.17102005227070044
-0.20068209426013733
-0.024244113383192146
0.17318883236253305
0.20623674986812623
0.0812451851126648
-0.00805482569968005
-0.07911018773648358
-0.15435102015722535
-0.05346260641532447
0.012405297603616349
0.04249506712869836
0.044459148737074725
0.030161410233270573
0.011279830542875341
-0.003806162795799755
-0.011260391345865818
-0.011364073376286948
-0.007048390468471427
-0.0020921074869407657
0.00046132961708923964
-0.0006588849542127869
-0.00459225764657377
-0.0086799857106105
-0.009427525731714402
-0.003947505497065708
0.008405129333517482
0.024668210483609163
0.03776506619410915
0.03738749666844155
0.012453284796234743
-0.04532883301856923
-0.13802221316352692
-0.059857749476817726
0.0011603166387152946
0.0583540663295403
0.11985971608847379
0.18345155615448536
0.035567264227063466
-0.14425704570736167
-0.1749471591429641
-0.06504411511025829
-0.007434164509720624
0.020048740318213555
0.04850525875149154
0.10883859537054445
0.02295121579560445
-0.0018327220957555593
0.026487191027097647
0.0887489035125221
-0.037539883311947346
-0.16894507773707054
-0.10839173568326234
-0.04198564659146467
0.057834841247605906
0.023254688890454716
0.0787955391831935
0.02960120910491706
0.053973640311320716
0.10278727700512333
0.10690476870452244
-0.008063088078618141
-0.10235910168133969
-0.20279428121501752
-0.2895514479645751
-0.09442856461730785
0.08709087247896384
0.17216933914314775
0.26200431275654096
0.21707886709365845
0.04386558507236308
-0.1034975584221672
-0.1082392894638632
-0.26856631860599767
-0.07534015937220627
0.004010631869228144
0.1325401242458211
0.10273434453747077
0.13068507459484774
-0.1510367981771773
-0.09998109011383477
-0.07006384982345827
-0.018470547664729626
0.08662960679895856
0.25918205450498016
0.09202443201848275
-0.04025428792029097
-0.17229835996751908
-0.13576407492164005
-0.14869117819147828
-0.01072381680923092
0.09420948921811978
0.18949437043249157
0.0958540962276482
0.02430477081785924
-0.025197836331101394
-0.05948310637735953
-0.08479046273317316
-0.09997651559256751
-0.09365336284286034
-0.04708427435836905
0.05759755209711582
0.22669645127662982
0.24637256772840038
0.08080876298990815
-0.12047607664685864
-0.2077247737939661
-0.21378257212091106
-0.14148166089437247
0.03934705108989265
0.18415610045441255
0.15843257894609283
0.020565574689691595
0.008227730858209716
-0.06865238899067419
-0.027981954067392015
0.08993772236519464
0.031508259349168025
-0.059148278842462015
-0.02901022835213832
-0.10690806993906923
-0.09840692587024155
0.013665713117867665
0.06306233197908578
0.09019793434271219
0.13167466277915196
0.012536257630219325
-0.056745116814547115
-0.07860314280194595
-0.06388619243283415
-0.02706537972665767
0.016975064514404715
0.054086513652132726
0.07079973358263641
0.05454133393483222
-0.0047306529596995136
-0.11141335592688126
-0.0608729557830679
-0.037676898802130855
-0.016952562528859832
0.030918915396982983
0.1335934822067522
0.11035694235876332
-0.03171907410771135
-0.09801477980121129
-0.10377330841151709
-0.07076952902948687
-0.025192891979639444
0.20281676594289322
0.1794628660222408
0.06987335340980483
-0.15548686696685016
-0.11158184965425967
-0.19037279190074458
-0.15766456390549527
0.04192350293732817
0.2724162161799026
0.1904584650200487
0.03169032217007776
0.0043351136677111405
-0.10852382481150748
-0.14013206079436022
-0.1289435817430104
0.09074379123362912
0.09423040124564197
0.06814696376185166
0.010124059802156535
-0.07214805776428936
-0.16228620979788688
-0.03789918118596511
0.12463913814903065
0.14388924845002676
0.027558166469127853
-0.030439082343190968
-0.04898067470662333
-0.055563494031978654
-0.08088650209438368
0.04593341718547576
0.10062855989889731
0.06582208241799306
-0.06730666719838967
-0.09732814717653107
-0.011415547630238469
0.014148173301231722
0.011142014575459118
0.014584466115275774
0.057014633546169875
-0.036855000270692634
-0.054156114450911695
0.003957410039870354
0.12225469918073754
0.07386964402470755
0.02559322368040293
-0.05434668864753716
-0.18778243985441445
-0.180376257325935
-0.02060695653436397
0.11493429905976942
0.2518584604274458
0.2083161620126656
-0.009975149820211587
-0.2078273665566498
-0.19351630884318893
-0.17118753695256728
0.06256189732588625
0.11597050765426659
0.19506865271342005
0.09659868439484595
0.005136404603271856
-0.10366710603164488
-0.05491375649577899
-0.06480414714885023
-0.13347612065031483
-0.043247717670675735
0.03683493586615672
0.14155502436730785
0.09851958777932833
0.1196561162238298
-0.0016570386515329914
-0.08698286622349906
-0.1645297461468586
-0.05972407845995941
0.011718086992926828
0.04615809567791735
0.05000809007697221
0.035132516589801537
0.013937258203120336
-0.004181395556564054
-0.014362644134864409
-0.016004003053342434
-0.011396676979001088
-0.0040629563421999285
0.002630900424882783
0.006335213168816294
0.006071602502717832
0.0022380114938048926
-0.0035871495552931313
-0.008987244215752787
-0.011237923138283418
-0.00808829929185882
0.0012391538792008877
0.015050583158923712
0.02860535742267815
0.03447036384335855
0.02416052573329344
-0.009021839386176251
-0.06669415377176743
-0.1429995522714325
-0.024591675650356967
0.1062514664028218
0.06611865502582114
0.06473097869232783
0.10154849951781444
-0.03368809677964411
-0.15671881843298868
-0.08284308118398417
-0.02213460939107235
0.02206572462867754
0.05103073420017306
0.06638708532044953
0.06612697909056116
0.043053693796597604
-0.01333114703181999
-0.1120531115577774
-0.05492936441609963
-0.032378716103223126
-0.022767473025958353
0.004075978818805437
0.08008484182253928
0.030941870936231113
0.06923566741459915
-0.009242040367701609
-0.025138840853121635
-0.011444368264232159
-0.006910044677247954
-0.048607014563867165
0.034902493918427646
0.02871488065717996
-0.0655885141274127
-0.02982312899022862
-0.03204344576398829
-0.032320635641094504
0.009214774936244825
0.12363043131189179
0.1260476762755796
0.012438208635040455
-0.038310162391542314
-0.057599839503973314
-0.07798447340192632
-0.12493070588020999
-0.012247863148293006
0.05760967088384486
0.08918705176410129
0.0880881358520314
0.05641706721863248
-0.008311317522536268
-0.11049583165407315
-0.051521111371147794
-0.02506660927280104
-0.014892188647644852
0.0038405819082551846
0.0600427763556158
-0.019708612303597436
-0.01775807385613005
0.0694398854632182
0.028768143880854188
0.031372078389784994
0.03736288761702694
0.0037778310824122625
-0.10572510627366405
-0.11181212930664737
-0.013690905666730596
0.011461455764968013
0.003460324629249857
0.009767253286987626
0.07427983280367567
0.027052887725334398
0.07744238113554637
0.012349650148688681
3.511417916672134e-05
-0.0014048145844355227
-0.0330175898624915
-0.12431653383614995
-0.08596625958001762
-0.10820616884884991
0.034152269405662954
0.17154889210580965
0.1278864301393551
0.11172393595819322
0.11416162354326019
-0.08550952456758805
-0.3086800948318067
-0.16575404633865692
-0.0494306385550003
0.06374729890981415
0.20425083151280626
0.1971506203416142
0.05212139677363626
-0.039917304854281764
-0.10265465586347029
-0.16525830097458943
-0.05257232001851082
0.021468029459779606
0.05538518731286338
0.057291752191619055
0.03981662513857898
0.015266686062292293
-0.007359611548907259
-0.023098678358189798
-0.030089408976887617
-0.02808797567108101
-0.01748791813521821
0.000569897159685543
0.02309043570205721
0.043841319796170036
0.052752414493455906
0.03703124453570536
-0.01571133211522113
-0.11302292059559431
-0.05348604125714208
-0.0248453072876798
-0.005677669564791822
0.029464802231353716
0.10292025453178653
0.02709173799967052
0.0001620578243144526
0.005702364814383343
0.016279442149709375
8.113039167075943e-05
-0.07108769606056688
-0.014381221965233155
-0.030963186936521576
-0.10498611688597885
-0.007088428632219749
0.09817624142077931
0.042826653016332615
0.04661310618845721
0.11163033046694466
0.022182860529737794
-0.04995234252792427
-0.13653609538176834
-0.06320079440106895
-0.0424574944474516
-0.07166810900412998
0.0637139200727702
0.1834238647954803
0.10538543266626571
0.041714632451759125
-0.0005025817054233998
-0.21448228497699298
-0.18828004778994273
-0.10265169991080886
0.06510005607904612
0.13180931728007175
0.29757023776187713
0.13892556273549678
0.010667836227885944
-0.1427767752112849
-0.16986127723361188
-0.2949702337222298
-0.10900034412471277
0.028223622234544336
0.174026949790753
0.1824634109807419
0.28511002863688195
0.0803778979342953
-0.06471336294640842
-0.20127715747153496
-0.17928027506157143
-0.2298443934981807
0.04432154775782441
0.06741439892430656
0.07944540006469474
0.12041495577458818
0.21575456612375926
-0.03204000144210257
-0.043277463099438
-0.0533274880053226
-0.10077745044735749
-0.2161199943267416
-0.014947615499281619
0.10246826240749111
0.1461715378790585
0.12944287157022744
0.0636836706528845
-0.04215876914132618
-0.17781201043371303
-0.1262963544565997
-0.06071198798439565
0.054074647674858305
0.05461268446144547
0.16924266335186244
0.009312654395392342
-0.0355221738226487
0.00365639021036251
0.08129316830336789
-0.052755344683875535
-0.04205970184996034
-0.11384646955235714
-0.07329046865383372
-0.10385739867467847
0.025910659487430744
0.15098273845442325
0.2976755725820107
0.07545902475299461
-0.12382781451887127
-0.11915141342920008
-0.12923047718281233
-0.1624790848890082
-0.01236933340111506
0.14013992819304
0.11874932607163083
0.14248105297209532
0.01908392629152576
-0.05635236818678904
-0.09788703316591264
-0.12298238116462835
-0.1480208336304087
0.012394487335400365
0.1421926207943005
0.21920287575738007
0.21340856825585752
0.09183259051610805
-0.16921292874152838
-0.3681498176589748
-0.26559047594554586
-0.1828356414921886
-0.015500806014634423
0.33991465709161
0.554958995254297
0.2453188059838627
-0.03609233649004408
-0.18576904295249974
-0.3209761564901415
-0.34672258832920255
-0.13012431118094764
0.1100370682849272
0.19737767801760306
0.18061451355087743
0.11312662716179074
0.036967728905290646
-0.024407917360261964
-0.06448476362451634
-0.08598933302811242
-0.09151520081933255
-0.07662445719489443
-0.028120311619077343
0.07196405794634088
0.038304785629585114
0.07336333715211311
0.16126738408421007
0.0674093037333607
-0.05510779512794634
-0.05346186684239223
-0.1611480026378458
-0.18692583220197834
-0.11104469326972978
0.10919636058694807
0.12593391504327006
0.18387159430519398
0.1061480298227229
0.08803674317441106
-0.09941592405733488
-0.09736670824348358
-0.14320707030277058
-0.056198242552310325
-0.029340953562947223
-0.029785867790934173
-0.007402546522439162
0.09108742559569806
0.10638699347233073
0.053715940893105586
0.11649770319151649
0.04876678806632136
-0.013905544282567342
-0.1376348346767025
-0.17224581772012237
-0.13752094768642972
-0.01810003474169492
0.031233171898099637
0.07155897984190067
0.16160947762517672
0.14102548383321448
0.02008752579853031
-0.02132799861813162
-0.025822579315143233
-0.04450005281508806
-0.12136095298457668
-0.08063824768056606
-0.12067935578577403
-0.016132408190524496
0.07226342798201325
0.18351027715118184
0.14277089248035307
0.153420778838094
-0.0021507606043615944
-0.15329562609028186
-0.3273312201756625
-0.13729523261256782
0.023306839377912208
0.17665534938923189
0.1499921280661554
0.16357711996248925
0.02270961040503165
-0.08320644738408776
-0.17512619780899613
-0.07570452444987534
-0.0016365735183838704
0.04017961025272653
0.05216048359863289
0.04267114753030071
0.021933705467469474
-0.0010589929613518654
-0.01989611682833173
-0.030631033036700613
-0.031056713490334
-0.020311517063123757
0.0006408781034267462
0.02777453402100224
0.05277699107101476
0.06296210809491805
0.04327330633809514
-0.019439925963122582
-0.13087573630540364
-0.08457255096365802
-0.06049596578246292
-0.028516849719226092
0.04349467432391833
0.17934885160844616
0.1858052898977361
0.04922234587876912
-0.06042958471951461
-0.179284191116301
-0.1370369844736202
-0.1473455217245203
-0.005151968996155239
0.10814785150234826
0.2142476275894824
0.1270846808994325
0.04660326034741614
-0.040085250170736886
-0.15078212616803668
-0.09713219403145226
-0.07525214125913027
-0.062080353596158065
-0.019198889064220032
0.09683612867849896
0.12089235523991873
0.06684522062708731
0.12060320449395792
0.04122227538322797
-0.029754521856839192
-0.15326545360588256
-0.17657974906351265
-0.12123633873026753
0.020986758054043632
0.08301491027302516
0.11059408062467169
0.14811970427737103
0.027029504582788366
-0.03994865061846258
-0.05795309532445977
-0.044149120107308974
-0.019706815551153115
-0.002311215315868917
-0.001018005028366141
-0.014242441780079423
-0.03091814828926718
-0.03440056178625175
-0.008306473164479645
0.05701581189714695
0.15925608909284533
0.08227504039679859
-0.0008783341045034067
-0.1202103149448483
-0.09858796772312936
-0.14287962308940597
-0.04005459379088968
0.0399481191039665
0.1354411381107395
0.08148802633488479
0.09982790992286114
-0.006413248315657778
-0.05192981117483341
-0.06341507088435003
-0.07141099740331146
-0.10292799292098324
0.02290356787101881
0.09553101777314957
0.1111685936523344
0.07067131730487432
-0.021000464404986176
-0.1533553846484338
-0.1084692324398573
-0.061030340382139454
0.017950490060661555
0.15408649745145797
0.16172378608852395
0.03871972694452135
-0.03347284418022582
-0.08412410627864828
-0.14417788282429878
-0.037401503883007566
0.02511955912987592
0.04574596904431253
0.036927917304372906
0.015621578286757422
-0.002461375676653413
-0.0073108330627680755
0.0029105907697826684
0.021536514851057603
0.03510774095869255
0.026874592962032547
-0.018445350123592694
-0.1096805123249207
-0.04548480946284206
-0.013379791238505799
0.007704206012779712
0.041949608362270546
0.10999706234788287
0.02339049351140825
-0.01800544190892325
-0.024884355801501133
-0.014275236507523976
-0.003716421927484154
-0.005532491415332818
-0.02265687177792276
-0.0470495789395469
-0.061357722087793075
-0.043931159740016594
0.0235384255705525
0.14761309225929098
0.1168020079760119
0.10040270898771596
0.05436152268144653
-0.06641389378781042
-0.2927183291866565
-0.2281654984141408
-0.044251309350936234
0.11371445505765242
0.11120175367551181
0.20493110460659753
0.22621030033503237
-0.027173369311080307
-0.18832188488892826
-0.10983296164789046
-0.04855169823511817
-0.051805957670588605
0.05133330338285943
0.05279227998783153
-0.03676824362339063
0.0066310967806309335
0.01353290457844192
0.014402814776855422
0.034275501721248346
0.0896354118572644
-0.01192408793204232
-0.0694647110924759
-0.085044834548768
-0.06046180289199643
0.003962420940906405
0.10803052137838547
0.04869354715442954
0.01729141663790654
-0.0013359329641104841
-0.027273633111569953
-0.08209955597217498
0.01511861427238174
0.05117506936321846
0.020791042690101097
-0.07265462696147994
-0.01760088038223111
0.004027563545944495
0.01402638257678823
0.03445027569202055
0.08435117392073595
-0.022405207619515987
-0.07788902650158246
-0.07987594962298182
-0.031607251840317964
0.05780376431057199
0.17275060901935044
0.09178822487308351
-0.008929025104810357
-0.1493398012309532
-0.13836269834739218
-0.1694642331335148
-0.021921549773547756
0.13162348909352317
0.3139648854123216
0.13344992116035026
-0.019765056047409305
-0.16935616947943963
-0.1424671701459781
-0.1583092994559701
-0.02084302016042446
0.08170809755787233
0.1711434525662744
0.07064229322368791
-0.002825511847940489
-0.0423352429659399
-0.05063545863189284
-0.036944217116523806
-0.012923974076844714
0.010605337543911278
0.025593917261812083
0.027545176867455837
0.015761829210861052
-0.006447472868784312
-0.03155094733137289
-0.04800592100717204
-0.04156269066815312
0.0019261356893475916
0.09247286941373631
0.03180440746494186
0.010638743930296195
0.008635643382644609
-0.0026220895936855297
-0.05423735021002701
0.02654635317425309
0.022610438380293783
-0.06833556251914966
-0.031645178687029825
-0.03699347110499091
-0.04334227475313027
-0.007163128638963884
0.10758227368944379
0.12015957277129122
0.027291822692399905
0.0030523235185999425
0.00493862152889805
-0.015281136537159795
-0.098807230157706
-0.0686084166517247
-0.1230201348738729
-0.036282410583517555
0.03371689417820808
0.13248866074491628
0.09466803068684528
0.13300896382674576
0.03431506121911276
-0.03630963263398551
-0.12431311539764871
-0.07136253995132054
-0.10246052665039719
-0.018427324566199176
0.004272374759682752
0.006708928067320509
0.0359752689562249
0.13242518879911216
0.11931759809641947
-0.0022235053869611625
-0.051697621866623224
-0.06212250257398028
-0.07012110889899763
-0.10663911779801631
0.0089604888711868
0.07028980166559956
0.08151615064961844
0.05311624934449447
-0.002061601798746188
-0.0712623739444607
-0.14304244493782883
-0.008333974000996376
0.13782683650627026
0.09432180838576883
0.05329642933005142
0.0023700030394634307
-0.07015889327674367
-0.1688712013357547
-0.08647987570792269
-0.0034021472886029665
0.10748228479727465
0.0723991555337557
0.10780890687059928
0.014509084343900762
-0.023205243305010944
-0.033272962439824715
-0.04822528029377086
-0.09680626828079007
0.0026417255973086957
0.04547014832903178
0.04045086679906514
0.00678806652376242
