0
-4.37028571304842e-08
4.4563576878615224e-08
1.6203964566189036e-07
2.6778515044955943e-07
3.02877970738302e-07
2.0901470868007642e-07
-4.239719395412671e-08
-4.189034228671442e-07
-8.075633797406679e-07
-1.023892660956134e-06
-8.612541366930277e-07
-1.7983441593485445e-07
9.856669627035883e-07
2.3418453901234325e-06
3.331025953719744e-06
3.252705256304675e-06
1.525870346181002e-06
-1.955311410830203e-06
-6.493526661420197e-06
-1.0465794111822e-05
-1.1586013254652657e-05
-7.646701837688341e-06
2.3474839067641773e-06
1.6985663202008896e-05
3.1749392323398354e-05
3.943571248180705e-05
3.214872682217449e-05
4.78864313743906e-06
-4.0812008206592505e-05
-9.276774857694779e-05
-0.00012916250836769564
-0.00012302824923724316
-5.270309268472358e-05
8.441324031543866e-05
0.00025951362972728774
0.0004083497215501561
0.0004423223972204347
0.0002780094903622572
-0.00011871935904540677
-0.0006872737070286213
-0.001247222319218906
-0.001517644218889523
-0.0011972147817365904
-0.00010078842962759953
0.0016820819246732598
0.00367214724069465
0.005011027832186247
0.004665158071249613
0.0018349884249282912
-0.0035130554073600326
-0.01018315852079877
-0.01562489366134039
-0.016408107708070895
-0.009421051449931652
0.006360801907874084
0.028041439222994822
0.047712359511040844
0.052973053215659635
0.029601705761701905
-0.03386453385604206
-0.14092138411702215
-0.08337599995105051
-0.04123372477148669
0.012848643965083527
0.10558175770464823
0.2544662269182972
0.06229163705496446
-0.08267688497942667
-0.2008569850427932
-0.1127574680494512
-0.031838925204792645
0.03808159037242425
0.10047393367403115
0.16091941465365692
0.022306900617986087
-0.11718301120970988
-0.06285287032776717
-0.0204370780570217
0.006717297041607038
0.018878124538785294
0.019414157459338083
0.013236300810472782
0.005094610483277886
-0.001617310845273214
-0.005301782605391485
-0.005935407432709016
-0.0044687105860637105
-0.002156263571461705
-4.344851497470054e-05
0.0012898634651571249
0.0017416642582399422
0.0015389813742516542
0.0010314515263928797
0.0005140819290998232
0.00012989631099639265
-0.0001355872239595735
-0.000386954395145454
-0.0007163252300852636
-0.0011102733812942964
-0.0014071581278262775
-0.0013321667261171346
-0.0006141468380070786
0.0008427219477080582
0.002792440592544888
0.004569903487095635
0.005186761520688417
0.0036465705092470616
-0.0005545368510061277
-0.006884097024274178
-0.013431217931447326
-0.0170541737532074
-0.014235879194882235
-0.002652884286848826
0.01686751044505815
0.03867988843883243
0.05183193556026561
0.04153015147379569
-0.007213867363810107
-0.10444357509778575
-0.050238897926728185
-0.03183910341789398
-0.02443829772616479
0.00405691722241883
0.08545075855041885
0.0430629582923192
0.08544983146414781
0.004055429269259839
-0.024439688248296104
-0.03183960684000165
-0.050237846591314375
-0.10444074089837747
-0.007209758226182455
0.04153415647575334
0.0518337704261497
0.0386774067652283
0.016859472996936572
-0.002665695235151693
-0.014249887416127179
-0.01706315561704413
-0.013427830838982049
-0.006862842105059008
-0.0005155319256995135
0.0036943942837803245
0.005224948174821238
0.004574039263740372
0.002740725936066428
0.0007282302436621481
-0.0007714241981915145
-0.0014795483516509506
-0.0014662590054639224
-0.0010007118791096733
-0.00039417286056043935
0.00011246233458974798
0.00039792305559604047
0.0004544397111140342
0.0003484815006510486
0.00017276575818807815
7.707768769946823e-06
-9.913561301924065e-05
-0.00013582703981063475
-0.00011668893003869046
-6.81929299534539e-05
-1.624331129569214e-05
2.1692326540691657e-05
3.893146231989713e-05
3.7699502142021864e-05
2.5164307984825622e-05
9.38590404273727e-06
-3.5245009391913918e-06
-1.0594420599298371e-05
-1.1764258045942264e-05
-8.836099754130891e-06
-4.228056341035246e-06
6.006903490437442e-09
2.683144596925984e-06
3.5403502161476894e-06
2.9787130324731486e-06
1.6944546068294485e-06
3.5344045430826364e-07
-6.053058894361918e-07
-1.0231958215572386e-06
-9.68542998696216e-07
-6.3193905663545e-07
-2.219222835227325e-07
1.0664032726284487e-07
2.811442545126811e-07
3.03699839230384e-07
2.2306747891443232e-07
1.0235092712656777e-07
-5.935898008403378e-09
-7.237862268111948e-08
-9.141946251900523e-08
-7.443403521399881e-08
-4.007690931994503e-08
-5.858117814838875e-09
1.6933799058737937e-08
2.4650157803249784e-08
1.9937724229855887e-08
8.987421898368507e-09
-1.4032632568847603e-09
-6.1680503420535725e-09
-3.371666293429027e-09
5.377710883060044e-09
1.5449918099993645e-08
2.0586882825067546e-08
1.5056281242498104e-08
-3.747355318603289e-09
-3.291166752015247e-08
-6.283943613733201e-08
-7.844331208977864e-08
-6.34704929017408e-08
-7.717934403087904e-09
8.46318910120901e-08
1.8891713875838276e-07
2.603917308016966e-07
2.446656414294891e-07
9.889144936752706e-08
-1.8047584479115384e-07
-5.331804427643823e-07
-8.278741959958471e-07
-8.85604347607952e-07
-5.403728823527389e-07
2.715515386161096e-07
1.4208852866530046e-06
2.5370265714382866e-06
3.050634870299775e-06
2.35885995267538e-06
1.0298425650552593e-07
-3.5130976571643953e-06
-7.496809584693752e-06
-1.0098281482162911e-05
-9.233161945019585e-06
-3.315680995821097e-06
7.670462793381904e-06
2.1253102464612676e-05
3.22455498608061e-05
3.3727100628487663e-05
1.9447209615635842e-05
-1.2705143185798543e-05
-5.7258395287193826e-05
-9.945372866247745e-05
-0.00011712789457985268
-8.733795449168219e-05
2.7844768947829227e-06
0.00014384368022326023
0.00029588708658898966
0.0003903578939741138
0.0003472773909860264
0.00010802898795438383
-0.00032335668706265537
-0.000845826534763638
-0.0012547886833008245
-0.001282831351499724
-0.00069501560246598
0.0005765646497748092
0.0023025142036236473
0.0038969098476543933
0.004499627116581462
0.0032419210202399157
-0.0003291646749515209
-0.005784577277526932
-0.011511203126656358
-0.014819678977504944
-0.012650682727090776
-0.0028874037166227344
0.014004037670618813
0.03359340149031756
0.04714261648974872
0.042988151604837564
0.009854931620378682
-0.05853782454874904
-0.15916175148840347
-0.07776766057988516
0.00896393073154409
0.12714397621321213
0.09728147134182671
0.12714397621319334
0.008963930731507985
-0.07776766057993377
-0.15916175148845368
-0.058537824548782785
0.009854931620383634
0.04298815160489962
0.047142616489870746
0.03359340149047555
0.014004037670757339
-0.0028874037165820166
-0.012650682727224092
-0.014819678977847592
-0.011511203127161355
-0.005784577278040118
-0.0003291646752251659
0.003241921020479454
0.004499627117513937
0.003896909849222537
0.002302514205423744
0.0005765646510545072
-0.0006950156026393042
-0.0012828313538840014
-0.0012547886880043603
-0.0008458265408146532
-0.00032335669226126005
0.0001080289866648923
0.0003472773965100881
0.00039035790754416534
0.0002958871061876097
0.000143843699691068
2.784486561767208e-06
-8.733796507828415e-05
-0.00011712793195857489
-9.945378996337386e-05
-5.725846418522535e-05
-1.2705190136358983e-05
1.944722048963989e-05
3.372719753131468e-05
3.224573497074886e-05
2.1253335754217697e-05
7.670657258193962e-06
-3.3156437267649886e-06
-9.233391479887118e-06
-1.00988195631993e-05
-7.497570125387413e-06
-3.513834971496969e-06
1.0264701195285164e-07
2.3593211911463532e-06
3.052130749253936e-06
2.539420431507423e-06
1.423518605459202e-06
2.732655572946696e-07
-5.409564541474885e-07
-8.895315076430535e-07
-8.351502895313884e-07
-5.421635013405655e-07
-1.8772962666640383e-07
9.7945467654665e-08
2.5415489986111785e-07
2.8169668440226646e-07
2.1839650865329982e-07
1.1250238389790795e-07
3.8747458054872705e-09
-8.331685927021207e-08
-1.3819626626730715e-07
-1.5621463930154613e-07
-1.3340749060212288e-07
-6.597062932529866e-08
4.3984908578669514e-08
1.793182385227775e-07
3.010997855369622e-07
3.5083999830896197e-07
2.6636982864602793e-07
1.0968367175669054e-08
-3.9193688252368857e-07
-8.333783795514366e-07
-1.121384239517866e-06
-1.0266868508610892e-06
-3.740699061780864e-07
8.394432392200802e-07
2.3425391596098555e-06
3.5636046378317273e-06
3.737835334024302e-06
2.171952534823114e-06
-1.3725150960459968e-06
-6.297547539919707e-06
-1.0977656690929164e-05
-1.2964474322819931e-05
-9.715690331806744e-06
2.0655810087882546e-07
1.5785977547133077e-05
3.2628446602290604e-05
4.31668868683173e-05
3.854876042422121e-05
1.2252646170521528e-05
-3.5344818129637244e-05
-9.315069134187647e-05
-0.0001386024644391216
-0.0001421300263941538
-7.766103140056814e-05
6.249974632543284e-05
0.0002532110166280506
0.000429825041228423
0.0004971153490508759
0.00035845563357271543
-3.737550334694439e-05
-0.0006445988101624514
-0.001286691792092977
-0.0016674851742176245
-0.0014476440039123402
-0.0003867702508746917
0.0014808569437588979
0.0037040570854082857
0.005395691379869251
0.005417796127536363
0.002798328110099043
-0.0026914034190144483
-0.00999032432539401
-0.01652098835359116
-0.018584016995242286
-0.01254856749800124
0.0032676335044547066
0.026520608575606112
0.049413760792357236
0.058906503242345594
0.0392629659520402
-0.023128111373812647
-0.13384870533323456
-0.08564741146209572
-0.05715245386060231
-0.01655975603474886
0.07017187769251308
0.22915341038503642
0.07017213097343518
-0.016559312117059893
-0.057151946464579766
-0.08564702526783312
-0.13384865128222412
-0.0231285612502739
0.039261972820869864
0.05890515238124976
0.04941250546278715
0.026520109274574145
0.0032685602083263004
-0.0125458548779092
-0.018579823900517444
-0.016516521775253257
-0.009987623266764969
-0.00269281927204473
0.002791107271516263
0.005404961578295172
0.0053803102598251554
0.003692230593976432
0.0014804753079707296
-0.0003688772212656924
-0.0014096879172222653
-0.0016165265119157785
-0.0012402966323135287
-0.000628279900348151
-7.663178414082395e-05
0.00025071325596341275
0.0003342331232331739
0.0002600694231974206
0.00015625051630635458
0.00012836878281287975
0.0002130823650011479
0.0003607171344961243
0.0004516257638008074
0.00034426104491989203
-5.5084316183571075e-05
-0.0007203673107205636
-0.0014598402892896949
-0.0019272180466679285
-0.0017127863358104769
-0.0005136906570864312
0.0016545242932549317
0.004284011315658869
0.006344114707752689
0.006491126482702843
0.0035536490028137135
-0.0027860228792004407
-0.011337427182877748
-0.019115743605993846
-0.021787329236803956
-0.015071449930853686
0.0029990613094741324
0.02950327845899177
0.05471134548078349
0.06196005749113875
0.030181675042876836
-0.06087673142579936
-0.02385240377592891
-0.05748397262494771
-0.14327806703677193
-0.04699707707012808
0.07455356659983897
0.06287837830733227
0.14649729982554327
0.1329530721197749
0.0072269779007439125
-0.06256395729096823
-0.11409504158096179
-0.17845331923184432
-0.07106513926071814
0.010812891069104637
0.08350374931152088
0.16757718916901257
0.07790646887768037
0.017145685689341324
-0.02515451815359413
-0.06812617801448935
-0.13227469137793998
-0.03250832192637246
0.025880795736689482
0.047282648403317445
0.04264959890402827
0.0250308647078761
0.005630346522753061
-0.008469579434834104
-0.014700240193044233
-0.013990614197484784
-0.00911540170986726
-0.003120039059396866
0.0017334309943844506
0.004372396222027757
0.004790559164486355
0.0036369965228494456
0.0017618757210243923
-0.00011283346945495234
-0.001534311771127751
-0.0022997168281180583
-0.0023582376983833594
-0.0017237315118727634
-0.00045753665512320637
0.0012705019805291473
0.003088431452042355
0.004377731603178512
0.004361892305819265
0.0023713395945197937
-0.001751838959473937
-0.007245173292862279
-0.012230913576304266
-0.013970916202624481
-0.00972040551575724
0.0018754658340054142
0.019185041688514985
0.036407084903336266
0.04352502048194853
0.027928463058626656
-0.02232831183979542
-0.11446998917511222
-0.04768104273142191
-0.012148078886467812
0.00869507451613585
0.03324529400939843
0.07592409995999413
0.14286549752359284
0.031125682323486007
-0.06785075125113572
-0.16169180383957005
-0.05037681067284071
-0.12268646689237164
0.04203604610465453
0.0670184712958612
0.1686629838678682
0.148527026245741
-0.009778282248859006
-0.1372733952826295
-0.07118534657247773
-0.044821314659642675
-0.07949926501706031
0.01900271904794022
0.05901833137394404
0.05790088577527967
0.035570739333568205
0.008988998808850911
-0.011005365196939634
-0.020218720281199316
-0.0196381330804204
-0.013050733702957076
-0.004751839796441174
0.002018451246092019
0.005711444107932279
0.006329864311097388
0.004843853885742091
0.00251113583176225
0.0003543479524859167
-0.001089553503705588
-0.0017577571339968646
-0.0018780352301243583
-0.0017318904288189903
-0.001469803515120802
-0.001044761764767732
-0.000280329066050465
0.0009597766602663702
0.0025738463436762696
0.004092294606976762
0.004708429540251323
0.0035242379394195594
-9.662682175550813e-06
-0.005581484702897169
-0.011651495077242984
-0.015496681747469347
-0.013881255645750934
-0.004386928931306588
0.012858032206579
0.03364164521127539
0.049134448803141696
0.04711039289310388
0.015203830033698348
-0.0543809760164968
-0.16029799455298419
-0.08984226074527486
-0.020942546871412285
0.07137079303310012
0.20602519829229815
0.1882287625598913
0.00680865110116655
-0.16175385109171223
-0.14417103367581283
-0.16026641816871603
-0.016515129141619993
0.09429623584045368
0.18799133109619945
0.08172744839755003
-0.011729110802454087
-0.08597932555004896
-0.13950410454278647
0.027207797250786297
0.01368020662054966
0.019588160747710245
0.04347030556694696
0.08128847932779583
-0.07398725920207203
-0.031308449109247086
0.0006181468709605256
0.01573080192079949
0.012488642635526393
-0.005147521653822557
-0.027760621791627166
-0.041685235678502346
-0.03151637563607497
0.016216308185932355
0.10893239425047853
0.044774276550322956
0.011728628851683789
-0.010118576632132455
-0.04365017165848676
-0.10872225037707947
-0.017190381133166757
0.029392675533006712
0.03889121423857643
0.025238887426463966
0.004056065225268999
-0.011414897082579843
-0.013249725124308805
-0.00038782994298811946
0.021236389616812654
0.040004789749385206
0.04143204387964834
0.012348791457317865
-0.05424034471090409
-0.15505327302291902
-0.07505512018334422
0.009949458428996921
0.1267302159072301
0.09611153868600682
0.1258603757456116
0.008008600439517888
-0.07821743035903257
-0.15915139394784694
-0.0582395466894645
0.010242377397504585
0.04331116138809066
0.04732403123874492
0.0336284971592466
0.013935435647603089
-0.0030003418743332418
-0.012756424978439214
-0.014887647547913224
-0.011533610850106644
-0.005770588560680644
-0.0002960314899927641
0.003276913571802543
0.004524292834577016
0.0039059918521806305
0.0022970037922044827
0.0005617193154367337
-0.0007119350353342572
-0.0012945739829481574
-0.0012558021904865134
-0.0008337366960303366
-0.00030021592002839835
0.00013509769915505399
0.0003667374493255612
0.00038892296783810023
0.00026338916660582695
7.946773818303322e-05
-7.945537227537179e-05
-0.00015699458321583327
-0.00013269191592715502
-2.2201311715709458e-05
0.00012823522067514632
0.00025215785273517645
0.00027907761888406766
0.00015712085001717737
-0.00012043260997402984
-0.0004924426415264098
-0.000823429663729835
-0.0009265445401597461
-0.0006232040401600805
0.00016720606852806407
0.001333253833418156
0.0025164178424600158
0.003145027013893789
0.0025926409517793383
0.00045568414909640193
-0.00311681914094025
-0.007173775048831516
-0.009963664887584489
-0.009336061885540849
-0.0035860150012329136
0.0073996477029145856
0.02104910811716185
0.03157330951101434
0.03048098818053211
0.008343591123805326
-0.04252751239219147
-0.1254543321320405
-0.03812440567557279
0.02636044114505721
0.07630237539514771
0.11768313966991144
0.15224264843681515
-0.02086894983661702
-0.19998224525580732
-0.17481747935096914
-0.12328587965784588
-0.01430039782606806
0.18315177737682709
0.28793019854210766
0.09706073934549045
-0.016719711332127084
-0.09854444474246267
-0.1985533755788097
-0.157792644737744
0.0017358987582357687
0.07973381662910053
0.09317115814735362
0.06766514202317926
0.028503793053876767
-0.005712254111565573
-0.025587005343168184
-0.030027907236831557
-0.023309330370707957
-0.011663285471998072
-0.0005740201943648767
0.006671568463749741
0.009203849495191397
0.007951655455306201
0.0046890320017655245
0.0011687607465171756
-0.0014186971889568326
-0.0026114994207312725
-0.002553571849015803
-0.0017269305317955412
-0.0006757970374699208
0.0001881558855996885
0.0006677486618835399
0.0007641671988724933
0.000602578967147986
0.00034329792901163314
0.00011180495804658703
-3.562086103076036e-05
-0.00010961425251117703
-0.00015878061834943824
-0.00022958263678906547
-0.00033131322647529356
-0.0004197309269550213
-0.00040760307335398205
-0.00020270339013080173
0.0002358429445554845
0.0008420999553765223
0.001415422112159565
0.001647025947595364
0.0012166078382538981
-4.999553316108756e-05
-0.002005232668497765
-0.004062576291154624
-0.005229620321280037
-0.004365028123942693
-0.0006702119122167182
0.005672938221178307
0.012913022604730158
0.017443942201293892
0.014033906927504482
-0.0034088141718857557
-0.040816997120141627
-0.10326843905239368
0.004785041974261366
0.07824790208658555
0.10987601422606505
0.09009405274469633
0.009495684323500082
-0.13599667427400142
-0.13925183195362295
-0.17851318243975173
-0.01918873250399965
0.17867967250315803
0.24991612379106276
0.21553789813964014
0.08045921037129862
-0.36104693769783913
-0.3152832712502535
-0.1807747676015868
0.05259505221699755
0.19548542131690952
0.446117680186983
0.17989597256141038
-0.051725739951000466
-0.3112032975722728
-0.2576951636750096
-0.13035798604931134
0.0608146071777
0.1337111474161502
0.12437903528934106
0.07387527237752899
0.0168594131757424
-0.024876542317882284
-0.0433507595156975
-0.041215666115146134
-0.026737981645626522
-0.009034640316756107
0.005126009594530041
0.012579689832865937
0.013423812490475239
0.00978281850188157
0.004399967525077087
-0.00043934903975191076
-0.003439966920549533
-0.004323480136068772
-0.0035338340397026535
-0.0018398796851615744
-2.316499896242811e-06
0.0014158257524493898
0.0020998154034262456
0.0019514637136880332
0.0010421053457034266
-0.0004067936056577152
-0.0020148870609615153
-0.0032452467052571624
-0.0034747457656970535
-0.002173303277553072
0.0008184827448753561
0.004996455922359264
0.009034177215265102
0.010930759703100184
0.00858311847048651
0.0007532747211968564
-0.011817395324586907
-0.02561829963004403
-0.03449704955812423
-0.03120145391135509
-0.010447189104154625
0.02702575884201197
0.07068002325906904
0.09847155839065555
0.07889782023904636
-0.022429032512983706
-0.0325804856472519
-0.16022441509597726
-0.18758570105212136
-0.06917914230976234
0.06084745231169682
0.07400532912609296
0.22967649709539448
0.16009971246854823
0.0632725951536756
-0.09391399109355561
-0.1638449292710616
-0.2024136108830273
-0.05519157007672028
0.05006656480203051
0.10339219225305699
0.10709289458728785
0.06853114316703068
-0.0053730031603315374
-0.11027797456757135
-0.043646008616131535
-0.0027869571981030306
0.016558364252722887
0.0203072562511532
0.015032330410382506
0.0066091903841809
-0.0008055797484196511
-0.005137429502827905
-0.006127866523098815
-0.004688143517331524
-0.002172774454727217
0.0001978509614411454
0.0016596455166781549
0.001979462992124446
0.0013586070024204702
0.00025823676252502176
-0.0007817894407798075
-0.001295208816118409
-0.0010063112339772616
8.559367094126428e-05
0.0016616739150067566
0.003105384265382798
0.003627076995040079
0.0025131326330885256
-0.0005254825227888595
-0.0050008553500610715
-0.00945597789269484
-0.01162448666098881
-0.009082425238150166
-0.00038246792714425454
0.013566006054499565
0.028339578296097616
0.0356554392248633
0.024312820230194532
-0.017518128427651273
-0.09923122928012855
-0.025073500027869084
0.007000336597990674
0.004296461493770401
-0.02342795727530603
0.13272898719923712
0.07867657251618353
0.017751031100587122
-0.04594204596849984
-0.10245728115321999
-0.1317824903168949
-0.10334732225485105
0.018985027039916044
0.06699877032440148
0.25638046180532
0.1778224864312978
-0.004764528474718321
-0.14726054679678152
-0.1115990829750984
-0.15021114163801974
-0.09415972517976776
0.051343579543206806
0.1034598903270763
0.09264167114065681
0.05189150805531151
0.008069505785149329
-0.022638557971638596
-0.034934069154111916
-0.031574803583668994
-0.019325753258565153
-0.0052887424946625634
0.005453546726521281
0.010671478580469702
0.010629242901917907
0.007102741567342386
0.002318565843815711
-0.0018318868969193823
-0.004182222688274153
-0.004346501649113222
-0.00258793995620457
0.00036147205081379105
0.0034638871235914883
0.005537196224408332
0.005479517804671629
0.0026060336584277114
-0.0029309763442092896
-0.009781496051027896
-0.015333690007752606
-0.01619539874068117
-0.009349232801510605
0.006152492423918825
0.027430709141676432
0.046732850497746344
0.051935094643730716
0.029108009967683264
-0.03310136172192488
-0.13853767646197052
-0.08013920874667396
-0.04016521943315289
0.004996176096388475
0.0764436221544705
0.18370922215926408
0.11886385714523136
0.056969177754443046
-0.03614216646487434
-0.19083869477401805
-0.22012635935546798
-0.11115067782660651
-0.025847121348401534
0.0886822737020143
0.28352396140337677
0.19125382055952495
0.015560870639190278
-0.06903607958202922
-0.10776596920781228
-0.15051107560519916
-0.036602192081027954
0.01577674341214872
0.013149695551248865
-0.016701468165099553
-0.033502635116762686
0.0038826856494203438
0.1256901606514218
0.14221989812592886
0.0401321118626963
-0.014489663363206822
-0.06696537124442371
-0.16162418722539154
-0.13034285472486312
0.014212302656402578
0.0788089783178163
0.08414004983098848
0.05642077936854384
0.019444800499593313
-0.010509809763893058
-0.026159235078293704
-0.027729534130715872
-0.01990150021610253
-0.008611357956044587
0.001303061561701589
0.007220564271735436
0.008741243659977239
0.006992873626093415
0.0037149379254180054
0.0004886279508559858
-0.0017004462056066179
-0.0025525802751108144
-0.0022964402343274445
-0.001423603527995888
-0.0004374695154637486
0.00031025743828891957
0.0006760356181483853
0.0006944962577381572
0.0005017692956342698
0.0002521452378216111
5.644428856980684e-05
-4.5163835185471544e-05
-7.684198395148594e-05
-9.717849974760018e-05
-0.00015966642829232905
-0.00027794058401412684
-0.0004081125839530119
-0.00045655490776701436
-0.00031526950409775623
8.17014243094546e-05
0.0006976134757097913
0.0013538921640925963
0.001741400772015834
0.0015029969470148007
0.00038622020885826884
-0.0015691186964885428
-0.0038804631143242504
-0.005604439848036115
-0.005537114782149778
-0.002662343576641119
0.003224112373526328
0.010910871681031642
0.017480224982597305
0.018628187527246674
0.009752434904152714
-0.012331160186282374
-0.047563806010815515
-0.09152202791408276
0.06423775427522964
0.030142426154685143
0.015473419333879322
0.025333630256536486
0.0588562279942289
-0.09078325698770633
-0.034747405296354394
0.01394809593368473
0.04299638312286787
0.0430675973567416
0.009823913941665464
-0.05435533577448996
-0.13950477814218998
-0.02904002304569884
0.09679579461520361
0.05554080082592573
0.0570253059340534
0.10009296696841902
-0.026942215212354636
-0.14218781901990848
-0.06412466723785894
-0.006135428606812727
0.026360064268022627
0.035581943509875126
0.028745015493431014
0.01462701454097538
0.0007053864071013095
-0.008422968068533059
-0.011294105521648161
-0.008896364333672514
-0.003590696975866932
0.0019312072031683958
0.005422256410665216
0.005554887131687188
0.002164325516439825
-0.0036784217735292796
-0.00978160039374542
-0.013232482874542378
-0.011182247730447688
-0.001998911494197663
0.013456926176112716
0.03093935678575162
0.04297100290956438
0.04060936690216165
0.01693462060223502
-0.02842865804766545
-0.08537817177812095
-0.13230182585775013
-0.1402277053615148
-0.08329149605368813
0.04566408123905246
0.2185573521306027
0.36142417878434613
0.35725066842428205
0.2675162719709761
-0.02811050081224645
-0.5825188714836042
-0.938424030230821
-0.7112845844968345
-0.2121928059014986
0.2880466694158018
1.4696515597617685
1.0790258460058595
0.4803607291873111
-0.33628165537004817
-0.6923350404674401
-1.327108063923123
-0.5076630081655439
0.02758479493722098
0.4776711242877844
0.5462226513989829
0.3867494617116997
0.1489193192252679
-0.057818123579205
-0.17751724238902086
-0.2016147040971884
-0.15220682845839437
-0.06391800935341078
0.02941535096586437
0.10125346764737544
0.13367005572980856
0.11688851319752204
0.05009743868595268
-0.05546030939405663
-0.17292823020980858
-0.259880954150318
-0.2665869596078991
-0.15513011299402077
0.07243194142073307
0.34456529987041656
0.7022799945390314
0.9073128148741302
0.48696713498041844
0.014913630658563829
-1.1891854378563753
-2.1743797202736106
-1.5275706469706931
-0.4272032463268363
0.8166915807475892
3.1717447762424826
2.506565647990433
0.6966994180608921
-0.7460926738141267
-1.7294412443719878
-2.7753505244413303
-1.030234301164914
0.24666042782326886
1.0905390573836022
1.1509895063903852
0.7696795954309128
0.26504355264671636
-0.1423928327798748
-0.3535741793143591
-0.37245149676464967
-0.2647326372144408
-0.11361737861647954
0.013571099229027373
0.08199442583887313
0.09016497327162094
0.060105053651022325
0.022895586016081926
0.0047479332328807
0.01697216164830016
0.05158143975110263
0.08310463106123284
0.07628017096880736
-0.0017503511553051967
-0.16756471949039312
-0.21019455214362545
-0.0873910636668313
-0.13319916735925444
-0.0775937806845803
0.12511405545801269
0.26622999793435287
0.26058864138065413
0.3420628221535816
0.28320214811915534
0.039471654173729956
-0.38925362636333066
-0.6947446765699199
-0.8129895855438654
0.089881788608742
0.3907569731730837
0.34742071157839255
0.2176177183723565
0.1792678102825797
-0.3319644360593315
-0.0585013967728157
0.8733591345323795
0.3780605927040059
-0.13632951378248098
-0.49436809936044285
-0.6738327393706522
-0.9412795131713985
-0.020838331064124426
0.6964457953374876
0.7105458344760126
0.35713325204002516
-0.0396059994385289
-0.19265990944099248
-0.25507863870022845
-0.20786627719136552
-0.04354143033869441
0.046419042040960895
0.07683355161133477
0.0676508204656381
0.039496664531755626
0.009152257338032915
-0.013033194674483576
-0.02329832246390649
-0.0228113585983457
-0.015290649871200362
-0.004904038540858715
0.004982669621848287
0.012146669785718553
0.015264397497534749
0.013568250756647767
0.006806616162559196
-0.004354784740039061
-0.01769154409550042
-0.02902230934300481
-0.032631350656386116
-0.02290374774580652
0.002917887105762994
0.041626971313525614
0.08201691495219626
0.10562112011354104
0.09152195654114817
0.025223050966551096
-0.09047381609114145
-0.22688608528510076
-0.32891300178066146
-0.32781825583142665
-0.16936052086714748
0.14668924163911684
0.5269799328105715
0.9623375194775934
1.1414052638716403
0.7118868244300908
-0.8148061155964138
-2.341351277980093
-2.2886925663237
-0.37241743017582596
2.5242900943002162
-1.8060238151098849
2.510847395097724
2.659548638241716
0.23921997282962953
-2.929323311315831
2.1004782497783783
-1.234531704157146
-1.631964275474556
-0.9839402987045042
-0.10491725119087365
0.660797513998947
0.9647206886312859
0.7457870907898119
0.3262623408450201
-0.0590681856247013
-0.28914514650396456
-0.3440291941994075
-0.2693890085180929
-0.1359275221427786
-0.007194795006113457
0.07789992696808026
0.10820390165602523
0.09359853714490309
0.05427814415694905
0.010891261349527257
-0.021731281072035768
-0.03674026853907643
-0.03433809241740007
-0.01936850699173422
0.0011722393990918482
0.019971098551211288
0.030568161469684375
0.028292085000497503
0.011400655264698174
-0.017529833135480757
-0.050520784100568386
-0.07445326942239715
-0.07375738018070743
-0.03598052996683696
0.0406086181611134
0.13984945786625094
0.22471403806242338
0.24240397735796415
0.13961797380718508
-0.11373372142580844
-0.2991365045255107
-0.533574481413897
-0.6756837283658169
-0.5628978810971175
-0.07925888176196605
0.5600493876434852
1.5355546564901639
1.9984387440663922
1.7263557782607535
0.07193203205889465
-2.4202544469677325
-3.5916840075081424
-2.9293157918301627
-1.38160816827158
0.8424781867089168
4.134799674972989
4.113628311650336
1.9401955151479964
0.22416313755455927
-1.2530817157202716
-3.246768317057166
-2.6923562944790262
-0.9992163053446823
-0.07823105318179764
0.8687360478973621
1.625608460647942
1.3688704073115214
0.675353547936554
-0.015151873128762382
-0.45902912040449445
-0.5964250608349365
-0.49356027585775414
-0.27128037235172414
-0.045043046668362965
0.11046379581190681
0.17075918534414458
0.15181346261372736
0.09097264008351148
0.027486695104509313
-0.011598413495931086
-0.017953716313845007
-0.0013320777189432984
0.01632727888073521
0.009699985347748127
-0.04059128667770369
-0.1404397709405944
-0.07867787979897702
-0.028947364355715433
0.043003407325867056
0.16865295637493094
0.16638307072081734
0.03548127444144261
-0.04308357390277541
-0.09946061288229961
-0.1643481195293669
-0.05938872548782165
0.007836767862198234
0.04277410465475416
0.05792709072260705
0.06483935366445312
0.06735877900070489
0.058770093905799514
0.02388524024533503
-0.05462477214057712
-0.18806887613725332
-0.17519370744575624
-0.0004221448209506994
0.1618927677615899
0.13887154032431667
0.15011650757493203
0.0024407141171447102
-0.10964532578263443
-0.19870574594468565
-0.07766792771358476
0.044930938938428255
0.1661412245421805
0.08716785671178184
0.011672108906900628
-0.054341059274197176
-0.10105582345951003
-0.1135500171842674
-0.07289224501004174
0.039230505346037614
0.23330125375502872
0.10510662889851605
0.032779788267528955
-0.02003381199755762
-0.09541040227470993
-0.22992608499366382
-0.04527595948597296
0.055814471701042576
0.08734651460184256
0.07314710649904443
0.038553576204802945
0.0037545031947383875
-0.019537407327924073
-0.028027162282108945
-0.024465796289385163
-0.01442643827063848
-0.0034684329926618113
0.004612600386563954
0.008324853479513361
0.008097527128033834
0.005438244615327636
0.0020640356379034073
-0.0007130008368419495
-0.0022474013778592135
-0.002517519662455459
-0.0019035701117395274
-0.0009216775689335027
-1.3111780285722317e-05
0.0005657846846831029
0.0007556032216076718
0.0006400673807910248
0.0003673612868235342
8.025096567850747e-05
-0.00012644168832887107
-0.00021779729977674449
-0.00020768699659261134
-0.00013652768080998418
-4.8929519358012283e-05
2.175478641824414e-05
5.9695842818315623e-05
6.508795885056955e-05
4.820367600026867e-05
2.248918445460899e-05
-7.941004790438532e-07
-1.5278752450203462e-05
-1.967948842782855e-05
-1.6327479502281293e-05
-9.115249924520325e-06
-1.7094652104883447e-06
3.5094778402585844e-06
5.717322558853541e-06
5.33146660662796e-06
3.4247953198425817e-06
1.1503936551738959e-06
-6.474691521570161e-07
-1.5831881115841282e-06
-1.6816143071084243e-06
-1.2195611044277276e-06
-5.469507504946073e-07
4.915031423337426e-08
4.109615533797873e-07
5.117066104439417e-07
4.1585010267090987e-07
2.2548664830045885e-07
3.468513568519955e-08
-9.689680263308683e-08
-1.4997763344511567e-07
-1.3683581897057543e-07
-8.589031891438981e-08
-2.6911059478191584e-08
1.8760242242018163e-08
4.176961266620679e-08
4.326499477425785e-08
3.0681343817757505e-08
1.3113243990646377e-08
-2.1305309086354988e-09
-1.1150219631576706e-08
-1.3419119878724901e-08
-1.0709033733612429e-08
-5.6936233422952546e-09
-7.834770314055878e-10
2.5289564611104683e-09
3.797554300427386e-09
3.3773570551205788e-09
2.019621804693917e-09
4.920461746774484e-10
-6.666572281890298e-10
-1.2306477551897483e-09
-1.2424738247124746e-09
-9.012363535205348e-10
-4.430083817680489e-10
-5.364308511662127e-11
1.7073615100033276e-10
2.2075516977148522e-10
1.4485251643469318e-10
1.2942708637962991e-11
-1.1327217488111221e-10
-1.9652665710343324e-10
-2.266375677489373e-10
-2.1373313338558211e-10
-1.7763515141479726e-10
-1.3811797842823326e-10
-1.0875980750141077e-10
-9.49842537200191e-11
-9.536399356552778e-11
-1.0458192449238468e-10
-1.1651773718529276e-10
-1.2645136980791617e-10
-1.3202058636441841e-10
-1.3309164389466645e-10
-1.3098255809355954e-10
-1.2751893829936872e-10
-1.2427829712901027e-10
-1.2218925858834712e-10
-1.2148030109142788e-10
-1.218656478495964e-10
-1.2282324425959415e-10
-1.2384432214281843e-10
-1.2458716591866999e-10
-1.2492231609548773e-10
-1.2489498594764745e-10
-1.2464681540587435e-10
-1.243362946309496e-10
-1.2408315838668698e-10
-1.239452847921846e-10
-1.2392336220609441e-10
-1.239816695796088e-10
-1.240725734518666e-10
-1.2415574160942387e-10
-1.2420802899005297e-10
