0
-7.849695763583858e-05
-7.850416664188662e-05
-7.850915252802511e-05
-7.850816778978851e-05
-7.849823218891845e-05
-7.847904681490225e-05
-7.845469771932469e-05
-7.84341874021016e-05
-7.842985187226605e-05
-7.845321610691736e-05
-7.850884358159813e-05
-7.858804663399483e-05
-7.866547653323081e-05
-7.870194520196076e-05
-7.865570503895105e-05
-7.850153728096458e-05
-7.825277412496675e-05
-7.797710454760934e-05
-7.77947662875625e-05
-7.784979139828398e-05
-7.825283555106847e-05
-7.900727219167886e-05
-7.994526011735462e-05
-8.071108043480338e-05
-8.082739136625897e-05
-7.985987739650844e-05
-7.765626173635068e-05
-7.458505510084066e-05
-7.165622790731766e-05
-7.039580103351118e-05
-7.239332572544789e-05
-7.855539748290871e-05
-8.826245888505416e-05
-9.878830024906325e-05
-0.0001054208169916731
-0.00010263154425476673
-8.632634615666426e-05
-5.669562096849335e-05
-2.0607380995603394e-05
7.901446923588474e-06
1.0381419604809768e-05
-2.949875720021672e-05
-0.00011667517176616961
-0.00023564327052337167
-0.0003462364572909369
-0.0003891092248885564
-0.0003038550437978485
-5.8162056579185256e-05
0.0003199599681831202
0.0007209918551272785
0.0009606286510678577
0.0008273460144636856
0.00017115303248723307
-0.000986171816399781
-0.002361024834304942
-0.0033939489343577625
-0.0033624548863037678
-0.0016387720041374377
0.0019494422828506338
0.006770316237916606
0.01122180475958636
0.012919012967793745
0.009312445257460465
-0.0013827290383518025
-0.01933670039362211
-0.04297824370771433
-0.07032607670166098
-0.10225886903763697
0.05256291817829437
0.1726811094625317
0.2215924605368972
0.15147202434008158
-0.08550102511362714
-0.3199658758011145
-0.14772477617794252
-0.11861593701208172
-0.13730761988117327
0.122761156470467
0.7957770526239614
-0.8031574211626488
-0.0012479337442588996
0.4165370615532835
0.4020299137640883
-0.5499072129623225
0.6170558226540012
-0.25118625460669797
-0.4876728617501194
-0.3779779229242105
0.0530395814842599
0.23726201979723982
0.24455821556347443
0.1572378095146624
0.04707710751720974
-0.038615621430430985
-0.0801646018674425
-0.08019562691865048
-0.054049463729457806
-0.020100109674380365
0.007239380529078622
0.020797447168627803
0.020613081908455146
0.011762562732595577
0.0013368456489240021
-0.004422614195579255
-0.0022285568687585686
0.007190118243282901
0.01919213806259178
0.026547212918817193
0.02191565611145072
0.00113626223276294
-0.03349085932931576
-0.07124317714393194
-0.09391335543671736
-0.08091556619601364
-0.01874962322563143
0.08675152377277073
0.1989049860656395
0.24414194843625966
0.11577532932960638
-0.11068308682643892
-0.35303578314269657
-0.0949626700969592
0.03675033797595087
-0.11543708231060072
-0.039822504375289544
0.43389770783784987
0.117221815903904
-0.35731900523298393
-0.15696193143364265
-0.07056730677675323
-0.13261433432777373
0.35183438181700444
0.38594018183047946
-0.12948485711407234
0.00978145729448694
0.5351723094606006
-0.45598049139377295
-0.4540914187206258
0.10692070923340481
0.08191487152121038
-0.5719334514594242
-0.0023175978819287035
0.3129729175939985
0.3296073086371931
0.19898726958443017
0.03931141893597247
-0.07832537845003137
-0.12846046083409626
-0.11898187130729133
-0.07466579803360394
-0.02243080074594588
0.018184783309274154
0.03852488057649498
0.039543653076758695
0.0279658302738201
0.012040323132740676
-0.0016330807429259092
-0.009603796654197486
-0.011534309923761747
-0.00918730573605812
-0.005092256979795837
-0.001412441506683042
0.0007044341017963215
0.0012394765291604242
0.0009887705990111802
0.0010110269719150052
0.002041432095591713
0.004056432134239652
0.006135124471798661
0.006704687445283595
0.004168499598454287
-0.0022108931390093646
-0.011451617990113376
-0.020419912074646326
-0.02426243490896765
-0.018005887999254813
0.0007084180479331588
0.028272054745473986
0.05213630122328796
0.049459899934690736
-0.01158368720647736
0.03250780240310773
-0.052729966089903504
-0.09210983342353712
-0.0941334663623685
0.15316778366096945
0.08336952430051517
-0.04965050681081178
0.02542233317550548
-0.006947426077205883
-0.25578739475621964
-0.23399547740914695
0.12701085399313078
0.26022582440971126
0.34852358895312646
0.11928672440360082
0.05308488674846583
-0.19365455035121013
-0.3578405395851423
-0.34039815935751144
0.01209279885856286
0.1094937373482775
0.20493248938171535
0.1727155092422093
0.08571871820814118
-0.000937813780569954
-0.056823406270617105
-0.07443851057609521
-0.061951321956403974
-0.03430455257301643
-0.00579662901135983
0.014249421492945153
0.022599954964717398
0.0208861139210042
0.013302126573207571
0.00434840717247978
-0.002690386043048086
-0.006327257997442086
-0.006678960428818998
-0.004842224560847197
-0.002192967280507417
0.00014447226421816724
0.0015549676716200766
0.0019371959409113478
0.0015468491195466544
0.0007867112583346419
2.8449860814651207e-05
-0.0004903739313803368
-0.0006902740758819605
-0.0006171139199592298
-0.000384254451460263
-0.00011674429673411782
8.686022001754889e-05
0.00017167989881262756
0.00012768386775675812
-1.741191305222897e-05
-0.0002077769689100079
-0.0003701914467344278
-0.0004281002778522809
-0.00032193603110220717
-3.545521450594411e-05
0.0003783340692697511
0.0007844905957034543
0.0009823488679678012
0.0007617656116903153
-3.027924875265644e-06
-0.0012451787905504322
-0.0026272426239446253
-0.0035498140085022134
-0.003293354666458325
-0.001301129445678936
0.0024541213210123774
0.007152141583881827
0.011041368593873715
0.011767465600975266
0.007192029424675601
-0.003418661600468862
-0.01821130891562536
-0.03217094765731709
-0.03782419527183889
-0.02768657172182144
0.0016041758742223807
0.044286369447830806
0.0811709329027759
0.07797903196075427
-0.012060768634062568
-0.04081714068871953
-0.05396676562203737
0.12215129406071515
0.09307223432795601
-0.09438351645522004
-0.34867293816306966
-0.13941495910498636
-0.3153298936698734
0.06605349125954176
0.5023967951895342
0.8149495693210492
0.13400942095203233
-0.08988332322409798
-0.4498865740870951
-0.5333925978881137
-0.4764504762755154
0.06258933896085732
0.30333701892715176
0.3212595889861515
0.21459136138790055
0.07326981562743488
-0.04097327161757769
-0.1005143409118321
-0.10629870426985887
-0.0762331937692836
-0.0329950973753101
0.00494370072308353
0.027579338914440633
0.03338922104362398
0.026682393763793336
0.014104639446337016
0.00170357457498846
-0.0067361244295925955
-0.010036888108700251
-0.00903358252648303
-0.005575174163245129
-0.0015864206029733818
0.0015387290934184624
0.0031485874312927246
0.0032389715423743765
0.0022083396724305684
0.0006082608176137992
-0.001024432346365559
-0.002239286871213773
-0.0026877730640527476
-0.002142713418308207
-0.0005635667718299457
0.0017963400716972588
0.004298226383826332
0.005935739185741919
0.005551101107303777
0.002278182188025123
-0.0038691761074415463
-0.011475961228269693
-0.017581817388531814
-0.01822329878967875
-0.009822067784746378
0.008725848933331223
0.03379342810238972
0.05545158557829706
0.05747885640605321
0.019431734164623782
-0.07964211407972006
-0.2573599698502482
-0.12614152710373785
0.10532291323508552
0.4282909978921852
0.43158090305136565
-0.0952189528906983
-0.7521014471910215
-0.3173512690272522
-0.14274446547672617
0.23932541205284383
0.6989966003991126
0.6917841255762904
-0.1481210167038973
-0.5996146863253768
-0.8374582897359834
-0.41955862109119535
0.3090502688486782
0.5933380501111316
0.6367037621821777
0.377603185974002
-0.11166264702836977
-0.40056620819856115
-0.4589519177071717
-0.4145431709023443
-0.1249774217270201
0.22697948455587874
0.31615124876872724
0.24470052269892542
0.11104973475114803
-0.01220509406351951
-0.08705854767620759
-0.1067828047483556
-0.08525791651422905
-0.04446098235938213
-0.0043749805360503045
0.02260466448066073
0.03276855338546801
0.029051918482736288
0.017664497175481974
0.004939644696906509
-0.004691912771385834
-0.009384357028177966
-0.009497402385128875
-0.006666790563674074
-0.0028213312388388014
0.0005222360336789927
0.002565227001395468
0.00318561558334435
0.0026963278942195358
0.0015648839612922877
0.00021210552359258186
-0.0010628979385227078
-0.002051760476088389
-0.0025641805721324665
-0.002388518188381807
-0.0013381697654658029
0.0006112885445733085
0.0031468376444267238
0.005504930489005111
0.006536248899653363
0.005028414868284034
0.0002739413232074625
-0.0072643792774871405
-0.015474258072537885
-0.020657210741592567
-0.01843199980570655
-0.00554323819487058
0.017746783100428484
0.0454383563554914
0.06478814581889895
0.05746697478016472
0.003201433341457886
-0.1149012786254195
-0.10536539347759975
-0.16634077224087063
-0.08858522096641326
0.13664620043255066
0.3078140172795426
0.20679411189139998
0.20160266258282344
0.06073904370467142
-0.22357615653348883
-0.6116150663504513
-0.6035071782659418
-0.2481154971953611
0.22336193182005862
0.9470069531906886
0.7770584344191607
0.45911569508393546
-0.160478770181844
-0.6902341586816658
-1.1308528541022713
-0.41928008340978595
0.19923116030961877
0.5634192592159607
0.5612888008618871
0.2870471668125763
0.008052007969322246
-0.24838134911313672
-0.2891442534276683
-0.1386989034815949
-0.021602656886362304
0.048831622349327836
0.07360232898824327
0.06461073587825274
0.038312323294728
0.009710436496489038
-0.011349408569488075
-0.021120155060805435
-0.020755837627044315
-0.014085898017761141
-0.005415045176798495
0.001976235189186716
0.0064194624735480965
0.007694551981892053
0.006467780715733157
0.003696220787379209
0.0002471505520560173
-0.003190552105361259
-0.005984574609967864
-0.00740520747607346
-0.006627675283053668
-0.0030015432837561355
0.0034455438952720476
0.0114681551735599
0.018351587931713154
0.02028998994337116
0.013589588099797703
-0.003427037583867698
-0.028371218015174587
-0.05354588831004254
-0.06661706226489306
-0.05400638150763453
-0.006954946399392491
0.0710971077219943
0.15853005339826812
0.21444012374989938
0.18532826000777478
0.020152092896202026
-0.3095962554083489
-0.5923057692830869
-0.3708304221597603
-0.1566935351907336
0.13585637787370425
0.5456500731661794
1.4282483465594087
0.24743712457796166
0.20735263223144504
-0.4776260218635282
-1.2963751389560885
-1.7714500084179066
-0.23940006048721793
0.10182386993292773
1.2875129793960014
1.857682812437764
0.9523920630464559
-0.13016634501026716
-0.699038249529569
-1.175922838579324
-0.9783364076095823
-0.22152968894949446
0.3332618190002972
0.47820236655351644
0.3188379990177359
0.21684416031368445
0.13633782238745226
0.00685420267817764
-0.09280904704892676
-0.13261402165809755
-0.11780559132635716
-0.07147795433041894
-0.019294120163668233
0.02022712307618583
0.03922510240829175
0.03919161011201238
0.027121446150300047
0.011295345176662806
-0.001838012204442944
-0.009097679803877039
-0.010467554379685258
-0.008010025230260296
-0.004446315006539587
-0.001930032883533934
-0.0013235762398088032
-0.002075756100417807
-0.0026410312856068657
-0.001276913140551016
0.003015584175608634
0.0096990738328566
0.016373837752276958
0.01920049361327228
0.0141993086125573
-0.0007410199951665675
-0.023712817909952486
-0.04745150065474503
-0.05994890118403332
-0.04794005534503883
-0.003460594749697393
0.06746812175346158
0.1361609357027428
0.14538882184926544
0.008618977023508678
-0.18507416539758484
-0.36227742202739854
-0.05602575346342363
0.20150268450238948
0.08539530897841625
0.08836656980599208
0.9416393987936025
0.4510986847284841
0.14754320496579537
-1.0602373002800847
-1.6525213822970641
-1.7151891676868176
-0.6279585480908066
0.977086197335896
3.0215180899501215
2.813499162676939
0.5739748582648756
-0.705193287923265
-2.082070374628253
-2.2226236004382565
-1.3754290374212794
0.3700541293883193
0.9124111870493692
0.8677790870598004
0.4419371035926486
0.4933542774565075
0.22421558241523307
-0.08209417915826504
-0.27591861237827026
-0.3198383106107085
-0.24794572384390637
-0.12289006934306053
-0.0028433135728574027
0.07630701790251387
0.1044004446257956
0.09077100146614053
0.05412980559743438
0.01332282830041885
-0.018385065160505854
-0.03501443752197895
-0.036611247999655476
-0.026704229729317328
-0.009989495839272328
0.008922666540004114
0.02567574573375729
0.03585792878456985
0.03506742402972923
0.019985962320669463
-0.009517851062865576
-0.048042415197239494
-0.0835529450641449
-0.09925882310791413
-0.07968628818386816
-0.020783332132431623
0.058154588349548966
0.30509631530074555
0.43408817905751373
0.3371603413325632
-0.08971563827069096
-0.712571057709626
-0.9305202454204187
-0.6681708999258651
-8.927331430211528e-05
0.7958296019293326
1.575867477623498
1.0889829949990049
0.7828304028494265
-0.9351761433625334
-1.8018331978629152
-2.8104069873475352
-2.1792551171438435
1.59662297770012
6.8274074165850305
-2.0976559181584293
1.8269895605462063
4.06554495420328
-5.524989555599938
-8.934653606031324
1.893045337894731
0.6153217519488129
0.9016138571525295
6.582498311122396
6.461998645261794
-2.298495380745788
-2.9912351935972192
-5.034371812944084
-4.045858454347594
-3.8654069476731423
4.394350469487631
3.6884466016978443
3.6824339603286513
1.843267523672062
-0.10818865728329354
-1.5457190876417686
-2.129336454676834
-2.531645964703791
-1.1988374614974682
0.3822763181536326
1.0883770266631394
1.259967155105281
0.9521337425256885
0.39315554790023743
-0.10926983359698562
-0.4005891897912365
-0.4601209607257609
-0.3522222660368467
-0.17189933033454532
-0.0024969897817380842
0.10659086441288529
0.14304319646621785
0.12186337853776992
0.07063594915279485
0.0162660546493205
-0.023192276952515165
-0.04093690917645392
-0.039419850780203484
-0.026191865208823186
-0.009679732369271736
0.0037609290065305583
0.011065932243846012
0.012209190518411999
0.009095728262631652
0.004259467649059074
-0.0001568543778296836
-0.002925708063564051
-0.0037820599549266078
-0.0031545814426408455
-0.0017804740540745456
-0.00036584660716004286
0.0006207724857114395
0.0010081695879360837
0.0008720979536815273
0.0004309390702351411
-6.255393347993732e-05
-0.00040295905421343066
-0.0004778506316703757
-0.0002819850870074343
9.110649033604934e-05
0.0004743403363122359
0.0006685716435805848
0.0005014908593644239
-0.00010030790935167657
-0.0010422339937409518
-0.002025169744929293
-0.0025776471227840383
-0.0021836691179812915
-0.000503030160261375
0.0023668753561891676
0.00569031805543067
0.008087257182129194
0.007838715951201574
0.0035349876633055
-0.005052461905757692
-0.016174193931113297
-0.025816633999185382
-0.028363342451674066
-0.01842688293637345
0.006373525943719406
0.04251078516630281
0.07888587811969625
0.09794056816627446
0.0806055040625436
0.014850005176309213
-0.0943494707934383
-0.21785158804313204
-0.30345564395240715
-0.2900878531701622
-0.13668251190020578
0.13827084479221277
0.4173025531864641
0.6609022604050735
0.9183682827015219
0.9849592561999807
0.10516482335006251
-1.2968076131977286
-1.6981090205096605
-2.8205365077354854
-2.280339236181905
0.041157685436214994
3.9411604245574012
8.83962027680896
1.8340524565531917
-6.45706392935467
-2.6690672946621885
-0.38025148552539323
-5.8471387891717
0.9166396455680107
7.294022313350646
1.298409301090343
-3.228253652164002
-2.383493701671353
1.486895006712442
2.1342492088773977
1.4041892537866765
-0.10475768538779821
-0.3182547300795233
-2.722480712976079
-1.8078881057182914
-0.1725610516295009
1.0842270643792682
1.284186213201767
0.8455843583724175
0.36087520226437564
-0.08638925376105201
-0.3511146412100584
-0.4099162839794154
-0.3175717410095946
-0.158088416873806
-0.00629012839065764
0.09276870105047752
0.12713914246107824
0.10959009044116381
0.06452580284111266
0.016056843194108255
-0.019462715289566754
-0.03573661850510612
-0.03483485686197237
-0.02349058078222877
-0.009266731236121666
0.00216943272871011
0.008210945882375862
0.009095306939393527
0.006835683577045794
0.003894464834789758
0.0020742130359249224
0.001903545166512178
0.0026041768292897733
0.0025774230494027355
0.00024209785558168317
-0.005025890483069259
-0.01216453573955324
-0.01824164734065667
-0.019085971690985
-0.010807693936427401
0.008055052881490292
0.03444279901299265
0.05975675818486306
0.0709949232779404
0.05468477037147476
0.0032385003412473087
-0.07809749754708743
-0.16698262013854323
-0.2264669104239098
-0.2176217299988034
-0.12315034983543356
0.021557936365537045
0.2987403590765587
0.6932721228896397
1.1072390653843964
1.0148872721769417
0.1569857129308698
-1.5455935172298558
-3.3004317553479963
-3.826813503707691
-1.4530153441940672
3.6779065294073976
10.363860824979628
3.7789026957497582
-4.506822062779841
-2.9025401753707474
-4.461507356361618
-8.597527577966405
-0.3983245138264545
8.812176957092499
4.532094240300972
2.317019912899506
-0.4477717365967585
-1.1569194835193264
-2.39829078039021
-1.86304987774057
-2.063711436944103
0.05331060767478611
0.761732695389162
1.2874008650760418
1.0656692377316777
0.583556552014478
0.05516056619813624
-0.24505697589049702
-0.391132758896605
-0.3734578461841144
-0.24862853464288517
-0.09151912442774975
0.03794468671649538
0.10952071140773811
0.1218377755307924
0.09244371401863148
0.04542730685318534
0.001506133085969583
-0.027160905748903463
-0.03752846818390701
-0.0331316848497569
-0.020442621500538046
-0.005738278843827964
0.0066552705255665595
0.014665754281963114
0.017810801754579882
0.01628198679162683
0.010398320643398523
0.0007278105855968201
-0.01124736621044854
-0.02243232356579577
-0.02812150382249738
-0.023405427298137705
-0.006372686776523901
0.01703946172962923
0.02729242464746917
-0.014216493137410904
0.03099910813308079
0.07743490080074326
0.018036448073571295
-0.06969929650061706
-0.11462331162224557
-0.2411068181023714
-0.3573862756203883
1.0580587307112763
1.176292830582187
0.24878798125064552
-0.9520598077456804
-1.897804426906154
-1.7016750935380798
-0.775246407160513
1.0510619103556313
2.9728486837517822
3.880367414727806
-0.6859863406497037
-1.2594232754804209
-1.467547381574542
-1.4142980098441744
-2.5039009233410576
-0.17090505215493482
0.058009630283472266
0.7897103347338469
2.135020965261465
2.7009368907240376
1.4769105032249334
-0.142238746496657
-1.6016049158584769
-3.353377941988531
-2.229322030028988
0.10240982689638455
1.3547249209426855
1.524510554407147
1.1333909804537687
0.4706651622573982
-0.11344183194260528
-0.4458421483898638
-0.5089653968575778
-0.38420612177759794
-0.18782763378056824
-0.01993441431378053
0.06352361305524018
0.055541761251857
0.18584353123666747
0.10039596210509207
0.04094201047650571
0.030524414363142082
0.067913169480624
-0.06902335513379579
-0.013108416961605753
0.00577363687367424
-0.026237286123786247
-0.09832726870009943
-0.17419414634493444
-0.2015387453248515
-0.1325336351372337
0.04713380338150067
0.28711112254847976
0.4493365778000002
0.5047372165269058
0.1586199910555077
0.10651014904406876
-0.2878562323462333
-0.5103496028350909
-0.4339639988373343
-0.8998728919767397
-2.158990146756789
0.023136306895473555
2.4169140232615502
4.978402571325937
-2.644361960639865
1.4958590368072
-0.04173099950430183
-2.307439508935681
-5.383673896098747
2.723473340000425
0.08172636660306286
0.522289637895124
0.6667675983957001
1.5548422029303446
1.9298375507252579
0.2183604688397542
-1.1891482969565483
-1.3833462556701999
-1.5590617444821646
-1.2758340533299941
0.4014944488246206
1.071729665658948
1.0985510015077897
0.6869468719759267
0.178142452339314
-0.20983696366962365
-0.3909106727159319
-0.3815989930419398
-0.2542312319145674
-0.092065543591231
0.04136196620330475
0.1148776644150402
0.12729470035719195
0.09649827930685916
0.04671572772982317
-0.0012411707493499315
-0.03473169802395709
-0.049446122000627035
-0.04683424974479643
-0.03099596223328582
-0.006654617812566345
0.021218377829059762
0.04663640582960435
0.06191439614622797
0.05840478677464989
0.0294062544347136
-0.02515704295189042
-0.09408852184300054
-0.1532354165433416
-0.16995227098855584
-0.11578370194606807
0.013154777114767308
0.17220519289797837
0.24815984524216964
0.4525962787161529
0.33682336067036306
0.032067210706312604
-0.08908314013065334
-0.14256109292673858
-0.8734084985588283
-1.2287625636582145
-0.18077366838989248
-0.6050249712249355
-0.40137644239368986
3.9764498281095775
5.43051299872667
-4.988644793661877
-1.3941741048835037
-0.3162597671759374
-3.365498716681881
-3.7683305287713735
7.4042283043260415
6.745526278812271
-4.77417955651374
-2.8362435075529797
0.2586076339503388
-1.5655674508341602
-4.3587632444491
6.192950197441527
3.267987268378658
-0.37068084495455456
-0.9816667281459632
-0.9615869198470016
-1.3035347231554384
-0.8543312356589466
-0.6209981740042335
0.4481657357776302
0.8114790897825018
0.8370289042611782
0.4974830388306195
0.08871344705481397
-0.21024117795828837
-0.3356253025857377
-0.30843708828731536
-0.19257550642881735
-0.05716832342000329
0.047752764011964696
0.10013790053842264
0.10257622719902218
0.07241024439407363
0.030862010666481362
-0.005046603658253423
-0.026276636713136604
-0.03165625367197304
-0.02534070684735559
-0.013542059513811733
-0.001831593232324075
0.006340064188216004
0.009883760620092908
0.009460350595382788
0.006545499883392544
0.002622167718756814
-0.0012484301250128493
-0.004451503796264134
-0.006587478144522123
-0.007216085218572209
-0.005788465138216839
-0.00187497147580515
0.004361955020990327
0.011663964349854663
0.017465787065398905
0.018296526215460917
0.010952046011518163
-0.005719161362272878
-0.02897844688021989
-0.05121853732274046
-0.060853709445782396
-0.04575368115757378
0.0009478618772409701
0.07406273618238576
0.15117906463295092
0.19230477846044
0.1468384771714926
-0.031907377259824
-0.36795966993164825
-0.44651163896775736
-0.20836632170442965
0.03970103290693967
0.39979940787070856
0.551361915716478
0.3254875089291576
-0.10448213341811495
-0.4131707771213347
-0.5000630150115166
-0.2643678790800283
0.21204003074221847
0.4702091780171041
0.4726039539133302
0.0025712928339107605
-0.32987021402605227
-0.4775780134963449
-0.34897781000891726
-0.012529704613466796
0.28362632319771686
0.48147790497989384
0.28306058919378974
0.5316784780592997
-1.189754115987969
-0.14575994330331923
0.17057425213053792
0.25373300473845584
-0.4041234802314931
0.8931937641283716
-0.14734197515868327
-0.3985330119945661
-0.30237218397826393
-0.06312486775700696
0.1511754260859932
0.19797095241443022
0.1440891866913892
0.05042575768631828
-0.03782686112584621
-0.0939672128766676
-0.10732228179330787
-0.07883540168269229
-0.01763910433192559
0.06021807483545785
0.13190336751376136
0.16935158859228047
0.1449051495058601
0.042043653139929006
-0.1309185699648294
-0.3298466918211927
-0.47459855498189263
-0.46723996383675637
-0.23167201469725587
0.2309131810654634
0.7868757007605316
1.3398915542411438
1.451660630198942
0.8296412984488497
-0.7243329768781156
-2.7402664672250223
-2.9418027348413207
-1.6094670230632295
-0.2862251819770631
1.9842364231391707
3.75201569051737
3.4893232512085226
0.6499996217393781
-1.0875665303721178
-2.410533031172192
-2.472025343790712
-2.0054571790916658
-0.14012481231948862
1.0410629684466148
1.4150516197924732
1.2564458670298935
0.6655952567464293
0.03967308206940533
-0.38834752951720186
-0.5462359381766294
-0.4767735026789227
-0.27773284374400853
-0.050449940684570385
0.13093794047138435
0.22863652968021528
0.23541843683909267
0.16328136462990037
0.03403706689171389
-0.12528726613174043
-0.2844589048308771
-0.41513038130734925
-0.30486607838631485
-0.1821911875233805
0.25238114900095965
1.0027357662597969
1.5801886313466407
0.8509265859900988
-0.2670928131593357
-2.0756465335050183
-1.5781312058875274
-1.8250408065337231
-0.964511064853903
0.39408134001431994
2.938817946588092
2.8078841964373624
1.8204954889724752
0.049865864619736855
-1.0467379895599747
-2.1823900010964765
-2.7609322664113063
-1.453063637351912
0.5077152281871605
1.492601043299204
1.540952590257491
0.9823298146532994
0.2805549363745369
-0.25958460251071575
-0.5136238499349247
-0.5025872507628566
-0.32997255824380833
-0.11765637024220434
0.041056100217409006
0.10410840990108486
0.0809037932164099
0.016732677434207626
-0.030748571259569608
-0.01613530304196512
0.07344604713429308
0.20690378268525234
0.31046996855512604
0.28421638661885523
0.033046702548940037
-0.2939586098006354
-0.6680622552278784
-0.7653455447634949
-0.5855894717292793
-0.11110538991215628
0.6037529926839604
1.337613087233938
1.0370994571813217
0.815714715795882
0.6350562691192653
-0.13859658376376852
-1.5370884372871976
-2.2090326992489486
-2.718109320863486
-0.770904688022746
0.6125081035695327
2.22240497295651
3.7597817552305313
3.2140908716435264
2.598994181331514
-6.330280688439214
-3.4282591411175463
-1.2843369160373663
0.37004866890640986
-1.6861321746251705
5.560019107542016
1.8129643002207112
-0.8621775997584359
-1.3049520771459842
-0.6496229340510346
-0.26784870996087606
-0.1030824918659521
-0.024518879519573978
-0.010933318541501829
0.03806593740885182
0.27241063950477973
0.25491597609946126
0.12842742956438755
-0.005341274782406427
-0.09215567263932535
-0.11867129493915014
-0.09817418594595166
-0.05477111620513263
-0.010824460421314743
0.0199848397979607
0.03396404602363823
0.03471242406393873
0.028697661506774042
0.021194160410491474
0.01397577891273099
0.005275121742812053
-0.008308958218149852
-0.02892111606504796
-0.05492422868882532
-0.08011597444719211
-0.0956206343555659
0.10562511401306184
0.12334150242367625
0.14622068233093985
0.1532570297198712
0.12180931390049271
-0.1589310742161374
-0.27408392409853405
-0.37670400132740806
-0.39704230787286837
-0.2721184770508828
0.0068855311229184335
0.5411274008849967
1.0845824396623878
1.2421438942425913
0.7237507784797582
-0.7429121364984922
-1.4617384682715893
-1.0212201242493948
-0.8007159803156659
-0.5689778949735215
-0.18947435673322524
-0.018555155977854194
-0.15804792508217527
1.893039653254587
3.450991853892758
1.5825783908306588
-0.002403606356454329
-1.3109995317509848
-3.3410114437097813
-3.9663954007588074
-0.5316882084123525
1.5866047409393806
2.257490641415519
1.7754816848029973
0.831121338735873
-0.055453053934458776
-0.6049850115564117
-0.7612213477778853
-0.6179132619050255
-0.3303338380205181
-0.04246309095246904
0.15445075467007074
0.23123094200091235
0.20721708251730755
0.1265648389783868
0.03549790125562248
-0.03283811202268491
-0.06410049700674345
-0.06079229498794313
-0.03600744293122314
-0.0062074232486311635
0.014702254662674578
0.01901779404079809
0.006584157636238209
-0.015769296742175823
-0.03634586258361964
-0.04204731284894889
-0.022936397967073786
0.022783995090186034
0.08477377363142567
0.13958005710991406
0.15474190870742519
0.09893616958148399
-0.043249088492418084
-0.2565299487849758
-0.4876033975579458
-0.4535357592836428
-0.27115029097126975
0.09453974037815753
0.5747940537366654
1.1555450119518391
1.2742776342349642
0.8736964844491498
-0.4869967805115998
-2.68752962705226
-2.3156100633062464
-1.2024050783441305
1.3430328584290891
5.608436345895577
-2.6919135030883665
-0.37617813081511897
0.09162483032319062
-0.6631538560198447
-3.754246577526855
6.766950737283543
1.7523861175347857
-0.9429677199299525
-2.497950567454568
-2.1303916579647004
-1.9334519727358113
0.39698449317851814
1.5208737799822794
1.5224992462477929
0.9442095376755403
0.24389463777265394
-0.28623173685420406
-0.5320579585894197
-0.5180799309683219
-0.34400637667195155
-0.12382000118523774
0.05590568229902053
0.15322310194877115
0.1675417829267775
0.12458456581582904
0.05865002146517519
-0.001281675142370697
-0.03868073177250409
-0.05010229004417245
-0.04151099913891612
-0.023013835362374512
-0.004208917782449933
0.008646823693678266
0.013448289771194681
0.011512004893097677
0.006059966712176062
0.0006118813014900457
-0.002258300339662321
-0.0016066602577092044
0.0017653303021881478
0.005688495551743819
0.007397959186699019
0.0045783628375410225
-0.0035084009117486836
-0.015122150808868973
-0.02579136110552221
-0.029138231293621808
-0.019021238707859846
0.0071936745563425195
0.04501196404357807
0.08015650857823452
0.08837145179992176
0.038686079218097816
-0.10009568799936426
-0.15156076863393333
-0.12563260373714305
-0.017349875010114733
-0.011814892017646387
0.10606402560326166
0.14089378359211416
0.2802216080706692
0.09640684960935882
-0.041401733873908345
-0.34761640644424113
-0.39922778194508013
0.07867164972936598
1.2151551884186027
-1.6180078486269172
-0.2303246398595955
0.5528443164632613
0.4490770312168506
-0.7198738475581342
1.7487661793398452
0.4432083643488348
-0.5259053850738385
-1.0623305078386769
-0.8136520078935311
-0.11795934113337632
0.21397286259707435
0.4782372135750922
0.4315001005097163
0.23851909046151418
0.030967897874719524
-0.11308127728744898
-0.16890943811359393
-0.15060323841731513
-0.09107356290365372
-0.024265688932636437
0.026053462532444966
0.05004640237201585
0.04976534751181078
0.034131375252291846
0.013612466524193656
-0.003622856206156678
-0.013417697094600027
-0.015455446631700502
-0.011951276288580002
-0.006033166622042801
-0.0004320973217099104
0.003223201674317159
0.004508775050119239
0.0038945600157146505
0.002268984672840557
0.0005079680462606749
-0.0007932907259232418
-0.00140169556745832
-0.00138413187664502
-0.0009743976804079666
-0.0004376112032848473
2.3637169214498212e-05
0.0003066231385303227
0.0003983659930187239
0.0003398189939598266
0.00018754810001174091
-1.0728278297795463e-05
-0.0002209635726885542
-0.0004124510667966246
-0.0005436789306726309
-0.0005574577746511966
-0.0003945824852022092
-2.673720059839427e-05
0.0005017191800886333
0.0010434483472566284
0.001354047338822278
0.001153324511663718
0.00024325457997252501
-0.0013440809172985482
-0.0032255931877307347
-0.004649654588088272
-0.004650939989680773
-0.0024011003360008922
0.0023046378633418754
0.008586867967611905
0.014290510872362447
0.016313706982380622
0.011596635184804138
-0.001337360414328057
-0.02073742451915038
-0.04065270512662493
-0.05155392063131675
-0.04327245048717486
-0.01034519705757979
0.04114722823787417
0.08724734996856376
0.08301749254343017
0.16530908404036507
0.06289808486758246
-0.08668625395527736
-0.11703897959502114
-0.21521661514237497
-0.3131042599276412
-0.09285205627441742
-0.007516104572218729
0.2873356107262405
1.1002443476209016
-0.720191530883678
0.007972895993766145
0.21170393252124695
-0.012544732068469277
-0.970202168222998
0.6558664450831345
-0.18041421947768213
-0.08651864326438576
-0.040096236492734236
0.195941638873611
0.2571781479419133
0.16545632833290086
-0.07554970196873072
-0.2764445066718496
-0.25332499796542185
-0.019640916092114425
0.2169709514875802
0.05223189606143064
0.0800088092677169
0.08837226128673342
0.05962908462818778
-0.22547346699259035
-0.18151575620723864
-0.013460666995093658
0.08439979618451203
0.12536145042828967
0.12534284354280792
0.09922379651337063
-0.13951084080069828
-0.17630170361607492
-0.19292717725775543
0.032011081251591425
0.1181382335777327
0.2755957890293709
0.09862733933739261
-0.035555966835704916
-0.16124045812133334
-0.11412230595940304
-0.12104350857600518
0.006250964134557159
0.07135251263832713
0.08828380216692032
0.07434752592927046
0.044091348187321126
0.006721954057146593
