0
-3.6544255083790016e-05
-3.654283950114663e-05
-3.6549407131117656e-05
-3.656535502840834e-05
-3.658826837261376e-05
-3.6610898005846425e-05
-3.662192695229977e-05
-3.6609186545316244e-05
-3.656515902326902e-05
-3.6493381950757315e-05
-3.6413121695442716e-05
-3.635900809107892e-05
-3.637288564783062e-05
-3.648737942672349e-05
-3.6704465553053275e-05
-3.697670775312317e-05
-3.7201954338111674e-05
-3.724192192011592e-05
-3.6969372061705654e-05
-3.633722755980883e-05
-3.544830102674182e-05
-3.459162763227578e-05
-3.4208112580331696e-05
-3.4761394958614535e-05
-3.652255328395765e-05
-3.932474487155239e-05
-4.2391245927521174e-05
-4.436424141814143e-05
-4.3636697893540125e-05
-3.8999684890591164e-05
-3.0469229014446325e-05
-1.9989417946224153e-05
-1.1593423234169867e-05
-1.0628446095566974e-05
-2.188321947642728e-05
-4.6903878809121626e-05
-8.13498972565266e-05
-0.00011371639153303159
-0.00012684556878761225
-0.00010310137868045776
-3.278349570217773e-05
7.648564316448128e-05
0.0001934619378287458
0.00026496537706673096
0.00022935409477228003
4.198884916012279e-05
-0.000292901125712566
-0.000695937223984068
-0.001008083509289859
-0.001022759248255063
-0.0005599786623608101
0.00042966848176133825
0.0017651914919436312
0.002991250147269712
0.0034443310589186878
0.0024605267054473878
-0.00029521497364750905
-0.004470437525885472
-0.008798160814136136
-0.011193539405205503
-0.009323131149293302
-0.0016586898523979286
0.011187756607551468
0.025280064973926576
0.03289416895128871
0.023268112643508747
-0.015294033970880971
-0.09238981969053675
-0.012497531674843583
0.026998943530624556
0.03618914681607144
0.03161359364617089
0.03446129604753791
-0.13158623221169438
-0.043008143003488125
-0.08006543171823013
0.16859074116450917
0.10145604750840792
0.10197728616368487
-0.05945993988323034
-0.019077229291506417
-0.21067623657892282
-0.05733026905727576
0.03312782317314359
0.06746949876281486
0.0621993754329727
0.03690653601082039
0.008441044481984385
-0.01245664734492532
-0.021760215424843805
-0.020689178769978542
-0.013295356707204428
-0.004144673322292303
0.0032599203444549805
0.007131893154415528
0.007303331068971308
0.004715441792056818
0.0008259502635766058
-0.0028613631970962105
-0.0050917829968547745
-0.005036849600582289
-0.0024421541137247993
0.0022142523738109456
0.007607764490711833
0.011639257843249363
0.011855727467045447
0.006295537113207987
-0.005362099392841198
-0.020720201627380093
-0.03425035152715606
-0.03817149865712355
-0.02499823831681364
0.008440463821746767
0.05649994763424087
0.10144522453699849
0.11336433344616888
0.054634362448436884
-0.11125773729195945
-0.20885569334979326
-0.24180190881370875
0.010265517621467199
0.18742976312768203
0.33996083758572787
0.11846141736556987
-0.0315535851449774
-0.26924244017989524
-0.3552190695854643
-0.25105275505666863
0.2743978048323273
0.43250332809685454
0.20217054318620672
0.12484792584177902
-0.08781689334530765
-0.33483860267215204
-0.3020666384885308
-0.04261869068767368
0.03161986952725805
0.14565837844278676
0.14758736075794207
0.09147395553812804
0.02294545308951987
-0.028921686628818957
-0.05279875346565992
-0.051135337016473895
-0.03383040527964576
-0.0121627450083793
0.005355330835116987
0.01468483418183137
0.015919036311134366
0.011754270376982338
0.005674402224380682
0.0005096057187904152
-0.0023157311343735315
-0.0028387423240880333
-0.002105548431585372
-0.0014738746615857955
-0.0019234388968196261
-0.0035738369776325014
-0.005544730497846035
-0.006222634408980384
-0.003911535155510481
0.0022701185057139505
0.01151704800812218
0.020871718767609043
0.025567618970330663
0.020436248325361867
0.002281475283118062
-0.027388903295505928
-0.06041046246077552
-0.08221578741573116
-0.07550445651035378
-0.027632637922033174
0.05951233036769283
0.16015381276645946
0.22004877384840496
0.16086032905515346
0.09562271538456364
-0.046364586250257946
-0.29144514024430307
-0.8002062386198493
-0.2633813840856149
0.07833755677472796
0.39266275886139745
0.6044570105645861
0.5533976159767394
0.17791327198406362
0.13421319348008143
-0.35323061761742663
-0.4251169673461219
-0.9271017605486241
-0.5784249317242625
-0.3841684196073647
0.508284886925887
0.9248525884142887
1.5817560665051202
0.43594257671000997
-0.3101497297129144
-0.9502065323519117
-1.1851206792971851
-0.6383831920717137
0.19390080997748524
0.5454744295876666
0.5424933518580384
0.3473411705115916
0.10666331260621395
-0.08106785268375419
-0.17423522380121173
-0.17785595275371605
-0.12374266189022529
-0.05022568958885362
0.01239520753841615
0.048408799148708166
0.056235764282777365
0.04371565316056279
0.02218626447944727
0.001650184293629057
-0.011862978130456872
-0.01672330645091121
-0.01459613160969632
-0.008713837585610038
-0.0022923661324368893
0.002466517795531295
0.004690661903355612
0.004622160516765866
0.0031324794037907357
0.0012176201907746966
-0.00036200561919006786
-0.0012370416299179042
-0.0014048848989301579
-0.0010967458460297871
-0.0006150965171722444
-0.00020211945227042942
2.9516263109334328e-05
9.982428174553777e-05
0.00011405473922992436
0.0001896206423964943
0.000384448391853856
0.0006511024838881726
0.0008349530094956468
0.0007248391215498299
0.0001501845263587715
-0.0009001302637196983
-0.0021807260335364926
-0.0031693978427282743
-0.003172106650732804
-0.0015701633872164866
0.0018306511813999105
0.006458653943943757
0.010805862342133474
0.012592338604307725
0.00934108603273666
-0.0007499066214029244
-0.018013455334149713
-0.0412210630779883
-0.06891397459217964
-0.10264352022417872
0.04812997040700843
0.1609733643301938
0.19805486428467117
0.10958592977028056
0.04501486880503293
-0.029249204830968295
-0.3105546903348201
-0.5469024536916581
-0.23790482733920018
0.14592695938863304
0.12838637090160596
0.5879907712025835
0.9291551981022174
0.47833795939418183
-0.8890350502072198
-0.6984281948419877
-0.6225941208283082
-0.4477969585776527
-0.07509722933087026
1.0434953211328963
0.6492263745175672
0.22408172226185472
-0.03852364731638433
-0.2314461065922948
-0.30477687669664694
-0.22350349361550984
-0.1269071494800423
-0.10097235003378591
0.031097222684327956
0.1012313840523017
0.1771131613426335
0.13857113758558318
0.056917200186327316
-0.01795863661832018
-0.06129873272273429
-0.06962867755774006
-0.05275023573337065
-0.025165480439836893
0.0004707151047730333
0.016744031926938102
0.021914084502905176
0.018386396556738703
0.010439373468170005
0.002194190243988251
-0.0036287117264411153
-0.006067795906622474
-0.005603232368403273
-0.0035026166870929304
-0.0011447469477718455
0.00047219567188043894
0.0009583940040722005
0.0005144194272430898
-0.0002620849065081749
-0.0006615945608902569
-0.00016291247362724214
0.0013202093300843237
0.0033119628231865943
0.004829082809348978
0.004658398212864009
0.0018448751255958121
-0.0037113687916690936
-0.010754941221386911
-0.016553062940653385
-0.01742060833278367
-0.010013627420580947
0.006778709608051667
0.029887466523654926
0.05092271253261106
0.05676488408978257
0.032458358615644736
-0.033856896548878364
-0.14535917287793373
-0.09259848811955522
-0.05352995937633172
0.0013346361289933086
0.09965821910305706
0.25702427514369264
0.06985249395713278
-0.08517631549631585
-0.044368124656133365
-0.04512785878393502
-0.1130594593115879
-0.052332611259318054
-0.04236404155106038
-0.04195061675072026
8.782643243976306e-05
0.1305743605004966
0.17808253386097392
0.14392728837598368
0.001313232069959967
-0.09675717750857832
-0.2035087824833465
-0.16343610116807863
-0.0016662579378283477
0.0791674910525148
0.09467578077833382
0.07000741864755264
0.030609354195892363
-0.00445347161097294
-0.025291794566346948
-0.03046309529027355
-0.024093855209208793
-0.012442196970648446
-0.0011199305398892502
0.006434231401057614
0.009230300934352408
0.008133015022250308
0.004906532663876616
0.0013302958718176023
-0.0013632095725558647
-0.0026709491474278305
-0.002704535838127151
-0.0019239973213529694
-0.0008608354066151952
7.62864206476732e-05
0.0006798559617795911
0.0009222493831389535
0.0008793330921647179
0.0006483535538933102
0.00029701971800792155
-0.0001410498969052644
-0.0006322266136649075
-0.0010954506247163752
-0.0013746984220178173
-0.0012600622769382082
-0.0005689107672971765
0.0007286976876477618
0.002386614517831285
0.003829869447976544
0.00424205848944645
0.0028301543851758626
-0.0007636567271875305
-0.006024237383477411
-0.011304273579651952
-0.013979805908062318
-0.011193317417257678
-0.0011766441246593776
0.015127862480862023
0.03271275646498511
0.04213898374130466
0.030761738244032274
-0.01432023455764789
-0.10220793236857055
-0.03435759987972045
-0.0024689467687865176
0.010933439460639436
0.029332385851165453
0.07753402003682973
-0.023089894887369178
-0.05829007593047654
-0.023090307139293345
0.07753343422305314
0.02933202602881079
0.010933719744728194
-0.0024677873446836114
-0.03435568181781517
-0.10220584260545097
-0.014318974061417904
0.030761025379617522
0.042135493293990724
0.0327066093088419
0.015120569480975898
-0.0011821310958813169
-0.011193230696609206
-0.013970947315515377
-0.011285919385448026
-0.005999927704696703
-0.0007419221902924204
0.002837102538949649
0.004222211015987674
0.003777454505803548
0.0023085615796530875
0.0006485936970672694
-0.0006127778364608317
-0.0012250399611193519
-0.001232256450031496
-0.0008534378770037325
-0.00035211823345529227
6.12229579147051e-05
0.00027659562795072416
0.00028604035704361965
0.00015524933099701248
-1.673091827998893e-05
-0.00013597711113158195
-0.00014280939720089588
-2.8763237315977364e-05
0.00015945470677206157
0.0003300659115877955
0.0003715785400236379
0.00019250986884135056
-0.0002308891838768098
-0.0008130765258040701
-0.0013447567455035325
-0.0015272068747627901
-0.001067233000196643
0.0001775388188073208
0.0020439926442228874
0.003969217543916002
0.005037651984623125
0.0042286726911857295
0.0008594042374692323
-0.004881739821566267
-0.011521131652477782
-0.01628033180752367
-0.015693142917463116
-0.006933303750759304
0.010371794619939855
0.03242109594515409
0.05046033705996316
0.051785224418008945
0.02294328071360943
-0.04531152082513316
-0.15282598265852726
-0.08689546667834558
-0.02326484273888438
0.06798380978995286
0.013044843878917647
0.22472260039420347
0.09632923541092123
0.002052058648856366
-0.09559417523772687
-0.03344127704576268
-0.2348107220163372
-0.10093359372832793
-0.010048382442423565
0.07523140899507133
0.19491785029689215
0.17796884269687605
0.0331474347466571
-0.05235871820926905
-0.10667977300418989
-0.1625561291115777
-0.04674530532436964
0.02664445266994725
0.05731573919006995
0.05531089349914571
0.03529147710820291
0.011094269942409508
-0.007775382494719611
-0.017233150296296032
-0.017752166176265655
-0.012472853820910672
-0.005213549039429701
0.000984862108397781
0.004535149601282938
0.005280414877946898
0.004033266448858729
0.0019750659872760073
0.00014535633941520503
-0.0008587064640201531
-0.0009554426266022613
-0.0004731922399379399
5.850766747580589e-05
0.00014790867102088226
-0.0004498579295416537
-0.0016017211457720032
-0.0027835258744535745
-0.00321297604614696
-0.0021304495823601484
0.000818466791234261
0.005208771176178691
0.009637957230789985
0.011888008390214942
0.009569361718472879
0.0012094686137350515
-0.012488593629010177
-0.02773717695863775
-0.0377630975798038
-0.034477621303542635
-0.011867599905425165
0.02944451956626855
0.07782750587140942
0.10837008950427483
0.08453536730642536
-0.03544712370451221
-0.0884438932177827
-0.09546307719899952
-0.2539196437126362
-0.13667906552517398
0.1008354179202651
0.30776025862198664
0.32487927546060863
0.37866331342859794
-0.11332768666800905
-0.527308027126083
-0.6168127259820675
-0.5067540852428487
0.09339211089571581
0.858199707656365
0.8088888710206673
0.28821225902587627
-0.037733284153062596
-0.5483298466330451
-0.8194335181987423
-0.3761971371958944
0.13428942589264442
0.3425010663615356
0.3325324664220333
0.20751527584532944
0.05830162110142814
-0.05549069120538441
-0.10982036689836398
-0.10918816288627226
-0.07404144127687953
-0.02823158253766074
0.009795358292216207
0.03081565752774772
0.03435307932638968
0.025655244669862194
0.011993173138392939
-0.0003360619062479059
-0.007653604854314107
-0.009190218731493475
-0.006421384455299327
-0.001959709767256487
0.0015660113661912823
0.0023834422073549556
8.928314256740957e-05
-0.004228562704733842
-0.008269978327628174
-0.009208509550397157
-0.004743162080737601
0.005643805519740824
0.019552831025480236
0.03112731132513915
0.03157372064698456
0.010953626895231636
-0.03905652147625524
-0.12236732731379148
-0.03694902537972038
0.02440291585710632
0.07105257626888517
0.1106512228715891
0.1465476432201302
-0.02189431049054228
-0.1962136066440631
-0.17536512379962724
-0.15547139107923044
-0.1355988930308319
0.07077067358132211
0.8230899410007751
0.0475619712439935
0.2447029492771863
-0.08712602613479961
-0.41804196298240465
-1.1557146842152974
-0.23222887108662957
-0.3185087188268718
0.9362067994913242
1.6569479474456956
1.9134107013872195
-1.471245851962928
-1.473067931322159
-1.6072779401210087
-1.295345022165085
-0.28896378007443374
3.449420509999985
1.8434939790819571
0.22826119838370737
-0.6573587224072978
-1.4059136340490213
-1.6354010096188065
-0.0877365270552383
0.6322068848497945
0.6656187484697802
0.2690059858263039
-0.03346309882822554
-0.09491414515195137
0.021844798672913585
0.02602637344022341
-0.00777147996479373
-0.03781824971437002
-0.0482746891580816
-0.03995245097148656
-0.021392987470056413
-0.0020715622219752853
0.011500915948312367
0.016966129603560476
0.015409445876959357
0.009768417337880926
0.0032248603551119316
-0.0018927374840444617
-0.004534929732565978
-0.004797828659566015
-0.0034780208198010873
-0.0015701228888432386
0.00011440001467061318
0.0011322042338950792
0.0014108127594804458
0.0011349617618968688
0.0005945834750319136
5.581037154844833e-05
-0.0003133070685980954
-0.00045934190830960753
-0.0004183296559706385
-0.00027199047077468714
-0.00010568448096948571
1.9593946079790552e-05
7.773863915962995e-05
7.372183141628842e-05
3.171822999560239e-05
-1.857640769408322e-05
-5.3054788226465554e-05
-5.972805993399594e-05
-4.0518562151332476e-05
-9.09734338473428e-06
1.4249908650294443e-05
9.792725683980935e-06
-3.356191848529356e-05
-0.0001110234160328894
-0.00019808863194746904
-0.0002531312664206504
-0.00022864356655059385
-9.087835362310726e-05
0.00015642519010609205
0.00045307827966827285
0.0006800314823122327
0.0006841898512907757
0.0003340702877887675
-0.00040309120694340843
-0.0013881766276701377
-0.002279183894992238
-0.002582046025829136
-0.0018056503785309364
0.0002949437199338235
0.0034559095956943208
0.006741097134298192
0.008615949246752649
0.007360610759758001
0.0018154088444790265
-0.0077172348928558005
-0.018772987585567783
-0.026702247933679573
-0.025754144663289933
-0.01142998504837747
0.016217501700688145
0.04924521808403718
0.06979392235373576
0.05075860584220292
-0.04003702917935017
-0.03244584178533433
0.05515291980515449
0.024513890613283837
-0.0968276782562163
-0.05550471950160776
-0.18037574459271902
-0.4005598932191776
-0.27335746728719734
0.1819523800278078
0.6541794312389635
1.1293996722341277
1.115540876434642
0.11097137150828765
-1.2915841319885215
-1.895789486359715
-1.8312392933686397
-0.7617687608428775
0.8130864873074771
2.7871671484957243
2.0637896165440184
0.8250757617352623
-0.8999130954427469
-1.3640161416285344
-1.5638049460501617
-0.48974626150479555
0.18739212108557066
0.7711337467703936
0.5391872097134135
-0.09089349991495846
-0.2082574214449631
-0.053293705797935326
0.14542926295824163
0.14311184865655452
0.06033958084266329
-0.024821471562928306
-0.07475865111853287
-0.08288678605752658
-0.060898985263455774
-0.026699315076244373
0.004243344023813759
0.023138645754259883
0.02826039962605278
0.022898941879143327
0.012472320207550056
0.0020312607212467004
-0.005199702470774989
-0.008168467771479455
-0.007530238195878174
-0.004815819837405126
-0.0016298640656785795
0.0008788108091049181
0.0022063670584162535
0.0024063294600350144
0.0018540251857210833
0.0009940032991465782
0.00016208719247106206
-0.0004810182081874671
-0.0009168992914245549
-0.0011814936983188813
-0.0012768774703789787
-0.0011294285354667988
-0.0006187811143585397
0.0003282780520530662
0.0016161100383915235
0.0028916782563611376
0.0035566986720244245
0.0029284595924221773
0.0005477527886145729
-0.003440624929555585
-0.007985284345869741
-0.011099658970044035
-0.010281236413193362
-0.0034367514379214543
0.009830637922082433
0.026948495522791445
0.041647219532714844
0.04424597599059276
0.02302718905610336
-0.03396830131441949
-0.13831054744551116
-0.3039449437252313
-0.15522582881586094
0.06000832611957814
0.45639233158740605
0.5041472136724164
0.43888616568459277
0.09403040954907262
0.15307755501658957
-1.3919711156983117
-1.9982255880903155
0.03190666112690774
1.305803257498436
1.4593415967534915
1.2716144912068312
0.6108162310428259
-1.571781671191899
-2.4116822359493324
-1.6984700887513018
0.9261575518851456
2.5311992650272903
2.045719783978277
0.6393927832660732
-0.8327940716500587
-1.9240255076247887
-1.8657302174957424
-0.6675146299674012
0.7132595351204309
1.1248762877333198
0.9228120236309049
0.4609690316081652
0.009587904761513916
-0.28149632037020844
-0.37593991886202316
-0.31564631792455317
-0.17662632538987702
-0.03178465574814007
0.07099835426514145
0.1146466303059275
0.10685032968717914
0.06853343049983193
0.022487682876984424
-0.014335303422087942
-0.03383986714555898
-0.035950320130183275
-0.025675043218060432
-0.009827069301424796
0.005424144000246724
0.015766355087881538
0.018953018911466585
0.014546175832343805
0.0036920682794152728
-0.01086879169069968
-0.02473710468799105
-0.032193623815213485
-0.027418833258349578
-0.00676251791929628
0.028350152856183565
0.06895012745151272
0.09799300596757848
0.0931043482818378
0.0329541651762619
-0.0941567781283082
-0.2829712299391753
-0.3100243236659012
-0.14266429866716807
0.040799821820285936
0.2244481652409727
0.5317299899591639
0.8189813063029397
0.4961090736549959
-0.42331447255039184
-1.0533231630450037
-0.9714064121232849
-0.5865927223494191
-0.35926536163499323
0.7263539380639464
1.0572456501387442
1.089016893190343
0.6823534709154365
0.3026033740623318
-0.5158846827098525
-1.263096274701474
-1.3435421440044317
-1.2053283073599794
-0.13666113503610808
1.2678793662503354
1.7982194279443857
1.3230301698674478
0.3326644054138476
-0.6456217866758625
-1.5687185197272697
-0.970067301393312
-0.46713230333236283
0.2838203927023876
0.5768491385159137
0.6032943640112132
0.382731276632616
0.10337066244166201
-0.11246400966646539
-0.2147012216921615
-0.21049087128781288
-0.1390555565585561
-0.047075667974271374
0.028564268370634957
0.06849845805800475
0.07057171441811419
0.04482250878599191
0.007109416757963601
-0.02638488234650333
-0.04296952524548636
-0.03583196749712871
-0.005568309563232663
0.038937832681022626
0.08078109472058877
0.09743734908079116
0.06611091579353318
-0.028260467918928858
-0.18440034921352214
-0.17923731392515155
-0.16988281289433516
-0.10587921650271159
0.04884479320722176
0.28920072790227064
0.14588330795601087
0.47592632782227173
0.47481906710625604
-0.08729674438356924
-0.41097912074011717
-0.6087281709985359
-1.4618780441534935
-0.21082404564013987
0.815194493459991
1.540360352927059
1.4835172484652495
1.1272002877848775
-2.4732941421005146
-2.456834018003063
-1.9380255499924972
0.35927969009412514
2.2093323469783677
3.5680511333182054
1.4954956754880648
-0.228082757188131
-2.1796899788351207
-2.9041135667109232
-1.5304835550624865
0.33584227861377475
1.213339039098368
1.2509886498417078
0.8894568455762103
0.33096715800917004
-0.1444495533700362
-0.4044030033623121
-0.4415072613763374
-0.32465383969745304
-0.14703287619687924
0.012933691912118545
0.11104069026130053
0.13867641142191747
0.11253727515289166
0.060243578463763686
0.007834666025982748
-0.02771296910290668
-0.04054020082275049
-0.03394376765145694
-0.01647196983746308
0.002112120417171486
0.013922271408622983
0.01476658358712255
0.004829307755117141
-0.011539285354627617
-0.02682683832249645
-0.032234471614777965
-0.020488003279934903
0.010669055837572263
0.05511185532335751
0.09644896223806257
0.1090946757699548
0.06313172779023614
-0.06775553549770144
-0.29810753824403946
-0.4267802356845734
-0.04156814978337914
0.26660557117618155
0.4844081721751112
0.5609554429386362
0.20634200123121724
-0.8922796866767272
-0.6423108220506115
-0.1170084793571706
0.4623790610040474
0.5307079972299779
0.37541754389483317
0.13440430257187322
-0.40088870524127
-1.3825349686561759
-0.5151784633000497
0.7130308670610777
0.7789931490803754
0.66822904533346
0.8358604264517241
-0.3985546055030135
-1.0214408302858984
-1.0762947292284897
-0.4186838555975881
0.9072179925824557
0.8688540397706596
0.6363113704219
0.18318013530138996
-0.49227369785835384
-1.3307648666653362
-0.3779943945459435
0.22798433563803266
0.4391345853389709
0.45559736929621564
0.2760957389325436
0.05785331311327854
-0.1035835575317757
-0.17349785632340983
-0.1621341400075447
-0.10279329144783322
-0.03196564947232913
0.023631804066640213
0.05192902833081055
0.05390380944969973
0.03846424292078275
0.016734000268791384
-0.0022471976129155623
-0.013586149089348454
-0.016543832128236707
-0.013245523018221773
-0.006976496075581485
-0.0007487562066828813
0.0035160804423696066
0.005166160119079705
0.004549673381948331
0.0025555127482618303
0.00018240327561310136
-0.001745263349483851
-0.0027002863579011272
-0.0024682140776691695
-0.0011274077949082046
0.0009616472778453849
0.003163505707819904
0.004622558743937264
0.004430700728251226
0.0019401747757809816
-0.0028238900623490802
-0.008795694288172248
-0.013767070920202034
-0.01477565336600055
-0.00909230021630131
0.004321737029978821
0.02333172176087334
0.041840322224740906
0.050490985687652305
0.039390061974378984
0.0026816804495521703
-0.05620601877050223
-0.12085278129298314
-0.16243280746114702
-0.1468801074956802
-0.049082428680271135
0.12850614206931424
0.3389064708280279
0.48376163131533645
0.42457540749076783
0.21544848397467867
-0.44778714870103115
-1.3771673654261771
-0.8628847959521749
-0.28428913614384516
0.23160915347322514
1.1178203001001605
1.4731818675018504
0.8048494160047034
0.43666363761225574
-0.21018442849237526
-1.285521437958229
-1.771064631897083
-1.5850416966303338
-0.5706640359977683
0.619901878854135
2.3710607735214584
3.333579912151242
-1.2988466184445362
-0.8244380519738611
0.22321861511574123
-0.8092038836369417
-2.766950151662611
1.8119112038187049
0.5440149599764006
-0.8044432218516478
-0.36038281245474685
1.196498241265981
0.7762474531150027
0.2398451854573276
-0.41029967648030624
-0.811492847945719
-0.4069573566721587
-0.015623883929764132
0.1810708620179766
0.2327891806978327
0.20121000275275697
0.1390480068501806
0.07630211368947182
0.01817428293002986
-0.046079486480977636
-0.12823408554511379
-0.22738042702896252
-0.32504464618032786
-0.3948756674103306
-0.22822409751126502
0.3298860056537167
0.9478828713941357
1.3973031131014464
1.1833863976290164
-0.3771238955813489
-2.247201241852934
-2.7699655542509816
-1.6287230792267375
-0.5008667902698449
2.201812313411318
9.363254511530355
1.8483192588491013
-7.093591786225168
-5.113946583922636
0.1768427252747081
-3.9256668702622406
2.7162576926879742
8.524805762135259
4.054352067612407
-3.0506746017932245
-4.543865477383021
-3.158528603283847
-0.9905280136841296
1.0201274955124138
1.6733568362607412
1.3892553235428995
0.6495740109585121
0.06225742963034561
-0.31557915303989464
-0.39111916523723506
-0.20159409480871174
-0.056066236106682626
-0.07504916063454917
-0.14351983246978328
-0.28661916738458365
-0.47241791902362434
-0.24145936303867369
0.2432694715699831
0.5399351394822136
0.8858892379263955
1.392909552579957
0.6956273225988814
-0.5475576146077716
-1.9251064693820317
-1.9596927462362457
-2.464081284200794
-1.8003316338526847
3.363086921850373
9.452040872999351
1.0346275446569653
-6.8093529464624565
-1.1913231137677949
-2.461882858549493
-5.106185462377566
2.4485124678252372
9.523963263135576
2.0599998195962668
-1.6388307845463985
-3.8259628592565598
-2.7357130995440517
-1.396967440214215
0.67419456274043
1.4655590993988357
1.3647630961224864
0.8160596066303204
0.19531656229317682
-0.26117469350076633
-0.46722440001507526
-0.4518616700719745
-0.3040378319187242
-0.12023613944016828
0.030227194011631153
0.1177056615952749
0.14626652261609813
0.13745974561161586
0.11265419139272376
0.08070729283966892
0.03426216267792376
-0.04576522744499355
-0.18112530636276294
-0.3881928164391841
0.12337607410462922
-0.25812467163657543
0.0354594645698823
0.13026076278940762
0.09407008237918138
0.9369495576609222
1.4392674392844147
0.4116933642689585
-1.2216966890003333
-3.5451056717737632
-3.219578048363552
1.466358251813881
5.664277419118632
-1.999761826604768
4.052432126562386
5.934493378323054
-8.60273197309899
-8.800824315487118
4.050089355560821
0.8413354734641494
-2.2582931190586706
8.621406971170828
2.308516452613306
1.7687145349227105
-5.760550044626854
-3.5314094598618824
-2.6543833135631827
-0.39082117248756293
-2.429201866936171
6.677162727434901
3.4032210371993425
1.3980430706968203
0.38299495790102
-1.3637057966255157
-3.1781719517557927
-2.13097588567268
-1.597808478159232
0.6488978937300057
1.6104625135043245
1.5295412156319232
0.9191081473559394
0.21588731276472636
-0.30317661347289304
-0.5345052104210463
-0.5091627645256216
-0.3302123748504822
-0.11249404398570798
0.05852954251252154
0.14369679546681577
0.14664173449825602
0.09820956772828773
0.037525142732962424
-0.0038276477355321395
-0.011192680542040992
0.010870921573640606
0.04244487932385857
0.05655237230473597
0.02979743022983951
-0.04733236977583338
-0.16401281499793244
-0.29065045640299764
-0.39221477999199955
-0.2545431935508509
0.08039148278683123
0.8814810168980735
1.3154761399296604
1.272732054553596
0.24120330491903366
-0.982423867316997
-3.181445095343684
-5.062485048069472
-1.3015868300159519
4.700318194029671
10.4119332370185
3.0266390688571203
-4.724203250456943
-4.790546055725223
-6.558733831457229
-7.9017070174544815
3.959128032312531
12.784471689672612
5.57454386797362
0.345459782597124
-3.4428492833247346
-6.014516870309559
-4.695153849187277
-0.3921431465703535
1.942099619912946
2.44352879068168
1.933074671385231
0.8793228600684199
0.01411366756274432
-0.5565252917291119
-0.7488118689780452
-0.6365210067549153
-0.36516908969293344
-0.07781225954665696
0.12977818269525046
0.22201012885858565
0.21248265832714366
0.14150290401263352
0.05347162835237648
-0.018641706890841006
-0.05938006121838554
-0.06892268844503048
-0.05675290247672175
-0.03459933328245532
-0.011375740206966647
0.008686306288129966
0.024976327068712154
0.03779485146165177
0.04569496671007084
0.04440772695062187
0.02821637338021428
-0.006373453630207867
-0.05596964572752409
-0.10690561817624433
-0.1357912061070948
-0.1161013311953787
-0.03118411072408244
0.10860232581361111
0.24981307025191496
0.288024948541845
0.2749739120333687
0.2443450609697904
0.05394115652713333
-0.1654163005121741
-0.9708706938057653
-2.1988801560193503
-1.6039467516629504
-0.5457709023255081
8.303636988588606
4.092016706518872
-0.3791084449440644
-7.501776889758795
-2.453577957124811
-6.855113462086933
0.8003621884639346
4.923374902675147
9.897512088022332
2.5981152009791506
-2.2972623118230544
-5.3603856285126525
-3.499916925322467
-1.4293342111033356
0.35383940579609546
1.218449867148098
1.6999162726568167
1.3191992916904738
0.5983853029885505
-0.07020469536198351
-0.4782366242619303
-0.5868512881915696
-0.47011064858839496
-0.24721094748501474
-0.027262200238935413
0.12162312502667263
0.1786890893856161
0.15961309509885258
0.0981657141600179
0.02895017459698479
-0.023761659760164394
-0.049831192236469195
-0.05119428182966676
-0.03673272770960821
-0.016821943730655403
0.0005792077302587261
0.011574835141267854
0.01596236415115959
0.015663579193871995
0.012915572945921657
0.008996869456791819
0.0038994495644219616
-0.003054389958178394
-0.012012570314543839
-0.021416317945961737
-0.027523363774910034
-0.025168079544143334
-0.009923978036499751
0.01872680849442848
0.054228204724192715
0.08123604355386946
0.07677167451564743
0.014944539317579181
-0.12542654840345843
-0.1525430958161757
-0.05590629751822005
-0.005889322080360895
0.04054173735575912
0.129515011053085
0.09862189722527082
-0.03249234786695365
-0.06693133519437355
-0.030175662968067174
0.03462806521730408
0.07451398467002726
0.03681709082726346
0.08088341003328446
-0.009878199113129503
-0.21806608173918113
-0.2881387546351283
-0.13183242664170028
-0.04495321665828388
0.266756956404286
0.45970390846927806
0.3322919239725445
0.02109892108206541
-0.18365474933187187
-0.40805764427708574
-0.3606055946709889
-0.10646018875391144
0.14210393802843146
0.21810896849586087
0.1807438135459702
0.0933909363158609
0.006453745285267916
-0.05106104067841622
-0.07129802214650151
-0.061482778704867236
-0.03576589695405717
-0.008107912119330547
0.012063289450872539
0.021142511555283062
0.02033104126286676
0.013490366283596109
0.004954873984729972
-0.001997992904354766
-0.005784520960553726
-0.006388252556764813
-0.004790415611484502
-0.0022979236487580147
-1.6354231333263668e-05
0.0014208217568851508
0.0018763093031780617
0.0015693798347823447
0.0008762220681300325
0.00015463370111357358
-0.00036106660309382705
-0.0005877316687505783
-0.0005633091363469199
-0.0003895605997468945
-0.0001756237197475169
-1.5995243271783372e-07
0.00010229548530686007
0.00013479614394726927
0.00012043327057008574
8.368275523238264e-05
3.8134069605097407e-05
-1.590260944027337e-05
-8.458487752267853e-05
-0.00016859960932980616
-0.0002522132051152448
-0.00029968073989254993
-0.0002635507638812351
-0.0001054317140423548
0.00017580715299800537
0.0005192585875155283
0.0007952584903199172
0.0008303388081710597
0.0004694915381013228
-0.00033369755195564003
-0.0014275515740158678
-0.0024182170248094365
-0.002720063274397079
-0.0017336494467545163
0.0008545746719561184
0.004710572470751952
0.008536665426262406
0.00991941623059686
0.005402263910250579
-0.009293414064821412
-0.039157909940886526
-0.09027151249157095
0.029085725650811398
0.10689276808667074
0.12649406521472625
0.06780652778608243
-0.08864148648444292
-0.1558949746382585
-0.33585473456917536
-0.01889655468740531
0.21092714104492738
0.3676005896515392
0.25749986445465034
0.28220142771704193
-0.34850423836155403
-0.5982406503950438
-0.5907154927862265
-0.21244706349770318
0.26361265103926096
1.1395049382425797
0.4542571602422866
-0.03593942999970298
-0.24931115687226377
-0.34487495927523887
-0.47762676043899166
-0.5601385978931448
0.15611138225004254
0.4756728561103251
0.4365424385953956
-0.11722644540456864
0.4447894168476862
-0.06590913641586793
-0.4485928609346572
-0.4987782232019736
-0.1969192435310919
0.2924976130175572
0.6109316845625907
0.19129581264732567
-0.15212961417160212
-0.22422158859547006
-0.24148457973115647
-0.2225405014911489
0.21748038347406007
0.2666693244333924
0.11264575108709309
-0.060126929856628694
-0.0690251932088356
-0.1282387236466327
-0.042873002276967276
-0.0054294122824777346
0.0034685627513544757
0.010205106737914714
0.04081996125848897
0.113588709276434
0.033911239004347095
-0.006864346661912791
-0.0283813635804728
-0.0551648200026833
-0.10967330207564639
-0.006838591431646592
0.04840436126972307
0.06047764293594115
0.04054298474948046
0.0034933686916980974
