0
-3.0150823659010674e-07
-3.014805695165606e-07
-3.014181298283742e-07
-3.0133150585366026e-07
-3.012493501773706e-07
-3.0121474417286866e-07
-3.0127234162155655e-07
-3.0144727517913085e-07
-3.0172143987230863e-07
-3.0201731910400073e-07
-3.022017019159552e-07
-3.021190050755566e-07
-3.0165496180458167e-07
-3.0081691590842965e-07
-2.998007891652542e-07
-2.990039839559129e-07
-2.989464816184564e-07
-3.0008573466820917e-07
-3.025549320835481e-07
-3.0590914871034173e-07
-3.090090572332992e-07
-3.101793571798482e-07
-3.077232984982144e-07
-3.007464213166097e-07
-2.900630363736749e-07
-2.7878674107401385e-07
-2.721305584349518e-07
-2.760564347707785e-07
-2.9477178074285047e-07
-3.2763759481168197e-07
-3.6667036714033525e-07
-3.962135204165467e-07
-3.9619957409635736e-07
-3.4947954445501574e-07
-2.519682664726949e-07
-1.2224028388605404e-07
-5.528368312609136e-09
3.309476419428793e-08
-7.073022936002927e-08
-3.4851778231522093e-07
-7.643423200460868e-07
-1.1933987756981857e-06
-1.431920419915988e-06
-1.2517670719198053e-06
-4.987096873756796e-07
7.886624053411861e-07
2.286041277984196e-06
3.377385406052758e-06
3.2891850856020437e-06
1.3802628868746178e-06
-2.4654325123723408e-06
-7.476834614074123e-06
-1.186084420409068e-05
-1.3092782229132448e-05
-8.735966509781595e-06
2.30637043226467e-06
1.8472846559726598e-05
3.477053665359497e-05
4.324380526641497e-05
3.5175343574510206e-05
4.9401229597887565e-06
-4.542763141605663e-05
-0.00010279128047983597
-0.0001429415811946497
-0.0001361006104722227
-5.836474168174766e-05
9.31053767032673e-05
0.0002864587873927385
0.0004507149469217293
0.00048803111086429945
0.00030632777023078216
-0.00013198968740577024
-0.0007598804799213608
-0.0013779725148982235
-0.0016759978929434803
-0.0013213016104313567
-0.00010971306415589091
0.0018594163112684023
0.00405631417182429
0.005532613132310088
0.005146735082946056
0.002015857566400789
-0.003896737928073417
-0.01127021101689801
-0.017288193296341264
-0.01816299999752955
-0.01045688449702389
0.0069700588835646575
0.030947329239116878
0.052810981727132604
0.05901745402418928
0.03415360010218848
-0.03392115459808368
-0.14822797795176568
-0.09849848318250339
-0.061128471893955295
-0.004471939836101591
0.10153885883815769
0.2747316386582074
0.11342756964577005
-0.0038089681852045243
-0.1105944914858363
-0.24015741578375402
-0.21317134580177047
-0.031377508549539294
0.12035320966344588
0.26503180881694616
0.22255683475286556
0.0023556147507376624
-0.19712756683299812
-0.18301385976203496
-0.16082915653898064
0.06976611015775995
0.11411747890330598
0.17778920953954608
0.06131198016668412
-0.04219538854942891
-0.1452930872820025
-0.061666943793084926
-0.0014010049891724316
0.03170004317002496
0.04006495327568097
0.03037944527340895
0.011061547251960058
-0.009724848979520532
-0.02515355950269243
-0.030210629171177835
-0.022143928788856508
-0.0013115402273413447
0.027645141579449948
0.05495870412598965
0.06622713865775783
0.04508494866852726
-0.021876372960435618
-0.13908724204140926
-0.0971645824183421
-0.07187823492141036
-0.028566588807208065
0.06842916689446014
0.24407938032250065
0.10300230332871547
0.025892669924996326
-0.02599853751637182
-0.09955818785741387
-0.23565984727601227
-0.05723493646911588
0.03636748188188651
0.0672837713122741
0.07084284219101701
0.08455658004889934
-0.061914208722758206
0.04675022217264272
0.009606236362240336
0.011881633119344221
0.030815175889424267
0.043455523583140386
-0.16552444822733536
-0.1984000651324001
-0.043702908638385905
0.1186079335669934
0.10740170776307095
0.12981127847945217
0.1745397766120535
0.012478676005962641
-0.19481029192126695
-0.08147129794333051
-0.06353772731689569
-0.13004954126770418
-0.042451551186890216
0.057140648158862536
0.030974850284409664
0.12826243314754207
0.17055660976747491
0.14459573163590497
0.005286704673376942
-0.11164847914008023
-0.27125436675219916
-0.12133476779660855
-0.08096511936401697
0.060994594979873494
0.13790557195311362
0.19189117763485827
0.06042953661171365
-0.032430455267109214
-0.0783486235688962
-0.08155164807090137
-0.05315782755301337
-0.005924672254822109
0.048865388381823395
0.10227812357326432
-0.05264067150936965
-0.021328622260978283
-0.00773376553837795
-0.014069298105089334
-0.040677229674591746
0.113895004778789
0.05291152015551206
-0.01800851144406537
-0.08982896408152923
-0.14937039551625853
0.019714577247577057
0.03345318626405971
0.10227953038940031
0.22624095789678608
-0.006672976372669513
-0.21771753412107966
-0.03109587179885184
-0.06713155418350662
-0.13806458691953474
0.15198999250265502
0.20372343713003313
0.018519912478202134
-0.0036771589244078934
-0.06328449297568137
-0.15786114421042757
-0.07937952214755861
-0.014480593173491797
0.051463758257021534
0.12797580254659288
0.21405692623312952
0.09726753053482125
-0.040795448789176174
-0.21380304556548782
-0.21916190735021723
-0.2315815692394906
-0.006397298964980025
0.10659479928979251
0.342930217661202
0.30464140827759273
0.15093211400099213
-0.19690664520209752
-0.23746926197137264
-0.2646937920011915
-0.14565540875232177
0.09240981376072115
0.26374348445034107
0.21711202989578043
0.02534027857086778
-0.22478697670625472
-0.24185609812876993
-0.3409672662688912
-0.0592381820835419
0.4254058303664759
0.47865593450510135
0.607717113719441
0.4815982507007303
-0.22501267823220894
-1.3751509628148793
-0.7222218505324193
-0.8971764672336825
-0.2465371571806484
0.4819222639913078
1.6315282127488568
1.7487507800082376
2.1578570346518564
-1.1768049231109179
-1.5098852241288958
-1.7415464228436468
-2.279084744086971
-1.994798587785851
1.4924649391017402
2.433041622984615
2.324481890873665
1.9364140108519634
1.050448794480825
-1.862502369736536
-2.660131969421754
-2.1151292082272213
-1.1521664653827193
0.008962337134130544
3.5969806146952643
0.15895584381731856
0.6186223952675843
0.5774158670423731
-0.11628333346154798
-1.9351837365645703
0.3955188931672907
-0.4289614627715815
-0.6413187183907572
0.21714793108799516
2.686733725266638
-2.0372552702653186
-0.33521638696140776
1.0070737318992535
-0.6328593182447451
-2.751069533612015
3.2415761443059483
1.3835668673362502
-0.8499790543193998
-0.32030527075970117
0.04419573970770254
-0.055650043209459744
-0.3898448512431784
-0.31792876478563054
-0.5434520183041339
-0.1149740623582342
-0.07608047833054464
0.04300795071143906
0.3089862574961101
0.6671988913451502
0.44620203797324354
0.5059590571700685
0.041232383849960384
0.03881453246253321
-0.426037500550277
-0.8786263111045985
-0.9478874894568821
-0.10803844114494542
0.12890492506040482
0.5745867866374362
0.7000266440625897
0.5732185831180098
0.42304144214120476
0.042151231510258604
-0.5742101849500981
-0.7709468879152442
-0.5829835387238971
-0.5166358983329697
-0.17633213322523328
0.46549043418879577
0.9734477536358402
0.557731228753014
0.6153279899072739
0.12348994293021988
-0.3116058268891466
-0.7653695472627245
-0.4908592944563044
-0.6296884052996247
-0.16036610684059419
0.3067813300351069
0.4940110715591214
0.3971430523448669
0.22438201165470464
0.15040743891879868
-0.10570832822086053
-0.2798574607490077
-0.3477075901807488
-0.10585628256666417
0.04167370808316339
0.08770933629607784
0.21872110344645357
0.2094454035471588
0.020937948834397386
-0.1948899139189637
-0.08503446273156587
-0.08329400816040201
-0.0008838158211483011
-0.02288364628312096
0.08875126923233394
-0.013168920637348158
-0.07261417867526408
-0.04279513352502338
0.10259039099564915
0.1615738547648448
0.10204927453032575
0.06772928665189479
-0.00805503900334249
-0.18350040779700608
-0.2897547907111617
-0.11890994178524451
-0.023378625337899386
0.07226595626352988
0.2504608275679434
0.17763415478896832
0.08645710154844106
-0.03135634859818748
-0.020372525829502924
-0.147509275667467
-0.08396195635286928
-0.0885462531833592
0.0032728738321881512
-0.017286739200097084
0.06387716752706961
0.0751868155608174
0.04926410305565448
0.01424544435444525
-0.011532609686235387
-0.020949817024669245
-0.016286596226020366
-0.005461613996477851
0.0023467518440900737
0.0006488613192290784
-0.011546227942089484
-0.02852791168069131
-0.038591649920278547
-0.02672335627806122
0.021124907082473582
0.11320423618412226
0.04818669254995471
0.014056219451263369
-0.009504420109742975
-0.04577325904777067
-0.11449155357210768
-0.02653175737949123
0.01838908723679492
0.030290687920503972
0.02456027964813533
0.016321915856723174
0.015388627785774139
0.02321641929953625
0.03263719472305734
0.03049055335320251
0.002603545571303174
-0.060154616932757726
-0.15667594482386
-0.07344251057032844
0.013113423025881055
0.129891962141738
0.09828626929875557
0.12673178945820326
0.007783331333197777
-0.07906524925326897
-0.16012569257630196
-0.05898539065311451
0.009878543615021069
0.0433052455335727
0.047544388859388775
0.03391464251043507
0.01415904431412748
-0.002903558509557348
-0.012783107594806062
-0.014983697267117516
-0.011622134373289027
-0.005782665456011744
-0.00019792263686816664
0.0034656175007965998
0.004727131351363142
0.004005805956133585
0.0021740016316439304
0.00014892358890737967
-0.0013702451235031365
-0.002005694869814033
-0.0016914796607624394
-0.0006150250659908234
0.0008455496261694877
0.0021800809724668046
0.002824588513879246
0.0022915535805624818
0.0003623739703308068
-0.0026963064201102342
-0.005986329661069876
-0.008029882526831164
-0.0071303001613136924
-0.002065848183794927
0.007008241949285347
0.01774202326587578
0.025260443781320016
0.022686775693046606
0.002639105498055127
-0.04062086093807639
-0.10918502368454083
-0.0006504033554471753
0.09093135979044303
-0.027433674355954927
0.04945870795534063
0.12324521697636888
-0.007680049283727719
-0.14577872016816198
-0.09116360305724903
-0.03957544169589973
0.01688183856375645
0.08626121258452737
0.17237616496560718
0.07219596963455997
-0.022936352893938226
-0.12226587109218129
-0.2291494221637372
-0.13683248507680393
0.17060160025684673
0.11186711566715218
0.0995179305237251
0.13274947858079775
-0.004551675860932541
-0.13959600779649756
-0.10223104165126058
-0.11590241255406741
0.008373223638180275
0.07320054675592168
0.09176494503696196
0.08293890817126676
0.06722460745277314
-0.1349277836896983
-0.10275885886074591
-0.014631195720433036
-0.04932616949901351
0.009850885368816698
0.16896152943588474
0.017498520697647787
-0.07484945400557903
0.04305438416263344
0.1100647556015773
0.06351478723754797
0.05312572345740734
-0.14438065009790593
-0.3138922037732255
-0.19859091295022394
-0.10857628612833162
0.058232805282048515
0.3877039446826614
0.522845220199742
0.24939820881378155
-0.0993210504300083
-0.4188404730256383
-0.3999542885532137
-0.2985104158450653
-0.12038989600860689
0.1733111195876782
0.44457848526330557
0.3505898922369965
0.12179867457069572
-0.045456514684340754
-0.18036574856217438
-0.3186930371772966
-0.2829663980118262
-0.07080807345449712
0.14391089560086148
0.19847413682172899
0.32375342491119763
0.12999236975483777
0.002188766580134585
-0.29350594996100676
-0.19613860244116021
-0.13581568719092368
0.07475265912477994
0.04034913540197794
0.17650230679810155
0.10011212879454655
0.021935484206144915
-0.05633873013091615
-0.14031094027877486
-0.0383832293063654
0.042805048003638116
0.10124922434164828
-0.05957107849826033
-0.031309924416271305
-0.0023154806576313977
0.040014626599694285
-0.09385137767713092
0.0009389585721867051
0.1204475407114365
0.050128950654922705
-0.03446390503285762
0.03624190525710065
0.0326348385503712
-0.06585342445980022
-0.06327928664507491
-0.1429556634590786
-0.06858766005036754
0.00834652269929945
0.13616243084932392
0.1488466485725807
0.05479322035727736
0.03239730706736537
0.034388051135354966
6.990389346502444e-05
-0.12767285719346702
0.014814891155780486
-0.17566918934076084
-0.2660195716946175
-0.19550321834333048
0.10412466463030769
0.2817361294341241
0.5421050543502517
0.4341343898361279
0.060097883399028044
-0.29355447895786246
-0.5129605267920507
-0.8177037991684397
-0.5433043568614976
0.04411633094978936
0.7036970859938898
1.163294614828454
1.875943968928084
-1.3891181450337227
-0.9160905090981293
-0.7898611551477961
-0.8509225835485117
-1.0836146579142252
2.355738370400944
1.4874572169855382
0.46560007047205154
-0.2276084552172248
-0.9418506558388849
-1.19110296869185
-0.7914149937219785
-0.0343124583791826
0.4913386561294024
1.0382310141937472
0.8255097054551803
-0.02204300433338711
-0.5022258485951695
-0.5292271769976271
-0.504700232874559
-0.08158138148587445
0.8698389155270991
1.0941000780817953
-0.012289186246893607
-0.555268045003289
-0.8972669822410034
-1.0306246693340544
-0.9923803089652913
0.2685901311594716
0.9818704378370975
1.6348121811459053
1.884763904317822
0.3428121183060847
-0.7563695415571517
-1.4182090670034666
-1.7345588602502908
-1.972373198922358
-0.1506929999063212
1.0813775854251497
1.6929835834771265
1.9036293359886294
0.8637526093103814
0.029573476985961158
-0.5577231582693949
-0.9155536072612843
-1.538195440908088
-0.847692749710593
-0.5231934161231195
-0.3296516675573329
0.36271833932182673
1.0029604095812996
1.6791905027872718
1.588251214455737
0.7972476685437393
-0.48840442353245905
-1.571377105524506
-2.07556190072755
-1.5919620995100647
-0.4122055286599808
0.628271863628581
1.816668784360782
1.5909982502342064
0.9932213501723625
-0.0034066151684942025
-0.4748738213265147
-1.051275332170981
-1.1861733749998913
-0.6367047875077835
0.2102513858183079
0.5519942697197903
0.3324254240828549
0.37555059443456396
0.11507935409877969
-0.06132110562511867
-0.04419007989299302
-0.010097585449810136
0.19085143244639308
0.061985698846955255
-0.10498431667253079
-0.3944746403821618
-0.23946141397355641
-0.2097225369844666
-0.0201485513688243
0.2427577433832289
0.28443224455976035
0.36801601607786494
0.6942442765714939
-0.597463901857509
-0.4078213652490317
-0.24579305605443316
-0.1994008606695777
-0.3198905861431078
0.7775729978681699
0.3015236190383595
0.0695463057299029
-0.10022305609556754
-0.3887793097753104
-0.17085612647824078
-0.011049606797351546
0.13385274036054443
0.10616833877078904
0.1359931092180854
0.03229245786165654
-0.01988530990784391
-0.05499777896095329
0.08321028258471726
-0.04513242771108032
-0.06328772821943827
-0.168945221891937
-0.1319839204501627
-0.10071706841874416
0.1839645781991016
0.1701907615564268
0.2785254113554768
0.09356034567041041
-0.03245260580196028
-0.16454020418115156
-0.16360974963012478
-0.26632669541664344
-0.07342218333010478
0.049579757835044244
0.15981722874557583
0.11754146715683787
0.16656713100188275
0.12121294646911232
-0.0364834362781251
-0.14921840031167283
-0.06990666784869405
-0.04549915296859904
-0.10433919690432218
-0.05055787314012484
-0.06663940706828288
0.07709277044377501
0.20941948482817707
0.14632981968115663
0.08494398666019691
0.005940807122655785
-0.11619170896965161
-0.2991480978709969
-0.1409806496653199
-0.015777623764860266
0.12091021233142397
0.11883644885669979
0.21719981216328
0.03213823886262338
-0.04819206002083814
-0.05993062403646416
-0.053290490350992474
-0.07958573411426881
0.020690800096696643
0.02607690089190699
-0.0625726049002306
-0.023786953307109965
-0.021545383813102937
-0.014577477678762909
0.03285981261674691
0.14117729105477808
0.10944484689461127
0.11557857428970413
-0.07642287622036133
-0.103794980324887
-0.19092162352623793
-0.13908018020363322
-0.12437532810382368
0.09461012446930947
0.16172476266938654
0.3062933582295253
0.13115624839596604
0.01096938777408734
-0.09802446140391985
-0.24034292594496878
-0.24269784661347485
-0.10195786465473494
0.015529026288573514
0.16299438508216685
0.1949963219806137
0.1487809633678782
0.03189023195756329
0.019839915720859348
-0.136208800080958
-0.09522481460427638
-0.11068043790142747
-0.018408262296807986
-0.03099431262232026
0.060753438464081086
0.08096250973084027
0.05949121201835709
0.02350152863431103
-0.007970060768401531
-0.025694761865350496
-0.02880303854755636
-0.02160220278856129
-0.010144115492080451
0.0003863952600761152
0.007002278227323364
0.009047770069191906
0.0075464946644498215
0.004261914027507017
0.000871102880936291
-0.001531156440901049
-0.002563853624682529
-0.002418630686282265
-0.0015890618943058003
-0.0006016327212844438
0.0001679461844720216
0.0005651525487321308
0.0006297825298289647
0.0005113901430634752
0.0003709171696037619
0.00030370840040333785
0.0003047132910754614
0.00028180499537933774
0.00011011575656398064
-0.000290591385192496
-0.0008820883406066918
-0.0014687235282504426
-0.001722249655519507
-0.0012858013252014665
5.40742582622165e-05
0.002174324437127717
0.0044827932691716725
0.00594371717482974
0.005337648912607745
0.0017618356805150044
-0.004736812216817237
-0.012631345627542449
-0.01880860046512149
-0.01918872570311668
-0.01019439636082753
0.009143500903190417
0.03507790298368306
0.05801268547777739
0.0633717624109632
0.035062337332079314
-0.038841323333576275
-0.15983935978534158
-0.11483897085074925
-0.07677788729227318
-0.01133782064355008
0.1114842921006509
0.30480723937361875
0.15658413306649996
0.030094804187177634
-0.12547077541484863
-0.15736662474458982
-0.29104041848706713
-0.11853307965480128
0.0014622629543855892
0.1312348025337893
0.1334220222503069
0.24923854945950555
0.08306046590486951
-0.0014500966334636833
-0.07243185829693187
-0.010912695225761448
-0.08745632919406818
-0.14085917755807856
-0.1647618206384234
-0.10627395446520507
-0.07796394240677922
0.018970259739959975
0.26622724854117846
0.5033016313162075
0.5149520950882772
-0.3627076995060532
-0.418370927905896
-0.33289514217829824
-0.3513600097141941
-0.27132436248794745
0.5487945812301894
0.5665617180350739
0.22943609658255473
-0.041982537150504186
-0.25505544544700276
-0.23281542212378833
-0.19664372957199602
-0.15318586301915596
0.10874442976482421
0.21093640774342626
0.1725786804035114
-0.0024624367773714672
0.06756781743870292
-0.056179592973628734
-0.02431682022072051
-0.08625126769247862
-0.07711943314571784
-0.008275188657637777
-0.06375257447483287
-0.00344638975737729
0.027928043657372437
0.08839091084023537
0.025869384143285077
0.06813790391602162
0.017926451185958946
0.054267936079685324
-0.06035262862787654
0.03115088456414986
-0.10718381052201666
-0.09405447133877273
-0.12557871919150526
0.023193048441753156
-0.009956578671745122
0.21302435224816693
0.11769868931352512
0.1086209570947614
-0.0320349909858323
-0.13866869889858244
-0.25218675688193154
-0.010138127797252854
-0.04075185745312039
0.23813008878051203
0.2173272034692149
0.09547491864169944
-0.11831675213764331
-0.19886213368618508
-0.3002990520749155
-0.15772672737778506
0.10162831420355534
0.13892311368319948
0.3819333566259366
0.4096974328984827
-0.048971370906346394
-0.3006846519579694
-0.2607663685983809
-0.22411440909700017
-0.24377430416565082
0.27657181781330853
0.3761583596728286
0.12184019093052796
-0.20938056315676998
-0.3457555034925225
-0.23370793862933245
0.15064748996665472
0.592713888654986
0.6387448605681952
0.20992340389185646
-0.366987205955907
-0.920308899170431
-1.0023901658305772
-0.4854234759873056
0.4064831450785232
1.2368234966118952
1.492298378499327
1.1449864132400067
-1.5388940688818253
-1.347057773356925
-1.0530161123116206
-0.5671637552454634
0.0700148694710105
2.455445421016029
1.578119000735888
-0.2048886562602846
-1.1505207118601255
-1.2770680634218325
-0.9073705485213754
-0.4428716611252501
0.8123632876236601
1.183401979901787
0.5375054006372574
-0.19047768837718917
-0.43862675916581995
-0.4185504414463967
0.31780118455476325
1.5360356141063938
-0.40482632528925583
-0.26573854552208953
-0.8445742559509355
-1.319848216115225
-2.0458860446332507
0.9877870942038958
2.044163278614217
3.91166632315119
-1.7870668563495211
-0.41476165278652116
-0.6682766708744812
-1.492158682532558
-2.805038759576688
2.3256895358660805
1.0539349918445937
0.6933892957604676
0.6652103351626985
0.4904254132012026
0.2408958670924866
-0.5622961706557867
-1.4339276194820612
-1.6348018553097166
-0.946623353807551
0.06615553875973569
1.1146846639268004
1.6023267833491535
1.656577961329684
1.0314355692647927
-1.0875046572341571
-0.9776247364491778
0.19224185161674426
0.548738438958995
-3.9335209953160524
-0.3523884777436078
0.5077875629697495
0.6741201733735177
0.6314743333733582
5.974637165275608
-1.4775764466398147
-1.8780276892184367
-2.4738700320093368
-2.5127512801134135
-2.3964545110461732
4.687035061269781
4.476352156105075
-0.03997961736778808
0.176541876233312
-1.2859895350422839
-2.5271836765138396
-3.5831900228951383
0.23837387510807942
0.2976825554821989
1.4498455308263833
2.422233185678849
3.8271897934570647
-0.7160001631107268
-0.7170206917042411
-1.0307057384141711
-2.82254040127603
-3.5710082873296405
1.4213652455627652
0.9792831467804727
0.8925276307570079
1.9053162715773913
1.1335494338790308
0.7692276067243243
0.6976506644447802
-2.185124298989739
-1.999813561502955
-0.9190345164218411
-0.4668759985809866
-0.31203614859587303
2.2536535939587647
1.3901358060516227
0.3886791950867038
-0.20216842703784263
-0.5878596359468379
-0.6874262537540223
-0.46875316706187786
-0.08796745749965583
0.148623214421599
0.1952153876641743
0.2559150251369229
0.16399909476275967
-0.03853075194812101
-0.11483908139551566
-0.039171411938024106
0.003311782442725082
0.01990728970765915
0.014730083458477584
-0.007181839811637812
-0.03678046392932816
-0.05967486960191288
-0.05726933410346333
-0.010675308155495996
0.0932115529033957
0.05519681006777815
0.05929680971307832
0.07256195902460226
0.05036144924097705
-0.053458097331423274
-0.07395133742869502
-0.22379145354794594
-0.08748014405784503
-0.024025453411099462
0.021580051020188718
0.10099373856097306
0.24476590913079582
0.2505874515207375
0.08264040000565138
-0.11632244958499406
-0.20330384762723028
-0.2111228627359736
-0.33118762378858724
-0.110156877339669
0.13705609256252047
0.3015385716593757
0.2506138242597478
0.204713967238141
0.12932011519282724
-0.055014587841428965
-0.24793495309224503
-0.33833742118377674
-0.1778317208544094
-0.1675554630507435
0.13768930703046978
0.21036979132253125
0.32385698119636497
0.12848848158355314
0.038018582181768436
-0.1702875601338441
-0.14406767368211584
-0.1386658748347728
-0.0009611716137948409
0.04104556234292932
-0.01878057659229705
0.03181261109483133
0.015862156515427318
-0.04188661692056384
0.07691063869872128
0.17916291357797476
0.05999572582587656
-0.09234892108387878
-0.08761696187119304
-0.12386423554729817
-0.18111231055932828
-0.0215402140943686
0.20308173171926425
0.13905144801253347
0.017952190882598532
0.04794776477729728
0.011745383402785498
-0.12882324899417422
-0.023681417378444865
0.07622957916197752
-0.07136903361775547
-0.09332357609934092
0.0017790526617320202
0.02221191017915562
-0.011879694768466061
0.12457312023130354
0.054845779147866584
-0.004096648644059705
-0.042951488548105175
-0.05868629657566821
-0.05190498764657662
-0.02468736022966903
0.020082604911910176
0.07805496668212518
0.14258671890617017
0.005187029155099676
-0.14211266840900794
-0.10334082417586034
-0.07624864206899429
-0.053077122962923835
0.1751870174961523
0.21291414872820066
0.05553559596953609
-0.1104178191964391
-0.10252941009210832
-0.13522977745324558
-0.013567218049478854
0.06932110247174114
0.1305096944052144
-0.007254455336745981
-0.12093807812733358
0.00785203109848534
-0.011248725296734175
0.01944397792736911
0.08404612211919218
0.15428350779410427
-0.005440643882125287
-0.02910399697941581
-0.13809271426200692
-0.13173281791988048
-0.18335950124571088
-0.04468362635500075
0.1416247891292428
0.22467224841409658
0.22951998256332753
0.14917788741524005
-0.051850559575526985
-0.22335835356026715
-0.2100395266157782
-0.23482281346165373
-0.09194594017072656
0.04710947525406751
0.21696587012746107
0.2376676265381368
0.29869239367726036
0.15501045263506183
-0.061927054112234294
-0.42151271408587376
-0.36830101757982087
-0.30417409326223327
0.013463038671872003
0.2560812942116896
0.4975560920906511
0.38854975522479795
0.1432623917366014
-0.2557015881887393
-0.4373038800800738
-0.41715932533917643
-0.18021802387327143
0.12048543388720395
0.3485446124356969
0.3596967085383013
0.1792780851349532
-0.008972434938714868
-0.25921282031035003
-0.24801815294563023
-0.05439419083751169
0.05737487183979704
0.04784719527702384
0.10520188267626308
0.04277580385948191
-0.10626812333758608
-0.09587841442015803
-0.0755811223503411
-0.0005699957455064591
0.15760064149027056
0.20240133195126594
0.10935160749552701
0.031294739600263605
-0.08826857112266048
-0.2974915396960079
-0.22032646427276417
-0.048712100576519944
0.053814748868104105
0.13829119574829776
0.25172228179446804
0.22107744027479725
0.04615062903293226
-0.09616022828779773
-0.2384345017726306
-0.20637682519439884
-0.2069676370724521
-0.026487838193603733
0.16070362137481117
0.37680024453082206
0.2261249153774136
0.08916407110410025
-0.07117617755567093
-0.29317437535375945
-0.3969674527179007
-0.1713875759920572
0.02634916412222384
0.2571758815820522
0.37842380773240814
0.22313060099900445
-0.010929952870058792
-0.1586055261497997
-0.27349317215157865
-0.20976733253098007
-0.007405962933453701
0.1143836306879848
0.1553405359515315
0.12747376855173673
0.048245016618068536
-0.06316412349891462
-0.18612216658918634
-0.0974491731501447
0.028176987369582785
0.014641692829097074
0.0782737996057392
0.22176270384781685
0.031228556989933338
-0.12156142303055409
-0.07211972703480658
-0.05385339685779513
-0.08985531426957873
0.011405439269623865
0.05557451286741318
0.05802208040042867
0.037697846140066334
0.011530275547513218
-0.009063619940371342
-0.019117433948981636
-0.01901519908422623
-0.01233466011489032
-0.0036020009084859225
0.0033968075026503054
0.0065107396445160904
0.005406932950694572
0.001276370038041625
-0.0037092148874021155
-0.007051043872660065
-0.006636623927211053
-0.0014788918738441294
0.007622953840778233
0.017723084642249556
0.023972182518086537
0.02071313531649117
0.0034251908604149717
-0.028920687405291814
-0.07200681903294066
-0.11597890874839563
0.052198594716673076
0.04393830544145296
0.0632388845252796
0.10238174571018215
0.1415767476442685
-0.046179512798585905
-0.08583024602796833
-0.18960322678234023
-0.14939381982689157
-0.13619211880375232
0.09186807105923779
0.1749136609845055
0.3356226588039234
0.16920507523840275
0.04418837623669116
-0.2853246664954599
-0.26057367638139883
-0.30038949973358936
0.007345130855132835
0.10120994650338562
0.23074545368909424
0.23663462195735582
0.1347190061379366
-0.09014256659775759
-0.07878524536316311
-0.0839517019919613
-0.15365845072516002
-0.11757633036716338
0.01952611731624793
0.07610503556068617
0.0856888719762965
0.08598714942990657
0.10934560276031066
-0.022593690566475592
-0.09931883082702232
-0.11843493007974622
-0.08197954017601446
0.00539080480963242
0.13543166301885098
0.09373344662432731
0.0579921087489102
-0.0007048541055150886
-0.1130487303601773
-0.10456333759745688
0.010908808558460246
0.03501523531943916
-0.014942737992765884
0.09100357447438219
-0.00941319215184885
-0.07638166629889966
-0.07389244138245021
0.02436656275618811
0.029505994305222844
0.13353514160676305
0.10897877548761219
0.11369706418346515
-0.09890584858610982
-0.16650191648105936
-0.30574297433885267
-0.10656265254745426
0.06388254700305956
0.24841075295640488
0.28320003347581624
0.1845147961777779
-0.055536035925725126
-0.26295177534650216
-0.26931105093898605
-0.09947656037298601
0.03457118399307841
0.13176335575036227
0.19439019129449905
0.22028690616344263
-0.00013651031504760138
-0.07976472583999203
-0.22530846970918977
-0.22747826503778582
-0.05655182533363772
-0.0669445426828848
0.18970115540909638
0.34758203660072345
0.2130015195696889
-0.03985081610099745
-0.061141640341376514
-0.30846109957475
-0.2275495285477314
-0.03831360425840983
0.06890395214741893
0.12646044594481845
0.1758440659958545
0.05324272725681838
-0.02067463808719169
-0.04425359234032231
-0.03194844712489881
-0.007196658236369373
0.006234110953630305
-0.007871228345965983
-0.05273447958780592
-0.1167538347764688
0.024052496527234776
-0.0004984042960459137
0.03600029280589173
0.14718351467968782
0.12753091767878608
-0.04853040848039177
-0.021216671754165885
-0.035081967527681286
-0.12702569504531502
-0.11642429151708662
-0.00046937259196485416
0.04396568922723981
0.05282481793341565
0.06446301337115272
0.10978997815744639
0.005873668650823821
-0.045548753901562634
-0.05500323078893039
-0.03945842739598677
-0.01610435817490474
0.0023565927146676877
0.00997739376296055
0.007421668571653829
2.7318102093166276e-05
-0.005106315860127337
-0.002239998228472881
0.010340155695289947
0.028721302808267173
0.043387787663130735
0.04125798133424741
0.009671222979092762
-0.058494471844087854
-0.16024609426046965
-0.08057793837350906
0.00510215092920308
0.12420295090625127
0.0979443666900088
0.13364690023188247
0.021636983198403733
-0.06173972725639861
-0.14606397446277627
-0.05686848420088755
-0.007452175418794535
0.004837758754342646
-0.0029268774021881205
-0.005095624165512259
0.024361401655780334
0.10360551009045003
0.0368783388167817
0.012387587301628632
0.0048374905812003976
-0.018040638684792807
-0.08679750499574561
-0.021884414712973827
-0.02796108650669044
-0.0925226001659228
0.010711261310727862
0.11454299251488807
0.04928042437790784
0.03469308034796231
0.0753472490101577
-0.03952650597792006
-0.13209461466702965
-0.029665559325530815
0.04170187115746441
0.06215633967840261
0.021124805726738596
-0.08123849528097003
-0.03404768176303105
-0.017367835930382772
-0.005840670477951659
0.026096006533265756
0.09856801815382353
0.021867642740759526
-0.0052138913217318035
0.006323005627751452
0.040277717299881374
-0.11874168854315793
-0.07988768448804674
-0.04319459526502589
-0.0004891541586129467
0.06010436075997223
0.14785814044653603
0.06407073056912563
6.901916139139395e-05
-0.060500313726824316
-0.13619074886511068
-0.04162662141261767
0.016649705536170626
0.040947368280711334
0.0401152654585023
0.025661582601110258
0.008044832104520911
-0.005683201292730836
-0.012534834900253134
-0.012874571751107167
-0.009002011276020402
-0.0036930847522681095
0.0008513835420827819
0.003482707807584667
0.004074726858043217
0.0031854975882134244
0.0016304210963668882
0.00013303779146229554
-0.0008659711141737581
-0.0012403857980653004
-0.0011000952791747507
-0.0006687875266836647
-0.0001732859776136717
0.00022430919592150426
0.00044635633871405606
0.0004845042679102707
0.00037051706992694233
0.00015162941436343256
-0.00011987237329661959
-0.00038393910851129123
-0.0005665549286157729
-0.000582935911985059
-0.00035960839198815746
0.00012467371195107365
0.0007921051607619567
0.001437570601527057
0.0017476936264342049
0.0013875630206126744
0.00015216379089960286
-0.0018553890351753323
-0.0040925876028444965
-0.005586893320807045
-0.005164633044937315
-0.0019167404746312823
0.0041859211295155125
0.011735069277829163
0.017677502460371464
0.017736354795984434
0.007579127682996979
-0.015458438931501577
-0.05065906229877245
-0.09304659379340859
0.06593496270415142
0.03607275133061917
0.025134179851350046
0.03607327984636136
0.06593588560744433
-0.09304554664435541
-0.05065827910307043
-0.015458357254707098
0.0075781593613315395
0.017734270647454257
0.017674707048808823
0.011732518548419637
0.004184986572275736
-0.001914691046632171
-0.005158900905563543
-0.005578177053433601
-0.004083450787855269
-0.001850083426565427
0.0001488089624428932
0.0013721820433871467
0.0017208905198399932
0.0014059253943219227
0.0007684007479779079
0.00012519795732644234
-0.00032105387044529854
-0.0005032793862258633
