0
0.004261201729164105
0.005494310424043804
0.004872120502531434
0.0016320266079059291
-0.00413563847712645
-0.011035074987473838
-0.01629467685938209
-0.01633933242641663
-0.008105124795996945
0.009102776767254026
0.03177605493190718
0.05125286570440378
0.05454006907434748
0.027400018830123985
-0.04065942652266728
-0.1509485520510338
-0.09199876658826078
-0.04000662460777779
0.03581148923174328
0.16425546488634243
0.1628059315691157
0.03172672116128945
-0.045869513729868666
-0.0980723163342365
-0.1549887327254413
-0.040153410356581
0.03434550978264799
0.06796666744070932
0.06821384384804931
0.04597394488872975
0.012010136807152738
-0.024233450154423283
-0.05380782671515853
-0.06677746013162614
-0.05173867964589735
0.0025610014063767866
0.10357978573274688
0.050663610445977794
0.03210227436418156
0.02531157260235585
0.0007468029840864319
-0.07125223058230398
-0.012570569221425562
-0.030723280552429594
-0.11566277379497315
-0.041283678600561466
0.028314402712355836
0.129256867797638
0.08785902115232412
0.11352029110528204
-0.0028913992423070765
-0.08464719805587448
-0.16061244803381944
-0.05598649009232537
0.014243298045598637
0.04726198492549898
0.0500977417659685
0.03487641519532417
0.013911420974221218
-0.003739681436886029
-0.01363621307995148
-0.01550061688164615
-0.011705484748058301
-0.005528738363484838
0.0002133325809410091
0.003878267855809844
0.005078564311120259
0.004340635563150574
0.002603972826518636
0.0007756738307158576
-0.0005410561664791649
-0.001123723251764113
-0.0010602971915314565
-0.0006078667390122005
-5.041593805594748e-05
0.0003995908177136112
0.0006412084069320157
0.0006755692430410708
0.0005680901261531435
0.00040450497178047345
0.00025667575073401146
0.00016522889924765945
0.00013824449671429625
0.0001605307045570261
0.00020675644327292024
0.00025300941099724535
0.00028383597816287423
0.00029427377439544063
0.0002880495794099828
0.00027377101314027437
0.00026079183911048353
0.000255873686620515
0.0002611812728143685
0.0002737578166903059
0.00028645826473782955
0.00029024272783852807
0.00027757162514993903
0.00024628358499003214
0.00020282105609019122
0.00016322790492114388
0.0001503389032094105
0.00018635791307934334
0.0002817054372591856
0.0004233196862858733
0.000567729263842218
0.000645001785875915
0.000577912945456161
0.0003157443067710423
-0.0001254137107008087
-0.0006318974162518617
-0.0009919106818064602
-0.0009429616998225321
-0.00027176811016354244
0.0010521601747718096
0.0027555691162670696
0.004220128831691944
0.00458738892807661
0.003043316986752258
-0.000753475093679921
-0.006227497931270734
-0.011636257628795088
-0.01425170616562561
-0.011138179745382084
-0.000498029845629306
0.016732013252572897
0.03564410309731741
0.047247581553122385
0.04010747827130419
0.0038263689117816074
-0.06640443396142379
-0.16587091115151445
-0.07913677755625458
0.016914120470280777
0.14604836747701802
0.12410615704935588
0.1526213485211664
0.01783533384676199
-0.10402835443466113
-0.23739909451956037
-0.1982731200816718
0.010182204591092758
0.1953456141156837
0.16788865187319657
0.13403513969344677
0.09195515789426312
-0.16561234783575454
-0.24409099114256294
-0.13952889099487276
-0.035526515819161025
0.09299274285062938
0.2705696949912327
0.11098330053605013
0.011030954329861523
-0.04874325692005155
-0.09687947703454346
-0.16080008545538496
-0.05802839714102452
0.007697277013970355
0.044254435125805035
0.06430256759527615
0.0769098916837369
0.08115449187332613
0.06435386801127599
0.005887078828553341
-0.11446851905512885
-0.10660609417858777
-0.16245330620822213
-0.05404296561671389
0.06129954620714877
0.23010776809161101
0.09018999048188855
0.06100305694356456
-0.05975344453897718
-0.09288525740329262
-0.06998801990931972
-0.02465529799683565
0.014468791963802428
0.027327424986478718
0.002807214039243902
-0.06326564548615973
0.028689099122293376
0.07881601604554292
0.0858354994186373
0.04732966755332793
-0.03735321384540624
-0.16259881521797412
-0.11280171859974528
-0.06213558862170174
0.02066726819896122
0.16339514304805303
0.18053128952252329
0.0667900883184132
-0.0027295120297032485
-0.06520304632227991
-0.15804686898504455
-0.10667996486786951
-0.11667104509947485
0.02688468112957617
0.15277386192856107
0.09268473563216757
0.07022510945106743
0.09398122811906852
-0.04329258669668992
-0.15984091775303833
-0.07704374652650997
-0.011975141722068289
0.026927310203149465
0.04023087583834957
0.03484641599242761
0.02014142324109674
0.004499321465305382
-0.006709869986375563
-0.011576809482400075
-0.010916880737316222
-0.006986633593216364
-0.002236817750212998
0.001531749624501532
0.003497827962688669
0.003720952984559372
0.002800061569620875
0.0014823277775392197
0.00036119019294913465
-0.00027300654520139863
-0.0004328919791468547
-0.0003293485459751956
-0.0002223012682616348
-0.0002829284257572228
-0.0005088792753249135
-0.0007163487579658289
-0.0006140473457248497
5.647616542817194e-05
0.0013524727283252805
0.002993609216024107
0.0043297005686699485
0.004475157846841655
0.0026311788752976747
-0.0014580199214836327
-0.007061419977990683
-0.012253517143018401
-0.01418163228797355
-0.009957571682490715
0.0018869779094568171
0.01973680488113019
0.03765775468009532
0.04534457221936481
0.029813560186824795
-0.021171254094237927
-0.11478493509251907
-0.0495187006098649
-0.013944209932968465
0.011208587607354211
0.04810988410400139
0.11574621267293912
0.024943120003872485
-0.02371929543281099
-0.03855120654412533
-0.03281192512776308
-0.019892835110284585
-0.009341905135539057
-0.004839155695940492
-0.004451040345371298
-0.002840967405116475
0.00532145793215762
0.021764732168941144
0.041957003269512565
0.05443998370355151
0.04285683557389516
-0.009350073114671925
-0.11262320425259478
-0.0653904919586902
-0.051000593108036923
-0.03928652380111299
0.006963340263542221
0.12216085544374136
0.12764848533557951
0.024394689197817947
-0.008794970943807736
-0.010869991421509531
-0.029304346142983814
-0.10879427423630711
-0.0809909819957586
0.04221986611375079
0.07069706065854695
0.03363024198668815
-0.025903694893627247
-0.05801398460143191
-0.013890105396667855
-0.05413381427416518
0.043075872582443366
0.0753230104371242
0.2128446735855183
0.0010405601791854265
-0.03046975688009828
-0.1534859059500318
-0.025012517597011022
-0.07364178017355066
-0.09229788594275223
-0.03925128619782281
0.15291475069012817
-0.03727922414589249
0.06326339304054808
0.10769694170424854
0.11994485109635972
-0.10755351755127461
-0.009076981928577532
-0.035686589143218705
-0.0431338703496236
-0.08071106084213417
0.0166387600275944
0.0318172862354288
-0.03523038197598072
0.028444973688662716
0.04305786946661465
0.030231695300668493
0.008348922563947488
-0.010090671315023917
-0.01900445311772995
-0.017678624122333633
-0.00895497495425858
0.0026182578776824013
0.012271751368155889
0.0160932925417187
0.011861343481883597
-0.00022711115258082487
-0.017011912036204654
-0.03236153953134356
-0.038207948851846085
-0.026999456293614145
0.004536650873590631
0.05117403594374637
0.09609489689232927
0.11082992315324232
0.05965141548329246
-0.09159385909561861
-0.16426004271182026
-0.15705045124137706
-0.04160066577062487
0.03407015847030972
0.13473731989087684
0.12305942206306571
0.04514353687569901
-0.07952581642795828
-0.061911887034821804
0.05883694500380061
0.022549362567306094
0.15890810630137536
0.001015099138598038
-0.09993630335051287
-0.1617608048803433
-0.1641731783122781
-0.2512765026479547
0.05477676261371601
0.2312531094198894
0.3299127561113489
0.358607352113808
0.07721910352938144
-0.18916222318961332
-0.3238526725486716
-0.38874786461051286
-0.20251528719341425
0.06504713441982864
0.28112207372000075
0.3261303603926882
0.06782766797184547
-0.05766829623598252
-0.053027273595797626
0.04487611138109043
-0.022138092755118036
-0.11688824545492797
-0.09077854200637965
0.02798447278508498
-0.1605054276325
-0.03006408571503624
0.2634393322835749
0.17114124947893344
-0.058644330238575126
0.013792079507418144
-0.1817571884840582
-0.024344834963402312
-0.10146214497220261
-0.01145428122110271
0.031110471124628922
0.18915003959791227
-0.0006416575330620842
0.1747593165418545
0.21591206835924143
0.03062305043857376
-0.2413321782646252
-0.4054876512292174
-0.4011715191779062
-0.3092661074195911
0.018177337644887243
0.512545217461619
0.8421394911693811
0.9834434789668145
0.02544687635754847
-0.7899552919464734
-1.0050813636079508
-0.8871755131736044
-0.5993378537213098
0.5846840288558408
1.4287693200381493
1.07058910267741
0.37600931406301435
-0.6685990664212199
-1.3277913966562582
-1.0732768539591975
-0.15182673894477977
1.0192362052366004
2.033452499773911
-0.32604256879298815
-0.28983010201723547
-0.682222582683284
-1.0915588248543668
-1.2532886939352716
1.5379695154364343
0.9884613668892542
0.5561239542241485
0.017424284738971618
-0.333498943639008
-0.4543961897878232
-0.5082953379955336
-0.22023195968552678
0.14797277839837197
0.19985463747319165
0.18779575099975832
0.18772218913293326
0.07514610185052989
-0.09076519440159134
-0.07312650531766168
-0.05518458710306792
-0.03386309228138697
-0.012638900645007667
0.003932018018134795
0.013209666454869793
0.015237603823122461
0.012074405067052789
0.006566412712030898
0.0012350967588477988
-0.0023684084485498594
-0.00378712649158803
-0.0034015088079180373
-0.0020068356669984203
-0.00041560899269134957
0.0008005742088174471
0.0014000638096771294
0.0014248639154349001
0.0010825590387580682
0.0006192538179167937
0.0002264474773694209
-1.0687938438014148e-06
-6.090097721206172e-05
-9.480937244207616e-06
8.052744444116225e-05
0.0001553203482562456
0.00019795528665564858
0.00022688400392187065
0.00027848976385529524
0.0003811231906575537
0.0005304031592128437
0.000676034987483371
0.0007286156590443804
0.0005901294406863019
0.0002038348964421624
-0.00039090109454356696
-0.0010225335286248702
-0.0013974106619657875
-0.001176373572285308
-0.00011766381474001889
0.0017463478962243056
0.0039661412673912665
0.005655563117466366
0.005676901336350009
0.0030578214567588084
-0.0024309112941111968
-0.009728757454351955
-0.01625863332791015
-0.01832130156801008
-0.012285876810985372
0.003530060106135321
0.02678269829578971
0.04967557020962841
0.05916815638371129
0.03952459554768782
-0.022866403768028915
-0.1335868671561503
-0.08538543997658052
-0.05689038757860359
-0.016297662230522977
0.07043391791364077
0.2294153209691981
0.07043386504723247
-0.016297745455294062
-0.05689046133441564
-0.08538545788423733
-0.1335867923823734
-0.02286622805945683
0.03952483549211745
0.059168373617515195
0.049675642092313704
0.026782505648487047
0.0035295466563570604
-0.012286641540883053
-0.01832208447797506
-0.016259058094257463
-0.009728406803094329
-0.002429508532436394
0.003060194898154422
0.005679638500422503
0.005657525785641673
0.00396591255734182
0.0017427687013669947
-0.000124774097126628
-0.0011855601926814207
-0.0014053513051800995
-0.0010245916402231209
-0.00038264802106948494
0.00022431674346960723
0.0006198440900019625
0.0007582780809366023
0.0006909965584021146
0.0005147575582184743
0.0003248153015430413
0.0001856672528271118
0.00012209711069469443
0.0001259006168230642
0.00017050790170275817
0.00022611470653634887
0.00027045601807429523
0.00029343001158492834
0.0002962589505130835
0.0002872357548563634
0.00027638421430265143
0.0002709167951527064
0.0002726362427070604
0.0002777095006229413
0.000278670634326645
0.0002680571195966844
0.00024267603983209242
0.00020712363404396357
0.00017496712988130395
0.00016618349420454337
0.00020028504061420045
0.0002861278896157609
0.00041143260496587296
0.0005368540160216335
0.0005999943156736597
0.0005330314553949526
0.00029312433359308075
-0.00010196678750874029
-0.0005475279208438588
-0.0008531165090239878
-0.0007867138335560316
-0.00016491628754179547
0.0010286058294403403
0.0025384157627130945
0.003806065934409025
0.004070470697268177
0.002626980255594809
-0.0007903468162223483
-0.005620487844860091
-0.01027047189636843
-0.012304859005014082
-0.009174012579818069
0.000546847699518543
0.015687213167356686
0.03130809791618476
0.03847556791996229
0.025492126930527242
-0.0193639297124026
-0.10422952220377035
-0.030417116822515293
0.009137439656421794
0.029072072933473535
0.04883656391534989
0.08917835498764912
-0.030854939522086712
-0.09583094555891372
-0.09521367083853302
-0.025025778654865362
0.10955806479492061
0.09145995847461941
0.09076925810733809
0.06767673346635553
-0.02004241950289643
-0.20648835580521252
-0.10747492135789516
-0.11483910987390224
0.0019015725173717705
0.08640787991774158
0.1818121359491226
0.11733977411215371
0.10016245751647121
-0.0846002161107046
-0.06593873224952608
-0.07417248403616447
-0.12792044675615138
-0.025120155548998026
0.059269746078570926
-0.03153743125092112
-0.04654518447777378
0.059765064407961706
0.11451216878836418
0.11712598409383806
0.03651598943560296
0.01614720303944539
-0.013700688125120722
-0.11946128777960534
-0.14807032322639385
-0.1157315102707849
-0.005156380321713725
0.02769473546990492
0.03928802282975731
0.0808876026402067
0.18296413953481044
0.1465949417905011
0.14507241415832
-0.06402638866729418
-0.3197863292629632
-0.2386962119577475
-0.20314008680181744
-0.16346049307216548
0.14565663534193313
0.5798595292398931
0.3608573462130858
0.06378504787679429
-0.1776726389026891
-0.2500489279789337
-0.4314111271444437
-0.16652489195839118
0.34545647811060004
-0.051889567802433534
0.11300739016537734
0.11959898627710241
0.03599301957016676
-0.29523007641482973
0.33569417615921865
0.10564388397452494
-0.03465383350201896
-0.14834059437232294
-0.09742650868098046
-0.12930021576295886
-0.06877358591658383
0.08237508079794303
0.13929637542379766
0.12472634884994561
0.06053447848689718
-0.03682982285724815
-0.1564033968954792
-0.09007325676339527
-0.030073349031077556
0.03130303211072296
0.09965285764628244
0.1758641960334556
0.055480947637305635
-0.06838878485646
-0.19922707706980128
-0.1311454889653765
-0.04639818021707628
0.08142281106666817
0.07912111307536446
0.16380552583858482
0.13527956216338854
-0.025750599583612137
-0.15280651568918083
-0.08413950443208258
-0.05249470811648267
-0.07797741133822478
0.03385243728397437
0.08886105876190015
0.09831520141212481
0.07291614904629724
0.019366103413862752
-0.05967576149453717
-0.16338378005463652
-0.09083522466865009
-0.04191398906851539
-0.022076724341166396
0.15046348704381093
0.23888406371408552
0.18797797922716403
0.13410097562440396
0.025142795719825115
-0.3539167856985039
-0.35871471364222157
-0.4772930293648915
-0.3446139297259701
0.018277292608320284
0.5482985501366048
0.8849661105008448
0.9378895709140755
0.495818858968704
-0.517080764486519
-0.9508300457960059
-1.1349686465099182
-1.0157693787777808
-0.35302224242643987
0.616733139006864
1.0688781580541358
1.46920255348572
0.8856450332809478
-0.034817696853768315
-0.6166266925171124
-1.0531022256402414
-1.289178674867018
-0.5304800460818704
0.19344914115014591
0.8069777096244777
0.9252211588289764
0.5805346179027244
0.16751960186519604
-0.1782987407492942
-0.7709519565129264
-0.7505895232114649
-0.6678245945519201
-0.09156442739323739
0.5582185422490977
1.3678386322614293
1.5034597980390694
0.02566846263561856
-0.8458543299972832
-1.2327204718268938
-1.298639669438911
-0.9903885705248661
0.5558436272858294
1.3441391077175546
1.212047238727229
0.5277421755662228
-0.27455286227943143
-0.3071842553943401
-0.9989958904095414
-0.44592315340025385
0.03354466342233725
0.523615813676165
0.11630651660696348
0.3054586082089007
-0.019002719961124986
0.030709020631568953
-0.2494335533655747
-0.14033877685807575
0.11370512718288417
-0.08818901087636154
-0.3063164878893543
-0.07298279076762745
0.2874497772180764
0.43618055634835934
0.002498242034371878
-0.02206949511680807
0.12484701006730405
-0.002932020951534123
-0.4341304224914107
-0.15724083123591145
-0.10930790616151313
-0.18171474763627954
-0.04336602464813223
0.2240310031396734
0.4885681421033033
0.5408984911704284
0.08787073774345244
-0.22846997867239424
-0.3912665432656123
-0.3615619554273823
-0.43935231171589884
-0.045583183082632525
0.27045942473047774
0.4033228227922272
0.25495040713302497
0.10304316994885093
-0.016253538251112046
-0.10865407756543367
-0.2087251480712342
-0.1608735812671285
-0.0018822916605336635
0.049864209227859446
-0.003098488578172562
0.05846700203192401
0.06263218506953575
0.037995789721979895
0.007365311811006116
-0.015348763717674577
-0.025054963777059153
-0.023182285923241237
-0.01450119737756303
-0.004245493206628627
0.003760944452991107
0.007804943943720879
0.00804973653318762
0.005794417635523002
0.0026494172758882214
-8.220186094967734e-05
-0.0017000587141144188
-0.00210542888690233
-0.0016133930701448561
-0.0007053417647226526
0.0001796280515078637
0.0007646892119877037
0.0009629719880592615
0.0008390399666425999
0.000540250171317342
0.00022865883751162572
3.1099321443332816e-05
1.2055764914455037e-05
0.00016588716663991024
0.00042309270367559936
0.0006677800888685113
0.0007666855344861015
0.0006103901793323241
0.00016283338327464784
-0.0004933478820568734
-0.0011369268090975465
-0.001438099346070037
-0.001054628657380184
0.0002121027204755808
0.002240919780736017
0.004468386304411383
0.0059113493015152145
0.005408141915858094
0.0020874157538128208
-0.004033560861048086
-0.01154077652406999
-0.01750962450897538
-0.018074303863679968
-0.00980544312673248
0.008295847894082053
0.03277897428767885
0.05462256907669327
0.059992333881934326
0.03346372277267263
-0.036602357750394145
-0.15203268659266397
-0.10062182422626548
-0.05621046948995407
0.015734942342783536
0.14810207569540879
0.16092931155718115
0.053243479840544075
0.0012880881844062363
-0.03588469823610128
-0.10521893597966257
-0.04648903201031798
-0.08120576877684402
-0.006713782722327409
0.003107630611918946
-0.009023714531506091
0.005090942983479632
0.0865830163759684
0.0586734157412962
0.12043696441094619
0.047177646689249335
-0.002206603120097357
-0.07259490577116286
-0.19845152010301748
-0.19281376572037576
-0.043598886222404314
0.0810793802657984
0.22046362154803484
0.2065449592011315
0.05321336353745684
-0.046730896213347896
-0.11626757412874769
-0.1837168642531605
-0.07215043947198956
0.006981954701728861
0.05408747011146633
0.07651689718970729
0.08152852830068809
0.07063219395758205
0.03786315748351279
-0.027274592672158034
-0.13345451440099312
-0.08054170388823928
-0.05519145396009914
-0.03133535156242742
0.02406886269587336
0.14178440809008372
0.14081130755814367
0.02222033537174846
-0.031334254347361
-0.05030018805836965
-0.06922297873789365
-0.11736557655231539
-0.012063984120421152
0.043394295716466164
0.057419886106322676
0.0449342864852631
0.021656208550390174
-0.0002070958542717513
-0.013943743213237108
-0.01811664016420012
-0.014922823330669927
-0.00810054199775476
-0.0011618723465082052
0.00364052233408637
0.005570094555435286
0.005092918488632178
0.0032965945668754744
0.0013142571780239943
-7.329037349271592e-05
-0.000596855323112668
-0.0004459450102406208
-7.675862047015395e-05
3.420578962263311e-05
-0.000384852337690663
-0.001257365795239678
-0.00213928464758269
-0.00234755849341113
-0.0012283623484845541
0.0014888235231476307
0.005360620362623302
0.009077272977049697
0.010647649117059193
0.008015011314965546
4.693132795066988e-05
-0.012369305054537497
-0.025602282275217828
-0.03349972970119728
-0.029018749664008196
-0.007321912056711383
0.030246926564168365
0.07260120258697021
0.09751526116049249
0.07399197166991972
-0.030986967552448817
-0.042383964517864435
-0.16654079950720296
-0.18400909570126653
-0.049247800527044056
0.10140461244536753
0.13518282288055075
0.3062253289285985
-0.15788224739904147
-0.0625774879914743
-0.0450425113419093
0.033067107031490184
-0.10361266612516723
0.26831279359073335
0.08429081162730871
-0.09484661455588636
-0.271415915898748
-0.20481095707697497
-0.01480758142701582
0.0038037398741605777
0.15723890053580897
0.12518475004616242
0.13737211059029972
0.1613083840865416
0.10560212999134577
0.03953825318676027
0.025424573092293457
-0.24357879267324123
-0.4101601394060252
-0.43475116184491713
-0.20073476638910334
0.055160932372503774
0.49414407327273774
0.6232728544861402
0.658598655734624
0.3187110198673467
-0.3465344301358772
-0.9013452922990405
-0.864430897227022
-0.4691493869785195
-0.06037897701725348
0.6709093502044563
1.2316566962257787
0.8758725626079816
-0.016560539281083808
-0.7212487838218843
-0.7204442745784894
-0.8485732600528976
-0.45917110940251077
0.17018018756831138
0.7958732602219529
0.7467507270698909
0.4689066470757243
0.09955356838779428
-0.11978150719215627
-0.3959609469420502
-0.5200309749978692
-0.40804851826918564
-0.2659948022853394
0.010849594491742096
0.2049654771438717
0.32121608508322
0.32638198680617747
0.5017832190210191
0.22281175363110578
-0.028969755202974706
-0.4254460953682949
-0.33650015603255556
-0.47753651395689434
-0.27677865918913475
-0.07225942240947543
0.2616109898797228
0.46785630486163127
0.45748672448611694
0.2738290470245776
0.08225761352499515
-0.2125352492719087
-0.5295329567188283
-0.3691508147774547
-0.18124367553390525
0.046106984350315926
0.17510597192441985
0.2905526392193391
0.2673833567470354
0.14507944188523395
-0.08328537428386834
-0.06552843071581729
-0.07215893834077228
-0.17268569017591973
-0.2142334400627573
-0.008602024309143239
0.06924807024270689
0.07204708566670132
0.06430610869086886
0.10499239741709199
0.033694741629515856
0.06349413358753381
-0.01841114154548134
-0.04337881193261216
-0.049994419855742975
-0.0723203351345392
-0.13123966542233081
-0.03143283640551334
0.0352034319438701
0.08100858340283085
0.11206968705819355
0.11982780938687165
0.07818849854714746
-0.052414282698934056
-0.11519524472923809
-0.14498560688836648
-0.15859217476578835
0.048691026448750174
0.09912647228806915
0.0228328480566954
0.046168509792233164
0.18250238516785713
0.028689296181497875
-0.031287455420602475
-0.016305121971565903
-0.13466268382905527
-0.17143152523965308
-0.08065346074020324
0.2152234110143801
0.218862979761451
0.04681470628817305
-0.1840477167542174
-0.37203909181795236
-0.4499276048515322
-0.209273568856665
0.47345649728294076
1.219651569645808
1.356348507111184
-0.03723999645799447
-0.6445376534248034
-1.408993041980247
-1.8528026223082386
-1.458109757050331
0.2657246913759553
1.4380772411821732
2.631034412082743
2.127568653150966
1.0744657130227784
-0.8433720509096986
-2.6301145902426626
-3.17396697744465
-1.892532333192128
0.3096516368351451
3.960059682292514
0.25789411512428545
1.9108286861652048
3.0385597652017284
-3.6245842127989056
-4.044066183913356
1.6303492126838741
0.150008681834925
-1.611775722623187
2.2994278166583726
0.8449721349406489
-0.07903661127666478
-0.08355892044748728
-0.4856514374497012
0.7308882395644778
0.17878014124117353
-0.2631053985453862
-1.3925798993107028
-1.0597901734060158
-0.793072331276638
0.12076468391237155
1.5199795740515523
4.056157594910979
-0.6626331507402248
1.561751209230937
-3.3600121162345467
-2.2375048575330836
-2.4571278191295334
2.2777723229494877
-0.6982074823643267
3.2629828066753785
0.9749562521764759
-0.6975723973469936
-0.6868809932864641
-0.10340094317566179
-0.17271114316178943
-0.1574488149267536
-0.28742214806840005
-0.3123981341995043
-0.28440733805083485
0.2306406104629547
0.5194975626495786
0.4797970625134076
0.1853989115475459
-0.12977510373628467
-0.2666461790740204
-0.24065804716028083
-0.057130931054767464
-0.09279610351767498
-0.08999740393915619
0.03492276487458419
0.17165068675015455
-0.21036940492176592
0.11204734027587254
0.2967434307930252
0.2301867501916034
0.13917061459046254
0.42174902664036695
-0.3063512244282571
-0.7598958663227925
-0.3419313525008331
-0.3268234880202101
-0.27835034319003055
0.2982151893835923
0.6828555211171443
0.6674752316469369
0.30510269960925435
0.09777964535302512
-0.17315722505761177
-0.1842321571199928
-0.7939748236404056
-0.5768999355249851
-0.18650434265230004
0.24330983979779808
0.26202653477779664
0.6466212999237819
0.5463762393273556
0.04618714687412867
-0.4428859422565173
-0.3685758773725599
-0.4093590863989961
-0.046844082047266034
0.4528987952464096
0.6485533729039544
0.12845517850887478
-0.4841878609020154
-0.7272558234719745
-0.7049281251863843
-0.310676860450919
0.7317807401401606
1.8229774967446057
1.4613419096807112
-0.942461097591093
-1.006611621282715
-1.0955700115441296
-1.4510007204863187
-0.5699852136689014
1.5570493867192048
1.7647063557277836
0.8245172853784941
-0.010222069229463504
-0.8056013521611249
-0.7005747187558392
-0.8395468548874845
-0.3151820899169327
0.45776700899815786
0.5339321064949472
0.4053348169628892
-0.036453975396690486
-0.12951594670151428
-0.2559969374723869
-0.04301854137745725
0.24565639539948678
0.323987354640626
0.10273490250145581
-0.4883369281062597
-0.27962222163675815
-0.2494913272515164
-0.12734342095049894
0.1866194391220792
0.5904565930976362
0.14926193712166513
0.2752783877199017
-0.0734273409610027
-0.3760855452809429
-0.32163046063560435
0.01860522134149495
-0.1917502124970093
0.048614977249521206
0.1679436456191391
0.202748412335433
-0.02126619789532025
0.09815094331942095
0.1378809238800629
0.2592763307900424
0.027541190340822926
-0.3649889098419256
-0.8807539005694209
-0.634669717076664
-0.11459015947490812
0.9787683325896024
2.8890551923711074
-1.2171792435464908
-0.23326548469279396
-0.2593143679231406
-1.137141771025111
-2.605864646764195
1.896795578541501
0.7825855134284829
0.4293134016185621
0.5005667379498201
0.7015190326737827
0.9884774320453384
-1.5699223884133475
-1.1002035839618158
-0.43289667375505697
-0.6459019564974007
-0.6618423534295461
1.903095370776165
1.2618978704457762
0.18471607759858927
-0.03897130816097888
-0.39355884491906984
-0.6972948343503915
-0.9542626482214255
-0.5245436545135496
0.07150864474931745
0.7158614610912875
1.240317391334191
0.9866925130538883
0.20419603063014558
-0.5075052576564606
-1.3233259131567672
-1.5175400400905616
-0.6238812687437604
0.34676150491897595
1.0342337447643009
1.631524880016273
1.0039489835708033
0.2614374360437022
-0.40232203753715956
-1.219279026401702
-1.7432529746453045
-0.9784119472364108
-0.1734193197128109
0.712243966024102
1.4944541578757744
1.65007968204015
1.4527143247578995
-0.008123531976186427
-1.1234917507516236
-1.812047678633033
-1.9763928885746476
-1.4286185075522528
0.27889100980169257
1.3215752353730053
2.2148311886338505
2.23984200610052
1.149850088781434
-1.006857662522295
-1.7570969058744523
-2.017982531118847
-1.3284297637619047
-0.35699887387573265
1.0885471099747708
1.7656449927348783
0.660395848355078
0.06205926967551639
-0.5141617989220078
0.2567790278809717
1.3472620880345536
-2.1501346818550204
-0.5370245697598581
0.36537653498068684
0.06065229588437284
-1.4162385780721318
2.475251799653935
0.3372558971388477
-0.8128050817836582
-1.1808871993294003
-0.6278772446134739
0.500449444157661
1.7467548297485211
1.333635630809414
0.3931166196586479
-0.9582000992945053
-1.915328368480422
-1.691430733383815
-0.47780215948488375
0.7183458209591521
1.5668906427337599
1.47708589218069
0.07919226320520772
0.16436876525009037
-0.5039443825034061
-0.7200020017941522
-0.3356339582727746
-0.16096589888810225
-0.28923659201899893
0.343112930643214
0.3611585561535952
-0.07170294448270681
-0.2955350485229162
-0.40679669188719775
-0.31734147147493635
0.3865808701674956
1.1962990794445971
1.2596166669592062
0.20110030883197944
-0.8139994470677345
-1.5899495124168401
-1.6196441831618928
-0.6495358169930329
0.6900250513522872
1.9994406899852502
1.8074436042551996
0.4991606801013377
-0.8925155950605325
-1.6307608859267884
-0.9821665689260815
1.6722739554782047
-1.908311421778985
0.38398946557952535
1.3740351624492397
0.14600376801421439
-2.222513462127871
2.0800017586553934
0.3557189179045163
-0.22238321000099046
-0.40174185894864206
0.386475156293886
0.08366976900687875
0.06721530684421098
-0.5925064074896387
-0.8954101414660107
-0.908569716163183
0.1961862350575837
1.0698985101105756
1.1012644134843264
0.950353522494222
0.3290771718548195
-0.5615235292668237
-1.5507905376366335
-0.8067969395938052
-0.16982393397479428
0.06456379208946539
0.30964943459767036
0.815575395659881
0.5885068374069572
0.12767361382361359
-0.20235394643204546
0.03966477187779105
-0.18625883018252354
-0.5435808115426689
-0.06200748135130196
0.10614721359550636
-0.09124144187579336
-0.0051973175550869555
0.09687806020212103
0.0009760109516609441
-0.09030889304315881
0.004922376419909585
0.21581346230269796
0.39744863648370443
0.1250925105503738
-0.09374041558631407
-0.19178469248843544
-0.3066817391064493
-0.3483083512493536
0.021812347019325523
0.1943761607985503
0.20108864634232598
0.09490667332641722
-0.07037065165125608
-0.055208822334373096
0.15864594512817673
0.369637421787332
-0.034713060445024896
-0.46444543892306445
-0.5150562251232847
-0.36402570770880943
0.019279928918222902
1.6530652610363539
-0.47701172626810945
0.5764155880859182
0.3391718197357033
-0.4487279392834644
-2.393304604958145
0.5763561106462686
-0.20260903591923268
0.2265131966328927
0.973781351890254
2.245303726986201
-0.4772465402718807
-0.6065875630689537
-0.9783789928181961
-1.16789078900343
-1.23042674424417
1.3105867538705411
1.0269540245702826
0.721778911898371
0.16899254704626837
-0.3204179958069722
-0.49994362157129074
-0.36743469780998467
-0.34074359387742975
-0.04351674973753911
0.2933753937255633
0.4189986893007904
0.24873269885266625
0.26128602959247693
0.11308912007224733
-0.3310468456740192
-0.5599329396082352
-0.38436410608568183
-0.12499874961895577
-0.026663719325548646
0.3036017067608969
0.446306895644772
0.5232726847195687
0.17043130401745823
-0.061947710441851406
-0.28307294781290815
-0.4202525341677498
-0.5781458217028193
-0.21337756196309227
0.2675990488288394
0.48955447344017516
0.4796058609898395
0.24313204860466647
-0.04447883987095222
-0.42803463336418074
-0.5517401059047797
-0.2394448727808925
0.11364704037008883
0.3345644667587689
0.45673019552079824
0.3049583335695773
-0.10961932619965925
-0.3819440217350123
-0.2976870428579289
-0.21977574618633716
-0.08556491042396516
0.18200397361339696
0.4527777202326873
0.1657045345463327
-0.08779595938340716
-0.1677762951221207
0.02328557216613808
-0.041099578048329505
0.1117134770556838
0.17762275897697105
-0.10209786212213931
-0.32403815131384034
-0.21573299022612344
-0.24315608441244835
-0.03463571540177447
0.3819437448391217
0.33748456429316354
0.2877639434246164
0.19841380706482928
-0.04557374760730229
-0.20799651046262252
-0.2565176981132665
-0.31787004537702274
-0.24606528681340448
-0.012233669253443024
0.08196249203197223
0.1723497113412707
0.19177604428843353
0.23305666786416637
0.3256796564264985
0.03241286898252918
-0.1339174374502609
-0.27944800816572973
-0.294810576455356
-0.4291968769581661
-0.08201385053801012
0.18532061911964137
0.42283447739608415
0.46244454755080117
0.2988900113332879
0.09059011859442301
-0.21866890626538163
-0.6658713465507624
-0.6379685619787998
-0.2597761981883817
0.1906000193900566
0.4417295125674246
0.5785875971230534
0.6021415714532271
0.41621245569948206
-0.5509703711293542
-0.4965531045804379
-0.3815959355224449
-0.4800579396561437
-0.3554378592660802
0.5283728910287422
0.36768268180010705
0.3659796088216657
0.2852151218108784
0.015188482268260278
-0.23379870525922747
-0.31877056866414577
-0.3418511565758301
-0.028181688889296008
