0
0.0005254022822351191
0.000525407612448418
0.0005254036779576631
0.0005253870402311655
0.0005253585252960344
0.0005253252919388694
0.0005253009794534138
0.0005253027474319268
0.0005253448624915993
0.0005254299882497392
0.0005255411379032074
0.0005256386399256125
0.0005256665220116528
0.0005255706337855016
0.0005253263906103598
0.0005249680502227974
0.0005246059838248325
0.0005244164617317708
0.0005245930339934082
0.0005252611750484758
0.0005263769344090901
0.0005276502567935583
0.0005285450798745157
0.0005284007255779326
0.0005266851635956581
0.0005233318768962841
0.0005190428408826669
0.0005153886337869344
0.0005145385907435246
0.0005185392524988277
0.0005282345187978567
0.0005421517091442939
0.000555882712426473
0.0005625525713282546
0.0005547757554196949
0.00052799953601917
0.00048439190242189744
0.00043567404995682653
0.0004028889309135021
0.00041144151933124274
0.00048111058023395635
0.0006130356058581533
0.000778336242956394
0.0009149202411155974
0.000938805789871656
0.0007728028677115613
0.00038849454054375307
-0.00015145109404336417
-0.0006712977220700717
-0.0009032172847529512
-0.0005658182617206283
0.0005050809273849754
0.0022075783629307987
0.004069616541326194
0.005267071192586558
0.004826093655206653
0.00201706856625433
-0.0031426128244490593
-0.009461568028584598
-0.014478042518117068
-0.014934976455508139
-0.007927879469801733
0.007441125101252137
0.02840702554252948
0.04766555123275709
0.05410387237661843
0.03561859702477901
-0.016289721026005625
-0.10153936130204019
-0.20845619173840793
-0.11525345375915666
0.0026895000162134443
0.16109934371477758
0.35512011837869234
0.3540101589812187
0.10747301008223345
-0.23569078871372123
-0.7025001406295789
-0.4754185893415179
-0.08803849852157833
0.35812350511943575
0.560850800478248
0.5820456848736102
0.025448083773649235
-0.16347583087558493
-0.4766065606221164
-0.41146615909419143
-0.042335708442463066
0.19560332990611629
0.1062664428538985
0.12083943900021457
0.08136900685554377
0.026303362176940955
-0.018284347898395188
-0.04105199752056128
-0.04274942340316805
-0.031021952080003985
-0.015050728491082898
-0.0016900847413297755
0.006208255944372465
0.009439134265067883
0.010745666655551848
0.012671631812522855
0.01580282378101992
0.018015021035278213
0.015022890724081658
0.0021293314513772337
-0.023358422545561617
-0.05996667146673467
-0.1012373693608916
0.06293284372745522
0.04281836200550519
0.04439013551020642
0.06572849923595342
0.09608654524198534
-0.08163430073293224
-0.085712531135614
-0.12980040583904073
-0.019028632706715332
0.05027338955953619
0.08737026066423619
0.1023346394792235
0.10227554891728044
-0.10961925108283663
-0.1322562158048946
-0.16385289349547302
-0.0005778686944035044
0.16228689916908573
0.3279629090108394
0.09760269079771126
-0.12607351484580323
-0.3316635982183798
-0.29288090045513543
-0.1689663243969606
0.28517198524119425
0.3013751676716636
0.28051087016928755
0.1833722536187608
-0.06421028738383194
-0.3526031792044625
-0.16249638269968408
-0.1414573790248179
-0.09128820784013782
0.02972364707027512
0.0907194187181791
0.16347305592904715
0.09603132945285817
-0.10825476417222889
-0.10120384084701403
0.21307184853555697
0.49578971192178506
0.6062873586740432
0.24770234888730694
-1.1832651952985735
-1.7603272623722974
-1.0282018486799829
-0.05560348131413104
1.46524260976283
2.706019359240716
2.4274237593501575
-0.01438115048160435
-2.3701334174387996
-3.145187380413768
-2.062209719563129
-0.6065428305489851
1.9169076527102236
3.2417082904796843
1.9811731954026974
0.32751005960954194
-0.9480221143748807
-2.201465912720747
-1.7786943478863526
-0.4974178696646765
0.6055801057504803
1.0518444362204253
1.0468544981861465
0.3937175738606158
0.030181455703723128
-0.39400602744911967
-0.5025475846028811
-0.3571979963052948
-0.02075745001879573
0.06774557768632983
0.10086273785735755
0.0964133079519229
0.08382812910682427
0.09015864309056953
0.130849515520902
0.0076516124483935796
-0.0868255748141202
-0.1610480016926936
-0.21781594651856848
-0.2536428203279698
-0.06674736058554948
0.3281237097590954
0.4847450947560512
0.520196693135598
0.3280076569644137
-0.18845097525670823
-1.0708460155897286
-0.866932031381998
-0.41817825572970846
0.11352873663562661
0.9837796136469429
0.9884905388429425
0.4003729756616128
-0.05693825605478965
-0.1881297764954892
-0.6674700052951229
-0.1628178742173014
-0.06601572073643616
-0.4484196904333317
-0.4516499966809614
0.4855011948593617
-0.4284332221224435
0.5933027556824318
0.852938632948895
1.132242331376858
-0.7018807237227038
0.5518762321680418
-1.0920312793035385
-1.3251968894831596
-1.0936830997224367
0.40154478151007256
0.6488051364106137
1.3343170716775903
1.0506344962896474
0.03983947634294119
-0.409650039423456
-0.9169742146976164
-0.7365141699193483
-0.08864294182622931
0.28441047766555627
0.1301639883681261
0.27105147023363135
0.1760377714341602
0.1312039066416538
-0.18271832753838677
-0.10342512633378365
-0.19257017125216228
-0.03721165220145817
0.1505589506577383
0.33634192926827644
0.2713051001778358
0.10771176873347185
-0.17900420115655832
-0.5683565834177352
-0.5844929284306956
-0.5090792234372912
-0.22296583620026922
0.3293181622279091
1.0715868118859717
1.5536784298142794
1.564299870409435
0.6151741900283754
-1.7142541657951167
-3.6149806893696197
-4.5354747468725565
2.0224383437856077
4.380766754844765
-1.7226004142475586
4.256435995135677
3.9391995814295755
-5.9802173517689665
-3.425535738401396
7.028577952372805
-6.690692919410943
-3.069722717251578
3.18453621309641
3.255248943916271
-2.1125861048682983
4.884874928227201
1.486961076332378
-1.7584586643411435
-6.05682539830826
-2.634716993348826
0.5079544450642446
2.923079008810897
2.9469687459249343
1.922835871301293
0.4995050825490138
-0.7483900603955195
-2.5918648576218355
-1.9694341976744798
-0.632759571825414
0.5290179323497507
0.8703832713091325
0.8987422452351603
0.5559026766294966
0.31530396250832504
0.12329060022401694
-0.007180261461166128
-0.1591466070165278
-0.45058168054596814
-0.9746948020318495
-1.3653479456880087
-0.002821826051946782
1.1411306885976902
2.0402987726843804
-0.031126678704983844
0.9082101987982901
0.8203524820815072
-0.22473850306680584
-2.107682771449579
-1.9618329168304214
-4.181130441324911
-3.9767027219442737
1.922823721421635
9.303762074453575
7.377313198199614
5.330678275752395
-0.1849505456943646
-11.478092727988624
-12.355518207184723
-4.256183714517896
-0.6046020615922385
5.167120398876639
13.485978712778824
6.685323020735044
-0.275677283647928
-2.257422983811518
-4.3752850243442545
-6.6040104216837445
-3.988209783887029
0.145617702303823
2.685807878838005
3.170640655390605
2.275817305151524
0.8902981212639414
-0.31769820817584304
-1.003181495077155
-0.928808606216865
-0.4752702000326623
0.07417563748172931
0.4400281423068735
0.42629995198854
-0.23185858731834622
-1.0554672931200566
-1.6492867937507762
-0.7743847983987919
0.7408479426186626
2.2798038140367827
3.157639818184459
2.638410770453928
0.6818569994052167
-3.399547475055116
-4.2544027578043275
-5.899583741961852
-1.7364522234303699
-1.8273933176861754
4.819584309534212
11.114443801594426
7.7113647390094915
0.7853002829057094
-1.7749401802774407
-10.465526853663048
-10.613467994195684
-5.8682477192436036
0.8489691601719948
6.910914369246992
10.836128785349924
4.320461539516346
3.1319514978732106
-2.574041570719154
-5.738357884577929
-4.442780385227988
-3.337811349072157
-1.2424938259770102
1.9895041427524325
2.9523955756751556
2.414790036556991
1.2144942867749722
0.023823951774420118
-0.7646056472579114
-1.0360753040263206
-0.8762129338196545
-0.46833632864779373
-0.006093908353952711
0.35863164112160384
0.5327771304440512
0.4770819160572061
0.19462589392910343
-0.2774075732257574
-0.6732258751864054
-0.9102888689222355
-0.7185864160407311
0.10901170941194493
1.256827930205857
2.244785139700547
2.0406419969511207
0.3508607143916339
-2.4160327006988167
-2.9601818670363156
-2.5503266218110867
-1.2045352109734728
1.3762353042227007
2.748987687499113
1.0225009559183083
2.203134252021077
1.0751761714409866
0.6560015895125315
-0.7845938554161764
2.0022240722600952
-8.01261234286594
-3.282737009754851
-1.415303984521634
2.4779003675028735
1.6501176523024121
8.529545060615483
2.0184588378139674
-1.6050441305050376
-3.5559742851503695
-3.4522682706788665
-2.1933805212079394
0.07170316467859197
1.4241795624142646
1.7106916262716934
0.9915069859358481
0.37248016607130374
-0.12540113250729976
-0.4355069451642678
-0.45763801295531215
-0.23084934184799574
0.11283417674403487
0.39967605133947753
0.4640536501797238
0.19458450993772325
-0.4275659533066063
-1.3085642074149302
-1.6556102105614854
-0.6372219818401113
0.7128980309322586
2.377328388137704
3.4745512894416235
2.8745468437512174
0.1420381388308737
-3.4164109339691877
-7.689759652983091
-6.011395756678585
-0.4258728525454578
6.009299850268889
10.792451674599548
6.210497904947671
-3.3804220386906665
-2.95573226731266
-5.189039427783561
-7.377916960770122
-3.733032175842172
6.246062055143261
2.7128610431327616
2.0523900620162934
1.4651573208762423
4.300358300235762
-0.1875761923764739
-2.4634557005250435
-3.989697833040366
-2.875441984901765
-1.0150056634357165
1.4103840270254542
2.0635710236913063
1.672043417918465
0.8214215289450484
-0.006717372278227636
-0.5165293283294958
-0.6004817689332911
-0.4889024810231055
-0.28006097666405094
-0.07839797161347259
0.043759965910940585
0.057980461320206116
0.17075023048919308
0.20380205690109388
0.1742957879275709
0.08314487712861134
0.1157480273229321
0.05458320910564528
-0.10147498578390587
-0.31991275750271003
-0.7302237038728776
-0.8423609165606663
-0.3922470591471569
0.5929203751471732
1.7321276995534205
2.6655688095876666
1.7011834349265773
-1.0549367678340091
-3.1118243604843063
-4.619423235536702
-2.892487694736189
0.9085716379835898
4.547422357520425
3.8151022707950766
4.292348700668965
0.6787194654195914
-2.876336220625735
-5.098532553336572
-4.897254247347819
-2.395581882026819
2.035749500257431
5.355017145379675
3.5420509646223404
3.150620767624678
0.0333731685075003
-2.930125761293018
-5.162294970508734
-2.090465978915055
0.4593645908292139
1.5138142910186272
1.4571451626496783
1.2525736002166032
0.6568910087547539
0.08669222708433225
-0.4385857238128622
-0.48246189163765585
-0.5312650058989631
-0.31926382750597004
-0.1652368415599387
0.06447175959195922
0.16342472297322394
0.16944167924550774
0.13702909680125028
0.10952088767574514
0.09988882204139676
0.08512389331090017
0.014928409200736582
0.031800126381787974
-0.10335222544194944
-0.18796765011329075
-0.36567952914604634
-0.33295897987479
-0.3687621646961524
-0.18506312884043183
0.4124080684911396
1.0727765609082578
1.4831516214530749
1.2089534153753305
0.19964657321130838
-1.2576046424973466
-3.5828025507908645
-3.610884016829766
-0.018374834823989248
5.515653016916392
-1.9433115741672775
1.955316614348854
2.671644320218674
5.545908015554788
-5.667501498361714
-4.139279692628927
-0.6646041681630492
2.77221472415963
-8.308162338366264
1.6530447690274368
10.260375649348621
1.1232930900104716
-7.34338326890318
2.578636976697443
0.10399343654377927
-2.608227399992583
0.813229458091359
4.624873043535952
-2.152031862108902
-2.243658406270428
-0.43894463753590984
-0.13347273991132544
-0.1237291428975539
1.5478013006159088
0.7182153847626398
-0.16966229988166134
-0.31768781667601315
-0.19195087570009137
-0.11795019760963796
-0.06361471954479828
-0.020644229071865392
0.009998048272490718
0.02667157790457483
0.030427454282346954
0.024947835936676974
0.014961250203620555
0.004590160450109624
-0.003582301329192476
-0.008567000768513994
-0.010415621038404505
-0.009511753486467597
-0.006117023474825456
-0.0003891551575892246
0.0071709797711535465
0.015125851321184445
0.020785227566923813
0.02057296305670375
0.01127169880638464
-0.008041896194562111
-0.034021872938098975
-0.05806416107659931
-0.06740284554257615
-0.048964429003941094
0.0043398127102074555
0.08659992029635463
0.17423783030647824
0.22736383457940165
0.19999699420317105
0.05925650350253192
-0.19074043943215774
-0.4893576988524462
-0.7165498250917
-0.7178901594189664
-0.3618304590591858
0.37945496691190683
1.3502270204217113
2.1696421188399975
2.2672012007126336
1.2170337407528766
-1.2434744529412374
-4.172565966799612
-7.061302920800444
-5.2542983534187915
1.3915685934341002
10.45892123182234
7.894222961912111
6.322506131720882
0.9170306489819056
-8.963095470818837
-11.731238562382105
-7.800973707915045
1.2640868462526818
5.572926070976543
8.593962877223156
4.339531818839666
3.3009398492704407
-3.108066709297821
-4.3882975182626485
-2.9860437489388754
-2.485703452289625
-0.10872550323926664
1.2088216051632608
1.7675005088692897
1.3469944358435086
0.6196694727722689
-0.00013296193375131543
-0.23845503805192558
-0.3749211726774688
-0.40678927007774324
-0.3913364532704684
-0.19124785194416946
-0.03913797550746684
0.07299799336700462
0.1827675770052534
0.3341781226144894
0.15363150519255456
0.03466832337180932
-0.0635777714356345
-0.004732449879430863
-0.05521246365246796
-0.06299460995551674
-0.24242283233738957
-0.7712290934530815
-0.2031731775711399
0.5058254148385464
1.168381934211727
1.3504948662687326
0.38696435592314543
-1.3692804617473402
-1.6819361375320248
-1.585529711332687
-0.7946760523431878
1.6171244588502995
1.487996819233884
0.8343957795010816
0.768658421548195
0.9067688588613676
-0.12328845448566969
0.3071443141684145
-0.7491250601145146
-3.0192635832689456
-3.909495583286981
-2.1524517423826635
0.7843769490462358
5.179926836729481
10.744532430974894
2.0452549615306217
-7.841360876122715
-4.87422855694833
-3.7266858732718657
-6.370856621266312
3.7253174543998884
11.202606082404854
3.9407901228057107
-1.5238345065639967
-2.9913454087577294
-4.0145590840203536
-2.6449804356424798
-0.03306131867020287
1.440814695193534
1.7008042068955407
1.2274650991719405
0.4975488698065229
-0.13303398432867317
-0.47946543653162577
-0.517474842597214
-0.335027302680343
-0.0722246166660738
0.13137238250039765
0.17288892699307604
0.004778727708507206
-0.16123804502317352
-0.2620535931228449
0.19903063844790664
-0.27321398513337114
0.4050291722187701
0.07066318373867664
0.2983938595682083
0.0024464264400890653
0.6579776784955998
-0.26045747015547455
-0.23227569937561868
-0.8509914482700832
-1.0093091549885187
-0.7243318527458865
0.1936103293099045
1.0435112585924375
1.7414294796623377
1.9768356136189378
1.2533041015588497
-0.5776533349636485
-1.9203277080073762
-4.044159923385783
-4.983144708386169
0.21019574182821035
5.250554311069848
3.5169240288643353
3.387591049741522
4.935763912665185
-2.5577812950224494
-9.718013204674925
-4.544864752573335
1.2037062481070342
0.41103919751349416
1.9878175004006013
5.547426688376396
4.514260288238962
-1.614947215195328
-2.807611565457774
-1.8673417854722565
-1.5415168387097584
-2.4751777711020106
0.3129595188928239
1.611615496991226
1.6859674893247811
1.0975199763701593
0.34163688600958064
-0.252107474767076
-0.5443999565713833
-0.5508787785382016
-0.3762908817437238
-0.1471302449957059
0.037527668792432606
0.1293514848045292
0.13056663856983286
0.07813420458040318
0.02137833072652828
0.0005283838644236211
0.03106354023811941
0.0965141708756945
0.15084789325946124
0.1302960548815665
-0.027271106263909887
-0.15983945588959056
-0.2627326808458931
-0.482662893843978
-0.5316378119702957
-0.3229559349838088
0.5772948987639743
1.3005150764645719
1.4527656183425364
1.1423121507705867
0.26535355652930215
-2.369897081028814
-4.729822748630131
-3.9152433924189953
1.7629286058044529
8.806510357457922
3.532947493660052
-2.2314358098321287
1.7015898432744962
-1.324167257522643
-13.575143641763573
-1.9840339712863624
8.21017947111388
4.0398817956023265
0.51016653168877
4.572520455058822
-0.7240743337060798
-3.4895195252568194
-3.7241421346831456
-2.0372093289633315
0.3426780729327814
1.4113698157894186
1.49916279278653
1.1060525650418986
0.5328045394738328
-0.03981077865563695
-0.40227477422950303
-0.5048587330761786
-0.4069736833553035
-0.21473322259502434
-0.02833284243405385
0.08942270005620359
0.12204109241558811
0.09093975920239761
0.03752779651733254
0.0030289149693702977
0.011230090605736402
0.05717148384046523
0.10321131791055702
0.08279016604417344
0.11102822359007337
-0.10043238016856904
-0.6290375926591834
-0.33346922399576323
-0.05713273057979466
0.3574810336338536
0.8517876163049775
0.9453930459497564
-0.2456423885757585
-0.16371955963857868
-0.749689277800445
-1.3918872710505976
-1.7105807878011852
1.4063596309629796
3.722006163622478
-0.4500228733114249
-3.9324814185154486
1.4591785377768378
1.6886311645556966
-1.3080073819674576
-0.8054426351312867
3.9583715368269172
0.06486391485873891
-2.772597916554558
-2.4867720407254583
1.4396011913502684
0.4112423164500716
-0.3110405963661429
0.10506230817860487
0.35312691340627045
0.27890750933687347
0.7945294342692927
0.43253880904332853
-0.05203155228235001
-0.43531946650146064
-0.5502070019851729
-0.8080860080798231
-0.3409281046813477
0.22101334654398563
0.5345450175822561
0.5039872944644357
0.23583677471125472
0.00490604842273276
-0.1592139909259623
-0.2664044171923097
-0.14879003020148143
-0.04163252509149948
0.030442885151384196
0.05894448640130491
0.04959423658769009
0.01588060291230729
-0.028777521337414767
-0.07786124241900447
0.0640065582570723
0.18067955337835326
0.24926796018619912
0.25081126113338836
-0.014716718394987916
-0.5148608650336574
-0.9829957303474616
-1.1404630870186738
-0.5489570329998371
1.1150882241268016
2.5926829115963206
3.2251230697527316
1.0281217749147045
-1.733050608979928
-3.7086477736729733
-4.457121574125543
-2.1645233284936025
2.647359796973418
0.2352194178760272
4.4561196295711305
4.0225744293141465
0.9065250391485811
-3.045606603292044
0.700318876964299
-2.9005053050324805
-2.5264439934751928
-1.4303780565808624
0.4723315939146424
1.5596613122009584
1.5425185878522483
1.057534109546886
0.48259070132739157
-0.17922375181546288
-0.5344972875578753
-0.5682253517258166
-0.3762026196575299
-0.2919672261772174
-0.030643906066288116
0.1403016595709611
0.20457611340144463
0.1832197959977565
0.1141667667783913
0.034245721353137276
-0.03133255068102522
-0.07124982412572052
-0.08451165420532933
-0.07480383989362538
-0.0462267980390595
-0.002367265565397915
0.05131842340610903
0.10363098702601115
0.13511218842968784
0.1195789013920426
0.030918975660117812
-0.14618576344291573
-0.4057372868890544
-0.3158661687378972
-0.024927799185188716
0.3214814167989322
0.5585331614766129
0.4856355408345454
0.065108257322049
-0.3608676647363014
-0.8417250711009484
-0.5925438021720003
0.015063451186191871
0.6391575674906803
0.5371525259387863
0.5345757068537711
0.008955627991460517
-0.30338724161665614
-0.6816942811218379
-0.3891291558717982
0.15055733660612217
0.3597816488751749
0.4982145614447556
-0.35451275227677886
-0.11698028696982637
-0.12171696748968389
0.07092128525514828
-0.14037593735083256
0.39072239353343324
-0.04832427737562369
-0.02676953560473092
0.04282960007744413
0.12970782870271716
0.22013951932488512
-0.24027401608480278
0.2977700725182671
0.12646223725659828
-0.8946928261735647
-2.1400519491838703
3.5466627247673945
-0.8185024913598156
-4.257009881633516
2.8636267133329336
3.729382579411547
-2.186306246654955
0.27408273648496073
3.224967083381797
-2.92556011157148
-2.1096871597802145
-1.0517653798210795
0.2170149314664093
0.7580871395386153
0.8492412155145257
0.6684608782344568
0.3800509041467103
0.05465644396315403
-0.16331927417641356
-0.2444595073472314
-0.2340141919127726
-0.20141078376448482
-0.19678665167352136
-0.22655395053997143
-0.253446872876421
-0.0196879884708113
0.314733938280112
0.5324541661075033
0.7347019178203791
0.7478568207310718
0.16712305233811525
-0.7703846222279818
-1.7067747570132887
-1.3127484735941757
-0.6962952714379442
0.3174409853918757
1.453142303033804
2.444877241745709
1.5459770201212508
0.7351795588398433
-0.7689156769368249
-2.916825898401565
-2.4272978361403106
-1.252312855149391
0.23980783899592747
1.5581322416156709
3.3037008631553584
1.7770030954799607
-0.9555120648602766
-2.305747186218074
-1.7343158820128317
0.31025464653835355
0.6452615665504184
1.589491751362567
1.3959307798801797
-0.09662828875076088
-2.186075579090813
-1.4209625713583975
-0.13916706809217314
0.34073941270932173
0.8705117345292468
0.7858808688691803
0.41548284509148303
0.01366150103121874
-0.2689084186842442
-0.37919805117834066
-0.3339751913151953
-0.1867917984136587
-0.0025597274175208928
0.15511688982698066
0.22623921093672456
0.35348614596071926
0.28586416550589344
-0.0086351120360164
-0.32313744250567045
-0.39324985631753173
-0.6923952570218643
-0.6528125453174557
-0.11659683675587895
0.5913617255414836
1.1907636609379575
1.805380123564558
1.1846111664237362
5.886379330743768e-05
-2.1996660446554044
-3.4241410094786078
-3.130685238980633
1.9816931054501
6.868887747837418
-1.0243656643671508
-2.324195728284258
0.5647350859534389
-0.7949056131455503
-4.498888542770794
4.08069179155296
4.689235233875544
0.42261812265469656
-2.5728583657201556
-2.7386240343368375
-1.5290282999967912
0.11053611149483647
0.9704542241354259
0.9108015134428116
0.7396644805628647
0.48419349508952036
0.09247938503098188
-0.21572872266731744
-0.3509255523333368
-0.32282263853676585
-0.19553072484937215
-0.04560923464871605
0.06699666936231916
0.11241269034042424
0.09131437303000053
0.02737789506050461
-0.04367335606885693
-0.08551269815679911
-0.07189823806468888
0.004004890909748761
0.12287223584750753
0.2374405835683797
0.2787285915560791
0.17212515616839202
-0.13830109603726193
-0.46409505400918794
-0.7567773427698313
-0.7146920701362447
-0.21935712666174784
0.6036687004391058
1.3194598432219096
1.7451219088138443
1.368409540862708
0.037035728341044453
-1.698670694912156
-4.0406911192960315
-4.2657470391320125
-0.17230274400957565
7.340868761549364
2.225533664364858
-1.9301492684917954
5.214212120580871
1.2343951004882288
-11.840179818784188
-0.6575210392098831
10.07718060724764
-6.294212998886009
-4.607649415377447
4.790709144726861
1.6372118545435816
-3.885956221114
6.043648186284047
2.1729686041045433
-1.4162565368226578
-2.3716971016666015
-1.252747990851644
-2.1045946303230703
0.30510010456378556
1.1490151711793588
0.5064243479268957
0.2665745186838624
0.411704845797749
0.314086766114967
0.06666353092298702
-0.1469992438907726
-0.24833956292449963
-0.23671716909108345
-0.15370645241936284
-0.050840300168251334
0.0319505559720811
0.07537190786956975
0.07960276211015196
0.05730880828815009
0.025239101261575952
-0.002467458661929998
-0.017862397654035658
-0.019721036942343787
-0.011952117085901584
-0.001027197242283512
0.006640180064870405
0.006803681901334478
-0.0012834148530573072
-0.014449114388426373
-0.026229127659058552
-0.028653011560923196
-0.015122150353450442
0.016104593806030097
0.05887252653913624
0.09807254086116358
0.11211987203271045
0.07976512873556084
-0.009640699544604529
-0.14561839281609407
-0.29116082706788177
-0.3887997852469875
-0.3829669639970858
-0.05876217019696516
0.3103168470894379
0.9215034236971009
1.2300414454129256
0.9840498030972044
-0.4857184968895608
-1.5347411566639582
-1.0672956147393673
-0.8385340533816442
-1.2343285873229353
0.8562925244302526
1.6908953788137246
0.6846300578631468
-0.1691045103559384
0.5713938380624115
-0.6647555173430979
-0.4526136923581199
1.0952934535045755
0.6401167014213917
-0.4413597097530846
-0.3002536534531951
-0.4680758586355361
-1.9478218518661665
-0.7714384433552217
0.5617292838512746
0.9733975250610272
1.0535255131338008
1.1118130176197987
0.2753082077189152
-0.3451846149763578
-0.6223408188411039
-0.7364712129785602
-0.6893040341481314
-0.0364507962131487
0.3455369137221387
0.45767352578030207
0.354922636084877
0.11676038269182612
-0.17581794992555796
-0.2527177074624567
-0.25971140522994907
-0.16209050558287652
0.04867657150461824
0.3458600391211008
0.4615795636377349
0.49194264764354695
0.11842516040523102
-0.3567630412958428
-0.9733221938230109
-1.2926695980541791
-1.0131754015358907
0.5731922509341685
1.8985475152826594
2.848731816905613
1.750467950770257
-0.5556304436797359
-3.3683336098063164
-4.9625636858025155
-1.0882865939031139
3.212021826722465
2.2697354993684913
3.002874485966826
2.7604357197478286
-4.944673508034962
-4.215014091436001
0.8894942644884012
0.9891937496145506
0.9796788512205633
3.809139073090034
0.2846133960648354
-2.4618664003243937
-1.854752546368654
-0.7467908928957496
0.06697741359859169
0.061687730593920825
0.7234478607667687
0.8460246541949958
0.6206164417523069
0.15105647217564158
-0.18734219535057783
-0.3442649255213065
-0.3590253717676518
-0.31256269093725353
-0.08455138025830641
0.073357005941381
0.14547651619971144
0.1452976357444383
0.10141728458313859
0.0434691278752633
-0.007179809304678134
-0.040435873473905676
-0.05533325038976299
-0.0553539789016665
-0.044035561651187924
-0.02291590765053405
0.007443093388559292
0.04401061198167015
0.07717623128298907
0.08821165774141163
0.05020078504463814
-0.06683861762232057
-0.08758748772997182
-0.022230025396539007
-0.05939541322771894
0.036398949907126894
0.1217197466408469
0.06567103764296699
-0.2637623804786684
-0.41854749845291794
-0.3948072277489574
0.1396079388845363
0.6216550719032327
1.1878479039135847
1.3040496305737928
0.44059120851244543
-1.414602684813536
-1.8358465672002164
-2.2813275595289815
-1.304378382512686
0.12321743438983426
2.396328167660931
3.233233006991212
2.089587464120182
0.30306879362846784
-0.6024577389335433
-1.8827866616557254
-3.085469108835422
-1.6011864074289335
0.27032754530312064
0.5082925753960148
-0.16751149200832313
2.896805306601537
5.688025121647576
-5.2082063077999905
-1.6478457234833717
1.7051439421410064
-1.7621133903831974
-4.771742377774985
5.646437132285954
3.13128069591189
-0.8213406822875624
-0.82020969258693
-0.8816700949084239
-1.1037765240481987
-1.7609057603499791
0.14060929017416038
1.031230204149744
1.086385030144922
0.7103569378519006
0.2363581378760238
-0.12958682949774167
-0.3141263498190433
-0.34267801919055896
-0.28680948539410245
-0.21406783457416081
-0.1558212182379348
-0.10045987593275038
-0.01108467791374232
0.1400093365920558
0.3325419657822948
0.46988465900404364
0.574793676629078
0.6177196265820555
0.1765782607676452
-0.8861913364732932
-2.556712929104236
-1.8470467738956524
-0.04241866624926807
1.5838998446235144
3.228400462080983
4.255919864990489
1.2034372267423044
-3.488879816769555
-4.863843644052054
-3.6507297069745723
-1.7939876633622223
1.4368191586479555
4.387275060258947
6.318349459928364
5.405428748730106
-6.064187499390121
-4.289509285026288
-1.6442321514621587
-2.5980445126325233
-4.386327889532312
6.534188185368694
4.691599921051344
2.971691522651892
-2.535099035689705
-2.160467217809695
-2.3842431149496153
-1.9338153845037975
-0.9267062976965401
4.91822488772363
2.428020469482919
0.5383186581028974
-1.0822593745729137
-2.7440795631450308
-3.4295687090145752
0.07083358493786276
2.1412173340374654
2.6502769992321773
1.43906020478102
-0.15518079302309126
-1.5080117947524125
-1.860853942018786
-1.4588466661873447
0.08405519043985579
1.7743613144535186
2.597553564677309
0.08219222789309069
-0.8979319818729552
-1.0773693135561153
-1.1318379465740545
-1.0274345067217587
0.9854184835040605
0.5278814194550736
0.016321717654691172
0.3842113037078672
1.0323307925239666
1.8280143253746208
-0.03996962054212494
-2.363638300050803
-2.010168281723901
-1.6572510432503202
-1.209354135547909
2.499244542270763
5.153526745602008
1.2286769323402364
-1.2523024176437525
-2.6533018618312965
-2.3884790927404276
-1.5839254772760543
2.0029366130039006
2.7886705590289087
1.3191567291173898
-1.9837327468905988
-1.8598535165458727
-1.4388442836932094
0.7212002495701035
3.377559834437022
0.7487757582443819
-0.3046143732431408
-0.8453646374242558
-1.382110917867475
-2.5846266969803957
1.771099253789039
1.4109127279737685
0.934734288181566
-0.4187958129234778
-0.3913739987947368
-0.30262073197947886
-0.23777034699472402
-0.4421590983199926
-0.13435889281987182
-0.3407129618766085
0.6556215854421756
0.2664637623402022
1.1716874568361884
1.5329285441205807
0.457372663689402
-2.4980389038869784
-1.8151454328209145
-1.7444776876097479
-1.1186583684099458
1.7402114764352585
3.4524706604452193
2.6192413219824378
0.3381778375974491
-1.3648447125175804
-3.0034970358460944
-2.2594527479125293
0.9545526320452336
-1.0521404878397511
1.8166562247706368
3.5552389963198503
-0.6346445396439291
-2.1953343172350697
1.7856269016259705
-1.5939621199808909
-2.8211143537005996
1.43436608961475
0.8845257549936172
0.36396470229802236
1.5781141438444408
1.0926908535215887
-0.21762790327011652
-1.2689592807649483
-2.049768440460797
-1.5322210273549217
-0.4554511150900594
1.0042065405275504
2.0980993099380236
1.7568003114646673
0.6867977606525348
-0.2485659938456393
-0.9608977372772749
-2.0137045789704886
-0.8961307403959153
-0.14144074540844528
0.28472706414783044
0.731840606845391
1.5775836885228662
0.5457999703163627
-0.3388403349124298
-0.34675110649995905
-0.39897366228249787
-0.6058881017740356
-0.4152579766267694
-0.18862258047066902
-0.012864316641225977
0.4592578811223381
1.1561920151394902
0.1432942835272021
0.0043264767377167845
-0.14534331381012605
-0.421692878024611
-0.9288309642443227
-1.129248179265212
0.5595963662557752
1.5435178776405456
2.2214533083781505
-1.8296450054841735
-0.04139476474835105
-1.0198901806531864
-1.3154693475681898
-1.4208746700732706
3.394096902545175
1.4270381537328471
0.2989151207491545
-0.4494422917553975
-1.1157752520498714
-2.3739290706681313
-0.2280019515616105
0.7892060959299967
1.3720786999321455
1.1778792885186753
0.5790334741814999
-0.3412398800669195
-0.7470764317925368
-1.3829418213510876
-1.114739336276689
0.09214679527940037
1.1478647191357587
1.1800087288187184
0.6725839581122711
0.031975746001728284
-0.6058886496212486
-0.7343655178331356
-0.623381049461948
-0.08045036892904392
-0.04193070468743975
