0
-0.0037465443115562366
0.12672316365071618
0.08202785958862582
0.07729016193995482
0.1136673321007476
-0.021284874010319536
-0.14784441028456588
-0.08537448011159571
-0.044204247342689185
-0.021350593561594168
-0.0015747187911662015
0.03683141589883116
0.11373433766079698
0.039231854162673954
0.008742206616674013
0.0026228789170127283
-0.009687734099576066
-0.06232373503039454
0.015534041295400203
0.0072650390287345434
-0.0862375203677327
-0.04545905930808649
-0.03556921460618884
-0.013860157798600711
0.06011514505775587
0.2143067601081701
0.0570170124680528
-0.024590238958207937
-0.059651987756602354
-0.0842080748002628
-0.13071214172796272
-0.020069203427916196
0.04150643633996757
0.060596691289133
0.05130599112146515
0.029148358328726268
0.006327604406121103
-0.010428138125746653
-0.01950652938968759
-0.022402574436697846
-0.021277060603332676
-0.017175989499261225
-0.00957450672598303
0.002662656099308611
0.019375917307633436
0.037159575958697344
0.04843360538816331
0.04241493302842095
0.008258163368208468
-0.06030733485826109
-0.16051181583612048
-0.07845419996480345
0.008888749241024785
0.12745683542209926
0.09772028333346389
0.12750357097209467
0.009138732402490295
-0.07778768473811054
-0.15932325143095039
-0.058763775004573235
0.009633262740556446
0.042814045031660676
0.04703113960365996
0.03353802487618038
0.013986401153325133
-0.0028893485531234046
-0.012658148169427475
-0.014851422756745128
-0.011582513427894098
-0.005904578959525574
-0.0004956906150907806
0.0030482622259413975
0.0043183452326381955
0.0037827970560195996
0.002309867687440355
0.0007333791655977694
-0.00041596545456451636
-0.0009832182851819602
-0.0011047149351894128
-0.0010404985714357175
-0.0010019406361694626
-0.0010366266437013632
-0.0010061430428708975
-0.0006625913296533111
0.00020018797038882867
0.0015721087388692312
0.0031007364416754534
0.004089993271553533
0.0036790316102751864
0.0012030804986690351
-0.0033440954421874508
-0.008916876609609352
-0.013325721270984438
-0.013665125283964139
-0.0073563671350492035
0.006337089662203465
0.024760505133322012
0.04096688356831745
0.04418183356217787
0.022046232788861246
-0.035628383159538556
-0.13273277371840275
-0.06415493019593663
-0.016184610831477365
0.029400519629026626
0.08873155060365125
0.16936874264248974
0.06697592213964833
-0.0328756921567426
-0.14800080648557354
-0.09058091409775285
-0.05968097582760208
-0.03860475555698164
0.0015852959261046411
0.09343566350196879
0.06225732768301759
0.1167720741616108
0.04453268365725463
0.013893882514870216
-0.017821317506909934
-0.09241681079949209
-0.23906167211070634
-0.06677434445516105
0.03605805428473356
0.09500197454376373
0.1386074139762278
0.18784826906635668
0.05041397479077252
-0.07796265123014962
-0.2062333524280556
-0.1387255232212041
-0.06862622151423604
0.022415713784244562
0.15836019256179776
0.15936848142092797
0.033246095505730516
-0.028643951434130264
-0.04970025678221058
-0.06189411415101405
-0.09785104588287703
0.015976019078833115
0.06330333889250415
0.03892996485654787
-0.05257153967645082
0.0007568985163892877
0.015589763921974475
0.010779775964343236
0.005251893160336068
0.016634031662147334
0.06080484330901488
-0.04776972486310055
-0.09547867687119367
-0.06974447968621374
0.039155864906356676
0.03451015063714981
0.10894638741567839
0.041546166127738954
-0.0018678614363655183
-0.06455813873067373
0.00843605114122551
-0.021050700541045395
0.02363582801964487
-0.060523581714614715
-0.054431118888986725
-0.11961722901879752
-0.005637376930108434
0.13897945353954552
0.15485433831180842
0.06257815926807897
0.059401950888385395
-0.07706606198088896
-0.17973415011839514
-0.08109208197866773
-0.004475847505737887
0.03985715003564233
0.05357378536784563
0.04575113326982358
0.027504568613654683
0.007852336606188469
-0.008136819892589967
-0.01897156380538287
-0.024989517849750415
-0.026409152407121952
-0.022244768303163256
-0.010699276300066445
0.008985171249316458
0.033891729494457026
0.05516588122113343
0.057404384484123896
0.020589042124529253
-0.07543327912077312
-0.04504900289469465
-0.09151465500910175
-0.004126684945314148
0.040963557172823885
0.0765569593262755
-0.06173737719440786
0.05823155358743226
0.06025639056860955
-0.04294423349580983
-0.05012894030586103
0.029893900171901633
-0.019309227176943045
-0.019141398996534116
0.006495153147414216
0.033427123075833495
0.03937837072072252
0.006309063167191133
-0.07709170835500535
-0.013251009649261087
0.005272298271233723
-0.005105184842254338
-0.021932995837740783
-0.021299515489467066
0.01681383832148764
0.10357095842481674
0.038096313157032845
0.007285156108155867
-0.010951833545305809
-0.04176768116293989
-0.10658674585828855
-0.017621002504514004
0.024605329108672983
0.03015868434327683
0.015708742469435273
-0.0009110608986547047
-0.006099734241546691
0.00528967536272273
0.027649719250219158
0.044746193917994274
0.03256847759090803
-0.035200821623153425
0.020148246324614084
-0.009922211829051245
-0.11505471110042613
-0.06349704495272357
-0.004870013928244404
-0.0787612380006832
-0.028135592347237656
0.18512907111233923
0.16660265009775552
0.08201061455665794
0.05966788073978181
0.0033839839848699427
-0.18673560615623616
-0.19086539280250128
-0.04971617937693812
0.046310908411604595
-0.04339630204843013
-0.020911790354467177
0.03112673676250867
0.026573900822237942
0.053442656795699636
0.15664412972720212
0.1297062048582288
0.11797577569847167
0.03341328918197667
-0.22208706325392644
-0.33102934640470605
-0.14012327574128405
-0.052275126794767784
-0.03348621566739339
0.16795762622280727
0.3971296514932217
0.2720782205677302
-0.024765984482237657
-0.14010749308201667
-0.13103357751784322
-0.24165251677014563
-0.2843012035818112
-0.032435651080211916
0.17224104251710393
0.201241846324016
0.11633978245543551
0.15039563088241384
0.09817682997370326
-0.0805700596407166
-0.24775333469392286
-0.06837117242770842
0.00711867920814048
-0.04532761081432967
-0.019339964087251332
0.11846780407196152
0.019781528468004503
-0.05682304557165904
-0.05763208265868624
0.055835151516459985
0.09919934474482855
0.0617694769290734
0.10859912532719522
-0.011551669752107141
-0.15372713500390003
-0.16303893928509866
-0.06394637481977544
-0.056088799292587276
0.08215991847298745
0.18419003505840092
0.08361434249000575
0.004948677460948375
-0.04071820271494452
-0.054746374285028945
-0.04640459043977288
-0.027333853093344865
-0.007176803421749173
0.008522751626073442
0.01815861906735143
0.022435653683367272
0.022397773023990146
0.018123094682098405
0.008684042550956115
-0.00659924789286848
-0.026154271951554557
-0.044361118389306196
-0.05104698801279712
-0.03305255455242305
0.022083825318570026
0.12128855784327375
0.061797946362454045
0.02970275508131491
0.0023808893311785193
-0.045562481769455696
-0.13480200173620258
-0.07504607005359926
-0.0625370184108794
0.11764695954545532
0.0854860162059488
0.05878090600485686
0.04785248372876943
0.054204554184311006
-0.12669256750488986
-0.10016940140376689
-0.0674094978820965
-0.023331359324088807
0.041591164121254805
0.13645974014403606
0.06445898648857272
0.01947240920991008
-0.013504315140726694
-0.054277543310570005
-0.12146688615153788
-0.027109305973735426
0.026086492367771642
0.04410070779950503
0.03834383935709185
0.021447108638307684
0.003745783226805851
-0.008590255281582151
-0.01366759569461898
-0.012723462537099842
-0.008467928807816005
-0.0035828128789581973
0.00021278280813354677
0.0024180807151882823
0.0034519614519579536
0.004057417927975677
0.004697629563477619
0.005186343653439656
0.0046996575718366105
0.0021908370835805125
-0.002910270681071882
-0.00996580050715595
-0.016712187859480844
-0.019505361251125477
-0.014443631483855012
0.0007069174414115523
0.024261635615242493
0.04890687949946428
0.06157751697797001
0.04574186412527983
-0.013831111361872948
-0.12488776341217792
-0.0822514362039732
-0.06569459436143195
-0.04292673484112923
0.022290695677594917
0.15903227526197652
0.1788537847642755
0.07029408861299771
0.0009630384195574158
-0.07285137999803448
-0.19221013850740004
-0.18230539113293312
-0.04503922037116978
0.03975323534704604
0.10504119805792596
0.18311283682087567
0.09324657169055699
0.03525343818830289
-0.008857827887475161
-0.06599184401699225
-0.1593679726461035
-0.09696847038419001
-0.06536182725074612
-0.031319831690966075
0.049106814079753446
0.21706088111989774
0.09758641704543476
0.09128302434793366
-0.02618718067920421
-0.0968375476661972
-0.1683566856417731
-0.08196532590801638
-0.06434768058961012
0.0742167627546388
0.1362219787737522
0.13077664064950856
0.0685737320950733
-0.039556953050953476
-0.1805224316168452
-0.1356896496571446
-0.07988157791433668
0.015000686102799806
0.17201951784199648
0.19999012060851032
0.08748432941761757
0.003615096473218995
-0.09368699688187317
-0.24458552250305657
-0.07432321105681951
0.01489859151042923
0.04452724051003213
0.053200370168166394
0.08600400716569753
-0.017020109940263733
-0.03021384679697894
0.05217771168368613
0.01486174119128731
0.024610751836240806
0.0370932776296444
0.00637681732579308
-0.10461911950289125
-0.11507303280071352
-0.021127049220300023
0.0035452671572891725
0.001260366267563928
0.019521857046559038
0.09875392055587877
0.06186632459803359
0.1085550002086366
0.01607219370585713
-0.053619218147843255
-0.14242964137563024
-0.08410032855762012
-0.09541917529382765
0.026696320712659375
0.1019555023866462
0.15932364245133304
0.02881383248509499
-0.06468215439184974
-0.10442062162792111
-0.08253296438365758
-0.00013090622318501934
0.13223014275527314
0.09426562344797886
0.057448765082752276
-0.010442252943969615
-0.13800952821996423
-0.14230061521333642
-0.023311429910079548
0.03671854815124776
0.06885065342078207
0.10957796196570879
-0.00763953610216099
-0.05898905057025793
-0.0339116229428254
0.06421851868656726
0.01975246109500579
0.00827506902085836
0.0015636974171545565
-0.026692670857742375
-0.09557159190579101
-0.0133657885864145
0.023151327809712765
0.02644437913213328
0.013702908278070532
0.0014825361173644786
0.0009013775110186387
0.014440988566916146
0.035008153548317565
0.04759274676734361
0.033485924751147166
-0.02357275344183037
-0.13077208112149696
-0.0813045557581437
-0.053369592775039956
-0.014318935561083736
0.07072878718870144
0.22845702102774193
0.0688759230033933
-0.017868912263508063
-0.0581141721366502
-0.08615007028092954
-0.13395918046504054
-0.022986242634838908
0.03953280038073445
0.059235898679657444
0.049778034816951394
0.026891541731289006
0.0035629441041829524
-0.012484796967969114
-0.018945743337787396
-0.017446537635191363
-0.011436245832408324
-0.004327195392316564
0.0016057020939673802
0.005469717416789508
0.007360255589664825
0.007702547681397059
0.006704784819744814
0.004180747091193416
-0.00018529725314724962
-0.006259457874197306
-0.012858956715090093
-0.017508924412311395
-0.016885368970543338
-0.008075053117703093
0.00955305218494618
0.03246291722334576
0.051952896858820825
0.05496514531884941
0.02720864784932901
-0.041776961303247
-0.15310912585017278
-0.09493709124168387
-0.04295165767654412
0.03408062361681496
0.16508883674776012
0.16709991410428288
0.03921697972421828
-0.037157222762979114
-0.09184559118121444
-0.1558652215744565
-0.05190311807332941
0.011166806218191175
0.03817213373651865
0.04272291688162419
0.039899339408028825
0.039401163304686675
0.041468665428746866
0.036817094651693805
0.010586531420731553
-0.050922138841050874
-0.15300076185469222
-0.08757913955533438
-0.03292542724661956
0.041224072830203136
0.1645976700416122
0.15676378573863978
0.020786425779876022
-0.057374728156265
-0.10384771829636553
-0.1487769891780973
-0.01873162102272835
0.06776074055283134
0.10097966822309358
0.07846063865677737
0.0032200060525156143
-0.11694782956779698
-0.06936322232454566
-0.03693397676193795
-0.0004986706257485943
0.056883637218460806
0.14511834645616728
0.06400458535721844
0.003829965826903982
-0.04995934862261303
-0.10961163758011679
-0.17852701088148368
-0.048530375781328065
0.09728002061402558
0.07685641662662211
0.09983076771417382
0.16061125170369478
0.03728723686213442
-0.10258108987632203
-0.09101903339092009
-0.14751545882062975
-0.07039246158972257
-0.03515298524156277
-0.000785594682042
0.07781087956449674
0.23531072735451738
0.08428052023164673
0.01046876247796991
-0.023199815670368724
-0.06532612713833544
-0.16138039262650597
-0.1406421405870136
-0.008944506511759945
0.05076136381998228
0.07087152027264057
0.0878703487929051
0.1315736403912792
0.018444052810476785
-0.04931250486263479
-0.07949125789602847
-0.08301646679557588
-0.06774551856650905
-0.03558399781809883
0.016126114439976705
0.08996021736736923
0.18308874537708125
0.08439533997366318
-0.02375839005386158
-0.1591346606088068
-0.13116356379455382
-0.13447362654305192
0.0521262277642444
0.06012940270964382
0.12109579041470005
0.0554612404968875
0.06435079513622671
-0.07300601374421502
0.004297845292405109
0.04735813712834168
0.00869894772944576
-0.14629021021279057
-0.030286987413314974
-0.029684526062532204
-0.10649361857316113
-0.006566860024429959
0.1275555117587269
0.14245841895281222
0.062436265514599715
0.08445338656508207
-0.018866698810850173
-0.08926490728638803
-0.16929709842390417
-0.08979685657637282
-0.06242945847147218
0.12065283595942147
0.08082067221539396
0.04361306957866136
0.029666538000380327
0.04870092815054823
-0.102324207425797
-0.037328687460428875
0.023142227577132288
0.05712557889466399
0.046491813092368946
-0.018245026990630367
-0.13420665739464435
-0.08471873486838592
-0.0415187518657806
0.02892727887545189
0.15628614621939008
0.15737506012894203
0.030836018700025017
-0.04222736258723007
-0.09181082641526699
-0.1493932214404234
-0.038934041298800154
0.02836177334174747
0.054304784534901965
0.04994493394900662
0.029988956430560272
0.007697700326378704
-0.00828520150042952
-0.01480299604651441
-0.01321465771186885
-0.007429680995880889
-0.0017835511106610478
0.000652091861777986
-0.0009790486102066352
-0.005183673314671164
-0.008749106596904824
-0.008005454026780167
-0.0004957724815391844
0.013307212803185193
0.028752724459807852
0.03681785333663696
0.025414807418412615
-0.01778202502719176
-0.10161909906400576
-0.02806450028376723
0.009577067711415591
0.026147645113373877
0.04213744814062269
0.08029532977398139
-0.03748677244705339
-0.09246963101839031
-0.07086792242692785
0.03407597075665029
0.01942316457922104
0.07003670297336924
0.15791815439580564
0.04505533182645359
-0.10967878347249987
-0.1409476874259554
-0.06780415566118693
-0.08851299231349193
0.01843619934420939
0.0873204954821283
0.15470417607384415
0.04925395589667911
-0.014735444365334784
-0.038414995678154915
-0.034535636308899394
-0.0207093026824038
-0.012237432253904772
-0.01654283551396268
-0.03048566105006514
-0.0411059493039293
-0.029661326536468132
0.021891208415630813
0.12361775824984081
0.07182051474734256
0.04703358683872076
0.01712434464082793
-0.05493221168653463
-0.20087413497132747
-0.03791905091999073
0.03643288946623021
0.04406253853903383
0.020966682986929844
0.009133635030198345
0.04793007411436214
-0.03315199342794859
-0.019289456427477734
0.08781297897363304
0.07107337740450385
-0.09806836972396935
-0.05380037099512214
-0.029596157641266295
-0.05307020582537876
0.05687469853361789
0.09065285376179118
0.047362656596690644
-0.06588494363920581
-0.03416149656835529
-0.034952158203773794
-0.039504823859032166
-0.016102908936515906
0.06481228224678776
0.02471710393912889
0.07194238579874032
-0.000897128185975
-0.016046168637698588
-0.006439730763123999
-0.009270620589934248
-0.05883594389239349
0.019788932010455694
0.015041874468635103
-0.06957111186562688
-0.016866128488847963
-9.566912571729749e-05
0.01091941147107197
0.04293688339496345
0.11348527612037745
0.027866224776098927
-0.019957226126735728
-0.04279777938170984
-0.05361681017265839
-0.05928931856034564
-0.057128325096341956
-0.03560208596432129
0.020755726266373575
0.12377944559225099
0.0741666654414014
0.057067329179229305
0.04294671201767467
-0.005889136681905792
-0.12477999986717535
-0.13548335755184807
-0.038046694294154436
-0.008754697113602283
-0.005133223038610753
0.02331997753728296
0.12175381482414988
0.11776116157905113
0.013865595412943042
-0.013144777510802626
-0.005924430012221066
-0.015197684872694711
-0.0864356350368386
-0.048044235826391925
-0.10409778908561397
-0.033587646894982
0.0034602636480418544
0.05455340707306157
0.16124137999162977
0.14769710524214477
0.015034969182924705
-0.0568874360852462
-0.10119762835675726
-0.15266482522513758
-0.037554925132234684
0.03202136159115716
0.05818037577381707
0.052949769680635805
0.032068767461721395
0.009405210227438406
-0.006434359346322751
-0.012895715334842002
-0.012170992820137477
-0.008748052678439998
-0.006809070843835786
-0.008265951488775194
-0.0119236545393373
-0.01396432700551061
-0.009657380900897319
0.004100996396754402
0.02613158115930312
0.049171283349373214
0.059953526301867385
0.041868659433557796
-0.019895645992777395
-0.1319752275017417
-0.08749222954398601
-0.06432920016007646
-0.02867513130111627
0.05642218638115152
0.21992371312272221
0.07292777540857465
0.0038029870526390085
-0.019682576072487842
-0.04187248241462288
-0.10723909372230452
-0.04873751246567315
-0.079941276622833
0.006975058883115845
0.037223977102372574
0.04500272342735573
0.0635580535583433
0.11685663523616809
0.015312841144953876
-0.04342413060402446
-0.06943082817900088
-0.07355719242405165
-0.06149516024902701
-0.031204721665531697
0.025445751140777538
0.11770612994712513
0.04985162365514682
0.016572886255781905
0.0017318802130621336
-0.019061649736166447
-0.0729960512007966
0.016531735592317784
0.03583818939315203
-0.015148989985500346
-0.12184713104859059
-0.057302895713198965
0.012149662146612042
0.11872922604124374
0.08467593161727423
0.11624160899985317
0.0025832573767108173
-0.07984156249354461
-0.15903202988031304
-0.05860372061746898
0.008318050937183907
0.040607489235869876
0.046320075706816594
0.03744123999560945
0.024577702655021662
0.013447194981987952
0.004023909504083149
-0.00781610709876087
-0.02708082975456706
-0.056249058614383736
-0.09307109163020619
0.06943350337850239
0.04069588307402687
0.029009166367538315
0.038246002381136526
0.06633219269407016
-0.09391922881067676
-0.0520857453328933
-0.016813837004197585
0.006668152214795404
0.017367154491151848
0.01774285106936062
0.01203211243634466
0.004514915899064147
-0.001691124840859598
-0.0050950171717967984
-0.005657920401354984
-0.0042518877456028965
-0.002044821566695148
-2.4579374805431506e-05
0.0012436139581017108
0.001638014934340799
0.0013550773501579347
0.0007310157891804649
8.542599960621996e-05
-0.0003724091508062814
-0.0005683902016617551
-0.0005372146215743634
-0.0003717993084903627
-0.00017313649564505303
-1.5985063867515867e-05
6.481907695276868e-05
7.082011967259877e-05
2.6614018427402643e-05
-3.56197758544684e-05
-8.835716109284353e-05
-0.00011544481405184735
-0.00011354975611007882
-8.996788227175763e-05
-5.8599757736372616e-05
-3.535265917315705e-05
-3.3552259999169147e-05
-5.963329058037398e-05
-0.00010961023000182125
-0.0001674266784991071
-0.00020677219190758315
-0.00019775943237908107
-0.00011855553859087449
3.0318953270990753e-05
0.00021412577489310524
0.00036157632848732627
0.00037874841652816595
0.00018197553336005425
-0.0002553115674115691
-0.0008566391080221852
-0.0014205308669772254
-0.0016472683416327884
-0.0012294861191280764
9.62971504058524e-07
0.0019095847149153786
0.003950229061909072
0.00519588245869195
0.004575377873224889
0.00131902439461525
-0.004485190067870133
-0.011435184339264217
-0.016742543295557386
-0.016806991347136858
-0.008538637766294571
0.008771810331740808
0.03160518406893616
0.05125413255881307
0.054647664721592416
0.027457528654131143
-0.04087453322796163
-0.1516536390061961
-0.09329591980417051
-0.04176543278953042
0.034024642022456475
0.1631397948261999
0.16313608938673266
0.03401538885727538
-0.04177517680023283
-0.0932994731014787
-0.15164514992522551
-0.04085189505543757
0.027490127075039464
0.05467873771206858
0.05126668159711656
0.031581976913476605
0.008703645027309699
-0.008643923821009552
-0.016918681842213124
-0.016809031397210024
-0.011397333410516564
-0.004301095172655759
0.0016434315795061294
0.004961541912777846
0.005489225470323136
0.0039522201440287084
0.001450061177491411
-0.0009615647147226296
-0.002512718287593196
-0.0028050488585854216
-0.0018094797615981787
0.00016150673028454213
0.0024861304876403418
0.004299248479726093
0.004648910767939358
0.002784503092025976
-0.00144689619353681
-0.007214427340848786
-0.012532962784141689
-0.01454045841634775
-0.010375721435586271
0.0013943645912192397
0.0191411308654463
0.036958109422928424
0.044608339916009244
0.02919261529141328
-0.021468695982929293
-0.11457349809051555
-0.04875122424290408
-0.012823571249057832
0.012180074632472091
0.048203824317515
0.11423790167591415
0.021473468034914817
-0.028752949468425243
-0.043752354887551935
-0.035896471534042435
-0.018305968590197723
-0.0013693339383948416
0.009049575754036428
0.011657614863497949
0.008524438447618188
0.0033094385682471625
-0.00046832194394441835
-0.0007185195111644018
0.002565947985145388
0.007343198988987468
0.010223990457852687
0.0077506251012036675
-0.001953417852024994
-0.017545126674510966
-0.03339287804129553
-0.039690751714832766
-0.02417213735562888
0.02467858320251562
0.11374695766416444
0.04217382716104644
0.00044549138403102997
-0.027681298525531212
-0.061084775442058495
-0.11672811831271497
-0.006562932658079369
0.06300689686636318
0.0894190904690128
0.07157970213349006
0.008682949195979763
-0.09881738196173048
-0.046622415802636506
-0.024038330294219586
-0.013185419263208055
0.00918147304746571
0.06756234186606165
-0.017515509463737
-0.03440700936242448
0.01626892336449306
0.1206174104638044
0.053387846263329784
-0.01701868853478771
-0.12120446326344646
-0.08105955979058248
-0.10433511661054022
0.01640489147087343
0.1001240909379666
0.1707020385942534
0.05038854126365941
-0.044007461391493856
-0.10136089886820628
-0.11428096590613895
-0.07754210807739005
0.011044054471722152
0.14711886367833255
0.11555062181074792
0.08855687198149971
0.028667219214210053
-0.10307118116279106
-0.13581752713460638
-0.07854820056296019
-0.11464747650159467
-0.003985197398024411
0.10764095459139768
0.07446070699818463
0.13652077874983035
0.10983935500022753
-0.016060905740932226
-0.07279553328910858
-0.10217765188802452
-0.14372352583778877
-0.02481491161279907
0.04371650646081837
0.06617413533346614
0.05650405806983394
0.03152696359417101
0.005407969615916011
-0.013268609836410787
-0.021738302524837695
-0.021435359494415523
-0.015682752515165505
-0.007720830714583009
0.0003309687016196988
0.0074918135248044195
0.013243793625499708
0.016718206322747266
0.016309391858687523
0.010089287766273606
-0.0029479555615383166
-0.021190205629728478
-0.03898736311465119
-0.04637113836441832
-0.03056752828429702
0.020654461152591123
0.11463075611063221
0.05004790452567234
0.015536630488601287
-0.008389161784379758
-0.04442425461059659
-0.11226265140336808
-0.02332826855532693
0.021704714733972823
0.031913240938771514
0.022302635981264245
0.008671081337280472
0.002770982355358921
0.008955145962344719
0.022957335544587024
0.033016878237885045
0.023180431562537268
-0.021836615684613203
-0.11140668359897957
-0.044995168712120594
-0.010982106559061048
0.01096040799398542
0.044532623088072126
0.11030402007466789
0.02030258400907492
-0.02450554990789927
-0.03322661494878533
-0.02123369159908628
-0.005041800900597929
0.0025896687375030966
-0.0037850589030957453
-0.02069480210979484
-0.036370878262942545
-0.033598746638930484
0.005547296825932158
0.0939908062672004
0.03445156915507344
0.016462482431236235
0.016850292928670248
0.003908764971822763
-0.05561441785798097
0.011613891641272349
-0.007202297319995742
-0.10642948952689495
-0.061620956748573985
-0.0340190236911383
0.020498419204683253
0.13996587379430594
0.14561385183152184
0.03544886161362642
-0.015445925834621368
-0.04774925658004077
-0.10614384862383053
-0.02667035594674544
-0.026933198634669947
-0.10179269523658402
-0.025541127859516365
0.04014647981371613
0.1347724081030213
0.08754026042859163
0.10950872184919967
-0.008098650765083775
-0.0891322834739363
-0.1634362367150701
-0.057113986965451585
0.014300725800653828
0.047868952109541035
0.050809545093269244
0.0355570458228405
0.014653169757868137
-0.0028266369593582877
-0.012653879259182392
-0.014893518014114614
-0.01219806730240354
-0.007837923949624813
-0.004167466843382693
-0.0019038987346760192
-0.00027249775985131405
0.0021790885619958475
0.006453341938752297
0.012088859670170586
0.016671924472146493
0.016172595172257602
0.006175087896372248
-0.016263542179867918
-0.05075989856295199
-0.09262150618961448
0.06653372209855145
0.03645082731209904
0.024985131544752983
0.03529050744849882
0.06468736039578503
-0.09430754670748998
-0.051283937806724564
-0.01480163195881267
0.009863189237478157
0.02137858543902659
0.02159510608065084
0.014108776379478029
0.002936636711356456
-0.008251219290101135
-0.01634935217903997
-0.01882137883825032
-0.013916910697917648
-0.0013578614192091773
0.016597998065043584
0.03418826163584486
0.041970765128302744
0.028050456872839632
-0.01916078293701444
-0.10727178112265569
-0.0366246863264978
0.0011791308806645676
0.022168428116242707
0.04667833119527775
0.09513754282836911
-0.015487716037006063
-0.07364528504306334
-0.07363886224609015
-0.015443784135142226
0.09527740133300767
0.046964989611859985
0.022593641487626038
0.0016363708275494253
-0.03634256235300633
-0.10742029444273687
-0.019936134974704804
0.026650031895845205
0.04026258836257765
0.03283164893267376
0.01646471417331874
0.0005055370257031932
-0.009824937823967749
-0.013243037424225971
-0.011202438823363723
-0.006362518711522932
-0.0012853604195344327
0.0023382272893771833
0.0038980922910278326
0.0036571137381375563
0.002346872222098828
0.0007658475806899261
-0.0004952279238739405
-0.0011618942461923446
-0.0012455898539591537
-0.0009349570792888669
-0.0004716272773356155
-5.511907129420918e-05
0.0002039517546677416
0.00028529694253860065
0.00023115369805414766
0.000108811285727816
-2.0861636326676873e-05
-0.0001206141167317987
-0.00017891605224951162
-0.00020144725583417868
-0.00019877783867142167
-0.00017665349604339172
-0.0001330071776940179
-6.2581620265117e-05
3.325372661246974e-05
0.00013648988393616976
0.00020840228272139656
0.00019658963561652542
5.4915068458932776e-05
-0.00022739280711157965
-0.0005976015947021103
-0.0009272869295129297
-0.0010314047019673548
-0.0007270718881670731
7.429027845008449e-05
0.0012678790649285668
0.002494550858084381
0.0031702534666873568
0.002643819899252255
0.00047982961555259997
-0.0032003293073676587
-0.007453656363441435
-0.01050226012886824
-0.0101255391497921
-0.004503240691989428
0.006637179305270741
0.020943556775266416
0.032978205481572286
0.03491459217270196
0.018653257187538918
-0.020951641277687436
-0.08279258414917115
-0.1577424187159102
-0.029977767753904566
0.1180847041195264
0.09854771247366804
0.11147835198629215
0.14239802575603103
-0.03422097311458143
-0.24610615028288604
-0.11226835095176016
-0.03456627178416842
0.004640562604134334
0.03779227570794131
0.10224820652659598
0.028773892996550546
0.03212977497554867
0.10653851102347141
0.027264418638119195
-0.042172997454729716
-0.1392818961989153
-0.09175961850118779
-0.11016604774439666
0.013422579232350518
0.10060400214536425
0.17797748362972696
0.06838994558958866
-0.014392866090224644
-0.06601608397725446
-0.08781700181549404
-0.08176619703095851
-0.04699858797831748
0.02031958444699494
0.12391910701307289
0.06296306447532134
0.02871012288765825
0.0042446139577889935
-0.0322914718908862
-0.10212488776568195
-0.0200448285128704
0.009542131735773045
-0.006555468576652533
-0.05266682924388732
0.09111454532002684
0.04351595919142932
0.01753527182168791
0.018104023552788357
0.042513255250204704
-0.11688740143850121
-0.06907715567717478
-0.021532763248835275
0.020585484079482918
0.05315540190772689
0.0709071108473651
0.06613546358342516
0.029750156665071786
-0.04509397882886134
-0.15807343486280942
-0.09792037612734708
-0.042293051400715945
0.03756290933043793
0.1684954543612883
0.1666457643024057
0.03196365132565809
-0.051472867861519285
-0.10951587122747221
-0.1691792604333278
-0.05098371952874714
0.03451314247125759
0.08524921943536072
0.10299501408727756
0.08863358699457762
0.040233059291277275
-0.044922461635832925
-0.1654083500663562
-0.1106656805028104
-0.059173399420829914
0.018257676916847137
0.15055970637719598
0.1567371507850152
0.0384220690217682
-0.022195687128998297
-0.05821135702421169
-0.10929147599578394
-0.011567980711203518
0.01071679650684458
-0.0501824658849525
0.014812794561010301
0.028278519438474294
0.020627927071467413
0.02372831744427508
0.06531088702530477
-0.03478289932727782
-0.06620568294013901
-0.027969728707978182
0.07267002942841484
0.021781208772477804
0.0007153689098927218
-0.011412520302700858
-0.03492589038903594
-0.08711863051994678
0.019141907809153397
0.07546527945158583
0.07716850655449477
0.022772960684333786
-0.08538171829364315
-0.0395347888449971
-0.025033827509145366
-0.02036655354315977
0.0005529850488319684
0.06409853693678778
-0.008267002329968923
-0.004665641393687222
0.07433340000148018
0.015485292690249647
-0.0044985703544898024
-0.01392217558422807
-0.039868140247091365
-0.1024463675381775
-0.011206951854026197
0.03526714049669212
0.046715130873283
0.036749887833137006
0.018368688874768606
0.0008816715372181488
-0.011110820595070542
-0.016924171539852175
-0.017973167269359852
-0.015888282684634773
-0.011340061067440248
-0.003958756836818725
0.006723848550933921
0.019797732607420942
0.03171836203044493
0.036060788081437506
0.024811272071314942
-0.008840276035752758
-0.06699772278251027
-0.14430562395355342
-0.027563649657491363
0.10139879947068199
0.06020229803353653
0.0598579339150411
0.1007683720442758
-0.027457295109244436
-0.14232719924226178
-0.06258642990871104
-0.0026435710097569773
0.030646670239134213
0.03821368978298794
0.026773454828576335
0.005955015328312913
-0.014348116990150178
-0.025949122247975513
-0.02376890897433568
-0.006963229918311276
0.020141644921229145
0.047656923387227296
0.06098416950243526
0.04356973546617461
-0.018386031922340857
-0.13025871375716908
-0.08438632574927725
-0.05884806148592616
-0.02111766564777229
0.06377116759182962
0.22295245001259598
0.06701126799458373
-0.013782536433134967
-0.04676555830841292
-0.06877756243676074
-0.11573269254893205
-0.013437742244117798
0.027698490495794956
0.013118157047674328
-0.03957741918837414
0.09322519349032687
0.03451511087676604
0.0012750906274372612
0.0015095383274938534
0.033978816974197454
-0.10992792092170361
-0.04330330437410105
0.019016909098082437
0.06240441909320675
0.07383391530086932
0.04354754030629191
-0.03243596142867149
-0.14942757969817988
-0.09236811764624195
-0.037183674508260364
0.04398967852169946
0.17489480318013575
0.16755055603298952
0.018378596687344984
-0.08997737767285158
-0.1818842708311378
-0.08015312134926189
0.0005404652846903305
0.055889772222729325
0.08992716461740903
0.11074643343545568
-0.07353946457978523
-0.05707400267574016
-0.036760824014845775
-0.012018216969662328
0.015226376091091183
0.04011397600591282
0.05464890005657731
0.04866585389579668
0.012547858968148386
-0.058652677574086834
-0.16113437484081572
-0.08042539544191357
0.00662908090236659
0.1257898981276512
0.09718437898249267
0.12823840841746692
0.010889180034609772
-0.07563101916314438
-0.15763044057457087
-0.058479798185322854
0.007791223444888133
0.038743343941364854
0.041596592159090555
0.0286976109921507
0.01247879540681588
0.0015769432338456483
-0.0010483403572991404
0.002075765670097705
0.0047653533301928366
-3.6344831498599984e-05
-0.017317201376795953
-0.04773690093264055
-0.08682941296330844
0.073875558463443
0.04404016003629936
0.031070856126291034
0.03753346320738225
0.06061173279339284
-0.10615088145866783
-0.0696880340914429
-0.03442719885919652
-0.0010239288519708278
