0
8.334764595103344e-05
8.332958878787599e-05
8.330691194323727e-05
8.32881095786152e-05
8.328469671481446e-05
8.330728781741672e-05
8.335984308195837e-05
8.343385443185365e-05
8.350530148406378e-05
8.353748541398018e-05
8.34917558534624e-05
8.334542576966789e-05
8.311221766838833e-05
8.285663411450049e-05
8.26916439969972e-05
8.275114073092796e-05
8.313610235316374e-05
8.38457225750908e-05
8.471872935880906e-05
8.54197234605287e-05
8.550340054364877e-05
8.457021305626667e-05
8.248983329943407e-05
7.962164487383581e-05
7.69218754308633e-05
7.581877683744908e-05
7.778273381888101e-05
8.362608653754346e-05
9.272084510162274e-05
0.00010247216272657756
0.00010845550000861604
0.0001055351101444656
8.998222391699842e-05
6.212931003992623e-05
2.856349582156515e-05
2.5107013223292187e-06
1.1710063958032455e-06
3.954881999789937e-05
0.00012178391137557652
0.00023280491832620344
0.00033460576031307864
0.0003716632177150949
0.00028813154771435744
5.51760790556518e-05
-0.0002991394925507563
-0.0006706580386140374
-0.0008862898188076669
-0.0007492932610809773
-0.00012247698507124237
0.0009696875325122658
0.002259420129080905
0.0032266181463869374
0.0032091442903162183
0.00164739156846714
-0.0015794107574851573
-0.0058377296200025665
-0.009613158387821081
-0.01074621174088499
-0.007128064217837068
0.0022123317091196225
0.01592399827849969
0.02955384306665234
0.03574625134528085
0.02582623418277585
-0.0072992264566351245
-0.06567448029713217
-0.14365764929359262
-0.027670776109854904
0.10080605534432557
0.05962387875537384
0.05984371990824787
0.10170597667991393
-0.02554532111639763
-0.13991621835161536
-0.06063724706732686
-0.002378548456426009
0.028194735437984363
0.03280163760702469
0.01950102343387234
-0.0005193207836044971
-0.016229544979036285
-0.01953802083515866
-0.00738542624483069
0.016942784384977767
0.043563754267503245
0.05728850984757312
0.04086715824471174
-0.019951609601427348
-0.13063785134191253
-0.08338813008554677
-0.056172943567840826
-0.01666915218392967
0.0694336357889683
0.22827338806865885
0.06950266624523681
-0.01686095019028876
-0.057100906874522135
-0.08536277334606641
-0.13347936028851207
-0.02279435745288555
0.03949611201413632
0.05902927610858117
0.04945439943414509
0.026522593100867624
0.003270529654920994
-0.01252000821742382
-0.01852213491728911
-0.0164313275602128
-0.009885055694650816
-0.00258309694074163
0.002900768571080891
0.005510562810178934
0.0054793898395424905
0.00378189964371355
0.0015567078462129015
-0.0003098353782787314
-0.001368006186217754
-0.0015849551251842693
-0.0012020526986742603
-0.0005590183830844513
4.808530433255171e-05
0.00044312610567069427
0.000580786052795255
0.0005126674901087743
0.00033562565112285267
0.00014495579091514357
5.2393484757708175e-06
-5.855091793631855e-05
-5.4349598836535946e-05
-8.501962032194201e-06
4.917328997495942e-05
9.597558893089017e-05
0.00012088619816013544
0.00012389325371307068
0.0001121706807464418
9.537289086682492e-05
8.172588794726738e-05
7.57431674693993e-05
7.765327830328688e-05
8.418402511540445e-05
9.020435384222594e-05
9.075563645054161e-05
8.3059408643638e-05
6.807604416900979e-05
5.111942503250863e-05
4.101645943577242e-05
4.749196219283471e-05
7.696919856682517e-05
0.00012777548869198795
0.00018660149871259818
0.0002285654188681663
0.00022288923182401817
0.00014465321015921998
-9.594237298320767e-06
-0.000207774698830802
-0.0003775521680971862
-0.0004186637202501887
-0.00023612648657594137
0.0002099231754251643
0.0008526624777079646
0.0014897028713311607
0.0018043208010210426
0.0014554584167435823
0.0002320994375761126
-0.001766679063413579
-0.003999905769434418
-0.0054945167661304625
-0.005075172808419232
-0.00183093925867511
0.004268734283166462
0.011816250461975281
0.01775841832235001
0.01781795250506221
0.00766179378107835
-0.01537479286433335
-0.05057479723399178
-0.09296213023169668
0.0660192978418319
0.0361567919582961
0.02521791257893542
0.03615679078321542
0.06601929563061919
-0.09296213310275024
-0.05057480003401461
-0.015374794498960787
0.007661794552704517
0.017817956587556874
0.017758425630450162
0.011816259343600439
0.004268741373521529
-0.0018309384117795023
-0.005075182200810526
-0.005494537703991207
-0.003999934653369468
-0.0017667062998087918
0.00023208820086968157
0.0014554779869927884
0.0018043794092784068
0.0014897942965562527
0.0008527607198271879
0.00020998378408459682
-0.00023615521797043442
-0.0004188194853572795
-0.0003778319375713435
-0.00020811257516398888
-9.857438387926896e-06
0.0001446377364135846
0.00022327289867451976
0.00022939082161209915
0.0001877182613300418
0.0001288023649974875
7.734795283915797e-05
4.665974764785862e-05
3.868052307505661e-05
4.755815260310893e-05
6.433327327558982e-05
8.087429839716955e-05
9.210916396925703e-05
9.648341083095432e-05
9.515310639044569e-05
9.062885352964758e-05
8.549526452941738e-05
8.157748552771255e-05
7.965056468175634e-05
7.958308884792556e-05
8.07110270747368e-05
8.224085678476365e-05
8.35455777398917e-05
8.43004724099121e-05
8.447466718587905e-05
8.423338616570537e-05
8.381345630555021e-05
8.3420308874714e-05
8.317100420010601e-05
8.308540978444433e-05
8.311276066600009e-05
8.317483915204885e-05
8.320803545371701e-05
8.319143141933687e-05
8.315407169306197e-05
8.316033615852801e-05
8.327760210121036e-05
8.353542961202939e-05
8.38900569168869e-05
8.421066312643326e-05
8.430224864908347e-05
8.397170377429387e-05
8.312795380425103e-05
8.188662329402195e-05
8.063130896797014e-05
7.997745156602856e-05
8.060122691101336e-05
8.294008588037967e-05
8.683815594613219e-05
9.127901554673745e-05
9.438785175685233e-05
9.385792190188906e-05
8.783718683251553e-05
7.610518006685368e-05
6.112863427069621e-05
4.8405369350594083e-05
4.551397058916984e-05
5.9586479895049475e-05
9.353431231607258e-05
0.00014216366713445125
0.00019003066214526748
0.00021310297416127203
0.00018561848223285952
9.177732820041804e-05
-6.0689218583510614e-05
-0.00023067074530845006
-0.00034456355486251465
-0.0003136842036076335
-6.922236340884037e-05
0.0003923117391498827
0.0009694508244698012
0.0014448509142881585
0.001525137685555296
0.0009413483330276741
-0.0004043564749924175
-0.0022911480795792557
-0.004103362063660708
-0.004904629998869635
-0.0037129299498045148
4.253188799759675e-05
0.006002494488304584
0.0125170168561864
0.01671316758714499
0.015206881060131131
0.005482286553923008
-0.012355057481657978
-0.03410315201868483
-0.051169171968241105
-0.05231831726465837
-0.027856943483868343
0.024270489308188804
0.09213687957055451
0.1458500527353852
0.13871288446528934
0.015240871077842019
-0.07456308979282084
-0.15815799619083507
-0.22634009999304447
-0.22812094879518915
-0.07865460798237615
0.11985841709463846
0.24937153196129055
0.34840002237138223
0.39587064898785773
0.11383832037766435
-0.4098387704526075
-0.4855285386999552
-0.18492296312825987
-0.11604627390721065
-0.017856257385314475
0.42577646687401066
0.359579477023688
-0.0725767649271468
-0.35251212616455546
-0.20516049772219805
-0.009746128290174863
0.3939353825828716
0.30571230781413256
0.17574219287220058
0.028547606649251725
-0.3018086166933906
-0.5336697467386972
-0.30868167088471987
0.017870481379720027
0.16300830470660985
0.28233045192210277
0.12706040392476084
0.004229211490888854
0.1500242885425651
0.32197212930546876
0.011137518480310887
-0.12870112666548422
-0.24213535330757818
-0.43405639149277897
-0.34368242093866114
0.06136811560601984
0.26975530154285404
0.3963649887478848
0.3492178654339917
0.005057055000204383
-0.19973440406299878
-0.2635891585424695
-0.20608805779219608
-0.054280630272171074
0.16554154276061459
0.22985336580530788
0.11675511031159086
0.005705265529641401
-0.1199005389921986
-0.2687332988052181
-0.2399794826437425
-0.027903016218240526
0.16687321551768536
0.3233296083125887
0.3908186745791431
0.29246100737545316
-0.05504120354489038
-0.5086017064906229
-0.4638353599093603
-0.43278712688277965
-0.24670353185916913
0.11208049346998987
0.656168806053774
0.5334629175909885
0.38191479750598184
0.11469559127152382
-0.05848106894990278
-0.3803846934246217
-0.4816951963775568
-0.5227840134126788
-0.15916710914513513
0.06024458227359575
0.2639490159400259
0.40941402466043
0.4323847775629391
0.21014139134755525
-0.05122285185541154
-0.20447489306499322
-0.3314419928672465
-0.308404844115093
-0.1794033522210042
0.054300789520208476
0.22727071611395377
0.19065198880109357
0.1895322510992851
0.04556184050685115
-0.04991006305778146
-0.13154871403717464
-0.047762103840510065
-0.045359812036803324
0.044305655582118846
0.014730528119176982
-0.11220145824926693
-0.08892511171410943
-0.05091810687695916
0.0697026899535078
0.12834242349168365
0.15390844153517388
0.14100332480896388
0.05131966863129389
-0.17568362992464007
-0.20611235409740372
-0.0945968514144097
-0.07255640875740196
0.05489844427594874
0.10361463571573469
0.09978525197222246
0.06859403163624275
0.026077857111718408
-0.02369455304503086
-0.08625612786025465
0.028973708053594532
-0.08479793905665088
-0.026713781704159743
0.013845168128630934
0.05609705751312831
-0.07598916454084927
0.040952055060731525
0.024178143293438613
0.08048272401451237
0.0041012138230861524
-0.022489906922258614
-0.02508206919658068
-0.0326143812627288
-0.07190994421463805
0.03646101500387725
0.08063164078824638
0.05845395156612838
-0.02229477456065914
-0.14428600890775595
-0.0822076360740759
-0.006516937999828089
0.11039399728569818
0.08699181236667651
0.1270155393901913
0.01812049940337737
-0.06417430745960644
-0.14842596283503917
-0.05810760332451567
-0.00479062001731094
0.0140192477145119
0.012025418773727363
0.00759864809031386
0.01576241628075043
0.04105888246378082
0.07338454704920364
0.08836453217442393
0.05295666834445939
-0.06439007973656714
-0.0814081098212946
-0.19137529011308937
-0.15846097545856513
-0.12213081238626339
0.1891705107679409
0.2385424214267102
0.26181589482639767
0.05637220732456015
-0.01810506740315615
-0.2273956555987735
-0.24399990325843102
-0.12899797715189293
0.07952450853533247
0.1691860152740332
0.14897019730027247
0.04198382597700005
-0.12097962973520295
-0.1057132508022374
-0.07769359355377752
-0.00575114904170913
0.1329970616204526
0.1481224826025375
0.03313765159807599
-0.03299689043189544
-0.07996124474556648
-0.13772961092779798
-0.02887284134181277
0.03587756307491249
0.057855917118943764
0.04736386855585861
0.019149940460529813
-0.011760571108969962
-0.03299612536179309
-0.0365863299617799
-0.020073873013030295
0.01258151671390871
0.050435684948173236
0.07606048578455224
0.06805208293256462
0.0059977718219581125
-0.12281772247728896
-0.11707206937669423
-0.15831906550084673
-0.013462611065284385
0.15697207445109987
0.18727905589035343
0.09618931115110421
0.08203100647961807
-0.0744980263164675
-0.20123066060010927
-0.12313455296592443
-0.053489137773496814
0.008915097223677601
0.07599660223881705
0.16234790116791295
0.0768626619551907
0.01770430011979785
-0.027501997624399414
-0.0768316663581279
-0.14714994420645955
-0.04841672836118795
0.01827667705226185
0.0582933126519609
0.07810404682127979
0.07977629379444909
0.0580739222199121
0.0017583474516337087
-0.10114457095277792
-0.05609914230229398
-0.055810208512488406
-0.07775860717232373
-0.0870596456776392
0.15566375516853673
0.0836013285056885
0.1138066890416324
0.041588197298113395
0.04141180687384022
-0.12589382203375182
-0.10214903922274116
-0.1208898730328865
-0.00012156250543839779
0.05927415476818217
0.06985211975143968
0.05088630728143634
0.02148238306766867
-0.004277253112615578
-0.01925938614839918
-0.02260974292363074
-0.017538079367757087
-0.008742329710078416
-0.00036261810374857396
0.00511665099434361
0.007035541959090216
0.006093062683550865
0.003628163780481314
0.0009655251487164163
-0.0009934453208195063
-0.001896978697227642
-0.0018511991624430711
-0.0012190927044390082
-0.00041309604639187304
0.0002516222151407797
0.0006196965212753741
0.0006853160265061747
0.0005391107280946969
0.00030447326398505743
8.705115293595445e-05
-5.167841367658194e-05
-9.735582196187541e-05
-6.991175523105245e-05
-4.758518450450862e-06
6.393836452124054e-05
0.00011345600455833313
0.00013539731502918006
0.00013304813575726115
0.00011606194155896229
9.511105794200183e-05
7.81845735513189e-05
6.90825872041269e-05
6.776969321284209e-05
7.17946531858294e-05
7.794199560794085e-05
8.351535439784058e-05
8.698761685316302e-05
8.804769467033867e-05
8.725093056112221e-05
8.552772180427692e-05
8.375565578365855e-05
8.250525101128864e-05
8.197482947157682e-05
8.206536814375679e-05
8.25205801774115e-05
8.306458853673465e-05
8.349514617248124e-05
8.371966034370808e-05
8.374379360917333e-05
8.363361273795553e-05
8.347280329207788e-05
8.333010364666665e-05
8.324336014313862e-05
8.321907108567067e-05
8.324187332313966e-05
8.328736173374496e-05
8.333302012601955e-05
8.336454862756194e-05
8.337730521268146e-05
8.337420625131304e-05
8.3362041205412e-05
8.334793306606275e-05
8.333699473186657e-05
8.333147290643045e-05
8.333110016138409e-05
8.333410167043906e-05
8.333830225402658e-05
8.334195168975561e-05
8.334411440599467e-05
8.334466202738528e-05
8.334401695379912e-05
8.334281836699424e-05
8.33416433017822e-05
8.33408495357021e-05
8.334054454903878e-05
8.334064393367502e-05
8.334096818660783e-05
8.334133360855033e-05
8.334161112827415e-05
8.334174648929582e-05
8.334174969380739e-05
8.334166828526494e-05
8.33415587352207e-05
8.334146555218488e-05
8.334141179091376e-05
8.334139973586415e-05
8.334141781166829e-05
8.334144928220259e-05
8.33414793718019e-05
8.33414991685011e-05
8.334150627126322e-05
8.334150316790642e-05
8.334149467211927e-05
8.3341485553192e-05
8.334147902068075e-05
8.3341476227374e-05
8.334147659132074e-05
8.334147856929595e-05
8.334148051364932e-05
8.334148134288561e-05
8.334148088254586e-05
8.334147984096382e-05
8.334147946104689e-05
8.334148094519198e-05
8.334148480248205e-05
8.334149031950327e-05
8.334149538954831e-05
8.334149691086018e-05
8.33414918421105e-05
8.334147876748116e-05
8.334145951301558e-05
8.334144007578274e-05
8.334143003566379e-05
8.33414398760847e-05
8.334147632624009e-05
8.334153686873937e-05
8.334160562716238e-05
8.334165345278434e-05
8.334164459895627e-05
8.334155051479899e-05
8.334136809290394e-05
8.334113596550731e-05
8.334093968789925e-05
8.3340896806473e-05
8.33411174957117e-05
8.334164598257186e-05
8.334240047334367e-05
8.334314031818885e-05
8.33434924041887e-05
8.334305814755343e-05
8.334159513937065e-05
8.333922725783342e-05
8.33365962227957e-05
8.333484591529949e-05
8.333535012146074e-05
8.333916894916694e-05
8.33463443187574e-05
8.33552883163865e-05
8.33626197411415e-05
8.336378954400733e-05
8.33546448280587e-05
8.333370541172489e-05
8.330444461641525e-05
8.327645271621295e-05
8.326426114259246e-05
8.328304912751107e-05
8.334153910105274e-05
8.343395038887255e-05
8.353442998394499e-05
8.359814278184399e-05
8.357234935051368e-05
8.341780897958835e-05
8.313595330357689e-05
8.279178825550076e-05
8.25187584358632e-05
8.249270707282059e-05
8.286982670923226e-05
8.369827876552229e-05
8.483175408911908e-05
8.588870005658925e-05
8.630381414808287e-05
8.549998133050708e-05
8.31658306534805e-05
7.956343071178409e-05
7.57319795120201e-05
7.342673856794741e-05
7.466963321926244e-05
8.090759075460763e-05
9.196572184618695e-05
0.00010519215770184
0.00011532722612344542
0.00011558186785161267
0.00010009571009980869
6.736420792699076e-05
2.3508368457567916e-05
-1.6315700750135607e-05
-3.0141792583901283e-05
3.933729952665171e-06
9.692085671438728e-05
0.00023718650617142716
0.0003830438754291372
0.0004658507898580881
0.00040818962118036094
0.00015692308340963787
-0.0002765296715686504
-0.0007843524372514932
-0.0011595088111856226
-0.0011401569398121348
-0.0005068039671670732
0.0007851214119805652
0.0024821504959805234
0.0039854299632980095
0.004446698305452754
0.0030437678383803336
-0.0005958015419160742
-0.00594569970189
-0.011314277950076404
-0.014001487261764905
-0.01105752970823046
-0.0006399351860325791
0.016309591544996213
0.034629854038913166
0.04445700609597768
0.032267901057498084
-0.01648220366692564
-0.11384770927927605
-0.0664519374654333
-0.07470084180548175
0.06508528946394003
0.15644317155229936
0.19876727684798462
-0.013803492465683645
-0.08940888939143453
-0.23288328216890622
-0.24133715356010585
-0.10485153806616734
0.1863289961719656
0.4310048536588109
0.4091549260095579
0.08380013183379194
-0.5848363356618953
-0.21724297217943425
-0.1943552485661335
-0.2490548278461906
0.12567450191748775
0.6542621220816954
0.04980820309825114
-0.21117165201342802
-0.10366502036728799
-0.05687118237069437
0.25388100230503924
0.524310729825142
0.046283074391750285
-0.46210468605466165
-0.42892095330294494
-0.814937447410113
-0.5252413348162525
0.35107028054795814
1.283326966809951
1.4466129924585682
0.1005755131183121
-0.38378796113713054
-0.6537233659886268
-1.0857380875338747
-1.1126080463031254
0.4047304772916895
0.34889628103482667
0.27087664766316205
0.49294327134582255
0.4194609841839071
0.48048742431773434
0.32270884122191484
0.049695255907186
-0.49940745846688867
-0.8545670479642433
-0.8305391945764852
-0.2786471713718787
0.11165701567771665
0.5646943354408228
0.7428814886301536
0.6705364020339335
0.08180961056842075
-0.19395654499184137
-0.4112382215674376
-0.4659717013664702
-0.4513217493109471
-0.028159100230852982
0.18187204427183828
0.38325035250673994
0.38390789569668726
0.1759043379402718
-0.07111216737013688
-0.201392021425481
-0.25454877283421146
-0.24626006778411774
-0.15725458348332744
0.06434868801646301
0.2880847949260092
0.17953251456923225
0.18053813057117069
0.09861342955429596
-0.0912422918948743
-0.23412515187450245
-0.17801999300998902
-0.15899332721608464
0.005697937767654163
0.11496588507699088
0.17442961041771593
0.18572286656176237
0.14047617634151735
0.022598738550607046
-0.18144869326913843
-0.26875248869434915
-0.20924447274791672
-0.1446097608884676
0.00025556390942664574
0.29557887702779123
0.3821263808203839
0.25337521831565
0.05249829892521364
-0.1131849944756294
-0.34463660709638183
-0.3202090834974722
-0.2727404500005171
0.017165223370574058
0.20990963561752654
0.38303858483212644
0.2047119272636813
0.11468108290311861
-0.08116294514753278
-0.20286248720555625
-0.2807129313162769
-0.13985029350943962
0.008189771912268273
0.16433000648098534
0.1333774206660294
0.11333619501206654
0.08828849954975267
0.028418102245438837
-0.10251436916030222
-0.13500312891323993
-0.08157310480794491
-0.1292631633998226
-0.03996345048110831
0.04098718705796133
0.17048257152975474
0.19235244229686616
0.1264257108887332
-0.03421287483303974
-0.11715591649321448
-0.15874676465739365
-0.191480027252617
-0.035777082342536445
0.1012161795409567
0.22065819138514992
0.12457583788556367
0.010394515401943749
-0.12988804372084947
-0.10625264448002221
-0.12571034808625442
0.010947523519862293
0.10905028198863716
0.17729769130819292
0.024682939512405716
-0.14069003426218687
0.08967298839728481
-0.2729691250634558
-0.013371200731719879
0.08617578216964165
0.24174248213202235
-0.1369910417903774
0.15031195344096304
-0.10517614097165294
-0.11864737885425354
-0.1080370018294902
0.10858154811921149
0.1139239538539223
0.09168190310684472
0.027661536714546443
-0.08725402634961169
-0.25329800588925466
-0.05962152519972837
0.11401086610216776
0.0913141806303829
0.0915738110073412
0.12327424031154907
-0.017878009966504647
-0.14582536566502396
-0.07758784666203251
-0.02633099683694859
0.0030325050125412233
0.01430364448028693
0.016892765237839037
0.020713473448446644
0.031031836460850854
0.04504594308626557
0.051449210805381486
0.033458500399713466
-0.025218980338364727
-0.13313423592598989
-0.08510564067289784
-0.060139565111620365
-0.02486668994040466
0.05788320812251668
0.21788242691017948
0.06754526403137327
-0.003089061893635867
-0.024488201290244947
-0.03949861406345234
-0.09169536388149459
-0.01379955365634708
-0.019364932295981248
-0.09978465023335902
-0.02724859473484431
0.037145166023085985
0.13228517235524356
0.08617522131074605
0.10873304006758493
-0.009394494671390089
-0.09181973915120846
-0.1673947907435385
-0.06085000583168958
0.013415504682891946
0.052639878636751014
0.06267696341509048
0.05288939921041392
0.03154177390491835
0.0034685378921427775
-0.02956001095295586
-0.06662634631201621
-0.10521518515839355
0.05990471644327145
0.035725970569381676
0.02845689928992599
0.04076871898284367
0.0702970794916449
-0.08982789139026236
-0.04867055697157758
-0.014492239021140281
0.007611801607820608
0.016619434374497432
0.015029506343214614
0.007425351443022997
-0.0011591757386188411
-0.006597573298607204
-0.006568839095978831
-0.0010046372397968018
0.007865872736919412
0.015889557558516502
0.017859269228943302
0.008909745391904303
-0.013740060827730768
-0.04919259642190233
-0.09216222918060606
0.06620039728305256
0.035875039464007934
0.024701862341476515
0.03561579615378546
0.06559900364655673
-0.09318279630915514
-0.05056573473835105
-0.015138630426998374
0.008089852545450242
0.01835465226193509
0.018255906663153645
0.012067041952245651
0.004051966226963962
-0.0026574356481340656
-0.006457502710620354
-0.00708761973033984
-0.005159228561268806
-0.0016845104995380088
0.0022273630497530073
0.005490290699402014
0.007080544334733526
0.0061404461864312705
0.0022431389171741678
-0.004205873216471942
-0.011602178161836039
-0.017091095714241212
-0.01711290169020861
-0.008673249646813697
0.008836552169787333
0.031824850183188015
0.051552163566409
0.05495092493274424
0.027717794535925464
-0.04067462126688518
-0.15150627180401477
-0.09317942582308343
-0.041655708624870336
0.034146007328154634
0.16328180283295526
0.16329839182534825
0.034190705158928886
-0.04159766040975804
-0.09313061459365043
-0.1514926744172083
-0.04071774027881263
0.027611559842423347
0.054800690498896854
0.05140758079936934
0.031759828014214106
0.00892776471014494
-0.008381714874278995
-0.01664962792700793
-0.016585221598347365
-0.011278203829247234
-0.004328632072192147
0.0014752554452204928
0.0047314735032569786
0.00535204269440349
0.004106590759785678
0.002066177325265647
0.0001576968706601881
-0.0010727963525245913
-0.0014908457008146168
-0.001264548686451203
-0.0007011221547158659
-0.00010005731870008503
0.0003374126687591284
0.0005349694795418398
0.0005191301414463043
0.0003732116904941168
0.00019049149767199288
4.1463932198237594e-05
-3.977358851739053e-05
-5.2785431648198945e-05
-1.8570682293710388e-05
3.485717240305397e-05
8.378174002070654e-05
0.00011460096766235565
0.00012435401347764266
0.00011773641136657957
0.00010282399465242454
8.731319268872096e-05
7.626042839947017e-05
7.147496858732001e-05
7.214730265011046e-05
7.606334357841739e-05
8.081068270762232e-05
8.460367569626493e-05
8.661006546444376e-05
8.686035888979382e-05
8.592145424875282e-05
8.45228721913974e-05
8.326954779213921e-05
8.249895187718491e-05
8.227408828699977e-05
8.246464875705463e-05
8.285864240408098e-05
8.325849877542711e-05
8.353737934071315e-05
8.365275194322553e-05
8.3628690970654e-05
8.352390829151175e-05
8.340072423796725e-05
8.330430904687764e-05
8.325489593688043e-05
8.325063012508455e-05
8.327625935852758e-05
8.331281076723805e-05
8.334487429551204e-05
8.33641003743531e-05
8.336921116668801e-05
8.336380183990133e-05
8.335342872534444e-05
8.334315416165743e-05
8.333614632358835e-05
8.333338425494784e-05
8.333415570719044e-05
8.333690287213474e-05
8.334002523345466e-05
8.334240406464489e-05
8.33435843031498e-05
8.334367814522047e-05
8.334311731360228e-05
8.334238328371755e-05
8.33418086882955e-05
8.334149337454e-05
8.334133364707334e-05
8.334113205636472e-05
8.334073873084868e-05
8.33401710011744e-05
8.333966359320546e-05
8.33396170386555e-05
8.334043874603233e-05
8.334230918327249e-05
8.334494886115972e-05
8.334749620768377e-05
8.334861151751539e-05
8.334687789379286e-05
8.33414679124961e-05
8.3332899433949e-05
8.332356067154312e-05
8.331761437185969e-05
8.331997077653423e-05
8.333429712926917e-05
8.33604864799049e-05
8.339251936480444e-05
8.341799955948017e-05
8.342056352455593e-05
8.338564338901074e-05
8.330868945476061e-05
8.320322751733289e-05
8.310468447371605e-05
8.306564091605733e-05
8.313987451073959e-05
8.335655185695206e-05
8.369156947917268e-05
8.404851288510157e-05
8.426419997254637e-05
8.415034633686678e-05
8.35717852627834e-05
8.254391159096443e-05
8.13124854563076e-05
8.03662282818814e-05
8.033699405401865e-05
8.177145854419446e-05
8.481226728918372e-05
8.8893225552111e-05
9.260689667924325e-05
9.390993000332291e-05
9.07609576159146e-05
8.212776910583331e-05
6.908175039182134e-05
5.5490877884076196e-05
4.773673692693885e-05
5.3028536821396656e-05
7.633066073405136e-05
0.00011661316381418352
0.00016388006172211162
0.00019889137681165103
0.00019727945971871038
0.00013858155086733204
1.8590683640034688e-05
-0.00013913580439870344
-0.00027877080404609816
-0.0003210003420649161
-0.0001884797524061387
0.00015490405392527858
0.0006622993465355938
0.0011788175118079467
0.001455148806316738
0.0012156132331516824
0.0002787119967288478
-0.0012987410454491843
-0.003111215254673942
-0.004401697332296927
-0.004230263138749318
-0.0018301172502944417
0.0029159423607835653
0.009044108905831577
0.01436262587931871
0.01582731961420877
0.01055719049785718
-0.0026426456364213157
-0.021717833045297067
-0.04053529041447801
-0.04967936974652023
-0.03953756804010075
-0.005689261706065885
0.04437528069806524
0.0852119940714267
0.0707093302311861
0.13720744096567916
0.013825358333483377
0.039401743463820006
-0.016933651970103977
-0.13676222851165865
-0.44158954481894375
-0.5967939165080197
0.16590699254285035
1.0096885263279205
-0.5527808805490506
0.9028197479992425
-0.30520055755333225
0.2441619136921487
-0.491665820737896
0.8326218509034675
-0.9913221960949165
0.5280010342407704
-0.7814766973735275
-0.7462052343426705
-0.07158847233498813
0.6012261333086131
0.6184545533853795
0.6374792418223375
-0.02668318525776979
-0.018192875146745127
-0.31917372327236704
-0.2003533188214394
-0.15891693247053465
0.3415359528617385
-0.282026660396374
-0.30489703912332206
-0.2911584844362187
-0.3153070721314815
0.19394137830825947
0.5970309048204523
0.789647653272855
0.36883278762110655
-0.1689309907705113
-0.7973397792344791
-0.509740918926746
-0.06706742063552922
0.24005414580943565
0.4087702734348607
0.3240796540730815
-0.25179238459612874
-0.4967321349386476
-0.5539956181601331
-0.16890687937507004
0.46326165381437917
0.8468711261253348
0.549037301818311
0.1928925934829856
-0.11078686458000496
-0.4990677669049378
-0.6773525365804092
-0.44841503278884054
-0.07041803408604431
0.14576352974042076
0.20227399848987046
0.15562202008236345
0.25089495490045505
0.2653875175590187
0.27394089577908215
0.04220357478952931
-0.15289823607949252
-0.2828689678998913
-0.31963831719232655
-0.19302221702916625
0.03622754840026876
0.18357300983805372
0.13005085661938495
-0.00012809277772689274
-0.06699198572895852
-0.14212630980992966
0.06727677871332874
0.20012967788391936
0.2318864274430961
0.07681983124233435
0.003600538646863258
-0.13787147453782864
-0.28429761366971423
-0.12965880499314958
-0.10641312943462788
0.01830118586488161
0.13152541674833468
0.15257189013161843
0.006734842705428859
0.0008899737039740622
0.005431644300092648
0.044754931815789045
0.09682841043241491
0.10138563772479774
-0.02472466162711609
-0.16792359080881047
-0.19851518573663032
-0.1567614634413966
-0.04850236198597855
0.1487328885956969
0.27212431599351034
0.15834385450151106
0.03282901659297448
-0.09300025899890556
-0.21727492560551578
-0.14004221225861116
-0.05746861702983763
0.038908123318473986
0.15801615817608614
0.3033866399524441
0.06999192596580377
-0.15324039513804413
-0.17571880967096515
-0.19631614672334274
-0.19876708526212863
0.04496116548824902
0.3636203845159308
0.17245192951864194
0.06236815167651015
-0.0021837876956390142
-0.07537297462287972
-0.21513356334509723
-0.06681892184625003
-0.050902317549398834
0.04174883101759366
0.04641466556201672
0.014767899566452317
0.00197626205008368
0.05388289166294534
-0.0030987788229792017
0.03252378050653741
0.1376169868748248
0.07085452573892267
-0.015504050769767345
-0.16090111301512272
-0.18296638262044376
-0.27013591475585746
0.01581563608810531
0.12685309776051226
0.3092319905624247
0.18469490393231996
0.13986867490018415
-0.0715747511582088
-0.11444953558457355
-0.2504921890860873
-0.11745834666467071
-0.11615041604362163
-0.009591372105914452
0.06572656773878242
0.1805617286700548
0.1921130550600277
0.12845592698455735
-0.017001016417178976
-0.07988053663172447
-0.11073543113157804
-0.15781086151022264
-0.05249483259435628
-0.0017542599254019918
0.010855632156052133
0.01680330973422224
0.04998421436338782
0.13393691931267535
0.0727344842282653
0.048380340521075926
0.025723640533948683
-0.03636507467730298
-0.1709391772281545
-0.1907240706894787
-0.08225256402501673
-0.009153792880414992
0.07584606181343173
0.21410027697625225
0.22551561514012797
0.10042749103471302
0.002509624479191765
-0.11780393287848114
-0.3041512964861832
-0.17663856902710226
-0.12276395217625692
0.09941434284159893
0.14702006319931424
0.27254199482105884
0.10597607318320619
0.045286246681506895
-0.14207516658829783
-0.10817891390975116
-0.10886292591187412
0.01132659078225974
0.029414427027540165
-0.052256461552440875
-0.008552618510817706
0.001063518403779926
0.022265934114701555
0.09505003412797082
0.04485991693037504
0.07781178316798036
-0.01884524413168427
-0.07141222144717001
-0.11146578658563112
0.03262305070480655
-0.05814310463393122
0.009093188188765101
0.03787803055758883
0.0387542189161253
0.024670831510176863
0.0070322472996338856
-0.0066434156354627585
-0.013250038534762639
-0.013223058521669679
-0.008989620053846965
-0.003426102147972764
0.0012269985334120164
0.0038384705803198166
0.004333556990953945
0.0033287304019626296
0.001684491119406105
0.0001464171955569818
-0.0008458424173299886
-0.0011837678092039955
-0.0010024674280153946
-0.0005492198474580764
-6.524381538340214e-05
0.00028726230550207344
0.00044666714944265854
0.00043419122775824554
0.00031686623221262745
0.0001698113536027604
4.983681960177069e-05
-1.555632209512547e-05
-2.6003616540472445e-05
1.5574309440685014e-06
4.451143652863452e-05
8.370639368628714e-05
0.00010818080323286222
0.00011562392987933187
0.00010998148385539148
9.797802138916827e-05
8.600663134002147e-05
7.819219558469231e-05
7.579130786484343e-05
7.764989909111692e-05
8.125479030826802e-05
8.39345562864485e-05
8.388562834232698e-05
8.0827249776612e-05
7.61750550570628e-05
7.267374995792265e-05
7.348860764576354e-05
8.087134932372665e-05
9.470308865241365e-05
0.00011143012142310365
0.00012404028340835742
0.0001236399701037098
0.00010277663483365817
5.9908302619848976e-05
3.521752086290024e-06
-4.629948254198708e-05
-6.108893817103302e-05
-1.3178339099799484e-05
0.00011020975108172133
0.00029204111939593264
0.00047658234769486923
0.0005744205061650979
0.0004869852033433877
0.00014980862531218896
-0.0004159160135909825
-0.001064064203221735
-0.0015230753858665837
-0.0014569499214596004
-0.0005933613968522471
0.001105337740505692
0.0032876658488293826
0.005160951273210706
0.005626894802671661
0.0036470018173588637
-0.0012087449635830832
-0.008194384208452228
-0.015071851168504315
-0.018351827846855347
-0.01430504101782308
-0.0007110977101915684
0.02105416391128705
0.04436371575160079
0.05708364243090333
0.04350884256825341
-0.011372351022532484
-0.11618044207737525
-0.06792206450009575
-0.04954149688760881
-0.031894316697505164
0.019761415002583417
0.1364707614576411
0.13651515348274942
0.019831581450899
-0.03195696098119241
-0.04990810535237937
-0.06866551445182546
-0.11717591085145228
-0.012256911580239074
0.043274550452626334
0.0580324265158323
0.0467429965374587
0.024534568122466315
0.0027950413904412126
-0.01249020064509268
-0.02010441178166685
-0.02158649107151472
-0.01899309403668052
-0.013401760963779066
-0.004666395134468344
0.007613848224640011
0.022450279868586692
0.03601014472067236
0.04127148717038199
0.02941803581513005
-0.0070313228811317826
-0.07022447716682319
-0.153758545516137
-0.04212953843338297
0.08599562952482828
0.051168393245673245
0.06544596188983427
0.1266430609855869
0.017055976372002322
-0.09246682658469804
-0.034237975018374736
-0.033929694776020695
-0.10246594398574464
-0.032178374560184186
0.0015782172884330242
