0
0.04397647451518169
1.1095086101056526
1.3682584601045535
0.3647496732978101
-0.4380476917075784
-0.8523475260435363
-0.7375254779836721
-0.17140071281419753
0.16226255690415367
0.3663221392820201
0.5127073885566737
0.6315412559558466
0.32196510101557935
-0.009273609978080586
-0.4881718487553654
-1.1115264861791823
-0.7078755998445936
-0.5433928940730675
0.018419497230060675
0.8137763314643693
1.5611890976016587
0.9677397768338242
0.0923821004142601
-0.4191440629058617
-0.6384388010960736
-0.8287754792688579
-0.9285180433293136
-0.07626802187345069
0.40561538193818586
0.37163940693966796
0.17564857005165893
0.17921664435423315
0.0677787293350687
0.18961509328233456
-0.07420438313628
0.09364940631949739
0.3822471268864029
0.41516948637609585
-0.16765570244966324
-0.6221807564476713
-0.625194397821872
-0.6331949841721872
-0.49202773528824
-0.1023473032010567
0.6700469032966501
1.065061651794304
0.9151038086088015
0.38045662501737926
-0.24776665861459177
-0.27851324940964667
-0.5059350530424935
-0.47998254786315925
-0.594221527836638
-0.2150678846187329
-0.06430964104361733
0.34696959425173507
0.4468359797267633
0.514024575552475
-0.00658733778535411
-0.16972134927668675
-0.570932106675855
-0.1650924342447934
0.1340084401472618
1.072608814185057
1.4991392656139912
-0.36588889960254883
-1.4377727143679153
-1.0754844524235867
-1.0237120034206788
-1.2194560973461985
0.9273135042862648
1.7986539157785661
1.6238300901438545
0.5777531559814255
0.1622125525707171
-0.32069655348744047
-0.8262391458678972
-1.601436345997535
-0.8480159150757739
-0.2557443147749491
-0.025552949526430804
0.22546230516355983
0.908298698984701
1.0995917238033723
1.2171428068246568
0.1668907011570168
-0.6262104421197476
-0.7158959073847493
-0.4932001353860928
-0.6455590624895083
-0.04981288587232677
0.08184486081863179
0.5995557005829383
-0.23467138361329828
-0.8322750829237153
-0.38502499330564216
0.6197240151867245
1.092686757564335
0.6685468893001293
0.6879128473912904
0.4488114361230479
-0.27788123889563904
-1.6956247423826731
-1.4338709977692359
-0.848872350071247
-0.20457586077177178
1.0628013901333548
2.8228218796188864
-1.0836702894871881
0.2514489803450258
0.553696559513621
-0.8301710856229156
-2.0911583108989267
2.0988879752189407
0.4440482505366494
-0.3250590787702138
-0.20672507060184256
-0.8926028549178173
-0.35064297531741223
-0.036483503725546
0.06486994928052639
0.5772890739694814
1.471415773733447
0.22407538766710414
-0.5863879579369765
-0.6496976930852361
-0.6747518673283237
-0.7460087624692231
0.29649412815650666
0.8494283327785228
0.7219475723430109
0.5143122142599259
1.0153420767282608
-2.1789865026070276
-1.6406254303673475
-0.7034737243109148
0.3041356301883213
0.5916952015247455
3.634823322521293
2.146874394726349
-0.06776929473442991
-1.9757151165825124
-4.136986991155058
-2.7673992120788173
-0.5170895208516313
1.4038106912185357
3.1880106080922745
3.972600742757536
2.0645442954906135
-0.07731058642839525
-3.8978169394480053
-3.50337348753462
-2.0268753778175648
-1.0940266312073488
2.169867922618964
8.023560705796786
-2.6373178716666197
-1.1801251177148968
-0.25529672391173047
-1.7598964938841128
-4.195591711353139
4.938104132370279
1.107621796861994
0.09215906402402599
-0.04764934835586673
-0.35557458675335263
-0.7241595179597916
0.17934433810833297
-0.2212119256820332
-0.9738611556965344
-0.8015627630687382
0.0538986285971574
1.3592443827600047
3.414101156727471
-2.1954990164121613
-0.5928769245150192
0.2419436321180142
-0.05036128989247554
-1.9356909851578143
1.4595171565428677
0.15732779020438328
-0.499098015800357
-0.7017258642231554
-0.2529159952080963
1.3512556159062874
0.6450432872187966
0.34404874081926323
-0.660619813644391
-0.6609032661954934
0.748170921213196
1.9722587886233995
-1.8693782324047605
-0.6382546838184405
-0.5013633109993513
-1.1128057950359678
-1.8707741145939578
1.9516948731214367
1.629115894730978
1.4074473832761272
0.5837197690874015
-0.32064612928442404
-0.2864207301363741
-0.44761432564835996
-0.9100243201999465
-0.5838244228455206
-0.6687155661123976
-0.21486916824771055
0.23593919501404906
0.3430100803499419
0.22103800775309493
0.8902281646571514
0.5547183224821766
-0.4664634511986233
0.45576880663102165
2.91787024144539
-3.811876948369025
-1.669250520830756
0.5131754302830056
0.6640798650204904
-2.728979223596538
3.733277175344563
1.9039159178304994
0.05907031693787282
-0.680700403972233
0.11900931493954739
-1.7118030084084226
-3.106927300961638
-2.613850889500379
-0.15714180774976375
5.5080502878820115
2.9277956403291734
1.5709928770952422
1.0271336297110198
-0.7946014650728825
-4.913096645906339
-0.07029103287638791
0.21336202663716078
-4.164841363805856
0.11693913836935818
1.6302345118138961
1.4907221352520477
2.0046834605349733
4.358981921941496
-2.1760404844449517
-4.50834123649778
-2.87922040990353
1.634579273891421
8.236586525184428
1.9519099738434167
-5.779941956651065
-2.6697155548213694
-2.3682909025725976
-4.773639052291435
2.4912909383956965
8.653669108115992
2.714684189962831
-1.3591313234180307
-3.3032643896519884
-2.6912272613801274
-0.8128822606650878
0.6252508914896924
2.138522325981634
1.0508828382605457
-0.13534345649233023
-1.1570385330203214
-0.9882250116919187
-1.030339163649168
1.0914479292424022
1.9264217895253093
1.6086406583126807
0.300912988944452
-1.7228366539445683
-2.3819589795539833
-1.9289163160593477
-0.9724169707541894
0.5977050507486021
2.6111049120060525
3.210796900615886
4.122922529230202
-3.1371312114844385
-2.3163599046277126
-1.5898489447815551
-1.932944144823943
-3.183557298805223
4.166252754634875
2.466702058879163
0.9555921721280778
0.024222769650508878
-0.45033185491354677
-1.7041427248603747
-1.0474469381191087
-0.4277111102616002
0.7785933000151516
0.5433691942701825
1.353231362461384
0.993200828608072
-0.6316518799774261
-1.4354945827856014
-0.47176851049590757
-0.26456756470892734
-0.1768157289311519
0.5756109181237646
0.07166744860307775
0.012904760111074474
0.2515095570387977
0.5358369466624913
0.08544559888500775
0.6014593098033375
0.11035768489035314
-0.9699824352565455
-1.1620086826090517
-0.28214444156663215
-0.23545032097214413
0.14431939454768447
1.4231934312983614
0.8912502038803446
0.1120709841381122
-0.2836697222890339
-0.5599089554042502
-1.0086310981287252
0.12118991440829677
0.8796863007167075
-0.1511048149179882
0.15357548924550804
0.05377434484802898
-1.0809290514525431
-1.219767816827168
0.25523260867106023
0.8560853596917071
1.8979649878606524
1.0431310140230363
0.10849826623872982
-0.8550514829320326
-1.4321380550181102
-1.7031615691760522
-0.14047457306102282
1.2313936360898232
1.2110075676509946
-0.0466645290248173
-0.5101469462582611
-0.5457777640174033
-0.5817065630153322
0.4371915759615168
1.4067903156698565
0.8449940301680298
-0.08999938415705269
-0.7411783673399153
-1.2679888911973674
-0.7629044185652486
0.0031624315130021376
0.9930825189111816
0.879515164411415
0.6044268548110958
-0.8581774831963416
-0.9285248653728692
-0.8424133560402794
0.12158913061708984
0.40671604405523154
2.347650407279094
2.969645620928734
-2.763286899804591
-2.25559530503598
-0.9786890356383415
-1.0120310594986184
-1.2630925043554506
3.634806134373687
2.185854559570964
0.7151059878325929
-1.0788442051725136
-1.487015721662127
-0.4926622582794499
1.143351924285836
-1.8243900901413053
0.12339062444136281
0.2694901218983066
0.013622555711713256
-1.2050245232720407
2.2058028006003574
1.1217641975271042
0.4734964292142052
-0.5262079644697085
-0.7052167310056059
-1.032069093556538
-0.9315337983504699
-0.8492098675720221
0.319306717613422
0.9432589816907476
1.5459920815284338
0.9101285876081449
0.4347188711698143
-0.44029284775514316
-1.154373819611854
-1.525892932041319
-0.8729809147072178
0.012234824276087661
0.8280363677808305
1.2855028806862814
1.0264460702947904
0.7755791717452654
-0.25024544014929584
-0.8783081968569757
-1.4885101904636788
-0.9335814314713413
-0.5064144836262198
0.6295910715233821
0.9578163929118196
1.1059019709225826
0.9640164093530087
0.8558157420411703
-1.427569236682642
-1.3461363686309191
-0.717365321127073
-0.44913130066242096
-0.32376337902550933
1.5664040438703097
1.153777751446981
0.33283912299569923
-0.27291208094698216
-0.7051404324741228
-0.6365840947202115
-0.33026598072451374
0.18836165326743962
0.337578371078124
0.36727031793086856
0.1390338309931308
-0.09112978378797901
-0.28246443245487524
-0.21253225845760643
-0.07804305013645871
0.10317560107633404
0.2894854489936461
0.4162223486274895
0.20519935893798733
-0.21480157103513367
-0.48034116016048894
-0.3682834553037961
-0.3854608107320457
-0.18138684058175475
0.4161694749569315
0.7527675071487836
0.5028231243726042
0.04588413435779645
-0.127158916047851
-0.38061234645030995
-0.48623058220943954
-0.3783165961976933
0.07412574284215959
0.27200844572574384
0.2706377896264674
0.15350509416204403
0.0059175910632258445
-0.10445574073403321
-0.13809179286569515
-0.08687167172347554
0.027153986306089565
0.15597471021795903
0.2333247870715031
0.18746179409164196
-0.04053686515807091
-0.47579268748417514
-0.2925608746734104
-0.20924902107849122
-0.10106971828743386
0.1704725822868015
0.7193794859491496
0.40122382601106005
-0.0038004868384028077
-0.1842101509002176
-0.2697275546845225
-0.3937055475275683
-0.25903095386615843
0.08192508803409293
0.22941517926705804
0.22373447050791045
0.12570109064512217
-0.001808561150182155
-0.10650283068298397
-0.15300141630788996
-0.12530560330500748
-0.02835482928047411
0.11014436670447526
0.23917835049472808
0.288779193381112
0.18271408141614315
-0.1400454540847908
-0.4996870658361924
-0.455120358223419
-0.2994478939426416
-0.07800479750576425
0.37296998746958193
0.9785246715355734
0.3853825752275409
-0.05366292278565957
-0.26475123942262785
-0.41342669486647876
-0.6562144032535222
-0.1009775676925044
0.21180634754847552
0.3044912478955758
0.24120364331141567
0.10141061310852853
-0.04222889416086384
-0.13711969633705318
-0.15566541202539688
-0.09534364774237468
0.0226903318199265
0.15530297509183397
0.2409314115605201
0.20797486414450483
-0.009962273308412508
-0.25333820694878184
-0.31608496874530356
-0.33353380080772954
-0.18637302627340352
0.07665940636259819
0.40178924532053634
0.4898911379993009
0.3666331569698477
-0.025865179996494656
-0.2124552006794802
-0.3493652299386478
-0.3822359376064501
-0.2117779846847031
0.12311669153247412
0.24239384162791255
0.20681310170240688
0.09371312383831978
-0.02500118957667374
-0.09775692882556311
-0.1003234348920384
-0.03674436766545494
0.0636374863276654
0.15208901259169746
0.16972944084155978
0.060721194895604756
-0.21151647571037321
-0.2486815912822678
-0.20829046212928193
-0.20618093338078966
0.0670166596578985
0.31856174783070285
0.4235787342943196
0.20274533440685455
0.016062089560861106
-0.22485878542958837
-0.23067167848375794
-0.303959464741507
-0.11496955703127826
0.10971704470505564
0.1843587939455011
0.15104012918640816
0.06300984226837536
-0.029805690610137322
-0.0901649157894704
-0.09786676369472107
-0.05093597114929166
0.034629446070750594
0.12621450750217286
0.17829147705634008
0.14029201243638278
-0.03068824512334228
-0.354403387666332
-0.21422516916860831
-0.15245904491526321
-0.07859804009537676
0.10978662923993061
0.4992468807967956
0.3351599687768801
0.008342637034759463
-0.1412706615154546
-0.20559025749883647
-0.2816876267679273
-0.24741891472067426
0.05282655378764048
0.2095143200361129
0.23936287916113677
0.17322649724202843
0.04692417402198923
-0.10185748521429644
-0.23214844591472208
-0.2989624104842353
-0.25926668996192137
-0.08806689465908268
0.19737949459718104
0.5135487009960907
0.6997206706125824
0.5329418531894163
0.1752466190071508
-0.5525700735742746
-1.0902012310591833
-1.2792070098235646
-0.5548664655716833
-0.003294138337607524
0.9241929211806961
1.2706478787548745
1.451596611410372
0.7933513896874438
-0.44608992585705803
-1.1802179309539242
-1.1551818922033048
-1.0167396913043243
-0.6255298542011851
0.5579144534693931
1.0243863226646008
0.9320335424660062
0.6250692054411793
0.18634916633185347
-0.3632649263220071
-0.6268282340412266
-0.5778980275507448
-0.7200943084424978
-0.8821263582808979
0.14319191952526447
0.9256132486834698
1.5168118435397868
1.1988965021754865
0.8935786690400285
-0.15729623702209675
-1.6594013872068545
-2.7292312398304754
-2.2130000896766933
-0.5084325605836288
0.9013620330213635
3.24338216660565
5.861532790857845
-0.8756295111378067
-0.31230047890379437
-3.1012876825218645
-2.5369540741653926
-3.7332141312851754
1.8644009819962477
-0.20165177671738263
1.9803810247781375
1.0115417687192987
2.132757740981224
1.483027663973166
0.9078575856140464
-0.08355123909870052
-3.0593823862687146
-4.187239459448261
-1.4311515988899626
0.30666569712052383
1.4854065737092037
3.9165557710745165
2.3366768992584728
-0.1486338133525764
-1.1009986361504578
-1.875019498470951
-2.0887352808355772
-1.107675608349335
0.8082926962836072
1.4851893091904063
2.1701108372874005
0.06811891023067743
-0.08044733206611701
-0.3711000185450583
-2.0738683426192877
-1.7759942712480343
0.8373973125619651
1.5514889027899832
0.7540118316480298
1.1658377212366506
-0.19767434959661087
-1.6221126824123013
-1.6576207925535256
0.5251302232363486
3.3678544758281515
-2.05521319708758
0.5801066972074971
0.2684764271265015
-1.1088759163324826
-3.589062857203069
2.232524699441507
1.1284030622289145
1.755694582328037
2.403890289320239
-2.3927578763428783
-0.9745248287469892
-0.8380036813604568
-1.1290397551624216
-1.3878880350402856
3.6378738171295937
0.3259440968691812
-0.5114767051540892
-1.112415708734529
-1.0307586870939847
-0.1833495431123667
2.9230550364998122
3.9996416112229856
-2.561979410792902
-2.17119197138859
-1.6981555825713142
-1.7724540123783874
-1.9735097311099015
3.6737209526696617
2.5339215795031467
1.7986352839282547
1.7981920127017839
-3.5743250698615303
-1.5435280895151853
-0.4953966447643083
-0.45257709271078056
-2.2271924432922954
2.339818448473124
1.4776589718549997
0.7696183871424314
0.47265668471678096
1.107119479717199
-0.0778938277826548
-1.9876495698883025
-1.7594259758565753
-1.4886961100121838
-0.8459516637467535
0.20536227770419815
3.0202808462612536
2.677466929637695
3.053252515433503
-3.981845803079607
-0.838801980819214
1.5966431485305779
-4.41851577377334
-2.121915333529321
4.823393642839436
1.1018132244276648
-3.5500859126771935
2.3320051759558935
-0.5853027637173016
-0.7457111798869394
0.4063845351720064
1.969219315343338
0.7733957074222478
-0.7737805588225178
-0.7948984481502377
-1.0243499880664237
-1.3016314310124177
-0.1075408732940498
1.24441855103887
1.3732492409134944
0.5809592939869037
-0.7824550805102459
0.07440472230012465
0.19990467375885979
-1.6826662118711635
-0.977174858640633
0.3474544284441514
0.4821366282503224
0.8826211146656151
1.3862641946304388
0.7737728616323762
-0.2041639497188063
-1.338472397647631
-1.437902963884041
-0.008703049479546556
-0.3716116724046053
0.9691189602751378
1.311772381079955
-0.28183742728101197
-0.6318558979184794
-0.08552448400724766
-0.9674400152602936
-1.0443124728587074
0.1933436789341412
1.0448768852656047
2.7373445856810386
3.2250204447762796
-2.1225828089922394
-1.7510888654098486
-2.5205395830267414
-2.751179549066855
-2.18395590620885
3.920757733290888
3.3830517913048888
2.48595738520886
0.43180667704819503
-1.8752209659721928
-2.330765724657553
-1.6768082337879988
-0.36727136057005944
0.2962430427117422
1.5488952579687667
1.09396007919519
0.22402738247121937
-0.23143430484326286
-0.11608636468374928
-0.3195879443669713
-0.5314161788835077
0.0037791136707993923
-0.08666523278505797
-0.30187215008567975
-0.09156820180356448
0.3006009860002417
0.18610534256283814
0.387568837116547
0.6165166771762097
0.28339545318734627
-0.057773488535787176
-0.23852532862204215
-0.7977205741965774
-1.1209728923073503
-0.421187608058259
0.02702200317615525
0.4038897602894543
0.6353680907906489
1.693697413281919
2.543443779246373
-2.444790634724264
-1.6166578814174422
-0.32410825124520776
-0.6284328651381181
-1.6513622499304488
3.016876390437791
1.6703722220808053
-0.1661543845584774
-1.1696300127039438
-1.4233431006375616
-0.6103370728507138
0.3829648851016086
2.8453553806480696
-1.5865580428778912
0.6581931171153872
1.897250102326511
-3.171653074086742
-3.434973195988337
3.05181435793815
1.848309973453457
0.2963862665208646
0.5015191694285761
-0.048681135431738784
-1.4317014235294059
-1.8300015107539995
-1.4985613530254636
2.2160925963735045
1.8076007124278677
0.12084577263779298
-0.5200270368227942
-0.7425097517722692
0.48629604780220087
1.1024353271736294
-1.3956940712111325
-0.08420951078757119
0.0404454941101032
-0.5059898224130698
-1.6927740324501792
2.40002713459129
1.1389686411820552
0.09769397111294711
-0.9620419577054042
-0.6858740753085535
-0.5127430221400517
-0.07090382283431054
0.004459949167858371
0.8350873932790319
0.659922633042929
0.41065591280838837
-0.48407131040345647
-0.2643573420660227
-0.18551253241718887
-0.26276486715819486
-0.43063391344364793
0.07268489690169236
0.09346279405446647
-0.07178054516074342
0.07801945854347661
0.6050917924451824
0.70557476188768
0.5089498949161855
-0.6928864717273302
-0.5955467378050479
-0.8307041824628303
-0.736614586373534
-0.1667523643296499
1.263087108297623
0.9063782665504672
0.4239941591596597
-0.045503894088518265
-0.27186449343889907
-0.28162885714233954
-0.2878539672663082
-0.4235723255577334
-0.29792662899895683
0.013808323158340272
-0.055527989492337476
-0.019297034083558897
0.39414285962080575
0.7759442752808728
0.39218109162867204
-0.027220774505834648
-0.26320219027346414
-0.35481443492966225
-0.5365005469653108
-0.3848696759536225
0.01058104028772264
0.24788835753540378
0.3896443721856027
0.329278716751599
0.1606638310413058
-0.039227014797446225
-0.21237246570719875
-0.31136915316556424
-0.2895560650643292
-0.09793044682401397
0.10724521430192072
0.34856279285257497
0.4110761487848481
0.2349181975510973
-0.07654677706039535
-0.23320022497653461
-0.326783980843823
-0.4036600387304307
-0.25329833296483956
-0.018861269376825893
0.17186972304098241
0.3652246319694939
0.5455139088465896
0.620107776587501
0.4366395530453374
-0.1671309978540878
-1.2936047376639634
-0.9202821070109546
-0.6675969121222632
-0.21933440932262413
0.40376881093803757
1.7384987962645209
1.1780250206133855
0.3124456860446385
-0.46672540249275135
-0.7009986161948779
-0.9643268947933785
-0.7641580442655016
-0.0757757491345529
0.4746589856234105
0.5824096453335077
0.4103072665744267
0.1315558502742217
-0.11347983494798494
-0.23958580969046353
-0.22055548830293786
-0.0816800027728388
0.11253811866425337
0.2724574296632987
0.2998233775478598
0.10853828202455659
-0.35093593106951737
-0.46883766316967795
-0.3641410190505352
-0.29209680215398626
0.12575373358182337
0.6552682162017128
0.8016100576391383
0.17694527243629296
-0.10330222412016488
-0.39405402909727116
-0.4745172316659038
-0.49980762288407193
0.03348513024374497
0.29914369377065125
0.3318987158154486
0.20551299009603483
0.008944436621138505
-0.172436889540732
-0.26939513084171346
-0.2382371491487583
-0.07077195598811431
0.19458583430866488
0.4648846568417098
0.5959747431362725
0.4149717954529355
-0.23608026169465296
-0.8434117293901696
-0.7697929233078372
-0.6302069143328968
-0.3114647451634166
0.36238732949462626
1.1348725838843234
1.0216992889524659
0.6478502969718474
-0.16019376093059182
-0.52416774233029
-0.8237288182375896
-0.7973773001663265
-0.4662991071856635
0.2983466672732078
0.5615614272773459
0.4770744567844389
0.2278244514776955
-0.02565548065652409
-0.17747441161611396
-0.18760184001205046
-0.0769363264907387
0.08723449394756841
0.21067808177683983
0.19451997617197675
-0.040587806640666496
-0.33088706775258
-0.2517998810280737
-0.3130057327370748
-0.17154269877056674
0.1370819916429575
0.5567598185630773
0.5703393413077985
0.1749785804986727
-0.11724866964586805
-0.25332566514310745
-0.39729487083302223
-0.4871368882729977
-0.004505248680375964
0.2349025706487622
0.2710663531290739
0.17707498195318958
0.03419764911778031
-0.08790080686686633
-0.1429921391100078
-0.11331843862852295
-0.010472185305494385
0.1262195052675049
0.23433635499743768
0.23815458069511933
0.0652204285116692
-0.3316251292052011
-0.35237117995496514
-0.3367443377745504
-0.16781575791024103
0.10489616030280739
0.42766994331863256
0.501759801193269
0.35367712115668887
-0.07251076281649779
-0.29805680244706395
-0.2741588949025182
-0.34119606788505186
-0.19607064877561897
0.12342822573438256
0.23551521367451367
0.19743534535089288
0.08295275559191209
-0.0379968314018915
-0.1132586282897849
-0.11565906685141542
-0.04533873405034887
0.07093209977785644
0.18320096658819604
0.2259579927816216
0.1315922708873043
-0.15062890699806133
-0.43400116975883435
-0.2795485379786714
-0.19478475024962963
-0.050341722135665845
0.2880081583580672
0.7213699424907976
0.2870868927991841
-0.05283818916437494
-0.19963660243189385
-0.28681888977240755
-0.44225702223794094
-0.15667923183169055
0.13206340514431772
0.23674352077704616
0.20521544084856916
0.09995731627975579
-0.01960650307728817
-0.10801507561112021
-0.13811616971068663
-0.10162972609521781
-0.008877061926748569
0.11117186806745316
0.21186902178975137
0.23386660367823153
0.11670160671419932
-0.18320505920287503
-0.472593926964123
-0.30746410319980655
-0.19347829411147988
-0.004647159400355313
0.3832151449176438
0.8550922114090456
0.2296964974026093
-0.14590734458611718
-0.377451627568212
-0.38838260724149826
-0.4830255978684958
0.07827609278786743
0.2851836328935524
0.366608118496851
0.1716411868301145
-0.04837567934418821
-0.2511778500918734
-0.20850970941625127
-0.10850216462906348
0.04088958156936484
0.20704987685065337
0.329999722054558
0.32727128293419494
0.11024826313531955
-0.38911242920363437
-0.5887897539314256
-0.43672206523654583
-0.212016332100423
0.04792142583692914
0.7003083475390326
0.8455287929908435
0.2905178725671693
-0.2586652527227197
-0.37250031217034846
-0.6521358944417516
-0.27931347000394824
0.22227379131105077
0.4068755138588051
0.3100065017954398
0.24254530518798642
-0.21849321812989705
-0.6427439211163495
-0.769210968265532
-0.34660872346267535
0.2071476641656204
0.9369061410986058
1.0965555400502933
1.1373248778667047
0.35824783176165564
-0.3805038600470556
-1.505649364748174
-1.3848702081010653
-1.8379224309042785
-0.14300641379028475
0.6526949740762459
1.5451758901811699
1.1635532221078841
2.0019479573905694
-0.056060567972729264
-0.700175051104586
-0.6588124308986585
-1.110623945976368
-0.6962582506495321
0.2227458202774161
-0.5703004104085663
-0.5639191232915378
0.5930563866303717
0.35463832002852264
0.7243293917993529
0.9198346319587785
0.0851131350163449
-0.1339809488633387
-0.5509181602710197
-0.5513333311218495
2.6207332361803277
-2.4185416154263892
-1.2893148502183995
0.2204810828663423
0.5731841244524971
-1.953537521414355
3.260452146540777
1.494337190911197
-0.9793406141460428
-1.327291099627811
-0.9620262445927434
-0.3464322494900756
-0.2188510333195817
0.7570124714035957
0.9344502550253281
2.048278223910298
0.2299407114317603
-0.3149546036467157
-1.981483792576281
-1.6324734650028572
-1.706939992362754
0.5950143782046724
3.448499354623906
-0.3060212661835295
0.5313786182162493
0.45915125567362963
-0.5271556663218736
-2.2882678331450137
2.5277900222919762
-0.24969632386745103
-1.8735780419078232
-1.075291147041656
-0.5066226843913595
1.1750222834311868
1.7990893310306681
1.9917334798533868
0.5445718473394585
-1.3370534938176797
-2.120607429689624
-1.2121669562394282
-0.25402677648736177
0.31151754240972424
1.6102740702577698
0.8623343233930258
-0.09682701875516184
-0.6719702394281848
-0.13086900348713718
-0.20091546465513174
0.5479983072362502
0.12479182007703912
-0.26234632532837737
-0.5903387757155412
-0.4159799765228766
-0.286285589981194
0.6358340355981292
0.9399781576482558
0.947303358440241
-0.08417020992946359
-0.7235194686376095
-0.9122594411575353
-0.9157163254479553
-0.70561285905636
0.4136952073660421
1.3433311725229864
2.3189871876436317
-1.735618415045225
-0.20770275693093396
1.0553044102130025
1.4296985191369838
-4.592936934779065
0.8644293651046002
0.08499022097845875
-0.6873531896205971
-1.9549792203967873
3.2913268451896354
2.2371964386992187
1.365059032790167
-0.7320671105559319
-1.0378081589910284
-1.535739590115347
-1.4302661491049595
-1.226393867208146
0.2938577936051706
0.9959325159928459
1.4492506617020833
0.9669087781249484
0.27934680109356586
-0.1257777210565413
-0.1919831959735626
-1.0283897778256157
-1.020481657109337
-0.14735051866739654
0.8755995795324942
1.8263294338886995
-1.0108651080423618
-0.23743356567012866
-0.7369090976629395
-0.6863629534357374
-1.7954092607129153
2.425686147620142
1.5852946087593731
0.9486620077385669
0.22658908805143266
-0.9738457399551899
-1.654785638208657
-1.129839223031936
-0.36617312299978894
-0.1920211065135255
1.2332211206249668
1.3153446424451816
0.730527917025884
0.5777494136569208
-0.20226243528947507
-0.7478677919739158
-0.7655102869345919
-1.026230915814093
-1.1063115013931464
0.006337919518181728
0.8411989753020462
1.3343666833803565
1.318489280934405
0.8540883658830454
-0.774104399910965
-1.3996165411438164
-1.2845823272784767
-0.4375425160672824
0.4310803202767822
1.1085998633811072
1.250412045657259
-0.253098736124938
-0.4937676051511337
-0.7445561027625524
-0.45296737293533185
-0.4459852269315589
0.6441067546051124
0.5370661586713124
0.4604274319164637
0.12217795034510535
0.1133166330427823
-0.057561918157046116
-0.3061531253997054
-0.5062412066193684
-0.23291612817261373
-0.12982132483022088
-0.10808926431297708
-0.17582516008101554
0.5110376099731051
0.5912817670444779
0.45110903618036674
0.20069376303499684
0.07969208892436376
-1.1149357008906042
-0.9955077886351341
-0.3644029683317522
0.37837905444296543
0.6039546384579246
1.4189797442757954
1.252709905116268
0.2870256277558637
-1.2701012130956375
-2.292769861778548
-1.6703094962964085
-0.7070455552032971
0.9952505027224333
3.5951399977823617
0.26473015729186683
0.9006846044506298
1.7328548116092581
-2.7697869234380974
-3.5352059681257404
1.2721976881459753
-0.048446643839993184
-1.5235715549842817
1.6238423198101928
0.6538085898194093
1.1823794859617467
2.6890955316034204
-3.1153896133686305
-1.061890971936437
0.13833817044166177
-0.4479642798911826
-1.5454999675395242
4.528896828335699
-1.150771786890171
-1.1324489626317595
-0.38279013061415085
0.12907187699519115
-0.5488035947696283
2.6684828655933206
0.7280010162697248
-1.324263365059201
-2.102567416969552
-1.4613050773934753
-0.5254975808439544
1.0160532744609452
2.3759426376706605
2.3410102883828117
0.6077289627214538
-0.9880000813159064
-1.9561483531673662
-2.0007852887168496
-1.4939906459146621
0.3775125896021508
1.9836041746710493
2.770794826006256
0.5841998471867733
-0.36322317949301236
-1.6620497145594766
-1.8446551606105452
-1.7377480853778473
0.5305249249210963
1.2587295856743452
1.8620702060989656
1.574502071688772
0.4121707215361408
-0.5780099592370473
-1.1973389886888035
-1.5453853600693845
-1.497069608542788
-0.25282789416353885
0.6194098749647687
1.0654065917159619
1.1907934485959975
1.1239622045806845
0.33794523132585647
-0.5499295133978961
-1.1096238621705508
-0.7918236550621087
-0.4213497951691573
0.07940529796759174
0.924773000974873
0.06335412016503941
0.15401006651477514
-0.0651465694513664
-0.4072815987432789
-0.6665177221348232
0.5510412417343907
0.5956107309309058
0.14740312279390339
0.004369454812197512
-0.11065626887240576
-0.12527686725710366
-0.38329353298128094
-0.010907643394169688
0.1085907924324108
0.14779454860771488
-0.06392574286164038
-0.04924115829481163
-0.09918716226258315
-0.0956663153697903
-0.13880826867986087
0.023537044783138287
0.16925936871856226
0.38588484190486305
0.473464043890157
0.3731590750512792
0.022478396459774123
-0.3709335074690356
-0.8546490147023262
-0.8796183438200839
-0.4931670279836452
0.011879410849075487
0.39792186247300304
1.1568008604834767
0.792155102893944
0.3442356070889849
0.37943802718727226
-0.1525285731419079
-1.010634657791559
-0.7344298803399752
-0.33090443985241463
-0.4048530585950676
0.05345359641553532
0.42660824984941187
0.3914908110275728
0.227968862567881
0.138843111595202
0.1990650404801596
0.34382141908156866
0.39682988482490733
0.13260398469100912
-0.641318741772918
-1.203768410075043
-0.6666595513898879
-0.37071469464533047
0.06207605069164404
0.8313144365647146
1.4459969137282502
1.034656832193349
-0.09096245518293186
-0.6065722468347057
-0.6925325136378162
-0.7282177678942026
-0.7990246579755208
0.1573935176870094
0.5560414324558457
0.5286273732488896
0.26616264381418103
-0.038951390103675626
-0.2372996104884367
-0.24882974693526047
-0.0734052808474524
0.2109199463918224
0.46088504310579614
0.49411168199042493
0.12976253243287844
-0.7599543601456853
-0.5991687503784316
-0.4760985166454438
-0.3451379211661529
-0.06958470148439119
0.7026760452006344
0.6508295855061108
0.9068375585418417
0.2191617516184147
-0.23328233759406067
-0.38143390581107667
-0.5801649766046142
-0.9231715977646218
-0.18350281601192006
0.40601345099929764
0.5329499440344745
0.3594435967577347
0.06911281036129649
-0.17793385331572073
-0.275029541532576
-0.1843762016764726
0.05850422164600169
0.34944608054177634
0.5312181601123195
0.4235884297993665
-0.1313330723327449
-0.6151612305126225
-0.9862018592565834
-0.6593288236244407
-0.3283942737383821
0.36685024878444655
1.1453824911174597
1.5916239746713383
0.29811309178844
-0.3333137086901518
-0.6315833236430859
-0.9602929311443557
-1.0204497801029553
0.01581072616031468
0.5235733988875784
0.598452824036939
0.4032191681307368
0.11091883138564754
-0.13807955071594954
-0.2584813080247926
-0.22466649766852262
-0.064548787480211
0.15123704079133304
0.3226842030728699
0.3377882778978197
0.09605139032100737
-0.46305614420847624
-0.5333934399801815
-0.4280217184706245
-0.18740105459244802
0.18753745666183624
0.6853916245583247
0.8340713953612432
0.46940280585978206
-0.264772067042148
-0.6855404417542124
-0.7234665053174137
-0.6807083909755778
-0.013285167742860673
