0
0.0033359807584402924
0.003296873200436292
0.0015959437325916471
-0.0022981841961426377
-0.007842766469310099
-0.013131313867657769
-0.015158389089941668
-0.010786586029219268
0.001666154328626635
0.020614308570449994
0.03985944044925869
0.04852774304615082
0.03289943325322234
-0.01987388547965918
-0.1170686341972636
-0.05641778844708751
-0.024759208735667358
-0.0004260998232133181
0.04096071827846931
0.11909273660707875
0.042527456345431494
0.005506371079528541
-0.01082920035749124
-0.03327834035052474
-0.08922439667077699
0.0006510673386893194
0.027640131941919475
-0.0027980250952475434
-0.07204087176144933
0.048001769231097065
-0.010671096675303192
-0.018474943808219062
0.046047205697312514
0.1926314947593907
0.019112677819412435
-0.08490961301898668
-0.1317029442220319
-0.12909478275549457
-0.07744807057940904
0.02818875231823809
0.19145372343819358
0.2067778205309759
0.05447582036933626
-0.09813739233008972
-0.08953012364375368
-0.15362631003304686
-0.11079250754846524
0.036259427256914
0.10050093255008463
0.10414570123924428
0.07105833987412367
0.021288439332139947
-0.030560182562604832
-0.07354579404481477
-0.09728214018264877
-0.09017014343518003
-0.040929869709067875
0.056323955644459266
0.19534295553229444
0.15284287147106707
0.0891026178525197
-0.04403000970705513
-0.0889853171428138
-0.26660783992418713
-0.16468519533293585
-0.1362159407296823
0.09038300859084229
0.19141776653596942
0.2247401240522828
0.21139120597033495
0.12887702699098263
-0.08115248355974548
-0.2932955386982518
-0.17377765121671518
-0.1595310180026388
-0.04805115543974267
-0.0008673843134468838
0.24146350191884494
0.13869216782182978
0.1318377058521023
0.03188085076293108
0.019091865807923436
-0.14794822813379307
-0.11764517852551128
-0.130421533416112
-0.008337985969109082
0.04800417876989284
0.05540927989246045
0.03928717871580422
0.02347715570348726
0.02174736417960558
0.032998356281983963
0.04105281821693978
0.018887660567713543
-0.06376862577609176
-0.03140019267110605
-0.09471341890133918
-0.04611201365773187
-0.06021170480447686
0.10050418992642955
0.07644790134629022
0.10087960996644692
-0.00803165710603891
-0.0511843627944884
-0.04841755554245689
-0.035546789317363374
-0.06025181473076827
0.02207429715237618
0.15251626666251056
0.07387072656108823
-0.061832095491521334
0.11685980164253988
0.012408494006639669
-0.1316798875715654
-0.2265481300999495
-0.3439381482236128
-0.33563923224251924
0.1341186889178345
0.5499727804506241
0.7133133129798798
0.7322080758779879
0.24436678189086844
-0.5277172575421601
-1.3056867783919273
-1.2962797073744607
-0.5729967633312024
0.28654429909934637
1.3165108816876563
1.6642886275628694
1.320365322757637
0.11067875331334671
-1.0407072809058229
-1.8029433594802924
-1.7310911033860634
-1.2094148568348848
0.5270625945589511
2.301524613547521
3.6784072691846434
-0.9212725766996319
-0.4301718725996906
-0.8677012100845691
-2.0325658960538333
-2.8089816028772607
2.2698401008156313
1.5885989794681736
0.5705307439056249
0.7952179670364783
-0.24895014856816372
-0.5643301325326239
-0.8071181625452934
-0.4392798379599455
-0.49459122749466944
0.22664834166501452
0.5351049288802545
0.8165385847044437
0.6034420014836247
0.17174562478076888
-0.43172328330253745
-0.9406546091633711
-0.8207783575166334
-0.4446778599316831
0.09633671895204114
0.9464523092660362
1.4254098411315546
0.18198455727816865
-0.2171166382650759
-0.25766931165145585
-0.6213333654157682
-1.127385667481393
-0.0983286552790447
0.23497609358105082
0.2885085422664006
0.25524793094462633
0.23313169311505116
0.3736983909410298
0.8686279108914867
1.182654293842233
-1.670289917553519
-0.8253078287756294
-0.469553170562778
-0.7832641961254725
-1.1408843366376997
1.826333362594315
1.1266542636319508
0.4984027125266709
0.13089048763418532
-0.16242371351602355
-0.3181191004303495
-0.36119484785980416
-0.5320382439221065
-0.22491995781890312
-0.15354586390775837
0.05116180699824711
0.21629314985458586
0.5882801870221085
0.396825308686008
0.2359312112595682
-0.1305689233781424
-0.34160879642985265
-0.40136660445593075
-0.4479041327580843
-0.14251081890053763
-0.0872028829764679
0.1318913147773915
0.28663229494682196
0.6517185057012123
0.570660984069033
0.4568269956722045
-0.16636530719343778
-0.7953293400607581
-1.067787243694309
-0.7027974733863959
-0.080732647786343
0.7310909445503166
1.1206067371546553
0.867700506768421
0.10236613920115346
-0.7017609913540237
-0.9038695919070436
-0.6628203489449429
-0.11760106685141779
0.2052384411879775
0.7599050155871276
0.7417076086280983
0.26032469036398403
-0.25887961861758946
-0.2429972625337291
-0.3195623477520205
-0.4620029728043543
-0.14982074194449393
0.04539042748567851
0.04567784346979593
0.029953553818350583
0.18581999520755638
0.263073000546149
0.3411059280103603
0.4193101246667328
0.23409507033272065
-0.30161047829840404
-1.0492941160838307
-0.805709003188681
-0.49292711072765927
0.21284262810728055
0.6210905468930428
1.7598392213402811
2.133972384426239
-1.465360549738681
-1.4969433327226214
-0.7759123082080752
-0.7918529263858864
-1.2748396979379275
1.977449692155041
1.426134330537656
0.50482419469922
-0.2438367780995544
-0.5892007495306915
-0.5944854850567971
-0.3781897821232356
0.12460691542653014
0.3894023087261107
0.5174119342191728
0.245105631090264
-0.24593792292533037
-0.7193279728233986
-0.6820210134256527
-0.40027554234027485
0.2626378165890012
1.1952891212163383
1.9937410267492788
-0.8526827933212986
-0.5329131940818796
-0.45071518435472546
-0.7518681474849541
-1.4721018294389026
1.073547594627893
0.2570117421108733
0.47446414820556926
0.881255496962893
1.550699419363019
-1.7285734108286137
-0.6197960328211041
-0.3897364023005523
-0.8717922485965968
-1.2600775887854065
2.6636821643397575
2.4881836443269436
-1.2555981010672639
-0.6864792488104783
-0.5299057568836351
-0.8635163353787099
-1.4820196982875173
1.4995594166751542
0.8057298915054766
0.5436914012755443
0.35776765868582805
0.016116034977208087
-0.3656426588470095
-0.47532158712483424
-0.5503413550460146
-0.3406492416683204
-0.10309904533496718
0.16928624718263094
0.291574333065012
0.4217030617639629
0.20583845827169675
0.5516380788041501
0.8394968697937202
-1.0283438937603449
0.047421457537866314
-1.3574117866036535
-0.5327330681353835
0.1821277022871481
0.16742304949999326
0.05619659410030765
1.855777139085904
0.4853175765575276
-1.049586464752498
0.36064828031570917
-0.6213216112670621
-0.7212855806884982
-0.40811017434769503
0.1238588632879042
0.5420430023034987
0.5420703848081407
0.2101407260434231
-0.0029730646111893657
0.11155043909325249
-0.6685321782402145
-0.3775056299753749
-0.045755191272950406
0.3055565819191506
0.05890696217907946
0.5902811993267039
0.06316288948276123
-0.16756223334161752
-0.34213533191654055
-0.2792275371488878
-0.1648629714257403
0.0465698292215888
0.2185193517065106
0.21098317651005838
0.2604272647800733
0.1691492732845652
-0.09153822542485147
-0.16553542676082206
-0.29000059229701003
-0.27632386847230583
-0.10221625209500691
0.08117266913699062
0.12916701830253396
0.27789770488629306
0.32311250722746176
0.2125819030454714
0.056922315682366685
-0.24281659073245038
-0.3591049494355436
-0.5060634003128079
-0.22432961961783385
0.009881780391659734
0.35267809741371536
0.34729123489352787
0.48098357613175746
0.15871922386250162
-0.09777940548878156
-0.2259643594706643
-0.18208294730000735
-0.2977868877694799
-0.2468140144887341
-0.030703183903373017
0.013733829929634187
0.1889659794149184
0.20214549877834875
0.33241659704040377
0.21008467184293766
0.013477892151676057
-0.3167431555746455
-0.2521981967013993
-0.2504349750711582
-0.13733713153266647
0.09630702543931205
0.28486253184001464
0.27061840266507653
0.08754292913002983
-0.047429310622105515
-0.13354410546041806
-0.1785646481278687
-0.18977343047070006
0.03118851906640962
0.08721548942735438
0.17956337132268632
0.10048971240935833
0.029062862177253547
-0.06724484393473971
-0.025360875267539516
-0.07636156417347456
-0.03574522542803934
-0.09747464181476086
-0.0338124626087642
-0.0013185330897465457
0.04840637678250916
0.15621378898367938
0.14496413269403627
0.014578049838561634
-0.05577758041948317
-0.0993650211663625
-0.15070858703335246
-0.03571980299349498
0.033715430546703215
0.05968762147534252
0.05398092002502699
0.03204386658705453
0.007650206641172762
-0.010274116944700984
-0.018366320873478666
-0.01768082155595951
-0.011664548260534814
-0.004171064797527857
0.0019025405138499393
0.0051709001854908405
0.005636860157239614
0.0041795082403072534
0.001957024740449405
-5.787508261392954e-05
-0.001313735345567023
-0.0016979563270900723
-0.0014109241515375523
-0.000788676246216009
-0.0001483429885554973
0.00030377858895738437
0.0004958422043474403
0.00046347618539617307
0.0002992031679743254
0.00010269524861986656
-5.293106632803436e-05
-0.0001341609353863676
-0.00014298738675419987
-0.00010324893866566192
-4.517301598282129e-05
6.39618805055679e-06
3.776773751950663e-05
4.657698734945745e-05
3.836323598677003e-05
2.1939620499188385e-05
5.442602686276099e-06
-5.956670244115119e-06
-1.0575816757664878e-05
-9.464543806556897e-06
-5.073933837535352e-06
2.2533423846935545e-08
3.976407714136094e-06
5.974387571867866e-06
6.111762117288348e-06
5.029013857435194e-06
3.51187911527426e-06
2.1929948923010725e-06
1.4108536071641858e-06
1.212270906972436e-06
1.4448896592874614e-06
1.8778121003754013e-06
2.3024225786617954e-06
2.589249678700679e-06
2.6992939105122795e-06
2.66301722945495e-06
2.54541472047443e-06
2.4131464497171143e-06
2.313182131086669e-06
2.26534586098415e-06
2.2659525263122044e-06
2.297338610551257e-06
2.3382164769987488e-06
2.371442250237203e-06
2.387874136902494e-06
2.3866736450325485e-06
2.3732763880973953e-06
2.356361544276003e-06
2.344777148506113e-06
2.3449060693187483e-06
2.3586709200836758e-06
2.3823770714231436e-06
2.4067826385820966e-06
2.4189218139197317e-06
2.406023321585341e-06
2.361198828563282e-06
2.2894993686836e-06
2.2118161148573773e-06
2.163542084996436e-06
2.185575932407051e-06
2.3075498833591574e-06
2.5269170304854655e-06
2.7917136231943986e-06
2.9975834045045807e-06
3.0088094626960456e-06
2.706950573550455e-06
2.0591709645429683e-06
1.184049472602676e-06
3.809896682932886e-07
8.761322044668993e-08
7.443268859891234e-07
2.578917469703787e-06
5.370902484553871e-06
8.300012229525835e-06
1.0002304472222569e-05
8.926774906576324e-06
3.99113905780913e-06
-4.612744386966796e-06
-1.4773877571244645e-05
-2.238853668810988e-05
-2.2226022992064135e-05
-9.852314914606678e-06
1.5722350662786155e-05
4.955655349789336e-05
7.977027378915807e-05
8.937221089170739e-05
6.166666856599863e-05
-1.1346915885109949e-05
-0.00011998422251124268
-0.00023138382269505595
-0.00029224924088726723
-0.00024325344806963928
-4.4776309709584265e-05
0.00029213075592001336
0.0006817785987965541
0.0009627454281656872
0.0009334676073974085
0.00042826970501690494
-0.0005801624155618388
-0.0018870150602731503
-0.003021542689949095
-0.00332467238293136
-0.0021644004238237985
0.0007372616344754421
0.004962294965406575
0.009199649273938706
0.011374737106050876
0.00923154893613224
0.0013435905096481073
-0.011695721573109604
-0.02638712136634048
-0.036362204191682054
-0.03387264158151152
-0.012868577686148333
0.026872974247611314
0.0758912162504696
0.11333497947488982
0.10920997089527013
0.031361921059351726
-0.1439677300352541
-0.22146507586655712
-0.1808993186309516
-0.18059536346007013
0.028169604658311177
0.2787582834682833
0.3660725158580737
0.23225821673908245
0.16912883085567793
-0.16006693110276093
-0.28393542568578245
-0.2815328395600496
-0.148751532530503
-0.18285096968530692
0.20986335437635836
0.08444461711935376
-0.08812854473806124
-0.2738705403409424
-0.1275532540212378
0.16561947967962762
1.0690639099436632
2.1067336714470266
-1.2835527771604658
-0.8597352724716412
-0.8713963520242878
-1.1784575804782185
-1.6262149017438203
1.9092942010689387
1.4191761388527326
0.8398746304518938
0.35601418708812516
-0.44107513271140225
-0.5333839112471721
-0.4114484251981291
-0.19163628210142158
-0.1402148041871462
0.1801788175300039
0.13603596285127195
-0.17817222613545086
-0.16336749691238228
-0.15663194769358565
-0.08427444253884976
0.07979451053566168
0.6606166303931877
0.4464631729097113
0.2828495586290966
0.1024805669790307
-0.21267625820378516
-0.751662968769526
-0.4987195451987922
-0.28341166931851425
-0.1718277576405591
0.09796151708237284
0.24559795862174694
0.1620390356043644
0.4300474668472903
1.0736306033520626
1.752709450594581
-2.192150680076202
-1.057168279777205
-0.2837824278137243
-0.39208761495878575
-1.1616929867742962
2.5389706377841335
0.8935784814951011
-0.3228193433421014
-0.7832945839630683
-0.42089217549124003
-0.22197622672730077
0.5858130079019003
0.344520012557323
0.17745225392655223
-0.19455785919180674
-0.232199940600415
-0.5580751567870865
-0.14743234791516804
0.06414474300679636
0.15614688013658115
0.38921796289699234
0.3741961833467856
0.2562312479467113
-0.07887053278945001
-0.1767934971593261
-0.5738836333870596
-0.1564694977569006
0.06710961080591327
0.17443365804207922
-0.08355889931529174
0.08894123131653815
-0.5054982411638737
-0.2990219021706141
0.8037942812868418
2.60167400169355
-2.203621189625702
-0.3795246059523193
0.08385759501475433
-0.38032112671951723
-1.8880605326722437
2.4980969979923104
0.753596528636454
0.07481396752476367
-0.5236789393128976
-0.5938298414888181
-0.23217947092933616
-0.2693577428328117
-0.4846356148478449
-0.24861404356633535
0.4144273497457339
1.3631884253466071
2.299878512369423
-1.4234753080758813
-0.9468776272308013
-0.4097209920712259
-0.857904821755793
-1.5846547371766857
2.076901581241213
0.9132946516658705
-0.23604346881677873
-0.34536229910906024
-0.2511974730116844
0.12191168658535777
0.5567424690064122
0.5582001001692918
-0.013022126038059313
-0.6922819599391139
-0.7601730733348624
-0.40645613923033735
-0.12405350014427531
0.261968463020371
0.7392596697981417
0.446055775848885
0.22359833098796794
-0.0014287008662539782
-0.20015577990997574
-0.1972736594649271
-0.013023750393098435
-0.2069329333527302
-0.23670241416683072
-0.24174931448962766
-0.25620922228949405
-0.2506592736251472
0.2047393946975405
0.4698794782061347
0.9767089144685372
1.4040393252438719
-0.9012201963935902
-0.6578401569414724
-0.5585973550534936
-0.7842901713232304
-1.1529596453355138
1.0798692703092367
0.573485652526953
0.627721139592902
2.1107980173985084
-2.587967967010429
-0.9745305475003074
0.15384422518634022
0.9177209913385493
0.5648846951754214
1.0885193446062906
-0.13442792973996923
-0.6841496488204082
-1.434387793183096
-2.512157452203985
1.6941442392579005
1.2724700334656298
0.8916776141756736
0.3109553551652554
-0.07165717852291266
-0.21721833962998904
-0.19736476274420944
-0.5195744405567259
-0.24983554229002647
-0.152634915144509
-0.06048068575959361
0.12381953431642335
-0.003248814590674323
0.005270726118423838
0.1914023294088683
0.3420460217965553
0.15428852590483286
0.22343096399722173
0.055997230604257604
-0.09624359234256406
-0.5911790496956398
-0.5539128423681923
-0.25034970028100983
0.31555008523222783
1.1828401088797151
-0.7962769629452434
0.21612374165263099
0.4278696653565407
-0.184952945059711
-1.0676578182030558
1.3310025012996693
0.7799642647083261
-1.5135718464312051
-0.6892512040634602
-0.032923609971328587
0.20192576849025007
-0.24822204702161238
1.6930021520231555
0.6044926191958454
-0.23904031075418716
-0.6370077714094748
-0.6062357124486588
-0.5195627811357869
-0.06242097219403097
0.17943494864341494
0.30122254168313783
0.24021907295783723
0.13178651660833057
0.0737711462886443
0.10743976086393806
0.017150464241763065
-0.05397664196484613
-0.17857013946783035
-0.21778960824060212
-0.20054575426277227
-0.11522439672063127
0.08408910764032461
0.2598619860488019
0.2689687909067861
0.1448395458807638
0.09070017408506512
-0.11396424302698899
-0.29706536177410436
-0.27503743320258195
-0.03968005043597
0.04364925602242524
0.025747625274302778
0.15526562299681126
0.259287091454114
0.12985464204999653
-0.07867514780810524
-0.040342413321048924
-0.03930359475492875
-0.1482618011405979
-0.2099975283353994
-0.02721856789824275
0.036571283550359615
0.04576373436608439
0.07452828135551366
0.18726229748775153
0.022973476294775565
-0.012562399508657356
0.054557262462192786
-0.02415908884781571
-0.10495538485944796
-0.035949405158744945
-0.044031313184054593
-0.12781006151860821
-0.0584402835930174
0.011719389324523733
0.13474499876446253
0.15107456884317194
0.0766051398518781
0.09708706869340272
-0.028384637682560478
-0.1560230105247972
-0.14198095201332797
-0.02795053441093439
-0.03196892553850015
0.053561615365065346
0.05719035192782155
0.01938849360013608
-0.017972998933673483
-0.021215029145414115
0.02814378962192697
0.1300595134427477
0.06709133469196284
0.010226541295063793
-0.07155796368792836
-0.20060120586367636
-0.18249726499351188
-0.004090375622498281
0.16125098655065492
0.14308762866965158
0.16261547208224245
0.02543695965195817
-0.07889583730021359
-0.17112577165204962
-0.07354905300018261
-0.0023061399147389135
0.03650168438454157
0.04632359759856882
0.03664945273469257
0.018578456138804607
0.0012318954557605317
-0.01009833998427206
-0.014051858389090661
-0.012110421427271369
-0.007060983132639318
-0.001635321379422461
0.0023248876774035676
0.004115418527352251
0.003970323360673023
0.0026432885807631855
0.0009809599263608298
-0.0003757419508146769
-0.0011162452645700567
-0.001236026494489133
-0.0009257138246345107
-0.0004400166578798275
5.215188935195356e-06
0.0002860208085065278
0.0003752338106456773
0.00031540516765229433
0.00017993122233680425
3.8839386427778135e-05
-6.181030145937657e-05
-0.00010548519622813369
-9.94908567587673e-05
-6.393802013819901e-05
-2.0768657854349363e-05
1.3758657987735548e-05
3.205131109960876e-05
3.436754738575065e-05
2.585263080008926e-05
1.3139604009272828e-05
1.7345270681259271e-06
-5.286564046819983e-06
-7.344398626917697e-06
-5.620141433493891e-06
-2.040530599351722e-06
1.5967654794395715e-06
4.1363316571628e-06
5.189448798411289e-06
4.97374754552646e-06
4.022649464032227e-06
2.9030095615124366e-06
2.025994647648524e-06
1.5759475978214663e-06
1.5361271027495503e-06
1.7677699333338995e-06
2.0982851358916723e-06
2.3877397838171365e-06
2.5608343104511025e-06
2.6069587980636922e-06
2.5598684621885953e-06
2.470630215788223e-06
2.3846544430255527e-06
2.3285494713565867e-06
2.307595617011435e-06
2.311243850984634e-06
2.3225753237344898e-06
2.3277477893543704e-06
2.322441589924144e-06
2.313619751192291e-06
2.316224954756601e-06
2.3456970108329872e-06
2.4084402610872655e-06
2.493506508761965e-06
2.569428630730651e-06
2.589760153247206e-06
2.5088799326924184e-06
2.3058514656788044e-06
2.0092354174949423e-06
1.7113967839181089e-06
1.5594553599790547e-06
1.7140380450591943e-06
2.2776215411449546e-06
3.210164812817485e-06
4.266184586008403e-06
4.996645332156461e-06
4.852270084608372e-06
3.396171190107898e-06
5.844446259210656e-07
-2.984098408977743e-06
-5.990025509937023e-06
-6.625303351531276e-06
-3.200771792544872e-06
4.95238693507136e-06
1.656080081721261e-05
2.7909151929651023e-05
3.3253787907742564e-05
2.6476006251495454e-05
3.879783698280368e-06
-3.2580550748512174e-05
-7.298380117307976e-05
-9.970703115558722e-05
-9.164013440810487e-05
-3.2565212731652265e-05
7.801135794080972e-05
0.00021548877279235366
0.00032772981896596
0.00034477173179079377
0.00020295785391614358
-0.00012003254135827066
-0.0005701946029320371
-0.000999516196817884
-0.0011843651511324986
-0.0008918201605856345
1.0916731452643512e-05
0.001432946649960757
0.0029746370604303764
0.00394544022109613
0.003535578173316697
0.0011464745332143873
-0.003190438828202961
-0.008461084767859665
-0.012593611544125912
-0.012857719260152745
-0.006815846439045094
0.006322552036938689
0.0243742113565356
0.04154131250735142
0.049140598959364144
0.03806934707073436
0.0026592979892449808
-0.055444703164843685
-0.12575441674816715
-0.19264838122791308
-0.2466725694710029
-0.10370131928631351
0.17147772373767123
0.44517749740563395
0.7100188647979546
0.7068110300210664
-0.021386258659865043
-0.6492400983229356
-0.7832166181713044
-1.1992602741220377
-0.8327208622967606
0.16383329474268782
0.7008778350028376
0.9987035447238103
1.2433608125394
0.49419408304012735
0.2705372327819495
-0.17862781230089908
-0.942587863907697
-1.092255101882102
-0.5423485961223915
-0.5682271208588546
-0.1952732666404418
0.5434933517795295
0.9056125871211321
0.929153573418833
0.7512139914565306
0.3806627958434961
-0.4689007804542073
-1.1019515431763225
-0.952051203131696
-0.718120138802165
-0.35350291983805193
0.28473261402949723
1.1417274185462776
1.258756233832888
0.4931776197094695
0.0931827726354181
-0.2642623146847214
-0.9866946755791604
-1.0609376138432802
-0.1631192043542481
0.19157830589822042
0.45209175508874505
0.5970265248226695
-0.11896595732619163
-0.22043429578132734
-0.05748129210453617
0.16021186134647947
-0.058150500444241186
0.30668874622146586
0.1886825620687954
-0.145643033980742
-0.46908098350486194
0.03851249422787912
0.21939350132591948
-0.24133552067097325
-0.005446964655531364
0.11873519700204968
-0.03163625970006239
-0.1879353416727491
0.1326023795467176
0.20925244116053374
0.10322641842678569
0.04921169812191036
-0.14560976217863725
-0.0965037334385994
-0.2338618008604878
-0.19776660505352803
0.1634058447562859
0.3918530093905329
0.4217033887756028
0.1887650785415943
-0.14891393739341913
-0.5842344729838425
-0.6394153602933796
-0.5632770620441454
0.0437744649827072
0.5795617017815515
0.9802163593929416
0.8740959818909657
0.37111037628405175
-0.5038105545810552
-0.9431981482890696
-1.0817328057607776
-0.7447411704645885
-0.04332308252175717
0.7805583693893625
1.0773553599265562
0.9140528352957973
0.6317513831331325
-0.3446207084132171
-0.8476838503858102
-0.8835560628467146
-0.7559104411031964
-0.4276476338841683
0.46598219412538283
0.7591996258386269
0.6752982644888483
0.15323213625378862
0.00514374156358092
0.3160182414216415
0.8828861609473744
-1.919857763178315
-0.6700020198218045
-0.045789111178240464
-0.01116348104912048
-0.641909917620193
2.019944864413203
0.9071054020346836
-0.11191025008909737
-0.8371135144155689
-0.7102806037732601
-0.375794676941858
-0.050859348078292003
0.2823907074768029
0.4640459677656652
0.3339972015960874
0.11353001027300506
5.178335196045507e-05
-0.22398754037944557
-0.37445782628331503
-0.4516631965392565
-0.23878652335110429
0.08332400618648016
0.7094758395823392
0.5839013201333066
0.3898835284208496
0.1661799801822137
-0.4497649533813446
-0.9645608413916571
-0.5788414095765936
-0.16556435527159893
0.111863658215054
0.3450683023744131
0.6066654437814942
0.4801727364332691
0.41551957982839466
-0.077001586563299
-0.19401319669349798
-0.3792996139189507
-0.45653962341345883
-0.575383373503672
-0.1866861878337717
0.1470761754552558
0.31196177479550313
0.5891422221009656
0.6086097269700295
0.32837026070143066
0.04847602035565847
-0.3436788338337837
-0.9129719065027446
-0.8248472359096686
-0.32508280831282205
0.036547133400630157
0.5428174611153211
1.026005474626183
0.7942679285995259
0.19406199220767067
-0.1777510993706511
-0.616827612519268
-0.8299398336663255
-0.4569652343568318
-0.01999960111999998
0.2890281168026069
0.3856096078596936
0.44889015913225183
0.07405883449892404
-0.16610616830304198
-0.34544831258025493
-0.19639529361124286
0.08547997193937994
0.2413734225664015
0.35490535880772267
0.2675230125271662
0.006455995885181915
-0.37697502585128084
-0.36718380428054354
-0.3547854745895182
-0.22933373793251755
-2.0643270672018716e-05
0.158697801696484
0.2479050274710763
0.3880781198744548
0.7834068174169498
1.1198152817398712
-1.3994265931742362
-0.7900941678681946
-0.2176353434127628
-0.5483036494186719
-0.938914099226799
1.532709030745106
1.0110010513949856
0.20450298316725335
-0.04953548991291911
-0.185863519770981
-0.28196093055401483
-0.6153018971850741
-0.4266347151029148
-0.10416885348859999
0.2058702096959604
0.36792020268451675
0.6193251531441494
0.5433946358543289
0.06633453678520602
-0.5188639105257533
-0.5104263490665896
-0.5551237149161623
-0.4232749134933996
0.18760647271095804
0.6218224659917272
0.6201054320996362
0.27849125322205814
0.02715795105553285
-0.3649522373562858
-0.3654139601914576
-0.4467227037752618
-0.061751423698844836
0.16526952225833033
0.4321512242045805
0.1434678865046885
0.0960130250058107
-0.12822806951143187
-0.16019591639005884
-0.23631591853637046
0.00933996586838535
0.14953454308297914
0.1644326191893963
0.040445746846971296
-0.029867076866617194
-0.04568164175066573
-0.19476822406410835
-0.051952183768207455
0.018502406719959605
0.05605665712801894
0.09436323554234059
0.15234409804926616
0.02924238825081453
-0.0944285037485669
-0.05037611891711196
-0.07280163981084575
0.011407391061561892
-0.00999341975392895
0.0689869868788749
-0.12766245982928492
0.03850930399056444
0.014360039155437593
0.047600110894692786
-0.020939009443777606
0.0361803120865285
0.02878365034517886
-0.052288488655423064
-0.033676976634872534
0.044563891537641585
0.13522781201849565
-0.00787002288889885
-0.020335526841969608
-0.11766553936968754
-0.08822291333527474
-0.09153238827886476
-0.06376727589209963
0.06974200996316822
0.17756127835771868
0.10520314126080654
0.06301275169581982
0.022317949744179458
-0.07939567431785337
-0.12626348962775283
-0.00846428090998876
-0.007159020291979684
0.01728368513718675
0.03256470469082045
0.03717418859866833
-0.14112219500249035
-0.050851761544048316
-0.026347488963269165
-0.0005111317915713536
0.08114187325678905
0.24845810211112596
0.1004395727927526
0.0076229138186061935
-0.07680578372735891
-0.20032514511050414
-0.19442927325112677
-0.06390010042796268
0.014253829592904194
0.08211693029389334
0.18599096942873147
0.16096162424818017
0.02036940649496647
-0.04659379875282867
-0.06922745561059214
-0.08455489093152715
-0.12575865372389072
-0.013720767878960085
0.04613589181080525
0.06171668743792953
0.04868037161162297
0.024041858212028235
0.0011758556170969896
-0.012651601100099101
-0.016237221989991567
-0.012646557486326057
-0.006694435969729006
-0.0025959027369845036
-0.0023744309710500445
-0.0052927056471310085
-0.008323499908451699
-0.007503116542793269
0.00013999430868510946
0.014550754842345788
0.03113075534358253
0.040419735274538314
0.02948788147818484
-0.014925432139684057
-0.10221090984377194
-0.03397625989552077
-0.0019373677710798085
0.011450808648265315
0.02976226838260148
0.07786411730843949
-0.022863716411850338
-0.05820609230081518
-0.023227082122982523
0.07709658108201843
0.028588918384254848
0.010028071829540559
-0.003207211711858485
-0.03446435548368993
-0.1012385207610181
-0.012090059611870192
0.03392577723974356
0.04525670710805592
0.03425336800138383
0.013448033857741336
-0.007081734064899469
-0.020816293360420374
-0.024666974458486098
-0.01831829489668651
-0.0036896041695975487
0.015214575287474807
0.03228377670596322
0.03967312381199225
0.029135685690978082
-0.005522426706827118
-0.06541841334550934
-0.1442717949609734
-0.028300658437730893
0.100796239652221
0.060359870509926916
0.06085596118660956
0.10208169886064987
-0.02679056528568006
-0.14332733478971033
-0.06582033418177648
-0.007726125451989875
0.025329382627637932
0.03533482238656276
0.029299509109321595
0.015823121617196227
0.002214758026093175
-0.00708628233462443
-0.01071780850668542
-0.009627329033513297
-0.005899671494436331
-0.0016775161392799996
0.001531744041590008
0.003093207169203145
0.003121398096871854
0.0021685396439113866
0.0008909672652808512
-0.0001942078548039128
-0.0008194859829386212
-0.0009588732432048961
-0.0007473726198520562
-0.00037979828408117757
-2.8078729630214246e-05
0.00020394327995446938
0.0002878845320817762
0.0002519587329742627
0.00015139355512385603
4.1288709421738044e-05
-4.0518064893290374e-05
-7.890979949776884e-05
-7.785950583174677e-05
-5.2180176986289765e-05
-1.8924563161769802e-05
8.754909055778212e-06
2.4274969688470598e-05
2.7261743049897567e-05
2.1386862648215317e-05
1.1736803759257475e-05
2.707174343990206e-06
-3.114218737651002e-06
-5.090378678605827e-06
-4.017293852541757e-06
-1.3494487120932302e-06
1.4955613484547048e-06
3.565524236230654e-06
4.499617792091737e-06
4.42372870414733e-06
3.732448565178738e-06
2.8673453186583436e-06
2.1620185841016985e-06
1.7777274124124558e-06
1.716399629597277e-06
1.8785468699671583e-06
2.1315338049281504e-06
2.3631107960382267e-06
2.5089293060280775e-06
2.555015188516126e-06
2.523625621667591e-06
2.453002395569398e-06
2.3795766243213596e-06
2.32727359174004e-06
2.3046451473954796e-06
2.3078490890411614e-06
2.326399113151568e-06
2.3488748309714913e-06
2.3668259886434572e-06
2.3763166553484867e-06
2.377494610630337e-06
2.3730454745884266e-06
2.3664232130320197e-06
2.3604909197683075e-06
2.3568450357040847e-06
2.355782730555167e-06
2.35668640969813e-06
2.3585522532928236e-06
2.360445078306789e-06
2.361764744666108e-06
2.3623102458698533e-06
2.362195801637202e-06
2.3616994709400378e-06
2.361116274361646e-06
2.360659969854636e-06
2.3604262422018094e-06
2.3604062297689906e-06
2.3605276836306104e-06
2.360700776310233e-06
2.3608525681857306e-06
2.3609435496596032e-06
2.3609676837023247e-06
2.360941995175543e-06
2.3608927923104395e-06
2.3608440537125164e-06
2.3608108068053927e-06
2.360797729320857e-06
2.360801491703772e-06
2.3608147361176766e-06
2.3608298502362616e-06
2.3608414344240294e-06
2.360847172844088e-06
2.3608474230352307e-06
2.36084412259509e-06
2.3608396046937386e-06
2.360835725253676e-06
2.36083345950064e-06
2.360832921309246e-06
2.360833644034847e-06
2.3608349392273726e-06
2.360836192768051e-06
2.3608370290682136e-06
2.3608373405845153e-06
2.3608372229110268e-06
2.3608368703660864e-06
2.360836479141321e-06
2.3608361854361337e-06
2.360836045020093e-06
2.3608360453813246e-06
2.3608361347051565e-06
2.3608362524656404e-06
2.3608363514983914e-06
2.3608364078004562e-06
2.360836419508746e-06
2.3608363993498834e-06
2.3608363653134814e-06
2.360836333109635e-06
2.3608363121072944e-06
2.360836304741643e-06
2.360836308301251e-06
2.3608363176637183e-06
2.360836327778425e-06
2.360836335215081e-06
2.360836338638292e-06
2.360836338454597e-06
2.3608363360459532e-06
2.3608363329805745e-06
2.3608363304555167e-06
2.360836329059718e-06
2.3608363288136907e-06
2.3608363293718863e-06
2.3608363302648848e-06
2.360836331091267e-06
2.360836331617811e-06
2.3608363317904466e-06
2.360836331685318e-06
2.3608363314372194e-06
2.360836331176021e-06
2.360836330987983e-06
2.3608363309048702e-06
2.3608363309140656e-06
2.3608363309787997e-06
2.3608363310584903e-06
2.360836331122794e-06
2.360836331157311e-06
2.3608363311622175e-06
2.360836331146858e-06
2.360836331123465e-06
2.3608363311022836e-06
2.3608363310891063e-06
2.3608363310851023e-06
2.3608363310881517e-06
2.3608363310947128e-06
2.36083633110145e-06
2.3608363311061977e-06
2.3608363311082064e-06
2.3608363311078553e-06
2.360836331106121e-06
2.3608363311040517e-06
2.3608363311024165e-06
2.3608363311015653e-06
2.3608363311014755e-06
2.360836331101896e-06
2.3608363311025076e-06
2.36083633110305e-06
2.360836331103379e-06
2.3608363311034707e-06
2.360836331103384e-06
2.3608363311032106e-06
2.360836331103037e-06
2.360836331102917e-06
2.360836331102869e-06
2.3608363311028807e-06
2.3608363311029273e-06
2.3608363311029807e-06
2.3608363311030226e-06
2.3608363311030433e-06
2.3608363311030446e-06
2.360836331103033e-06
2.360836331103017e-06
2.3608363311030035e-06
2.360836331102995e-06
2.360836331102993e-06
2.3608363311029955e-06
2.360836331103e-06
2.360836331103005e-06
2.3608363311030078e-06
2.3608363311030086e-06
2.3608363311030086e-06
2.3608363311030073e-06
2.3608363311030057e-06
2.360836331103005e-06
2.3608363311030044e-06
