0
8.927875821094982e-18
8.039378528244018e-18
7.227109441359567e-18
6.935614980251695e-18
7.610822732647324e-18
9.481081776579872e-18
1.2318338726892817e-17
1.5285616519139707e-17
1.699605398655514e-17
1.5877206877888235e-17
1.0838259248727912e-17
2.087149700604114e-18
-8.218067208564872e-18
-1.5900842359015265e-17
-1.5652815797758145e-17
-2.9929364660553788e-18
2.304399736159658e-17
5.739096091586021e-17
8.794453508646654e-17
9.744555350800947e-17
6.899218296464255e-17
-5.423133835595539e-18
-1.1580489272581337e-16
-2.2863096224778446e-16
-2.8971732540827485e-16
-2.389281651027632e-16
-3.6357296065939e-17
3.062634247364586e-16
7.013734536444286e-16
9.847216931542176e-16
9.517988915579092e-16
4.3525649840355875e-16
-5.910516565741033e-16
-1.917225809874819e-15
-3.0637543677569463e-15
-3.36133501199912e-15
-2.1705588234316046e-15
7.856261392313557e-16
5.075055305134434e-15
9.357675026884764e-15
1.1518978805041199e-14
9.262558700637089e-15
1.1362363422621454e-15
-1.2262259746911056e-14
-2.7390036305303626e-14
-3.77955736601732e-14
-3.560989684218357e-14
-1.4601816780316958e-14
2.5800602952615208e-14
7.694337966369097e-14
1.198564446115674e-13
1.2861466711746227e-13
7.907730420850276e-14
-3.8179281501056595e-14
-2.0467521503855927e-13
-3.669382692900186e-13
-4.4254532023577147e-13
-3.4393798669762067e-13
-1.859235512210919e-14
5.047611749473076e-13
1.0831342405391507e-12
1.4634289577285275e-12
1.3432582540484304e-12
4.913588293056038e-13
-1.0971555773846226e-12
-3.066989897832923e-12
-4.668703298488517e-12
-4.899273044553673e-12
-2.849215831493417e-12
1.794908862276511e-12
8.250067792418404e-12
1.4386219833016325e-11
1.6994194454438228e-11
1.2740870071317213e-11
-2.601471212697451e-13
-2.0679147799206533e-11
-4.275889888117281e-11
-5.658204229158179e-11
-5.054388667669964e-11
-1.6092033076762487e-11
4.628719981635298e-11
1.2206209061159017e-10
1.8166462881731468e-10
1.8633464820739836e-10
1.0188614043135639e-10
-8.179026574276002e-11
-3.3177039315478534e-10
-5.633441534646673e-10
-6.51704095095104e-10
-4.701790677768502e-10
4.842164381960088e-11
8.441712067096156e-10
1.6857753245248095e-09
2.1850913508495963e-09
1.897372509415457e-09
5.075925272761475e-10
-1.9390097994099798e-09
-4.850116107046366e-09
-7.0606919549979e-09
-7.07471515045899e-09
-3.610327562135166e-09
3.6441340609759244e-09
1.3313413504243874e-08
2.2033946403262688e-08
2.4957411200647522e-08
1.7278272449759415e-08
-3.3731281874291466e-09
-3.434890197651653e-08
-6.637620173850615e-08
-8.428172096161893e-08
-7.104456997765969e-08
-1.5112090189005293e-08
8.07328516284682e-08
1.9242252820924902e-07
2.7411097950809575e-07
2.68126987138025e-07
1.2653176935353386e-07
-1.596068941299964e-07
-5.331720817625294e-07
-8.608090348163827e-07
-9.543940415765923e-07
-6.319556788908891e-07
1.8907533070615392e-07
1.393478367365508e-06
2.610222375436902e-06
3.2468365126221003e-06
2.6528602052834473e-06
4.0674309307633164e-07
-3.3435405839220176e-06
-7.622846683755128e-06
-1.0629315128526426e-05
-1.0142508210803502e-05
-4.374727740039913e-06
6.896799101665746e-06
2.1311802468907896e-05
3.359087716279072e-05
3.644291553144157e-05
2.2990647034325185e-05
-9.599910468915324e-06
-5.637596199212626e-05
-0.00010251908215254933
-0.00012492170807888917
-9.876374477512507e-05
-8.75045821574269e-06
0.00013782098169909496
0.0003015442619489939
0.00041168628296955716
0.00038286163681428996
0.0001486059295967297
-0.00029488882552899346
-0.0008505311591935726
-0.00130961192709788
-0.0013898638545303023
-0.0008318429983593033
0.00046003693355990054
0.0022754440214133
0.004024522632603036
0.004808851691318418
0.0036860386320858723
0.0001100709240660225
-0.005567571355649504
-0.01174815304711553
-0.015648986434385913
-0.013992236952695913
-0.004351517062484705
0.013107922334445557
0.0340914109194684
0.049657045549386235
0.047472365406668
0.015123067475774058
-0.055124084924681675
-0.16171847934773087
-0.09162800192174826
-0.022421677217106754
0.0711048384118315
0.20780106603024023
0.19234181388604213
0.012564234930043225
-0.1562732600488594
-0.1418666353089677
-0.16414707121679017
-0.02822842714899364
0.0761808496007047
0.16930699316246528
0.07286254863615017
0.002544526491107794
-0.03576079974012703
-0.04550413620861215
-0.036039678894477144
-0.018286083013944677
-0.0012137426300183652
0.009966226075420663
0.013898455581745012
0.012014106796757006
0.007027110423207752
0.0016082179190078482
-0.0024234234916700776
-0.004335333932522581
-0.004288261126361814
-0.00294223957300914
-0.0010702412813131913
0.0006940201955090282
0.0019442369157103149
0.0024712062376896584
0.002194665047597044
0.0011298426938303717
-0.0005791142245462027
-0.0025809923476145195
-0.00426313019125333
-0.004807164000565396
-0.003416429929365548
0.0002932390581009802
0.005847534969707002
0.011617092276105615
0.014919715479760946
0.01271583257350548
0.0029101829347067914
-0.01401514826525768
-0.033622473076934306
-0.04717398636526079
-0.0430112197740009
-0.009865609734460906
0.05853823997666584
0.1591689868561008
0.07777692905999016
-0.008956209810017024
-0.12713948382817827
-0.09728018104196276
-0.12714486014191478
-0.008965765881152566
0.0777657048080046
0.15915990400075716
0.05853587769830879
-0.0098572153258957
-0.04299059987258441
-0.04714439822299538
-0.0335931421462665
-0.014000358481015584
0.002895030366532969
0.012661055815791227
0.014829407188478685
0.011515116637540125
0.0057772905888709035
0.00030766056876555556
-0.0032753871304256506
-0.004535556627877696
-0.003919036335112262
-0.0022919032284990635
-0.000519412791807199
0.0007975857086160036
0.0014066523054920746
0.001351180549546011
0.0008513622385181782
0.00018256578323872096
-0.0004106991239532713
-0.0007566216706590779
-0.0007665440925129994
-0.00043424140638307024
0.000161925403413193
0.0008542982604235952
0.0013934744673506116
0.0014894023116191603
0.0008999994522489291
-0.00044062935422908107
-0.0022931642289242362
-0.004049690916247047
-0.004810668958198485
-0.003650773852704726
-5.5377486054743805e-05
0.0055877149278818605
0.011653548735735717
0.01536369329406267
0.013500243174317547
0.0037834687189812854
-0.013345290624554583
-0.03311719065530498
-0.04579925899427466
-0.03775523456300437
0.005521053776207631
0.09490967760295387
0.03303051875118132
0.011167804495457637
0.009071122129037438
-0.002009387126040018
-0.053719992143736954
0.026237369065403294
0.02065912290015706
-0.07227522381318088
-0.03691390435788177
-0.04167378714907934
-0.04454219299273244
-0.0019770778053394395
0.12052133009511504
0.13892083955836967
0.04532870186223799
0.009053134284710008
-0.015680482338886807
-0.07740591658898256
-0.21420928829216074
-0.043763689606883906
0.04035496432648659
0.06531360514943074
0.07040347853212096
0.09649624165748671
-0.02310126165799312
-0.0683374271820453
-0.034250994055053746
0.07028268700858324
0.025863997042215092
0.007218212967376031
-0.01137600646341729
-0.05074795573869451
-0.1229240389101428
-0.030045827677659977
0.03318138846838209
0.0741863061002316
0.09651132861085775
0.09591669534938385
0.06089663772207154
-0.02181060456242696
-0.15840039636577044
-0.13951419923798902
-0.1364862354206537
-0.10566038174229836
-0.0013528879513443452
0.20557482408147984
0.3097884469762512
0.26192095668741755
0.17369381707800277
-0.0604565658407392
-0.3297453887652187
-0.47164223042109743
-0.24750045399802678
-0.13973292895411052
0.025608829246164654
0.235548394542296
0.43810048863483286
0.29674166782938416
0.16542997240389512
0.09247631151292814
0.05346440577242829
-0.1945408150833139
-0.45110033100124214
-0.4190743131387602
-0.27477217579604446
-0.07081553872539795
0.02796530041498586
0.2847697393767057
0.5234762034273309
0.6726471076176308
0.1370245002444593
-0.19554109923952548
-0.31523440570542816
-0.4334035879523086
-0.5266102025245518
-0.09845012536042645
0.23181237203715688
0.3149137442087743
0.24108354800120346
0.10628393547915939
-0.014042361014107626
-0.07840869428428619
-0.0801317926087705
-0.039275563762994396
0.009687123911590429
0.030684949966445742
-0.0031138400895563702
-0.10186660421373661
-0.05600242171680937
-0.03819876692886852
-0.010266765475845983
0.06649732232735593
0.2203194955067644
0.06082836022311897
-0.02331255326704309
-0.060160744195666714
-0.0853486901290762
-0.13155089033046924
-0.020282050560612223
0.04156836975466506
0.06015088754135994
0.04959874636849428
0.025977579669778292
0.002433288655962091
-0.013307070073101406
-0.019058010694979772
-0.016667158577309195
-0.009883487944544135
-0.0024577939414517614
0.0030393066882434803
0.005588294325056878
0.005468428335780382
0.003692255548987402
0.0014192446932171068
-0.00046068736602707355
-0.0015062976118013212
-0.001698191246246103
-0.0012901394023275817
-0.0006297238429550841
-1.5545484974115477e-05
0.0003778792653003308
0.0005089596202708064
0.0004331802472144189
0.00025014865931088004
5.633170813858042e-05
-8.387075841116717e-05
-0.00014642973049928764
-0.00014035281275495354
-9.274210985235235e-05
-3.369756397711093e-05
1.4170023910880647e-05
4.0039172482989724e-05
4.392238330972567e-05
3.2683343761747e-05
1.5380480259972025e-05
-3.637323705420618e-07
-1.0212283587084842e-05
-1.3259394208226442e-05
-1.1052803670203615e-05
-6.2100637097369276e-06
-1.209418955840791e-06
2.331810417034888e-06
3.845365943444486e-06
3.603968582299791e-06
2.3274182808354512e-06
7.93947325484737e-07
-4.2391215342642075e-07
-1.0623125319295416e-06
-1.134997228052798e-06
-8.270667337789933e-07
-3.7432678092762317e-07
2.886393434325354e-08
2.7497783409954614e-07
3.449585833133501e-07
2.816712829927966e-07
1.5379470320502304e-07
2.4925141477796428e-08
-6.438792070336243e-08
-1.0082197316228357e-07
-9.243636324350678e-08
-5.83064601059831e-08
-1.8529713359618223e-08
1.2416611936587098e-08
2.8125737931982042e-08
2.9295192934404346e-08
2.0900168338530018e-08
9.071108058853932e-09
-1.2421988003491268e-09
-7.380479017455167e-09
-8.962986465370993e-09
-7.169413803354452e-09
-3.798945755181227e-09
-4.817122736263415e-10
1.7674400734488627e-09
2.639433298073431e-09
2.368134942252992e-09
1.4580294239708233e-09
4.275199124467168e-10
-3.5783477386214603e-10
-7.431769247940276e-10
-7.552562102181148e-10
-5.27391145892358e-10
-2.1875838853408408e-10
4.473934892966867e-11
1.9751287042629633e-10
2.325882375511515e-10
1.8225446236137246e-10
9.35752476118497e-11
8.286985464685774e-12
-4.8259607753909286e-11
-6.898725375475786e-11
-6.058843726507749e-11
-3.63816893401389e-11
-9.724695794727487e-12
1.0166496447214598e-11
1.957206378712543e-11
1.9411839956472018e-11
1.3255873699096501e-11
5.237459736895145e-12
-1.445590132927837e-12
-5.190153595201103e-12
-5.9089967440985095e-12
-4.506931260983444e-12
-2.235174795797475e-12
-1.667482323046013e-13
1.089080004637837e-12
1.429298477081462e-12
1.1250940598970619e-12
6.091694495586278e-13
2.665588472645803e-13
2.8617405972709273e-13
6.01718170215275e-13
9.278841094585114e-13
8.806156771570641e-13
1.541438196657267e-13
-1.2908950162669557e-12
-3.0925370380706952e-12
-4.479519412420684e-12
-4.450597940809318e-12
-2.153614857784035e-12
2.6060275136863468e-12
8.897282324257268e-12
1.44827183053013e-11
1.6175104414932336e-11
1.086424190107222e-11
-2.903508426222855e-12
-2.32492985960086e-11
-4.395734769432227e-11
-5.502481026704447e-11
-4.539592556758757e-11
-7.800439584079728e-12
5.5466525980021276e-11
1.281245563329392e-10
1.7981494313974765e-10
1.728914733577644e-10
7.674375484695612e-11
-1.1303357885324561e-10
-3.5725987171921286e-10
-5.671790776463116e-10
-6.194255981069702e-10
-3.9673285481206615e-10
1.5073546835816575e-10
9.416866099738357e-10
1.7276500269858883e-09
2.11839320132102e-09
1.6919524548499054e-09
1.8416671955702955e-10
-2.2895454924958e-09
-5.070746737878573e-09
-6.9672857860926675e-09
-6.531027760940577e-09
-2.6229409199074476e-09
4.846154428714615e-09
1.4262269863424618e-08
2.2115080596346647e-08
2.3627185958690435e-08
1.4373050566001994e-08
-7.33577659889267e-09
-3.802987374251426e-08
-6.779795214636344e-08
-8.143226305511438e-08
-6.284902754068747e-08
-2.5063447162945834e-09
9.409627451439141e-08
2.0039766638145292e-07
2.696400101384051e-07
2.46189179910633e-07
8.780018671679859e-08
-2.057922407695869e-07
-5.68376596340172e-07
-8.6130966716495e-07
-8.998008619700648e-07
-5.171950583622769e-07
3.423702866579203e-07
1.532127596290877e-06
2.657396143362041e-06
3.1261915237542075e-06
2.3264453324553234e-06
-8.401360022643307e-08
-3.852174214032055e-06
-7.909069517972726e-06
-1.042297712519422e-05
-9.259398938125038e-06
-2.857240696898996e-06
8.669030819345939e-06
2.2613251997584538e-05
3.350690931493771e-05
3.4210771305238346e-05
1.8463498466668972e-05
-1.552309621972709e-05
-6.158643986129187e-05
-0.00010403536731057837
-0.00011985234431689745
-8.578452536498841e-05
1.0333301233571105e-05
0.00015714767559989523
0.00031173034275880287
0.0004024064953529772
0.00034739110192890743
8.922446886300579e-05
-0.0003627928619785462
-0.0008984346519745897
-0.0013022878157265894
-0.0012988476119936583
-0.0006533823764937645
0.0006887908000546202
0.0024709992379828775
0.004071272931508418
0.004597345395656961
0.0031703404668985773
-0.000633050270389354
-0.006305869087252812
-0.0121192206379975
-0.015265150006624815
-0.012619726966999407
-0.002118647299396125
0.015560332054817877
0.035628296106982184
0.04893314520541169
0.04351430046241451
0.008131494261268421
-0.06295327918400061
-0.1656332457916719
-0.08426680500451546
0.0056631438360054106
0.13055354820302703
0.10958605865412412
0.14723902179717693
0.030848337366627312
-0.06534724246163788
-0.17106269901202406
-0.10940721562130348
-0.08922526332057064
0.09670856147111064
0.0673296634848451
0.04497881695169819
0.046608706059164375
0.07761519350635504
-0.06995450055856345
-0.014681015156717781
0.020274276813887413
0.014637681809990062
-0.04211668605258497
-0.14638411713621785
-0.08010659238458172
-0.015366584068641382
0.07676605901400704
0.2158018594223911
0.20392624604419957
0.02448277148031867
-0.15164044242558794
-0.15379981080370275
-0.19862139642814153
-0.08198157278800068
0.020391931577413046
0.1437402154410974
0.12017269538667275
0.16529943227770114
0.07091433675268853
0.006674907102437357
-0.06968011965152021
-0.19724005611092227
-0.1975368062450219
-0.06633123654551909
0.025217665408066883
0.12044042319134865
0.2620793182657961
0.07806402625270024
-0.02673036805702803
-0.07044459354679199
-0.08710060821885157
-0.11596196774045353
0.008582250431992825
0.0638257544977325
0.04139993718198004
-0.05351028602526351
-0.005101189285035887
0.009039025542735292
0.013589510438579972
0.03151992380565944
0.08122785190630828
-0.024646999095996613
-0.07875213975843405
-0.07769523484365137
-0.021116719782035432
0.08793497234068544
0.04148476249352738
0.025149283652693873
0.01810185284673296
-0.0047659879925959206
-0.06877306616187503
0.005421802061379095
0.006083074757615319
-0.06711371251590836
-0.0029916768486256367
0.018816578211548078
0.023760178303512017
0.03758484264312593
0.08220678222726795
-0.02670947276096985
-0.0801964800960175
-0.07511589288468327
-0.013176676057181513
0.09928448791369728
0.05090494576198449
0.02533452133740478
0.0028043537966734922
-0.036548071965317334
-0.10851098825842166
-0.021380017885541728
0.025293091671763204
0.03931369485111859
0.03252267962405098
0.016958194638979154
0.0018572621482807739
-0.007763317807512483
-0.01093227202922512
-0.009447682471514311
-0.00617892139012247
-0.003552384199978865
-0.0026139229950976088
-0.0028213384278433285
-0.0025184024580237447
0.00010716792556223162
0.005886596500032233
0.013730582647010974
0.02028180516607705
0.020471746268424722
0.00906660625071415
-0.017089974622093503
-0.05687172368859463
-0.10374336323608606
0.05335265173606522
0.026854588854083095
0.0260086238618765
0.052537007551686964
0.0983491884674213
-0.05354207367019707
-0.02487722608905223
-0.03599676174679919
-0.0997333828447367
-0.017435454031555535
0.021595517552776628
0.037267045342215935
0.05371879882591267
0.09412510531143727
-0.02302230258618024
-0.08542808021220938
-0.08683119270073124
-0.026488777294109037
0.09060246161262368
0.05277292760509281
0.04120125901060608
0.031340325084111394
-0.0030564874003563016
-0.08389559059122377
-0.02240166649427824
-0.014678138652504133
-0.04109070668767632
-0.07054422822099389
-0.06964664546953848
-0.015576845059867296
0.08988507171878979
0.20911303494310735
0.2649353538731853
0.14851334857677537
-0.06004071535817748
-0.261724334516398
-0.30737512139352674
-0.37533090916031076
-0.1666477110518483
0.2789588381760589
0.35067470947108603
0.2280433306385169
0.2486869909216136
0.09155054945562568
-0.22158980803121514
-0.3105802411496118
-0.2162886317432891
-0.18477571032173404
-0.06280484152132121
0.09458894222066616
0.4097992689934146
0.3710018058924563
0.23298335320629324
0.23637777924051104
-0.3561346128205248
-0.616440730187146
-0.5160451822982752
-0.31539349447710274
-0.18666153471271188
0.5323397451755316
0.6674771280237166
0.5426757422939987
0.34088012955588354
-0.09539353814618451
-0.42419742004920186
-0.3378327784065793
-0.2899762420026663
-0.23587161469748544
0.0009302109696207862
0.13043552232700706
-0.03026005650235346
-0.0034606533961336525
0.0931499471252757
0.2916716241984355
0.1299455154914385
0.02597732716084655
0.07517119492682782
0.07048273817390284
-0.058380841597752024
0.006466822338057519
0.026042049008696704
-0.3467299136745435
-0.3341382995929068
-0.225031507649626
-0.1950275506187373
0.0459212169867786
0.3874984998031271
0.44963566890383694
0.32748077151710386
0.3659258713905418
-0.028479007978471322
-0.14044579855725847
-0.27554021632885733
-0.48467779810402434
-0.5032088333774288
-0.12039386924325944
0.01323631846267532
0.14363358716740526
0.3485498695042337
0.46839934795549143
0.2509259308742894
0.12325595143787439
-0.003231314043526353
-0.09893711279186594
-0.3642023000496216
-0.3748494053960402
-0.24021854106218635
-0.18456238129238994
0.04466849961453243
0.3464695046576036
0.425468138819775
0.35523666901009837
0.15820158927741604
-0.1921049106569374
-0.3495455626774646
-0.36503987204959965
-0.2605256832633528
-0.017528028385142797
0.21621314305184552
0.30629795208946475
0.3068652376620824
0.04162191881468578
-0.10278243861269604
-0.17047991440666477
-0.22188797932824275
-0.11790489189888469
0.09156020218406963
0.17263034905175273
0.1076951909535096
0.0943574951290487
-0.05407194761235081
-0.10619157249797931
-0.21054673944579894
-0.09767578888377391
-0.08891691277503504
0.08799646226460052
0.28004113096637967
0.2929229744095376
0.08463124545997369
-0.027481867549318476
-0.14700789930198838
-0.37208821473564824
-0.17096340246986635
0.03271507531201243
0.0609842991946374
0.17048079287673135
0.23452831311681982
-0.07512444882237153
-0.10213279459718784
-0.013239549037853035
-0.0006588268101868124
-0.0808743279933577
0.10901274120231454
0.11724668925651381
0.08610668659403617
-0.03664464389461123
-0.08494584799574752
-0.2634956230564778
-0.1429604253545183
-0.06473386587133766
0.04430208209432259
0.25061810500576787
0.3934804939926089
0.272953754959608
-0.14810956392493846
-0.3282505330938891
-0.3241699237721744
-0.16999480316636947
-0.06760744647672962
0.20880241956159307
0.29727176112823744
0.22940298668117198
0.016751558220185325
-0.15274802481774238
-0.10841039963867548
-0.0847419645009511
-0.10939538834688334
0.004416076936566512
0.05923697892651334
0.0692686405841331
0.05345197641513028
0.028771765287065546
0.006055218708119133
-0.010849452137003333
-0.022979866087829672
-0.03261698085115208
-0.03978072842007908
-0.04034294767894483
-0.026609107727015472
0.00969362315839537
0.0731016833982182
0.16067748857019445
0.060949273556399876
-0.043209086184733375
-0.16832720066601978
-0.1232842810016552
-0.10490701888973926
0.10133646549572327
0.1155933257817795
0.1554359850816778
0.028953718849169707
-0.06806091819048524
-0.1503150637720842
-0.038291377026189906
0.04692553158593298
0.0876379765696456
0.07222340808032851
-0.002729419063812013
-0.13048444040798815
-0.09321973462709109
-0.06365451900095193
-0.01033865891750258
0.09397634577463965
0.2634637638948657
0.0935455038463046
-0.038557823709027765
-0.16653612021773834
-0.12361350768118587
-0.13170999855168786
0.00463022832109736
0.09773411528283532
0.17093238665917032
0.050606278293232686
-0.04041844288588941
-0.08629161019886773
-0.07868644416313768
-0.01608433417118917
0.09677916274151897
0.049057452523463684
0.0243525904419872
0.0026718100811834525
-0.036028177592679636
-0.10760269975553631
-0.020327749223112767
0.026287360443717444
0.040063772745078934
0.032826571738020054
0.01660928241975664
0.0007237858856632059
-0.009604749406062265
-0.013067236928147133
-0.011086665719543603
-0.006298073004516365
-0.0012508565518077584
0.0023655374802664425
0.003934775431940547
0.0037107710231705057
0.0024172213289923457
0.0008478629679035148
-0.0004079311623720027
-0.0010746631580197243
-0.0011617605731032404
-0.0008560603459122142
-0.0003981386489095763
1.2924940017528347e-05
0.00026690902307217727
0.00034447852252005555
0.0002896005408360276
0.00017162798823702136
5.2719231184875315e-05
-3.0793370007177676e-05
-7.161744517935134e-05
-8.297880758882694e-05
-8.452444920215913e-05
-8.895558719342444e-05
-9.427757391002582e-05
-8.42987315167286e-05
-3.738958759451572e-05
5.9190042467010994e-05
0.0001945461757546886
0.0003257510636654002
0.00038243065694561413
0.0002882219786413435
-2.7771059546373803e-06
-0.00046438999207858416
-0.0009691355616079027
-0.001292696934169971
-0.0011690147326723734
-0.00039785092085679375
0.0010179922266701418
0.002756340643661878
0.004149710165622779
0.004315047109521972
0.0024656169738491826
-0.0016429565403125591
-0.0072748174417245955
-0.012506077837869407
-0.01448679885671828
-0.010325011795794902
0.0014637382874880093
0.019292770952958938
0.03726055232450324
0.04508243971033144
0.0297639528411007
-0.020987436394712417
-0.11444832754055431
-0.049232270287713056
-0.014005185033983517
0.010500225737424275
0.0465978594626285
0.11357876189069573
0.022676915508585593
-0.025156580914785804
-0.03810344436003748
-0.0297417457959504
-0.014331762218235766
-0.0027314199750711698
1.9657851560154302e-05
-0.004907169064398034
-0.011603325007526309
-0.012308517352688298
-0.0010634218937988313
0.022706733069693643
0.05171376854335284
0.07054282758877675
0.05843770878401389
-0.004828045887724346
-0.131220795210307
-0.1173779750179541
-0.14129859837694017
0.03490221319878289
0.05603119766081727
0.16117329217594756
0.17177222081645932
0.08492829272350165
-0.12548673424712772
-0.10040874494037767
-0.08323646743563573
-0.10818065730251944
0.006905314787920859
0.06162681372111696
0.0689063601565056
0.04807056918339731
0.018016073896747187
-0.007471082925189707
-0.021489156860295237
-0.023314311274106988
-0.01628186787117334
-0.005379205756812566
0.004669110379355285
0.010523758651216615
0.010653532307280092
0.0053346278444258615
-0.0035335155216506624
-0.012729469524668961
-0.0182464330186727
-0.016254546878503837
-0.004564981808388688
0.015619017337084885
0.038240514571104486
0.05204144187707064
0.0420847976320906
-0.0066139030581103255
-0.10400212097299642
-0.05003544577570512
-0.03184964101372891
-0.024580782035487688
0.0038756503626238233
0.08530178506799839
0.0429810817203544
0.08543589067305711
0.004088384549234538
-0.024388168364993034
-0.03179345254066027
-0.0502103498794595
-0.10443378636283979
-0.007216933834747791
0.041522698125313
0.05182659034539447
0.03867847682223367
0.01686693006585425
-0.0026586117036418977
-0.014251982639342525
-0.01708115995502581
-0.013462096965618677
-0.006904369611752709
-0.0005460250323644807
0.0036980869206468332
0.005281826014493853
0.004687144725303671
0.002886604281770556
0.0008534212071404703
-0.0007411834708605335
-0.0016146367445365516
-0.0017961901354085006
-0.0014759155298476317
-0.0008646079075303087
-0.00011840239860195641
0.0006596202169381926
0.0013657431065068886
0.0018374155298727058
0.0018408947293940047
0.001136997104516247
-0.00037805050991199647
-0.0025032909966740406
-0.0046195944479624955
-0.005730322645564947
-0.004727586481922889
-0.0008803209223155965
0.0055736292867388975
0.012968927360320362
0.01819634461921594
0.01739847055004289
0.007456101564948408
-0.011992220061918506
-0.036651917883631036
-0.0567448436733317
-0.05819020131510558
-0.02624600507398118
0.048910670213330995
0.1663937603389978
0.1112102326146347
0.05568755177255811
-0.03341484290327661
-0.18379378305909985
-0.20649833737471993
-0.08963540296881123
-0.0002559641260027893
0.10544818414397533
0.2671152228007456
0.10606749528253291
0.017525580897976848
-0.02795768759309007
-0.07468567094600259
-0.16753681837540757
-0.1384081670754831
0.0021356839534146057
0.06580825354454745
0.08086467929528209
0.08272624180909205
0.10477952800694618
-0.027717034156003257
-0.09959661157844592
-0.10461097745436539
-0.04329968392425997
0.07814588984844742
0.0474678558235367
0.04538185950341965
0.045782894329650915
0.01838005965173052
-0.06615101706535756
-0.02966300250785234
-0.08065331303065183
-0.011024760960890969
0.0032216220172309206
-0.002726786217707775
0.009864318349554974
0.07459058388970118
0.012339246230801447
0.026774948320040487
0.10416248350643319
0.01781352133441859
-0.06377217270096626
-0.16729050928099914
-0.10669422565325715
-0.07993649271662573
0.12823651369949265
0.13868271890314648
0.1689235399933031
0.026872870035894957
-0.0903385801889292
-0.1928658653038655
-0.09285813269826486
-0.0008685322144218651
0.07405209257088768
0.12118286577084642
0.12451528724316918
0.06166653064532699
-0.0931380748023531
-0.16289264754314603
-0.16142175060542785
-0.09025937808920213
0.0593146378780855
0.3002431212135418
0.24370426460197686
0.09805584811541396
-0.12457302700600283
-0.19574383870911435
-0.25825196672122136
-0.22158767682674207
-0.17140181938280247
0.005621828203595187
0.18610759966350504
0.37361972958751505
0.47468579002309547
0.49937985833651566
0.19305404940910492
-0.3037515235683347
-0.7812953433740232
-0.8951213163856548
-0.5330613187874162
-0.030643538027062534
0.3649498297042832
0.7996063575770341
0.9148127673901367
0.3787402104936601
0.06738690522884176
-0.09920083902038616
-0.47800957923760456
-0.806168135136256
-0.5148366905164464
-0.27788329460503447
-0.0075571065504790496
0.3057164467254468
0.7256968014995135
0.6985944654527162
0.4002463154489066
-0.28366432824624993
-0.5441804777033179
-0.6155996408987188
-0.5417420148785581
-0.15876513877568765
0.6994350679963441
0.780366680007122
0.392722983477302
0.0027938433278856902
-0.34566992450507233
-0.5941251762974049
-0.42964880856448856
-0.0595450398558176
0.18982234775655224
0.24999315942270467
0.07170628077991038
-0.017278317510170327
0.05327655432755533
0.2769706163013087
0.3715787809132913
0.20116168716041322
-0.18341625324398952
-0.4943138968090195
-0.5611735289024895
-0.5062346304798053
-0.15158793731139905
0.34018759062933335
0.8030838224788648
0.602678351697682
0.1908882862018461
-0.10513738812217399
-0.25855701446399476
-0.49381831480962324
-0.43088464555708805
-0.039907672174140145
0.18301935498267513
0.21751484970959842
0.10402998677739612
0.12168287110308575
-0.03323305236014778
-0.06374745090465786
-0.08301794691117417
-0.020918180378918825
-0.028287652347414958
0.12017341986523722
0.024649536360600466
0.06162663687630098
-0.011222732141326039
-0.04694252605178182
-0.09949281969691282
-0.014506791457649151
-0.022708841637165918
0.06289222262321739
0.04619912082269236
-0.05533942840350924
-0.015455069743802256
-0.004293143491591424
0.006409592351893939
0.0388421237594856
0.106225265406123
0.01239751593210397
-0.04579764767661137
-0.07407392345123555
-0.07601858476511832
-0.05029759705506404
0.00884780264580489
0.10790110873709957
0.04877113255558402
0.024276652613302304
0.016468856197728112
-0.001334755280145904
-0.05929486939460928
0.01595563356960106
0.00820567550030442
-0.08330461587340807
-0.0420857771319895
-0.03666077808034391
-0.026926458850463266
0.02646026426770273
0.15195829290504173
0.15938286074419042
0.03745484643839861
-0.04190352984666008
-0.1136424632842685
-0.20762347270686962
-0.1392946965691948
0.0933609004601298
0.10576298617750572
0.11792481740006602
0.1452008415926106
-0.007397724560327464
-0.1454721897621751
-0.0809948520671615
-0.026346040475725172
0.010426803144860374
0.02750691464347031
0.028441007151704098
0.01967415084304654
0.007862817501113567
-0.002053194123554173
-0.007639153982602961
-0.008743898097777163
-0.006680630030083175
-0.003268585820389505
-7.652216676287018e-05
0.0019747472551013686
0.0026608093870216123
0.002267040852194412
0.0013117369926226895
0.0002985080729482316
-0.000435636993795651
-0.0007643450819520788
-0.0007340331310112052
-0.00048600094543479403
-0.0001775402780872135
7.297980230896081e-05
0.00020872710851459707
0.00022952820254492327
0.00017111463057401213
8.07950837032414e-05
-1.5479956734494161e-06
-5.3167080285309e-05
-6.924963710285885e-05
-5.783186730473042e-05
-3.2573921514668814e-05
-6.434835904221535e-06
1.2110941666257343e-05
2.0069087321396198e-05
1.8846470804107013e-05
1.2196069653417916e-05
4.185060610850569e-06
-2.1888229407457205e-06
-5.539295576711269e-06
-5.931976686324632e-06
-4.3307004960002626e-06
-1.967088714914081e-06
1.4184827147722955e-07
1.4320226046224892e-06
1.8018249740543418e-06
1.473958546064312e-06
8.068870766090376e-07
1.331972233000581e-07
-3.3460675462599947e-07
-5.262656069084983e-07
-4.834326344514585e-07
-3.055839949006471e-07
-9.776342151709329e-08
6.42178315650158e-08
1.4668490555709682e-07
1.5312494864108855e-07
1.0945157118925322e-07
4.7687955252650664e-08
-6.262594446438457e-09
-3.8446364353556094e-08
-4.6821732586940676e-08
-3.752094925332552e-08
-1.9935999245016595e-08
-2.5927690182153203e-09
9.189456680937756e-09
1.3779022293458159e-08
1.2386369886285363e-08
7.642800411659903e-09
2.258140985629911e-09
-1.8530875472565994e-09
-3.876581628188119e-09
-3.948108357699081e-09
-2.7622457731930868e-09
-1.150566221722843e-09
2.2798168374319455e-10
1.0291519531861392e-09
1.2151677848274412e-09
9.539470860045796e-10
4.911977237511512e-10
4.5230345697293566e-11
-2.510544808007092e-10
-3.6024022701391654e-10
-3.169942421724149e-10
-1.9078398270703976e-10
-5.1434568117767756e-11
5.2775817966167034e-11
1.0225693619882845e-10
1.0167925594745726e-10
6.960756732355409e-11
2.760916377610801e-11
-7.574089997006782e-12
-2.7474103282122553e-11
-3.149848858174003e-11
-2.4222842790371897e-11
-1.2065959850083669e-11
-6.113532328484762e-13
6.827059055724988e-12
9.40478378770884e-12
8.103162994686736e-12
4.752808172044017e-12
1.1508654581757986e-12
-1.487089583398594e-12
-2.6925109428971345e-12
-2.6156317177639593e-12
-1.751364060807322e-12
-6.583857730191794e-13
2.3848825292167046e-13
7.316114370751424e-13
8.154974855279324e-13
6.1428552530258e-13
2.954239875614738e-13
1.550112614581093e-15
-1.8487577128186755e-13
-2.451828242786541e-13
-2.068843318160389e-13
-1.1813672682637833e-13
-2.514176533259942e-14
4.154247585045135e-14
7.078506597315847e-14
6.721828974755558e-14
4.400396595134871e-14
1.5596691545027875e-14
-7.238255534794393e-15
-1.9426859307566236e-14
-2.1078392883070972e-14
-1.554772332626381e-14
-7.197198266278733e-15
3.3365326062823395e-16
4.997555041613423e-15
6.393103639606038e-15
5.285470943019642e-15
2.939366302377348e-15
5.412073478434911e-16
-1.1420816061376026e-15
-1.848152391362444e-15
-1.7157285538560383e-15
-1.0940497519984515e-15
-3.566555720620736e-16
2.2401800937423017e-16
5.244596387218896e-16
5.53902321126107e-16
4.026924818672646e-16
1.8432784699446287e-16
-8.436600859984289e-18
-1.2489397353716286e-16
-1.5675453717777042e-16
-1.2515248619377586e-16
-6.324949802897373e-17
-1.4768531465424256e-18
4.095104112850988e-17
5.790866776156926e-17
5.346244992773349e-17
3.685963286866606e-17
1.7742043330991367e-17
2.9946089702374086e-18
-4.389034620056123e-18
-4.8109147912662566e-18
-6.9626424318286515e-19
5.0057728791894e-18
9.934171276214934e-18
1.2836258825450942e-17
1.3551276394014941e-17
1.265948933080292e-17
1.1029096468317311e-17
9.43975690864431e-18
8.371989749948084e-18
7.967198563643877e-18
8.108122152219932e-18
8.550397099819319e-18
9.045436196916896e-18
9.419495472417967e-18
9.600364952233052e-18
9.602596062353514e-18
9.491100028826257e-18
9.342411710501291e-18
9.216555179829164e-18
9.14439046624425e-18
9.128701437850855e-18
9.153639005166706e-18
9.196506430851611e-18
9.237351622481417e-18
9.264180698651273e-18
9.273775243219238e-18
9.269473002318925e-18
9.257719268867827e-18
9.244915798660708e-18
9.235440572968573e-18
9.231025887742308e-18
9.231189834697073e-18
9.234199756786373e-18
9.23807187559761e-18
9.241282100134145e-18
9.24307244580968e-18
9.243406036862311e-18
9.242713789083399e-18
9.241588270274054e-18
9.240539591779234e-18
9.23986665308925e-18
9.239641504526503e-18
9.239770144276819e-18
