0
1.6052972232686814e-10
5.3866535297468146e-11
-1.4117406316281757e-10
-3.797694531237146e-10
-5.696159711835624e-10
-5.888583910818865e-10
-3.2898978649563317e-10
2.4392648483268495e-10
1.029249272898899e-09
1.763244330858177e-09
2.0543931338377533e-09
1.5021704826182205e-09
-1.1079703455318239e-10
-2.6052984361353615e-09
-5.263666954535383e-09
-6.870923044845865e-09
-6.024882991729689e-09
-1.71852183587991e-09
5.934383739136151e-09
1.510477864493268e-08
2.215412076226892e-08
2.237723933348533e-08
1.1702025681482195e-08
-1.0936307580319801e-08
-4.132493717127649e-08
-6.898629744460297e-08
-7.870536758463654e-08
-5.527814902633229e-08
8.989125620947254e-09
1.0612919096873148e-07
2.073500155292285e-07
2.651367068357378e-07
2.2580039909208115e-07
5.2353552235157154e-08
-2.4756793816615004e-07
-5.995670261556214e-07
-8.603995126842661e-07
-8.486064108286696e-07
-4.1175923857318266e-07
4.815702048920832e-07
1.6560891268672674e-06
2.696183993243193e-06
3.011252944619801e-06
2.025196650345241e-06
-5.312515841325574e-07
-4.309731037201814e-06
-8.15744204709604e-06
-1.0218345618081071e-05
-8.439671673595239e-06
-1.4693729775380681e-06
1.0270840249121171e-05
2.376378393323139e-05
3.337723199436338e-05
3.212173169635898e-05
1.4307360511864146e-05
-2.0897886593383622e-05
-6.623838750245284e-05
-0.00010525230365646914
-0.00011504074761773639
-7.381661412538024e-05
2.7712813048411923e-05
0.00017451371288696704
0.00032051409182166636
0.00039329223894267977
0.0003144715705952779
3.4887483392970305e-05
-0.00042422980334733113
-0.0009408579877134026
-0.0012938061861601778
-0.001214133205541108
-0.0004898999352408308
0.0008964538000549825
0.002646945736588674
0.004112335449709794
0.0044092073924570565
0.002721004646847269
-0.0012585088594835453
-0.006875566536603648
-0.01227988565740941
-0.014645396927484509
-0.01101356294560729
0.00027683245665681937
0.017902972053353176
0.03623488555922367
0.045137978098855495
0.03150212025247876
-0.01744321800903754
-0.10978874460153955
-0.045090512238915095
-0.01269314525599748
0.0067458700139937326
0.036771488617103755
0.09912225038490449
0.008178507497208469
-0.03245794235039185
-0.03052453071048406
-0.003106883055032957
0.027033943686071805
0.035980978366547955
0.0034437380478420203
-0.08275489233534049
-0.023298910981764204
-0.00608616028923477
-0.007705242740624766
0.0023690024544091217
0.05569992090184515
-0.021740511618458535
-0.015343607478495443
0.07441511206442362
0.031161051628243407
0.025182337012617864
0.019274918772665118
-0.023063408645629984
-0.12894834061921756
-0.10938078930392438
0.04326701869063864
-0.04752783691142757
0.05024667373246946
0.16774617828088484
0.12708662528635523
-0.06277359141492975
-0.004906847699423735
-0.1091852056896316
-0.18590500176645586
-0.04158897265351207
0.12100906772425794
0.09903213935179632
0.08431505601640492
0.06015072128024639
0.0022825925590068113
-0.11576550262956188
-0.11498665322708866
-0.003847325202829677
0.025425872496649144
-0.00396802216355187
-0.05826657485502366
0.09953391915438824
0.1019236817923617
-0.02931953700078754
-0.08632842479604216
0.12509423277969212
-0.011402449333425145
-0.11782093515798876
-0.01645434236576269
0.07462608155283158
-0.05572242553007444
-0.011101107914909574
0.011235177396633341
0.01794408844288072
0.01665199507835123
0.013325865494312054
0.010690369238102347
0.008096425073293577
0.00281838299328486
-0.007651271562309757
-0.02305927378189212
-0.03852577115999879
-0.044236237792368883
-0.027223750790979846
0.024906133966239336
0.11933674933167496
0.05423432511411961
0.017578937301147842
-0.010430469984161224
-0.051949012160572045
-0.12496348743451852
-0.038185860812712996
0.010616981387861732
0.03221881265433064
0.040468367801786136
0.0459341514121566
0.0510755548608214
0.048767411650810014
0.024896870515582353
-0.035592621358812325
-0.14114616371698846
-0.0873486623715946
-0.05475201130320977
-0.012295832463676501
0.07429523913134801
0.23191020746337232
0.07121356978011441
-0.01691820032836626
-0.05827679777248046
-0.08690340107069659
-0.13480415070805474
-0.023615444965097775
0.03919438194148937
0.059094423085999416
0.04968952302525464
0.02677999083087437
0.003490103325459541
-0.01232757898232314
-0.018328266976920717
-0.01624882670215397
-0.009803152678295195
-0.0027555394444553957
0.0023212342325794654
0.0044761937051125515
0.004151896299271266
0.0025829233701613443
0.001109683387054374
0.0006232992151938821
0.0012633877174298138
0.002410219700503468
0.002954459313951308
0.0017805463353804602
-0.00165108761061287
-0.0067953782590224965
-0.011806006244940631
-0.01382641580387105
-0.009911645900011923
0.0014968889954855838
0.018901896890535657
0.03651205406355416
0.04417373185764337
0.02902174425474634
-0.02116070192066413
-0.11369839411579989
-0.04743590677694341
-0.011458254282097093
0.012981697489703825
0.04776869042450075
0.11211890656614401
0.017790111257369474
-0.03305237594816859
-0.04688210982330012
-0.03563148739908701
-0.012828684114700799
0.009591235596281248
0.023182280394180802
0.023721051123114237
0.011289103485695317
-0.009857856887529123
-0.031568977113843856
-0.042551800847011545
-0.03005404949618778
0.017368441855633295
0.10648715167130382
0.036577225020528285
-0.0015794997665366638
-0.02420383260901003
-0.05099461620518748
-0.10094954577086733
0.010909263783846773
0.07501761853045484
0.08721880813070629
0.04832399202401688
-0.03563280177284804
-0.15240516970128248
-0.08303246183987466
-0.003472942381137987
0.11091373106980514
0.07909914834377248
0.10879192343380518
-0.006012117584024141
-0.08327203228203724
-0.14785349878408263
-0.025494289908291206
0.061934163615732896
0.09892530087566923
0.0772741992178082
-0.0031882551435926613
-0.1334052866046291
-0.09421704622627995
-0.05751001237210781
0.009292780403805077
0.1357232597711575
0.13994897871334208
0.022784790762952593
-0.03349207816218379
-0.06099775271697746
-0.09833618699110258
0.018394365217858356
0.06325980712702832
0.02547279014493552
-0.08864774538198729
-0.05675403686588374
-0.044676069846461504
-0.013609419828011561
0.07078596222672155
0.2296620521197608
0.06559072418990858
-0.03718037397897846
-0.10658147904463941
-0.17303160739440826
-0.060140758207251614
0.020662540164103963
0.07014823118723577
0.0970625938833018
0.11241132421206666
-0.07498472225735554
-0.06023724977309931
-0.04179658276406323
-0.020005546033504757
0.0037533538544226776
0.026774525938244056
0.04408032664842067
0.04784299413080633
0.028144418613672634
-0.024597621876540656
-0.11615752690670356
-0.04541121293803994
-0.00319098729827824
0.026120282788818183
0.060785716671371136
0.11734264020989975
0.007561378279729003
-0.062125781816208425
-0.08899529313574293
-0.0717369934446609
-0.009331828539636171
0.09793976370606605
0.04588529434544113
0.023822579484150428
0.013760333068384877
-0.007795513112421193
-0.06570547531182198
0.01911959242142611
0.034782442138967085
-0.018031043858507803
-0.12489120869705474
-0.05953374634041738
0.010917279353702207
0.11813335491039172
0.08422115821064195
0.11569406293488313
0.002188874391348747
-0.07940922705420245
-0.15700205251780783
-0.05462509652064471
0.01365896372411758
0.045521953983477276
0.048054964401608696
0.033165707329718706
0.012845583505265544
-0.0041333142241109285
-0.013508916341291281
-0.015072781068999693
-0.011196153384595809
-0.005132067711465087
0.0003243886152531332
0.003553043998072623
0.004220468165059328
0.002973980923222384
0.0009511813627243381
-0.0007045304039890411
-0.0012111678988823778
-0.0003570210621818935
0.0014519981429856911
0.0033020362255864024
0.004035808759113739
0.002656483877018209
-0.0011893671676945457
-0.006781630863016326
-0.012149906855164925
-0.014369078699374926
-0.010466739860967689
0.0011163342642857268
0.018858216660031457
0.03690542583124945
0.04498965264339757
0.030079178051527128
-0.020227616349014047
-0.11338645900278184
-0.048222509142841506
-0.013567243893696313
0.009832547772776546
0.04452325078181679
0.11030519673946103
0.019109468549672704
-0.02746269301649212
-0.037339559755916005
-0.024600233641869747
-0.004950664412145917
0.008538491228758693
0.008537955814159089
-0.004950977041026119
-0.02459712550086454
-0.03732977197307994
-0.027445311007606117
0.019130970009152398
0.11032233760624902
0.04452425727479421
0.009806682171937918
-0.013623486828297412
-0.04829935405646055
-0.11345798878803906
-0.02025529248231409
0.0301347130456324
0.0451495490064405
0.037151581783570586
0.019119411932360903
0.0012725249252892295
-0.010553561456485653
-0.014797264617309857
-0.012906646956895506
-0.007684736751478292
-0.0018787410608375812
0.002644670643273864
0.0051008058205717095
0.005544427583433536
0.0044510924520209496
0.0023621473539209396
-0.0002701583000245161
-0.003029599767675636
-0.005376324588563117
-0.006539617193287194
-0.005610814024197538
-0.0019032471479372107
0.0044861153429841885
0.012123132284676905
0.01800023634737947
0.01791720354571702
0.007613899345795731
-0.015526843216699159
-0.050771322919828575
-0.09315150160417467
0.06586751482193474
0.03605012859872111
0.025147060507848165
0.03610469158912456
0.06596931121575911
-0.09302118059726293
-0.0506471428866274
-0.015458949450601002
0.007570458800178313
0.017724605090652146
0.017666930714728628
0.011728448496331851
0.004184569297708924
-0.0019126761832370916
-0.005156009254009473
-0.005575642029908103
-0.0040818523826236545
-0.0018493483864852316
0.00014916451808493324
0.0013726998245972273
0.0017218414060428207
0.001407116069957603
0.0007691883791892742
0.00012473391267398858
-0.00032339671550361376
-0.000507418335254489
-0.0004659813251311459
-0.0002930939114400886
-8.890948761355312e-05
7.293766092829767e-05
0.00015750828432109498
0.00016435482000081775
0.00011479232026847303
3.824083404651784e-05
-3.7558178920420934e-05
-9.118558376963303e-05
-0.0001085647726793871
-8.304635677115573e-05
-1.6670421193721666e-05
7.711836269285557e-05
0.00017122203387457197
0.00022650287905320635
0.00020046858707753912
6.390571469287744e-05
-0.00017784761455342732
-0.0004670830363133472
-0.000690715562629049
-0.0007027300316793252
-0.00037616572048567847
0.0003237076935040259
0.0012688731080054627
0.002137231810392573
0.0024589296129064707
0.0017628878765629226
-0.00019025814855468744
-0.00315334469586295
-0.0062291524361946776
-0.007933033579319064
-0.006585698133214624
-0.0010426596917993492
0.00838595512449255
0.01913351487989187
0.0260942972045773
0.02219707318605465
-0.00010829054624079975
-0.04686073185178308
-0.12098368262153394
-0.022118409036539926
0.051551226769768324
0.1000864408910722
0.1190109121009728
0.09913212788634458
-0.16987369340722336
-0.09297179785237468
-0.06310486612025958
-0.05759697361328819
-0.03967159308175528
0.23503455288100725
0.009057027034978423
-0.08623625912869222
-0.03743285632622786
0.14792869083107635
0.042462843612569315
0.004066956246707809
-0.015510221528862141
-0.06029952290109912
-0.1606579255257058
-0.12775101701177538
0.045924384355664004
0.17992472342398771
0.09549803726720885
0.005235144533178379
-0.09397460843879306
-0.02325016512931399
-0.019634172863191853
0.06941701158505856
0.19440370423354875
0.11485676505287928
-0.1876495926734873
-0.2971325334336995
-0.15597131059568015
-0.06737031141821974
0.09068443966436955
0.24266115067580651
0.29041006433123406
0.09338423653139528
-0.14047803071249257
-0.2523292752627806
-0.12190527906682856
-0.0541668963570389
0.23318919587491768
0.22093645653529465
0.20032319422380795
-0.11229298487206416
-0.35938621901828693
-0.3297915024696106
-0.15647708200104102
0.07116793385223859
0.28195255689424165
0.3918753592263758
0.07807096391361702
0.16685928658425778
0.4397968937143794
-0.9452334387517423
-0.4269939850900518
-0.020014194811304186
0.09043458346257235
-0.2647535410541365
0.9365599176895685
0.28259816438544577
-0.08610246757062696
-0.27254369566754094
-0.20257804732066162
0.004543377821697272
0.06497978310547174
-0.048519147028799836
-0.09668465726226153
-0.17647188345606732
-0.13663863104471335
-0.004712193775506588
0.178761854445533
0.3258545295514124
0.27578276542579044
0.1863772288156255
-0.05373101418131127
-0.19481681244764357
-0.38640520470306144
-0.3403706087997877
-0.10799152590086002
0.12290769854741458
0.21187424428774604
0.23838878326056534
0.2736458265345542
-0.03916935892848051
-0.09132452966896946
-0.10241091889190589
-0.10652480931959223
-0.13714829766132647
-0.01604450848666222
0.05110569807941351
0.07250990470026554
0.06393692667523657
0.041580749210350494
0.01693275034051481
-0.004906993449770771
-0.023594050266917712
-0.03987404557064337
-0.05175660969333922
-0.05232986336594007
-0.030372113084715834
0.026157517465625692
0.1249082515144819
0.0643313750998719
0.031569699773061864
0.004431578979996289
-0.042822193505575215
-0.13180901903047176
-0.07332359830434178
-0.06422852448766286
0.11081494526355491
0.07353076899255175
0.044559399527009484
0.03726271952854213
0.05489306848816723
-0.10836153506159237
-0.06348996026510488
-0.021893361802680398
0.00830854929015165
0.02383631373015397
0.025779492813668276
0.017981501679764644
0.005294356326694399
-0.007641375348393922
-0.01695917878680042
-0.019754605038796537
-0.014333498752419982
-0.0008157231723234645
0.01795733994903361
0.035652354872522045
0.04248199563478041
0.02662150820873708
-0.022924204763911212
-0.11269780716589856
-0.041771461491013455
-0.0007695697746444054
0.02638707035639829
0.05859506928405808
0.1131560958334374
0.0026628516828185785
-0.06575180478451323
-0.089092692964837
-0.06656764682960319
0.001292120569345195
0.1117233958129349
0.057744382852118574
0.026752787247430115
0.0011931452734981899
-0.03836545740885564
-0.10874537033108539
-0.020054411221954452
0.026410971228381278
0.03757865661316539
0.02583687927644032
0.005319311824129666
-0.011563866655234343
-0.016664578649294003
-0.00754459298976369
0.012092080850868792
0.03296575208419269
0.04191912966899933
0.024849223988249135
-0.02940467981003539
-0.1251545442489204
-0.057441577550734466
-0.01253660464570527
0.02818145587305083
0.08207895629665495
0.15929302494155334
0.059692321207316684
-0.025475081815177585
-0.10756543879830871
-0.1927038459737129
-0.07586552731045994
0.06004374308495933
0.03930206037284283
0.08457746860082917
0.207850556153383
0.004689669356554118
-0.14607371041230555
-0.07764769787471645
-0.02796574693795203
-0.03266961597607965
0.07978192041990591
0.09072571057184543
-0.007403213800093742
-0.010079257252692065
-0.09986103911058085
-0.046591584338095376
-0.009825522827147605
0.05592302403727388
-0.006314147526328218
0.0358800030378087
-0.0025729407627265288
0.07185584004086325
0.03153468430140837
0.03246507371761667
0.023164019236392764
-0.04391963935531119
-0.20104767846878427
-0.057041346024221166
0.0049685597158561695
0.022852393142201697
0.04510340492873132
0.11786760237951167
0.0731304043524554
-0.07880748172224379
0.0490785618264828
0.024819421320297175
0.006265326771503937
-0.0476225256044321
0.03453896122683488
-0.15483767960046893
-0.19906790976452865
-0.061230198352534036
0.10440460178498372
0.13617235873789102
0.24929719499331715
0.2268609543986712
0.02198358036950429
-0.22825982997512667
-0.18145747705311505
-0.2687090395317711
-0.08168631456332943
0.02716393208211067
0.1312882060380967
0.10825164079888934
0.21686124651153169
0.08048784746435295
0.08153311537916248
-0.03171212724943471
-0.1284805379878507
-0.2748879754017195
-0.11610846601208398
-0.06705928316465809
0.08602841154417774
0.1750150659192015
0.23545038013502115
0.09460475375823628
-0.03353870311966501
-0.14545798991550235
-0.2404083977106986
-0.11301187529716626
0.04933381931185812
0.06260167137210067
0.13784420790807644
0.27292191704519725
0.04885852408753088
-0.16674319704593593
-0.21033168354780574
-0.11131149139080292
-0.08431004480652203
0.07204777815568666
0.17021674234572376
0.22608686219717575
0.053118513334271915
-0.13867112627797262
-0.13895232559842477
-0.13167560493853697
-0.0922285385443908
0.010014870811635818
0.2038675832767942
0.10624509206202408
0.1142765596191909
0.003330983731484825
-0.06782714774428268
-0.14652812993531467
-0.0741815025398793
-0.07693550784018997
0.03819495720204725
0.08128165962390772
0.0732626767311746
0.038429138216241575
-0.0017432683533445976
-0.03203095806809922
-0.04425384272079319
-0.03649092336452451
-0.011967569214356837
0.021656100938873935
0.05270014693268679
0.06636830937009103
0.04706348355537451
-0.01753366984410615
-0.13138899385177488
-0.0859357993208562
-0.05908890265167812
-0.0189349569194871
0.06825968486537586
0.2281303436820945
0.07003050486542153
-0.01609927827904309
-0.05645494623663843
-0.08501770494804792
-0.1334585648252869
-0.023011431641066348
0.03917024193189129
0.05871055936862959
0.04921434900064509
0.026382158191892147
0.0032117867698987414
-0.012534480224074327
-0.018530901281311973
-0.01646187061740859
-0.009948979960285787
-0.002677379025473695
0.002789007810104718
0.005398121876165054
0.005381418005779246
0.0037074083634804807
0.0015054890103220345
-0.0003484463836778019
-0.0014137590196365338
-0.001661876942279168
-0.0013300130607387063
-0.000742963430113314
-0.0001720848841687676
0.0002349687966241974
0.00045385333265413936
0.0005353881875135723
0.0005418694533582751
0.0004976987371171336
0.0003739560498665507
0.00011229156576696496
-0.0003215507474958772
-0.0008772680166086221
-0.0013830886731573749
-0.0015619720278290535
-0.0011177142345949055
0.00011743444185015836
0.0020155129609056724
0.004039248646383355
0.005269218985291926
0.00463867015559089
0.0013789463906508398
-0.004423376052286516
-0.011368721568944726
-0.01667108329798281
-0.01673178656925168
-0.008461555269463988
0.008849063232489778
0.03168145112459993
0.051328847778323416
0.0547206939395538
0.027528994160666644
-0.040804320650724125
-0.1515841192350696
-0.09322617746283586
-0.041694194993661705
0.03409876226027101
0.16321775789109644
0.1632176977260061
0.034098649995007994
-0.04169418577958451
-0.09322585325600362
-0.15158338246228437
-0.040803277212951426
0.027529984303667213
0.05472106932756062
0.05132802538126207
0.03167911350258918
0.00884547267376668
-0.0084653526551334
-0.0167340278243268
-0.01666974780396819
-0.011362381768695416
-0.004412247042767345
0.001392159824553747
0.0046486631192534916
0.005269193629130035
0.004023399264096331
0.0019824638072407953
7.348907067960356e-05
-0.0011572225974893083
-0.0015749964776655466
-0.0013478374436400966
-0.0007830922652584912
-0.0001806602655978953
0.00025757785276602727
0.0004545896845168364
0.00043641596969533775
0.00028650070657516136
9.913511496649042e-05
-5.327116222943082e-05
-0.0001342229693461894
-0.00014130345148372935
-9.51627329723066e-05
-2.6215489172171207e-05
3.6258097100572385e-05
7.083551716447888e-05
6.702230349446988e-05
2.614562970184732e-05
-3.884467937293637e-05
-0.00010475401075277612
-0.0001418748489969572
-0.00012142992799581338
-2.6889787099129024e-05
0.00013310644345735148
0.00031532825971770706
0.0004429285267509286
0.00042288076161082274
0.000181372916818496
-0.00028948098442467594
-0.0008898908281854252
-0.0013990624144178032
-0.00151345392102583
-0.0009477952424094677
0.0004144846574854791
0.0023670270692482936
0.004296633611610976
0.005252318992380813
0.004222567053387468
0.0006051082563541403
-0.005251778342552033
-0.011666336616464785
-0.015691680698128506
-0.013891356658094866
-0.0039070105612398764
0.013387671820032396
0.031680324366868365
0.037714253215295854
0.011192717424712405
-0.0735753534982377
-0.04451861319640849
0.07225809071857013
0.05693845744130569
0.1007483966421572
0.010900598244000996
-0.18518089864610748
-0.23856337141896727
-0.0832969652791029
-0.048409948366719975
0.1239779974385221
0.45959526190671524
0.3395926661234015
-0.09843864032892144
-0.14365131926280442
-0.08341866340293168
-0.3724041143420796
-0.41003520192902426
0.06536198680834564
0.1631158955156684
0.211608877273693
0.32401035397056727
0.16929759912506992
-0.04331038862070934
-0.1639083437842542
-0.2885512666484294
-0.139550697166531
0.1541253700480038
0.27299012042322407
0.12009433924469226
0.03305063075641101
-0.20444729939402062
-0.35443974664072936
-0.32511105805579926
0.01571283000124444
0.213880900274608
0.3951306615095795
0.4349380826344105
0.14298776616714315
-0.13160077289183164
-0.2761241714787557
-0.38052239135827937
-0.30684650800184654
-0.07305558659439527
0.14387596959327806
0.18827297490228392
0.29840075526240734
0.2827347928269825
0.10925499345789967
-0.08802781449089854
-0.18763591583152606
-0.2521613185516858
-0.3032635077647852
-0.10941748945729754
0.008761337553236442
0.15691153023121096
0.23599850667480238
0.3122809268331324
0.1981517987962989
0.05019233666116608
-0.21513601261998078
-0.2939368404687197
-0.2653859774617333
-0.17057646564445963
-0.006346241991126328
0.26532168128188854
0.2976711379867824
0.13802917339346202
0.013322991806954334
-0.07349081805669305
-0.1369592322002282
-0.1973452133053749
-0.06941887019421976
0.043713615844689545
0.15031817564887967
0.0649205111241926
0.001648183022554586
-0.03103275480164634
-0.032825527604794576
-0.011532020203519422
0.018734597424798435
0.04031495938816119
0.03539026598415545
-0.010242906421551718
-0.10356175604921176
-0.04192912311871584
-0.013149878852693987
0.001370996441894012
0.020851260181356353
0.05835702148181885
0.11527061857801757
-0.020890151027115358
0.02592768906132802
0.027124272703360496
-0.04094441592152775
-0.18723155524927496
0.0007894048956059909
-0.041629761319472235
-0.061974832229883405
-0.0018085072982425236
0.1887366995377306
0.13731298654950502
0.04079165502624407
0.06478477771839222
-0.04826572739544207
-0.16482610838300427
-0.1442883657323505
-0.026176258704689422
-0.0241038310734844
0.07254530259531229
0.0909319683191354
0.06444438174315849
0.023301154723254575
-0.011461223000949797
-0.029833884478425516
-0.031238323083631062
-0.021029785398269937
-0.006692778276458493
0.0051590910028778015
0.010517749501103757
0.008518127921032289
0.0011099702939858028
-0.007797845411645075
-0.013515284575274818
-0.011987837861998623
-0.0013647636372027924
0.01652263903594658
0.03523973947759632
0.043986042658693575
0.029458186493746843
-0.020697693143713388
-0.11365719786870147
-0.047921765799162526
-0.012177419642375219
0.012622919925968598
0.04842357117355013
0.11416982960916307
0.02102364814901291
-0.029630434713482565
-0.04494793206165453
-0.03706384526562266
-0.018871999221865828
-0.0006823341871609791
0.011432904345418491
0.015616461505851846
0.013092193158036293
0.0066521458717235995
-0.0006505843045336891
-0.006320776780359128
-0.008765228556709257
-0.00735392946028413
-0.0024111167511379986
0.00476070519341495
0.011888248072306653
0.01596403967860461
0.0139266656593816
0.003857079719522325
-0.013517952806599393
-0.03355167932559962
-0.04738737636922332
-0.04334261866167192
-0.010190355799114864
0.058280504586857663
0.15898853033105498
0.077667468697444
-0.008986057803340303
-0.12705447878898374
-0.0970347156851099
-0.12672300155070412
-0.008428406032168373
0.07825202715889447
0.15933891263258568
0.05813837972094952
-0.010981652272740694
-0.04472362335615825
-0.04899609322125937
-0.034725413120182375
-0.013437782219407767
0.005863101243545414
0.017975641598218163
0.021244693973815672
0.016526330369458723
0.006130095384528052
-0.006824456390488062
-0.018639853605111632
-0.02521977540678796
-0.02267400663170875
-0.008651325420238628
0.015727763573902483
0.0439978336782401
0.063591581298035
0.057263112009478534
0.0072000655562425185
-0.09873951727043216
-0.06044978811255681
-0.06119023199600577
-0.06768190674224199
-0.03573358461427046
0.0793648398469285
0.11022866780437339
0.06626789850913752
0.12785286238199162
0.048260747028311034
-0.036352848041454444
-0.1912857854560057
-0.06629471425172805
-0.08230850331935864
-0.025782028428766108
-0.05222986323063206
0.10219183031583141
0.10430582559254954
0.007112716521878495
0.036868221620103316
0.18718313847179177
0.02152336064334545
-0.11651490950808514
-0.08785788570309311
-0.14190277506675159
-0.10449755894273575
0.026692828695664406
0.07870212808249698
0.09367840914459888
0.11696546800332741
-0.013282053250204201
-0.07247281496434678
-0.051487719565851034
0.044764843321326034
0.0005690726395425113
-0.00676558488567928
-0.0030580071994895045
-0.013750028044737945
-0.06108159545692306
0.03779851986719152
0.07182665656005481
0.03653879625067016
-0.06537522146014364
-0.023369671674663223
-0.018747240979686778
-0.025652355758223635
-0.013946752262487514
0.046122110974561044
-0.02175921775738369
-0.0054272345347056074
0.09190486058755187
0.050656403808003514
0.03761867627966065
0.012492454804012952
-0.06292600852386941
-0.2153212236155901
-0.05324608525025092
0.03422812741332459
0.07305607426918802
0.09580354796402009
0.13267887437474538
0.005324591723178734
-0.0749068471023802
-0.10470436296789833
-0.08485115915737126
-0.017261503348058125
0.09539373893355917
0.04768683030130926
0.028714476372300922
0.0206348248818749
-0.0003187778631058682
-0.06031083469793121
0.017202706018451103
0.01678166010866567
-0.0648178206309793
-0.016607892878111336
-0.014123486673611288
-0.02314367472509317
-0.0059215985287298534
0.07123853667770687
0.030770854230765855
0.07888966803464154
0.004374521700809634
-0.01838309098633192
-0.022813536600286708
-0.041903301004304595
-0.10055217767337413
-0.010654566181143488
0.02987089556643627
0.0341546519358454
0.020800439582795597
0.007522975158940735
0.005752165712718161
0.01741553399060109
0.034517318230660225
0.04163535889984115
0.02095933274236605
-0.04114930366710507
-0.14784995490585762
-0.08805661073346208
-0.03721847363141589
0.036744662200295514
0.1638829429513993
0.16242299855550307
0.03262824961818516
-0.0431336352827865
-0.09419694442995506
-0.151955398920575
-0.040680297644735235
0.0279277757063426
0.05516868201054227
0.05166758307379679
0.03184443155471638
0.008849014111202492
-0.008565258800495764
-0.016868233427599712
-0.016783833244306646
-0.011428220381013892
-0.004427109573263985
0.0014141085570077427
0.004687026347990947
0.005306033897650447
0.004047952589460454
0.0019918449496359493
7.062489881654809e-05
-0.0011667658978707835
-0.001585865508048171
-0.0013565914369039144
-0.0007885679296498619
-0.00018331458630694352
0.00025677937199029653
0.0004551519900383119
0.00043872997459125737
0.0002915256644073846
0.0001074756454280436
-4.2494892254439356e-05
-0.0001241365650249654
-0.00013708560293398305
-0.00010253217063338283
-4.8696684383032656e-05
5.52031391029137e-07
3.1541506388782274e-05
4.131433310849203e-05
3.4615137750013205e-05
1.9582427269882035e-05
3.964354864526156e-06
-7.153989860335025e-06
-1.1958201577161e-05
-1.1269141862376455e-05
-7.3191427251914055e-06
-2.537530697859618e-06
1.279247152298149e-06
3.2953688639654567e-06
3.5434677145382437e-06
2.5955064112888463e-06
1.1863498343703371e-06
-7.521211870784466e-08
-8.499982121313626e-07
-1.07518438014602e-06
-8.823985956955489e-07
-4.852612392985209e-07
-8.266021576812927e-08
1.9785667201345874e-07
3.1365391101273504e-07
2.89118122289383e-07
1.8343906419418217e-07
5.937092233082212e-08
-3.764511294642483e-08
-8.729217063417688e-08
-9.148582688460437e-08
-6.561166439933415e-08
-2.8780646668118017e-08
3.4983529857542307e-09
2.2831703461916256e-08
2.7945210492068588e-08
2.2466749764077093e-08
1.1994663142597202e-08
1.628377903487385e-09
-5.4384920486864985e-09
-8.214064673464477e-09
-7.408873068730406e-09
-4.589072191485456e-09
-1.3738353045163776e-09
1.0890168795025875e-09
2.307826300795281e-09
2.3594259170190566e-09
1.6563965411282294e-09
6.951065173706538e-10
-1.2984042725941003e-10
-6.112784368896918e-10
-7.25240435977684e-10
-5.71149866113492e-10
-2.95501385079533e-10
-2.8892685467676734e-11
1.488608394728385e-10
2.1496419117714155e-10
1.89809445463571e-10
1.1475604903861655e-10
3.153339311042009e-11
-3.090733539773278e-11
-6.07279294615876e-11
-6.060968149242151e-11
-4.1584839470697546e-11
-1.6529490202255802e-11
4.528701584641953e-12
1.6491258493293668e-11
1.8968425729285095e-11
1.467137538349029e-11
7.427944062146507e-12
5.789087933308661e-13
-3.884873890789187e-12
-5.447494082083458e-12
-4.68717161278136e-12
-2.6941210377487277e-12
-5.425592863155037e-13
1.038387113384555e-12
1.7653038607339912e-12
1.7251718388328932e-12
1.21221248685182e-12
5.600306764493359e-13
2.3124244924282927e-14
-2.734219401146888e-13
-3.2541225141542615e-13
-2.0645067672875995e-13
-1.6416448159555616e-14
1.5933071350594225e-13
2.7123547138652826e-13
3.0784992211834983e-13
2.85407960432608e-13
2.325966884697663e-13
1.770374697824051e-13
1.3706429208494049e-13
1.1941765775771794e-13
1.2140056167021306e-13
1.351855161829469e-13
1.5213958751405229e-13
1.6581217256401433e-13
1.7314497516199558e-13
1.7417979763908235e-13
1.7090695988326736e-13
1.6592905220971603e-13
1.6142451851726674e-13
1.5862413475578904e-13
1.5777526344487596e-13
1.5842588937010652e-13
1.5982242370176495e-13
1.6125544839450275e-13
1.622647085105996e-13
1.6269112343888459e-13
1.6261578261719175e-13
1.6224645464693742e-13
1.618062754312241e-13
1.614585249272983e-13
1.6127769508169213e-13
1.6125886974401719e-13
1.6134842116086912e-13
1.6147862235157387e-13
1.6159394419768437e-13
1.616638910288399e-13
1.6168331613185522e-13
1.616647169378117e-13
1.6162785799636362e-13
1.6159093895714681e-13
1.6156549418451126e-13
1.6155524395090134e-13
1.6155780417437962e-13
1.615676717283991e-13
1.6157908596031962e-13
1.615879195883469e-13
1.615923658189239e-13
1.615926495254748e-13
1.615902109747001e-13
1.6158681034808953e-13
1.615838613804e-13
1.6158211775774845e-13
1.615816805094259e-13
1.6158220619993582e-13
1.615831772555666e-13
1.6158412731121275e-13
1.6158476782790807e-13
1.615850127579509e-13
1.6158493100957347e-13
1.615846680503041e-13
1.6158437242924312e-13
1.615841483239439e-13
1.6158403935115752e-13
1.6158403720765692e-13
1.6158410332758748e-13
1.615841920225678e-13
1.6158426734431348e-13
1.615843107170642e-13
1.6158432034972275e-13
1.6158430563000884e-13
1.6158428009158432e-13
1.6158425567127035e-13
1.6158423957330155e-13
1.6158423376095837e-13
1.615842362691655e-13
1.6158424325998503e-13
1.6158425090721247e-13
1.615842565851752e-13
1.6158425924657495e-13
1.6158425916938636e-13
1.6158425738345606e-13
1.6158425507323694e-13
1.6158425315166485e-13
1.6158425207519975e-13
1.6158425186913572e-13
1.6158425227806423e-13
1.6158425294860806e-13
1.6158425357559352e-13
1.6158425397950793e-13
1.6158425411632584e-13
1.615842540414782e-13
1.615842538560409e-13
1.615842536584533e-13
1.6158425351479057e-13
1.6158425345004587e-13
1.615842534554247e-13
1.6158425350349615e-13
1.61584253563591e-13
1.6158425361255442e-13
1.615842536392065e-13
1.6158425364343054e-13
1.6158425363214634e-13
1.6158425361456815e-13
1.6158425359848887e-13
1.615842535883719e-13
1.6158425358518226e-13
1.6158425358737042e-13
1.61584253592279e-13
1.6158425359737828e-13
1.6158425360100812e-13
1.6158425360257633e-13
1.6158425360235105e-13
1.615842536010612e-13
1.615842535995e-13
1.6158425359825387e-13
1.6158425359759572e-13
1.6158425359751482e-13
1.6158425359782438e-13
1.615842535982845e-13
1.615842535986964e-13
1.615842535989493e-13
1.6158425359902282e-13
1.6158425359895984e-13
1.6158425359883016e-13
1.6158425359869872e-13
1.6158425359860713e-13
1.6158425359856934e-13
1.6158425359857737e-13
1.6158425359861188e-13
1.6158425359865237e-13
1.6158425359868405e-13
1.6158425359870026e-13
1.6158425359870162e-13
1.615842535986932e-13
1.6158425359868115e-13
1.6158425359867062e-13
1.615842535986643e-13
1.6158425359866264e-13
1.615842535986644e-13
1.6158425359866784e-13
1.6158425359867123e-13
1.6158425359867352e-13
1.6158425359867443e-13
1.6158425359867418e-13
1.6158425359867325e-13
1.615842535986722e-13
1.615842535986714e-13
1.61584253598671e-13
1.6158425359867097e-13
1.6158425359867123e-13
1.6158425359867153e-13
1.615842535986718e-13
1.6158425359867196e-13
1.6158425359867198e-13
1.6158425359867193e-13
1.6158425359867186e-13
1.6158425359867176e-13
1.615842535986717e-13
1.6158425359867168e-13
1.615842535986717e-13
1.6158425359867173e-13
1.6158425359867176e-13
1.6158425359867176e-13
1.6158425359867178e-13
1.6158425359867178e-13
1.6158425359867178e-13
1.6158425359867176e-13
1.6158425359867176e-13
1.6158425359867176e-13
1.6158425359867176e-13
1.6158425359867176e-13
1.6158425359867176e-13
1.6158425359867176e-13
1.6158425359867176e-13
1.6158425359867176e-13
1.6158425359867176e-13
1.6158425359867176e-13
1.6158425359867176e-13
1.6158425359867176e-13
1.6158425359867176e-13
1.6158425359867176e-13
1.6158425359867176e-13
1.6158425359867176e-13
1.6158425359867176e-13
1.6158425359867176e-13
1.6158425359867176e-13
1.6158425359867176e-13
1.6158425359867176e-13
1.6158425359867176e-13
1.6158425359867176e-13
1.6158425359867176e-13
1.6158425359867176e-13
