0
4.418977995814045e-14
1.0401836980505837e-13
1.4728280738152647e-13
1.4304723149231691e-13
6.582853207769354e-14
-8.868015677979574e-14
-2.8919560533794634e-13
-4.636038468913647e-13
-5.107998470278275e-13
-3.3368661744190583e-13
1.1064720092615262e-13
7.583288089953934e-13
1.408198109327483e-12
1.7412573138306114e-12
1.4094822967044923e-12
1.904875245992024e-13
-1.829953712482047e-12
-4.12131503004176e-12
-5.711621667564329e-12
-5.410227280055287e-12
-2.2676626794407336e-12
3.81646151832818e-12
1.1551148915437437e-11
1.8082640764415582e-11
1.9493725274379364e-11
1.211695081352847e-11
-5.5130176613932725e-12
-3.0659077712560636e-11
-5.529135908065273e-11
-6.697240554528555e-11
-5.242828353094066e-11
-3.604704322231309e-12
7.533403005717235e-11
1.629652230050425e-10
2.2114797670707701e-10
2.0411596877272575e-10
7.660590831248417e-11
-1.6266777807207878e-10
-4.606576716062167e-10
-7.045895562458785e-10
-7.428723506056624e-10
-4.372744805607533e-10
2.611987761786194e-10
1.236363951426844e-09
2.1682422037854037e-09
2.5724616495608975e-09
1.9435459549490224e-09
-8.22726889595715e-12
-3.0888156453260577e-09
-6.4352476346666305e-09
-8.552643625996615e-09
-7.684141185167212e-09
-2.5246463559786365e-09
6.873771509580006e-09
1.8339800840248518e-08
2.7422876415991248e-08
2.826355063487513e-08
1.566337849633941e-08
-1.1969526304035543e-08
-4.974262195348448e-08
-8.492631041504931e-08
-9.867844807847084e-08
-7.178219118414662e-08
6.101076271458403e-09
1.2618348307461176e-07
2.5377989001146497e-07
3.30369789979823e-07
2.886025083016581e-07
8.036355602872373e-08
-2.8834838295469207e-07
-7.289687514191457e-07
-1.0660895762043773e-06
-1.0734971465519565e-06
-5.561650838136009e-07
5.355309627696502e-07
1.9969616749431993e-06
3.3225124609973998e-06
3.7800584805306934e-06
2.640295715973975e-06
-4.6220724493747994e-07
-5.1377149136556706e-06
-9.995071445184455e-06
-1.2746032452305347e-05
-1.0812255966744192e-05
-2.427575082544954e-06
1.2020191281469242e-05
2.893012338943572e-05
4.139781838959243e-05
4.0700565253871345e-05
1.9540657199202796e-05
-2.353104649884528e-05
-8.000627233480795e-05
-0.0001298327914726605
-0.00014459610312692023
-9.666900437987196e-05
2.6716033774642998e-05
0.0002085493807472782
0.000393142619740945
0.0004911213200578768
0.00040391632323283003
6.70014554133293e-05
-0.0004985488954261569
-0.0011467594470941998
-0.0016061877903808914
-0.0015408418891212393
-0.0006782237855028974
0.0010196831000778871
0.003201894493152026
0.005076192014479017
0.005544435472330304
0.003567745421653165
-0.0012849499115241225
-0.008269281856779715
-0.01514884340312288
-0.01843525975626595
-0.014398606596504002
-0.0008156410618534192
0.02094271900711429
0.0442552130173786
0.05699218952228369
0.04344833336232358
-0.01139520780142045
-0.11617359962114554
-0.06791272869638906
-0.04957389356028327
-0.03201777503230628
0.019513810985315305
0.13610790714956258
0.13610790714165966
0.019513810971685763
-0.03201777502617223
-0.049573893506466876
-0.06791272858199884
-0.11617359946421245
-0.0113952076578117
0.04344833340783214
0.05699218938408137
0.04425521265266294
0.020942718462445557
-0.0008156416220442712
-0.014398606903470933
-0.018435259509817756
-0.015148842402005864
-0.008269280155586539
-0.0012849479422486073
0.0035677468437012205
0.005544435328134624
0.005076189465507703
0.003201889399486436
0.0010196764948797114
-0.0006782295243195844
-0.0015408434303218383
-0.0016061819378461897
-0.0011467447934005403
-0.0004985275536782979
6.702284954740516e-05
0.0004039272566905199
0.0004911103328784637
0.000393102403154387
0.0002084827885580471
2.6640574625911116e-05
-9.672128947289643e-05
-0.0001445859961495747
-0.00012972905902582424
-7.980569255222928e-05
-2.3276255604487963e-05
1.975555935438513e-05
4.0746518254328e-05
4.115411241805604e-05
2.8348734201276412e-05
1.119163639875585e-05
-3.2384311426874162e-06
-1.1195535418968768e-05
-1.2264669391278391e-05
-8.384425170198396e-06
-2.536070689903497e-06
2.423502504477061e-06
4.5528203212447216e-06
3.2120036004365437e-06
-8.859792856050862e-07
-5.890966970999403e-06
-9.280176895142209e-06
-8.581232537420902e-06
-2.3136784356263446e-06
9.027960674195647e-06
2.2303524439461547e-05
3.18416362136327e-05
3.075408044229088e-05
1.3544257540977577e-05
-2.047458290837524e-05
-6.412844975798188e-05
-0.00010139805742398254
-0.00011018542547407301
-6.965704764079322e-05
2.8783691664862665e-05
0.00017018301349395844
0.00030975241472879883
0.0003776280495961522
0.0002987409316843517
2.6780812096692205e-05
-0.0004162990464937997
-0.0009114838759816186
-0.001245006554498339
-0.0011586701879241915
-0.0004512306994970997
0.0008895282137618045
0.0025713732161676515
0.003965512250828431
0.00422213266213665
0.002562510099030255
-0.0012937187967388029
-0.006698566601923295
-0.011854704568629314
-0.014037476926374018
-0.010416370569468167
0.0005628330763672575
0.017556254486500302
0.03505899483572075
0.04323072096174497
0.029377699034504625
-0.01886681817836291
-0.10940938455672115
-0.042060801992310624
-0.0069898643287929964
0.01382688712248764
0.042483723052770275
0.09978076754461179
0.00044955178029599884
-0.049648012355617395
-0.05398989274013183
-0.024148998955023673
0.022247109344853803
0.0638991523828387
0.07883515927008179
0.048583078476074334
-0.03647641369394262
-0.1717967027381
-0.1358116399108458
-0.0921761045309378
0.0016623795152376911
0.18105771450018676
0.2602898097678163
0.2240307527890715
0.028846947818970427
-0.18427321938687835
-0.2702390216900637
-0.2605347732964493
-0.15216052905917798
0.09052575797825886
0.32191474358882805
0.19518040676473705
0.1445162260505966
-0.023743920298669566
-0.12886501092705768
-0.2048923676848319
-0.08683486996522982
0.0004770506436569657
0.04745572609329934
0.05848083061267363
0.046424225922751985
0.0259757873060082
0.008281463300082647
-0.001745071321378411
-0.005248203593761177
-0.00704956229652425
-0.012155836952205066
-0.022360783383119382
-0.03403180149565054
-0.03787818059766035
-0.021010221748256713
0.02909627504140769
0.11990986771116949
0.05018379334995776
0.00900069761422523
-0.0217577474657199
-0.06227707781867408
-0.12902804803294543
-0.030723083871553262
0.03233995739454998
0.06545887013197914
0.07478780558668785
0.063099431937195
0.02813457367678896
-0.035689278859547306
-0.13309564673293275
-0.06343438785806883
-0.018212419206105373
0.017927513188459886
0.06309212783309616
0.13275006344125087
0.03554866106677277
-0.027792137804338816
-0.06217820407744262
-0.07381068119929093
-0.06618165840787618
-0.038523678578510884
0.012410321399816094
0.0880504002507018
0.1834530739938556
0.08527345525070909
-0.02580614453963813
-0.1684326683778192
-0.15248691156026173
-0.1736923900015375
-0.014304060323728553
0.14956241415746363
0.3369476556262596
0.15279615581755987
-0.014510028710500571
-0.18703820197986068
-0.18535201334954282
-0.21665242112109598
-0.06903243914582588
0.0850780313109852
0.27759890844511664
0.13065137880262898
0.045854169813398335
0.001614804188714552
-0.0406262762428881
-0.12377734439308105
-0.08076745621065266
-0.12343879572153538
-0.038301485017020784
0.009526594286074363
0.06554415836163006
0.17185703725698598
0.15465333428598227
0.017380732980380256
-0.058270343909461966
-0.10446957253046983
-0.15589550846259564
-0.03935278734042198
0.03219281833074658
0.059972292573392816
0.055318913412140874
0.03363024942758491
0.008898416955815973
-0.009629722753149694
-0.018305548754821054
-0.018008925358355774
-0.012137062164417732
-0.0045882951637928205
0.0016496822644205959
0.005100147697051218
0.005702608538810752
0.004310303715712252
0.002087363827802196
3.0736643987518814e-05
-0.001279870734445415
-0.0017098864672881297
-0.0014485865507665085
-0.000831294229432562
-0.00018128970048738002
0.00028651519307527847
0.0004928036006843147
0.0004688860729538973
0.0003064881482947348
0.00010717866395973825
-5.2745317451045225e-05
-0.00013675527234276747
-0.00014511949852842975
-0.000101833643434059
-3.9142213984782434e-05
1.4881472425015009e-05
4.330597792862558e-05
4.20542639852157e-05
1.7947064593644526e-05
-1.5139051327785155e-05
-4.0774685591406935e-05
-4.461073738000964e-05
-1.892605100585605e-05
3.339512893272447e-05
9.662187054242994e-05
0.00014344024653715223
0.00014139186181384353
6.487625045497117e-05
-8.939413515491424e-05
-0.000288693466319353
-0.0004599343516466764
-0.0005022709975281794
-0.0003204260465439149
0.00012548433422697867
0.0007684776921311257
0.0014059417998676278
0.0017209586684307637
0.0013723551476428652
0.00014908568081610857
-0.0018497383749191186
-0.004083081892670955
-0.005577818363414747
-0.0051585662351092175
-0.0019143745923371836
0.004185301697426626
0.011732848021777178
0.017675053963250573
0.0177346193745081
0.007578477807093608
-0.015458105933352121
-0.05065811731974182
-0.0930454614238783
0.06593595641641556
0.03607344403797644
0.025134562547337817
0.036073442065837284
0.06593594998256284
-0.09304547552300962
-0.050658140118170374
-0.01545813351729493
0.007578455487829693
0.01773461680101346
0.017675084912198605
0.011732917812357016
0.004185399289153969
-0.0019142807944087091
-0.00515852469003995
-0.005577880146339659
-0.004083276869550913
-0.0018500480432145571
0.00014874721111329223
0.0013721379400470192
0.0017210402150443095
0.0014064554184172885
0.0007694211404563833
0.00012664220700405983
-0.0003194998939588714
-0.000502167500249658
-0.00046118203739848636
-0.0002914617497696773
-9.320137754732463e-05
6.130327573683668e-05
0.00013994996026315648
0.00014607696214183393
0.00010440514585898324
4.547645200361967e-05
-6.005855518001639e-06
-3.6732072810387615e-05
-4.474656711871882e-05
-3.588249223755126e-05
-1.9079926637147034e-05
-2.460184049286109e-06
8.895639224551086e-06
1.339799205426253e-05
1.2143958232543817e-05
7.576466190508659e-06
2.2320698463677566e-06
-2.057456954901763e-06
-4.4272769365231734e-06
-4.831832933568688e-06
-3.707615973464889e-06
-1.6528228331207138e-06
7.536996438512429e-07
2.9790605696299206e-06
4.481697886682818e-06
4.689719710984857e-06
3.108248300056435e-06
-4.1984001324643336e-07
-5.377950323652774e-06
-1.0339148644543257e-05
-1.3048227083942846e-05
-1.0993196865879174e-05
-2.4747510150482973e-06
1.2072837333349629e-05
2.9029520301042362e-05
4.149506679408217e-05
4.0764585597236465e-05
1.956162800674805e-05
-2.354571769240631e-05
-8.003955300298016e-05
-0.00012986584382376255
-0.00014461431181885757
-9.666554185182533e-05
2.673896716695053e-05
0.0002085813260867727
0.0003931675214771457
0.000491122113302583
0.0004038812004666094
6.693072842622618e-05
-0.0004986375825190546
-0.0011468306850395253
-0.0016061957196032252
-0.0015407463771015912
-0.0006780129456121624
0.0010199712002994198
0.003202161947495444
0.005076294713736963
0.00554422724056153
0.0035671486933236967
-0.0012858662138787347
-0.008270251387235418
-0.015149419117863824
-0.018434929337456277
-0.014397007003008399
-0.0008128240351963744
0.02094607173170396
0.04425776003787353
0.05699220795007838
0.04344434645706363
-0.011403560010129325
-0.11618473473970782
-0.06792277440041458
-0.04957726680327449
-0.032008940515562495
0.019537585206130314
0.1361435761640405
0.136144796712921
0.0195344497051067
-0.03203299073333041
-0.04963827604396087
-0.06802308692239731
-0.11630223268477932
-0.011489330226391386
0.04345513767531959
0.05715514750736098
0.04458465035526299
0.02137290805787782
-0.00043823542110209827
-0.01429063178877399
-0.018806345044884553
-0.016094222988229996
-0.009656466820247766
-0.0026868365719076464
0.0028334315305287784
0.006227118522968599
0.007662346530811023
0.0075232178484724325
0.005957037286277842
0.002806726374232816
-0.002054487361125661
-0.008160036235718498
-0.013972426665395636
-0.016846644933493367
-0.013697096347995777
-0.002392279856517912
0.016445655345181397
0.03791564756140617
0.052474437570618045
0.047508190286106984
0.011056835807232853
-0.0630445887067284
-0.17040163835992914
-0.09406993262470709
-0.007258348530171512
0.11910834563645323
0.10617794141505613
0.15823769339973806
0.05899606056546368
-0.02480977200557766
-0.13324642232240205
-0.09991203117881355
-0.14036211626868683
-0.0464821598036364
0.011128165605239557
0.07361590181250896
0.18062305902843007
0.15809548652497923
0.01145736925488902
-0.07375626416803005
-0.12482533150833165
-0.17191546484703402
-0.039659626508688595
0.05670536782261101
0.11024633875398329
0.11842735937447012
0.07967294599777525
-0.0070589071800210654
-0.13925908740681064
-0.10628167490705114
-0.0863684847283418
-0.048053269175096704
0.043218700223478373
0.2149419020272857
0.07749153781876253
0.018173146514024425
0.0019984937206027806
-0.020699886842439886
-0.10206419827231313
-0.08347744949704236
0.01508717175323059
0.0005053779863780687
-0.09436258466993215
-0.01743874263429301
0.09145989648976238
0.08761960337382484
0.00957114707109556
0.07124829296398436
0.059968662341219184
-0.05956835872603214
-0.13668186246772682
-0.02407380400978743
0.03203739416088647
-0.0009556106629461001
0.061741662618602255
0.023196645347387485
-0.09668468463647047
-0.06467731739123765
-0.039978018761123266
0.017974697426655865
0.14075879103975866
0.14361342017696005
0.022121510588127263
-0.045473576510914354
-0.0908742506579396
-0.14594480604369903
-0.03413668783788769
0.034047241029058734
0.06068163162446048
0.05634434033261407
0.03470486595846557
0.008032919661650801
-0.015123725850585612
-0.030072028209398645
-0.03480050982870751
-0.028707373275144644
-0.012185464309361222
0.012630115208728854
0.04042258435386482
0.0616364552343049
0.06303803368356949
0.030679644961776692
-0.04498329435651586
-0.16339890996764686
-0.11023522284508344
-0.05825560982183632
0.02616421041615802
0.17227412406682727
0.19367136908616595
0.08113384589166893
0.0029688172440700297
-0.08668844239755154
-0.23455291475294482
-0.07491940516537454
-0.021460104235088224
-0.0669478261761146
0.009426233488908848
0.2303872103146665
0.20959810940609358
0.1465450028782391
0.030543532817013653
-0.14666104613658368
-0.3745503708521113
-0.21143477247008657
-0.18337739446012025
0.0020215739770968895
0.22952027219777557
0.546228316207105
0.3392287227883664
0.13089358659328543
-0.20424146445266472
-0.40588583676839346
-0.5897781875744437
-0.21911934273177874
0.1042670091462642
0.42776505143448196
0.42268256595845327
0.3586741144392718
-0.11099671551438037
-0.3493050639706257
-0.32481616337257524
-0.20022276452797183
-0.12941446792556197
0.13273221375323188
0.21057078711397104
0.2861116579527822
0.285895225909443
0.28457665833692863
-0.07183582762714404
-0.3272749997732153
-0.5722849569451641
-0.210363215048854
-0.14643535930352874
-0.0030282058106339015
0.23942330287230923
0.38942796372349103
0.39355533376740326
0.10188653178221485
-0.1415656123317055
-0.08264247383736323
0.078706020539768
-0.26655247339405863
-0.2931381532893922
-0.10901407319615314
0.059998856801034534
0.06697275294452354
0.025124695894255308
0.07986606523715514
0.17880211053354492
0.04590247461331712
-0.035903614889361744
-0.031965944812804334
0.046315594069202826
-0.04914433655784753
0.010449397353082755
-0.054369330192703916
-0.1178353250329952
-0.0389985322899477
0.1434522799775038
0.011690763946875666
-0.03414410626462433
0.019369866767828803
-0.006410198451457719
-0.08774064037825134
-0.004028329427309667
0.05709234015744458
0.0961573433766909
0.10125457296849358
0.05171182499237393
-0.07380862388954852
-0.08664015674629784
-0.17842581685540926
-0.11651346169752744
-0.04735711665969641
0.0918070027205917
0.15595300091593517
0.17532558482265942
0.1445322819398399
0.021915129362726864
-0.059979465381527916
-0.17588149362657815
-0.1871276263794262
-0.1254815572816672
0.013585251319183934
0.06660356368099156
0.08902631236377198
0.13820745167138326
0.057959061070839674
0.06901042249880748
-0.032671566618521476
-0.07039401994916743
-0.07690501556868516
-0.08406092681773907
-0.11553007177865829
0.015396267271234712
0.10296924275678859
0.14337276418958228
0.1298942773024419
0.052128336217510174
-0.09953088995855873
-0.12571378618394857
-0.21017315917828983
-0.11671964378990772
0.006058111866335931
0.2126342334509666
0.14483512759651546
0.2185193855612684
0.018015002686113658
-0.09935304451384673
-0.19038986910690617
-0.10977316682693852
-0.09629011220982667
0.034158297330035094
0.08761506683011162
0.0850497698168794
0.05285465312943777
0.014439621680895227
-0.014808400340453083
-0.028694422999390862
-0.02840025031867568
-0.01921979669441987
-0.007311932799420681
0.002572651888472738
0.008066829703753461
0.009051124419877488
0.006863599771297364
0.003344935907907962
7.792814504617413e-05
-0.002012685045124757
-0.002707717872590182
-0.0023032271162983387
-0.0013292102501649679
-0.0002985405812102043
0.0004466181678561753
0.0007787924640048081
0.0007460959259410839
0.000492740376014629
0.00017877578602939272
-7.563214505526387e-05
-0.00021302329631811329
-0.00023353036863612588
-0.00017368532937053554
-8.165946798770733e-05
2.0324644648991935e-06
5.435390736866165e-05
7.05108441764787e-05
5.8746930112300354e-05
3.298468213437368e-05
6.398458214487037e-06
-1.2418873643261193e-05
-2.0452807580976606e-05
-1.9158484329137914e-05
-1.2365414294300295e-05
-4.211325604740466e-06
2.261280666851014e-06
5.651624990029582e-06
6.034507281360208e-06
4.39505928905681e-06
1.9872259588175517e-06
-1.5597106122443003e-07
-1.4634192129870166e-06
-1.834361121861343e-06
-1.497070095554536e-06
-8.16828519422817e-07
-1.317054303471625e-07
3.4286757777186984e-07
5.362334259070927e-07
4.913721793103268e-07
3.097642872514221e-07
9.826150723642187e-08
-6.620485231762041e-08
-1.4962447447009282e-07
-1.5575016566157015e-07
-1.1105879975829669e-07
-4.8149579303594216e-08
6.669677011366764e-09
3.9275458871675134e-08
4.765799820768588e-08
3.809935683835216e-08
2.0169577521767818e-08
2.5351600221769246e-09
-9.411620229017901e-09
-1.4032163997757334e-08
-1.2574836049122083e-08
-7.726535599777109e-09
-2.2474175700073766e-09
1.9166130871827858e-09
3.942859520711004e-09
3.978536493000143e-09
2.7423166995630086e-09
1.093771927362438e-09
-2.8506737248015233e-10
-1.0397780816325084e-09
-1.1412857075213457e-09
-7.870823080184962e-10
-2.6881605428204317e-10
1.4577948751315236e-10
2.9159912666481264e-10
1.401092185300683e-10
-2.0618401007315645e-10
-5.510842794724426e-10
-6.675342414327304e-10
-3.789120450272711e-10
3.5439667297662886e-10
1.3672143960954166e-09
2.274579972960487e-09
2.5438001065650094e-09
1.6700857517289322e-09
-5.662502138209137e-10
-3.83558719386611e-09
-7.110293778908862e-09
-8.770135256401103e-09
-7.057365426692088e-09
-8.613145392460689e-10
9.361471394615605e-09
2.0905098148019625e-08
2.8843820253853775e-08
2.7171544401004108e-08
1.1134308118520608e-08
-1.9700890685087765e-08
-5.872548925086156e-08
-9.14596066292457e-08
-9.811947865961863e-08
-6.028868117120479e-08
2.921247767767881e-08
1.562667726749495e-07
2.800560956451168e-07
3.376794544536242e-07
2.623341636495231e-07
1.3972727279879359e-08
-3.854315475894076e-07
-8.267146708820645e-07
-1.1167118642771624e-06
-1.024696081134566e-06
-3.742822410165579e-07
8.381052040071509e-07
2.341166184282507e-06
3.562880381867194e-06
3.7378620581725656e-06
2.1723209945740504e-06
-1.3724686205019573e-06
-6.298386213833867e-06
-1.0979498090173162e-05
-1.2966772929780002e-05
-9.71725814175423e-06
2.072212195836663e-07
1.579005657388538e-05
3.263602765529569e-05
4.3176298509662546e-05
3.85564163458477e-05
1.2253739163634293e-05
-3.535463026682869e-05
-9.317286638912728e-05
-0.00013863318657255126
-0.00014215903635515212
-7.76729543301684e-05
6.252078419218125e-05
0.00025327385035732133
0.0004299230275962189
0.0004972206590504845
0.00035852067374083035
-3.740610488772977e-05
-0.0006447654285333537
-0.0012869912031040008
-0.0016678468375186507
-0.0014479257552227523
-0.00038678679139414826
0.0014812677646515995
0.0037049409231862036
0.005396887277706215
0.005418895914901798
0.002798734066541606
-0.002692294016614369
-0.009992825073338065
-0.01652480135714415
-0.018588024748355258
-0.012550907883150362
0.0032690817260002916
0.026527330780366093
0.04942550540000209
0.058920397516379064
0.03927341033842611
-0.023128266410644808
-0.13386553554263886
-0.08568230130614626
-0.05719869126074893
-0.016601140740571813
0.0701585575068679
0.22919100854099272
0.07027167249969364
-0.01641093051552309
-0.05699950439127986
-0.08556329748686924
-0.13391479394832878
-0.023398983657209913
0.03880194493266888
0.058372143883038664
0.04902680073830189
0.02655728736444783
0.003955850134229525
-0.011169464204858684
-0.016791744536399787
-0.014956918254608225
-0.009553474188358757
-0.004243340156215797
-0.0011179395097001123
-0.000282590763111282
-0.0002825517418995115
0.0008983777529355666
0.004626682265963825
0.01058464761844665
0.01628066118737192
0.01738182148392647
0.00895265530012822
-0.01262434129043787
-0.04763637232219455
-0.09179181266584174
0.06347929069049105
0.02894398635375614
0.01431158988556164
0.02501522690203927
0.06021992974974526
-0.08731320101579505
-0.029619751895018854
0.01914773900709894
0.045703030048635754
0.04046846134896653
0.00012826395555527525
-0.07042490205459734
-0.1576086843004211
-0.04128388659802963
0.09995951484233345
0.08137764383525087
0.10518340813018044
0.15745941005430875
0.011086224462624574
-0.1654647244541692
-0.1963374087409903
-0.08813401462783857
-0.025757938811195324
0.023773855402427036
0.10089674394501529
0.24043377368627328
0.06081183033250183
-0.040628844435464
-0.0850936315574603
-0.10444582866768135
-0.131731075914582
0.0062033995009347625
0.09203881271250111
0.11764816728959615
0.08218742857338153
-0.009105640786705118
-0.14447338519892894
-0.10455381089339029
-0.06280817752997961
0.010816755232629836
0.14309190854225387
0.14976266675131458
0.03009676108765694
-0.03373006742414449
-0.07194723125081982
-0.11900359996104923
-0.004885699808673956
0.051389813539348496
0.044816232056062964
-0.015906938292411677
-0.11123125861051608
-0.015447164723938343
0.0974185112731591
0.047508366239672584
0.04444408061173835
0.08565514892450879
-0.04156564352549573
-0.1550434460142171
-0.07181765587931484
-0.0038455717784041618
0.0430728802108787
0.06728680003423268
0.06789844017333416
0.042172499012578614
-0.014739812405030606
-0.10762407564091017
-0.03776153774215239
-1.2765158338429098e-05
0.018188909032311303
0.035605253991353454
0.07436362024009033
-0.04350099342704364
-0.09953200552887942
-0.08240723168990155
0.00817024072795895
0.15765167449987338
0.13454147966839078
0.09239546235125831
-0.02247249992656915
-0.05823092213587335
-0.24305122217992525
-0.1739047995213394
-0.013281241312410838
0.10401178489631517
0.055440347211547586
0.11127929517604417
0.11683188805808187
0.08121802679341242
-0.02459949424027995
-0.06062488552444201
-0.1040404617976261
-0.032868596917892845
-0.11117902851189343
0.021295806080682256
0.15416656003400941
0.10681073778544736
-0.07414942439793376
-0.11922080444726915
-0.14257618076031126
-0.05194728691744689
0.03766293166476198
0.18812282315847917
0.22406063277486993
0.1251546395394252
-0.17205330190086698
-0.16306240424407714
-0.15868652983544718
-0.06774959732885463
0.21712547296395548
0.2299912675285669
0.14010143909188758
-0.03975414228554061
-0.2460446788855824
-0.5629828885769835
-0.23302293054265288
-0.08342062646193599
0.4335244629379033
0.5969094210555641
0.5859422002404874
0.2753666022269024
-0.13620125667059463
-0.6712542309675654
-0.7092528107098394
-0.5358344338949134
-0.12357860599126733
0.44950203734982763
0.5521811174582537
0.542094253669545
0.3191442226384666
-0.09472069326404506
-0.3459336563916832
-0.3179567430862614
-0.2928479279760796
-0.1205147598399394
-0.005121320235335037
0.08945167580681163
0.2199499120069553
0.23877084079623445
0.1731649403223612
0.015579259548750458
-0.07252111553405782
-0.14608411755879053
-0.25758380898570116
-0.2413468154509503
0.09317244138392541
0.1574703246671204
0.17237733586357035
0.15477962607537943
0.1087685704041094
-0.17541939318199143
-0.11522351813044263
-0.12606270579243414
-0.012887497604287606
0.03354325343252253
0.0347372423260388
0.018288108584525547
0.010009418163006356
0.02700746626390787
0.07376810256314638
0.1425892984582824
0.01873585369155104
-0.11072814804856781
-0.2472765229566189
-0.17461220949014256
-0.059525141572430294
0.13889996198920437
0.25449922802574726
0.29967022029065415
0.05798265930165368
-0.11247889421325276
-0.26618810683220284
-0.2533081152573394
-0.10615484619674478
0.16581363294614102
0.17179911328394837
0.12989967768514768
0.05725209477859258
-0.03569153370372859
-0.1455671995503037
-0.0728817254860521
-0.01819541714696982
0.019825465334977074
0.043726203729835475
0.05489574173243303
0.051307059500047804
0.026966749355054484
-0.026273491872957976
-0.11512441355202509
-0.04104104011436848
0.002061448473322057
0.02753859010901419
0.0534516595972857
0.09900464720719614
-0.018501799866737372
-0.08536506862686524
-0.09212605803883485
-0.03427164829956576
0.08609589628178488
0.05785010334292327
0.059147945520509296
0.05828560683642771
0.018162967155963806
-0.09608352426205967
-0.10825036294859672
-0.023892094902978684
-0.027420457021427664
-0.08478159352245448
0.048805669447530876
0.21824727087072426
0.05837415484302902
-0.01261210995114768
0.005782728994694257
-0.09969263955410274
-0.14939309669009287
0.03554276112339198
0.036972647935966094
0.040432386057274755
0.033718619656127644
0.005012392874864437
-0.05816354116390947
0.03136952059512573
0.0620493173439288
0.02616711405577051
-0.07698549142188262
-0.03822207016965773
-0.03706011548603299
-0.04305443368392461
-0.02041879700589652
0.06464169390987225
0.03558918880203071
0.0986122493958835
0.03947237893641504
0.02566297985127713
0.01391451988806013
-0.03859749059345219
-0.16236824503106445
-0.16669427354737218
-0.03704583324559848
0.059928880395509296
0.16518765174429662
0.11385349501292077
0.12449951143476362
-0.005076071628265589
-0.09456703246061109
-0.17237396176561426
-0.06528276306275037
0.009358705750623695
0.04663344419943058
0.05229048957006179
0.038096699788456576
0.01670008945153254
-0.0021734234569297157
-0.013412662708160227
-0.016277735696631206
-0.012955049163768549
-0.006769282062257484
-0.000716375018365457
0.003353452009195316
0.004891914569838199
0.004344494792694517
0.002645507093665287
0.0007464177824046027
-0.0006876822257271519
-0.0013806184956228203
-0.0013885975430347208
-0.0009607027752358705
-0.00039043211477070235
9.211491875944902e-05
0.00036869760869607236
0.00042872167826576096
0.00033300898781695457
0.00016860429803010915
1.2002689606609497e-05
-9.082845426186434e-05
-0.00012757122316364304
-0.00011103984803750912
-6.595471829181786e-05
-1.6861207184331828e-05
1.945994890127761e-05
3.637367073934255e-05
3.57334193472845e-05
2.418572860311691e-05
9.337337003144982e-06
-2.969433039802158e-06
-9.830458562744413e-06
-1.110630900746531e-05
-8.450360202262716e-06
-4.134801758871752e-06
-1.1484450603092811e-07
2.4645497864510677e-06
3.3281234620343698e-06
2.8367467072492424e-06
1.6412639940869593e-06
3.730479609961527e-07
-5.457273389154111e-07
-9.569004892097926e-07
-9.186798509436436e-07
-6.080284934278087e-07
-2.218686233784686e-07
9.165397048845717e-08
2.614518455599407e-07
2.8736223167280737e-07
2.1414990617045874e-07
1.0104825567322617e-07
-2.0249550587379452e-09
-6.661194166637305e-08
-8.670734079692019e-08
-7.238493146482367e-08
-4.0751130028387363e-08
-8.027960835311723e-09
1.5180579515465937e-08
2.513183359989869e-08
2.359163496734526e-08
1.5260621410405107e-08
5.230617134277108e-09
-2.7467947637019222e-09
-6.937892484606148e-09
-7.426351779347219e-09
-5.419694109388958e-09
-2.4600058975556288e-09
1.7979586066985164e-10
1.7940359113385318e-09
2.2560022968774382e-09
1.844827599035719e-09
1.0093973651040027e-09
1.6603253056831345e-10
-4.193702886928695e-10
-6.590070877285233e-10
-6.051394808823376e-10
-3.823575365604005e-10
-1.2216599869296325e-10
8.05617197347988e-11
1.8371420621620225e-10
1.9169601918953882e-10
1.3697072336894983e-10
5.963294240818247e-11
-7.896753554856759e-12
-4.816302176204588e-11
-5.862261793833613e-11
-4.696080906913379e-11
-2.4938376847501978e-11
-3.2275292133958657e-12
1.1516173840655917e-11
1.725403370024586e-11
1.5504336979858172e-11
9.56257256073556e-12
2.8211171275249385e-12
-2.3241770513092324e-12
-4.855084864548732e-12
-4.942567759467439e-12
-3.456721535679439e-12
-1.438693481216571e-12
2.8679433364106543e-13
1.2891297278123204e-12
1.5213449350475408e-12
1.1938646337509519e-12
6.143599355238762e-13
5.609388694888387e-14
-3.1465213135676824e-13
-4.511389406753551e-13
-3.968408121442253e-13
-2.3875718592609075e-13
-6.429893316463503e-14
6.611967319707211e-14
1.2800485770784505e-13
1.272289175377766e-13
8.704681080079172e-14
3.446069377984887e-14
-9.576236755409477e-15
-3.447193354513909e-14
-3.949311953504883e-14
-3.037319841299156e-14
-1.5149472952744358e-14
-8.107774071756522e-16
8.496756448463077e-15
1.171855401513015e-14
1.0085031955766331e-14
5.8887344247592094e-15
1.379381432330836e-15
-1.9219232653166627e-15
-3.4294184105437716e-15
-3.3318254454333706e-15
-2.2490629285941297e-15
-8.805782326513845e-16
2.4196573420394414e-16
8.588557821156763e-16
9.634370171924319e-16
7.112495109583924e-16
3.1195904244807345e-16
-5.5900281930114e-17
-2.891640350976062e-16
-3.645263947212464e-16
-3.1647852212326807e-16
-2.0532675342904954e-16
-8.890664220987246e-17
-5.455789633613257e-18
3.11120417073078e-17
2.6612389537120522e-17
-2.469146909582392e-18
-3.8036234508329114e-17
-6.661626194610868e-17
-8.186332796818355e-17
-8.391969019572403e-17
-7.698855653086222e-17
-6.653198882855273e-17
-5.710536525873066e-17
-5.126988760375622e-17
-4.9526317212606914e-17
-5.091554475267625e-17
-5.3853818693424405e-17
-5.685600604843891e-17
-5.896247574107858e-17
-5.984533944667306e-17
-5.967868088240558e-17
-5.88999172311435e-17
-5.797668920353604e-17
-5.724993887480293e-17
-5.687412679247312e-17
-5.683755469119102e-17
-5.702703699473928e-17
-5.73004673016173e-17
-5.754175226234529e-17
-5.76874588453134e-17
-5.772725427292236e-17
-5.768762638031357e-17
-5.761010125390391e-17
-5.753277137813728e-17
-5.747967846153627e-17
-5.745847692716316e-17
-5.746406548361662e-17
-5.748486251616147e-17
-5.750879749930678e-17
-5.752725445074186e-17
-5.753648989344133e-17
-5.753701068457127e-17
-5.7531854981704e-17
-5.752471521979044e-17
-5.751854642559466e-17
-5.751491558682417e-17
-5.751402279852009e-17
-5.751514087499914e-17
-5.751718265903084e-17
-5.751917222861943e-17
-5.752050836184701e-17
-5.752101440031282e-17
-5.752083740999328e-17
-5.752028343093506e-17
-5.75196636611978e-17
-5.751919552306843e-17
-5.751896930548127e-17
-5.7518966700787e-17
-5.751910639685438e-17
-5.751929257135712e-17
-5.751945010063723e-17
-5.751954038334893e-17
-5.751955996410885e-17
-5.75195287032236e-17
-5.751947502079402e-17
-5.751942389092658e-17
-5.751939031975366e-17
-5.751937832699105e-17
-5.75193837273733e-17
-5.751939844909686e-17
-5.75194144781879e-17
-5.751942633622395e-17
-5.75194318574353e-17
-5.751943164743812e-17
-5.751942787656542e-17
-5.751942302844239e-17
-5.751941901046899e-17
-5.75194167706695e-17
-5.751941635441589e-17
-5.751941722178894e-17
-5.751941863089346e-17
-5.751941994337796e-17
-5.751942078546127e-17
-5.751942106732059e-17
-5.751942090681355e-17
-5.751942051645432e-17
-5.751942010238261e-17
-5.751941980242515e-17
-5.751941966820655e-17
-5.751941968071012e-17
-5.751941978215156e-17
-5.751941990823544e-17
-5.751942001059538e-17
-5.751942006602585e-17
-5.751942007447759e-17
-5.751942005056861e-17
-5.751942001363916e-17
-5.75194199799867e-17
-5.751941995890141e-17
-5.751941995234277e-17
-5.751941995702088e-17
-5.751941996735015e-17
-5.75194199780342e-17
-5.751941998561117e-17
-5.751941998885949e-17
-5.7519419988356e-17
-5.751941998563557e-17
-5.751941998236073e-17
-5.751941997975624e-17
-5.751941997838807e-17
-5.75194199782288e-17
-5.751941997888409e-17
-5.751941997985047e-17
-5.751941998071234e-17
-5.751941998123934e-17
-5.75194199813901e-17
-5.75194199812558e-17
-5.751941998098302e-17
-5.751941998070766e-17
-5.751941998051654e-17
-5.751941998043832e-17
-5.751941998045592e-17
-5.751941998052867e-17
-5.751941998061362e-17
-5.751941998067981e-17
-5.751941998071349e-17
-5.751941998071609e-17
-5.751941998069821e-17
-5.751941998067296e-17
-5.751941998065092e-17
-5.751941998063777e-17
-5.751941998063435e-17
-5.751941998063816e-17
-5.751941998064536e-17
-5.751941998065245e-17
-5.751941998065726e-17
-5.751941998065913e-17
-5.751941998065856e-17
-5.751941998065661e-17
-5.751941998065442e-17
-5.751941998065273e-17
-5.75194199806519e-17
-5.751941998065188e-17
-5.751941998065236e-17
-5.751941998065303e-17
-5.75194199806536e-17
-5.751941998065392e-17
-5.751941998065399e-17
-5.751941998065389e-17
-5.751941998065369e-17
-5.751941998065351e-17
-5.75194199806534e-17
-5.751941998065335e-17
-5.751941998065336e-17
-5.751941998065342e-17
-5.751941998065347e-17
-5.751941998065352e-17
-5.751941998065353e-17
-5.751941998065353e-17
-5.751941998065352e-17
-5.751941998065351e-17
-5.75194199806535e-17
-5.751941998065348e-17
-5.751941998065348e-17
-5.751941998065348e-17
-5.75194199806535e-17
-5.75194199806535e-17
-5.75194199806535e-17
-5.75194199806535e-17
