0
-3.2216574790254135e-09
-5.6338827536811895e-09
-6.934566534133912e-09
-5.837534697915544e-09
-1.4917163320006218e-09
5.846885415558254e-09
1.4298776315873772e-08
2.0344895980883894e-08
1.960922079278329e-08
8.517941135816034e-09
-1.3473669355304347e-08
-4.1854628778004785e-08
-6.634685236843597e-08
-7.262297722871348e-08
-4.7016824813004246e-08
1.6357882017994678e-08
1.0819095700640301e-07
1.997434838500032e-07
2.4573384777473063e-07
1.9705145658790915e-07
2.2736890270734257e-08
-2.642252221911302e-07
-5.877987797124742e-07
-8.097711752991407e-07
-7.617778501643247e-07
-3.107743304766952e-07
5.548961263383525e-07
1.6493006710179516e-06
2.565860879486091e-06
2.7496525764167703e-06
1.6847782434513287e-06
-8.287368741663364e-07
-4.393022143334422e-06
-7.861431520158251e-06
-9.46901937731401e-06
-7.3434579268481884e-06
-3.654267318862582e-07
1.0842697190979332e-05
2.3212623899482916e-05
3.132257808484357e-05
2.870321597903629e-05
1.0417798131507122e-05
-2.3615322397692188e-05
-6.576442041306318e-05
-9.996838905168344e-05
-0.00010475931836479663
-6.07041008769193e-05
3.8837305447387883e-05
0.00017701365457028513
0.0003081512418042069
0.0003635321432515352
0.0002718823782398386
-6.988755014892971e-06
-0.0004443421835581706
-0.0009166626621211205
-0.0012115098433087596
-0.001080569746597523
-0.00034113523957694363
0.00099592876959848
0.002619498740460069
0.003897824550465024
0.004004773078230552
0.0022157296633495732
-0.001674131392972632
-0.006944644322320994
-0.011767180652850278
-0.013465815492998785
-0.009361236599068143
0.001862131793742941
0.01860115332390639
0.03518680196388204
0.04184572950522847
0.026283207731368677
-0.02314080209156987
-0.11344701062730742
-0.0437463716336602
-0.004147830804627564
0.02239004120110678
0.05581750108883673
0.11401626389041646
0.009030795109424962
-0.05423243498967909
-0.0769086971448853
-0.0639905947226892
-0.022740723782767487
0.03734286945752009
0.10342139680138997
0.15864595095227674
-0.01631216369839731
-0.03887861494325956
-0.11868833598380396
-0.25334073497996557
-0.22933787809847148
0.16996027763556437
0.3510658739025379
0.29725944162914986
-0.03735051344939926
-0.12191009459387882
-0.031334082368057535
-0.022181931571943946
-0.10893814496407862
-0.047414213435628995
-0.3304564713907966
-0.1990332280145493
-0.06875253835131713
0.43243735322300986
0.4243623857698005
0.34436451775575766
-0.06314253391205177
-0.33341844259524794
-0.24859128211426662
0.20501148310087564
0.2789118465825494
-0.3041320544480951
-0.3311905256027859
-0.4998321481228665
-0.4423811012270074
0.22698949747948696
0.8516168603689862
0.8761873571039672
0.41636166060343505
0.06930769953372767
-0.43420343934069033
-0.751927375820182
-1.0532331882487815
-0.5705459052580983
0.20376120973386827
0.8757261211105464
1.082145532272051
0.6253566640292979
-0.16489570516778046
-0.6332245533900271
-0.9732555080178118
-0.5961812410004929
0.2865458616349972
0.6579157874283593
0.47411464200382925
0.2434472298707233
0.02076588533336903
-0.1759956764406438
-0.1311422447984673
-0.1896422063866513
-0.4222006005302767
-0.408494363645761
-0.044893006651095704
0.2245093619975919
0.563048655524625
0.6985161793660633
0.2983927419926304
-0.026786230396766322
-0.29368977762554777
-0.9040848973268297
-1.411722948532812
-0.317807231856887
0.6977370468456843
1.9215779258436179
2.358422139053482
-1.0795870960537397
-1.1320664446080928
-1.3150352098319684
-1.450733283772957
-1.2426541067942132
2.286467469726807
1.5084104629483432
1.2951768342247383
-0.2388139890758771
-0.9329029664544289
-0.5198824803462125
-0.3371703282363408
-0.6430213227397196
0.03757811063295436
0.32755780711799987
0.37701974631106244
0.22006689440909238
-0.07567762666996686
-0.2554984489032643
-0.1146068254494875
0.07549211714550991
0.3520691663554892
0.4601582904399847
0.06849792284341433
-0.1975531136855165
-0.31223341093737006
-0.6068101247574869
-0.542254503085948
0.09289879772722043
0.5588649992128061
0.5252905913582578
0.4335427727921631
0.07710146503787274
0.00833050066587501
-0.23152353230755468
-0.4719259963435449
-0.6798433469736664
-0.5500397813106496
-0.12779324173341813
0.5393148732577608
1.5374080713209082
0.23583186305344056
0.4742977285021045
-0.0013677885715074
-0.6631422971028984
-1.7095182807146374
-0.19172227394752855
0.014885895892383599
-0.017190261110088194
0.0566593760450031
0.7541071044287507
1.074870150607657
1.2472892866288234
-0.26814097847916235
-0.7172780624402995
-0.9535478245474068
-0.9381232112968025
-1.2767592527797371
0.3827414592473718
1.0917509746941925
0.9037949305542061
0.7765939891380031
0.3087783337575956
-0.26904065671375665
-0.4507104712285221
-0.778085433248971
-0.5593603718378108
-0.007012790441453582
0.5909484636215023
-0.13349114218361607
0.34418577780544274
0.2039416109203389
-0.15493119926628035
-0.5435121163340236
0.19449231494813868
0.3674133787106547
0.42815521965058856
-0.02273442383543965
-0.2224039778215308
-0.4235490597905689
-0.4738602060433468
-0.4067954219868098
0.5517383121182149
0.7651166681408724
0.5683546550857255
0.06475880863519043
-0.45663289369452753
-1.088474192153275
-0.27251503380635844
0.417399950067802
0.6698626918610242
0.21259475645699716
-0.4180635464179034
-0.506656834639706
-0.3850156746483412
0.14402139348022047
0.7892093027901563
1.5705209115354983
0.6491378301355453
-0.8067694508920891
-1.933160660872548
-1.0896880921152545
-0.6251597471892556
0.08772272313149465
1.153007800658193
1.8197378644480648
0.7639490642047473
0.22484351395578445
-0.7870310066630147
-1.0203397437523147
-0.6840538697064935
-0.15590613546698223
-0.32469437228919434
0.42523320065857323
0.7961349792153399
0.5448378640958762
0.05678988899027921
-0.06108300156286877
-0.3683957437047824
-0.5710369736346824
-0.5085528403320454
-0.3626223499412171
0.3087891108430715
1.318956513201346
-0.40112201617193216
0.5626333577068169
0.5053556644219472
-0.16387547471342262
-1.263599414630299
0.4259257958587041
-0.7850385799264411
-0.4739292243131014
0.07874338924003613
0.6421933593882772
0.5723372040459492
0.5549142009387749
0.17475729690212782
-0.07860932102651233
-0.3723634380918072
-0.4736596679869373
-0.495321220208514
-0.4628070653188599
-0.11326665056753762
0.474354862054477
1.431116043688028
-0.3480049242564335
0.370600221331952
-0.03693192655897377
-0.6240401992950984
-1.4370947651495352
0.7122749598731918
0.2542332859886743
0.44729896354423254
0.1548786019217262
0.024721118483982348
-0.3209358982281098
-0.08422102143503196
0.7158888853064493
-1.348374610104045
-0.10975634571442133
0.5912306695169747
0.6990618547516774
0.13901015738301964
0.42474438239133244
-0.719614440477119
-0.730507326629628
-0.584055907094079
-0.5977832624532761
0.9402067682597297
1.1244598191618058
0.7895757174155923
0.094768862970874
-0.6531867490348454
-0.5460724868946848
-0.4119301122714632
-0.5710514624347307
-0.4300548049509715
-0.12051715750882233
0.6263390718691321
0.9904402909432908
0.5880432469444674
0.4382724681702224
0.18609452663024717
-0.22101494584669884
-1.0228139785884165
-0.7339217998310381
-0.662674024450609
-0.28579073565124463
0.11351351503171264
0.5557975835313798
0.8514166618434155
1.0966640065745124
0.4105888628557988
-0.2709428175916327
-0.7473719946409323
-0.8737140208310423
-0.8801947994639889
0.08139243428865534
0.7519831149195948
0.7457585111732119
0.11506502206488906
-0.08078213290053049
-0.19189515860496914
-0.3797917751618768
-0.2124794727068714
0.33920534105743855
0.09988204270491677
-0.11666191193604651
-0.11488110196053437
0.07731110391965172
0.20785550837504707
0.4063974451999336
-0.0018298141772984332
-0.47500038159990965
-0.23164367680008457
-0.23381479892950963
-0.18398863181085306
0.2619095355488699
0.669742489080074
0.2000009535679404
-0.012267194907250084
-0.2661550067188833
-0.6956809891498639
-0.271480441416115
-0.21150820349223806
0.1981179775012908
0.7809963156008999
1.6638177642307954
0.5026192908543717
-0.4509542537313878
-1.8559692698318129
-1.5939250270610437
-1.126214882185707
0.2757129746080097
1.8308168140094823
2.1152935680210074
0.9487475028281485
-0.2554623460842779
-1.0605897249720886
-1.5177184194866367
-0.660374913180473
-0.02535549383751861
0.3756169275087379
0.43330475888388953
0.2858643098400096
0.2564220334478251
0.2050476582257726
0.30828291153204007
0.4698233656691356
-0.6430305404468716
-0.9505973638896861
-0.51851707716371
-0.13965692698948576
0.05161856075572862
0.9393510277722759
1.1791680094514712
0.1677313142381726
-0.35596140217876376
-0.677594084895002
-0.6589791665263349
-0.6974324527340797
0.28797571113906945
0.4375107845577912
0.5081448622852357
0.2254275733874206
0.2483680128922119
-0.2413401005006957
-0.32425879862637014
1.6911867340943303
-2.2886233869670463
-0.5048787301375208
0.6728850386887326
0.5393059809828971
-1.978935536978925
2.2320666219362395
0.8326998720198524
0.8094421830865879
-2.5159068363848327
-0.25230628051393383
1.5008807243086617
-1.3192203939991864
-1.7360229248858365
2.446461019066132
0.8106453966321576
-0.7032450754235582
0.996196838538987
-0.22567678199737878
-1.0851316268690157
-0.8327619866550083
-0.4247541453466214
0.47307093962156394
0.8490430116618886
0.6929153953023035
0.14869522746082953
-0.3104807577927348
-0.6821151270752295
-0.41773001778838104
-0.0033613646163769217
0.45382821835688986
0.632981306606063
0.4081745237157419
-0.5347034969889172
-0.4727595046222421
-0.421130105157989
-0.12046353824604025
0.35491810482359587
0.36861873178716503
-0.31842418167390263
-0.18998756139994172
-0.008843540519721397
0.36401097285643996
1.1724471909094965
0.7976694571165447
-0.37815839427632947
-1.0879282309056724
-1.9014320335389974
-1.1870975617305821
0.26095255466586564
1.7300745345734267
1.6599707337964367
0.9247246878235522
-0.2314905486688199
-0.7876672679741705
-1.2814652621311524
-0.7202507004674816
0.2977088441246792
0.6316980040602632
0.4160589024262078
0.059494673888013945
-0.15927265530502865
-0.09155294451542531
0.08553714018765378
0.07307661027864282
-0.15123369567306938
-0.5450010440495123
-0.42725792371711585
-0.11997135589972663
0.3998176056399098
1.250286525198189
1.0166432669375896
0.16143535316389032
-0.722564523298845
-1.2323249968188945
-1.4787606375720421
-0.648905066120242
0.5748386521320826
1.5450579454765172
1.360457105448491
0.5990209247146737
-0.09560386379012265
-0.7682406539756108
-1.467198099883668
-0.7561864935096022
0.1423531769129206
0.554340621140982
0.5152225842222753
0.304875321493525
-0.020143179518239344
-0.2795944273958774
-8.820565903616124e-05
0.17746667885999612
0.5114942680099079
0.19225173300929127
-0.21054587631694294
-0.6932398924839672
-0.770366928833896
-0.2480481530156538
0.572960761182198
1.6678878463552163
-1.1542222242335995
-0.09043014536048581
0.22606301732301912
-0.29520909087627417
-1.0181239580817796
1.6076741136417163
0.4419112700853473
-0.336640711600453
-0.20091392801997582
-0.2294400862562455
-0.05405861476968387
-0.014542363282230237
-0.1303506691183134
-0.2952018298267049
-0.29622759451239755
-0.05569531484269235
0.31149289032130467
0.6367869964390581
0.6494195545392673
-0.04508107375421199
-0.15226189477687677
-0.24632653741146887
-0.31219380444192224
-0.4906568191122874
-0.24324150606194994
-0.1465912273915485
0.08311241273574482
0.34471132160609796
0.9017881209256533
0.14603452373393605
0.18873284907495283
0.08507006243493456
-0.3160668368486833
-1.31410338565048
-0.3121818343568687
-0.0039599099567419
0.20164229475188472
0.526237737288749
1.1583076033156425
0.20274477237897043
-0.9407950771981152
-0.5683843839477212
-0.040766237118768416
0.6562714000859142
1.352578830435647
-0.6658208690674613
-0.8188231400701554
-1.0081270266236226
-1.2249515974132588
-0.6029173398770595
2.088587738997169
1.7389173547627863
1.2229678055918687
1.2009115601478135
-1.594444710686539
-1.2051473836546391
-1.4835693838407908
-1.9790066398079746
-1.5235649999835719
1.6689688376873375
2.0202207976215476
2.1849069858322228
2.5061667732812922
-0.013926101073861991
-2.016531453859635
-2.400928732591515
-1.927912606873624
-1.2901619392826713
0.7030495455176595
2.2285487203294685
1.285451265183575
0.7319059690637364
0.18093832909873359
-0.015297327178357351
-0.49679677956665974
-0.17074285962902797
-0.669878229537291
-1.0341735212105407
-1.24813970797846
-0.2518814471690649
0.776435055232666
1.6923456455230796
1.8544778654477303
0.03698301074980521
-0.5873072558923638
-0.9955122874089078
-1.22490162988303
-0.8854153997847816
0.893316695262297
0.6694707001246811
0.26175803745741283
0.10955476584426538
0.04062848546430823
0.056796197760459174
-0.0621142896607589
-0.14190765843985725
-0.19399343492060875
-0.400744376184773
-0.5133115609069274
0.33565956644261347
1.6088364464492404
-0.4588017207389948
-0.4714467335762822
-0.06796182071401047
-0.1061407916761965
-0.8445505105054436
1.2721674058232757
0.8247949279176763
-0.16796165559940157
-1.034345405608934
-1.0388620883620268
-0.7901723577232954
0.3220026698943195
1.4661357253072245
2.707900002533676
-0.019747558481766174
-2.2960361710026955
-0.9494832502783543
-0.385544607875498
-1.3418913016285372
0.9099622631081266
2.725485547608726
0.6402300150306428
-0.6514141794112455
-0.6748790376527631
-0.5208875477199508
-0.5859624424555883
-0.7380331265653948
-0.1254365626459216
0.3696295653488494
0.848875047568779
0.9142675405728158
0.8126570464148565
0.029342281408324934
-0.6665968605778618
-1.1422524121719246
-0.8165587891799846
-0.2026434797366235
0.3048807982147475
0.5989758676393142
0.6037974298859687
0.4182997525752275
0.28135057391774915
-0.2316962958267582
-0.5847837839823765
-0.6437921104363402
-0.24431321683005752
0.02164040910619045
0.3966772089985303
0.73478252903038
0.67824095036893
-0.552383249584689
-0.5512067062651539
-0.3100399311946128
-0.20485068699451234
-0.19680243505498196
0.34952622327388566
0.2375545035438393
0.4127442591126104
0.5533706326299241
0.4878325573927526
-0.3604895654540197
-0.7111578975002912
-0.7678818616285246
-0.9874420722416055
-0.4947345410792625
0.8532197072832742
1.3713511231640771
0.8514606755712039
0.5037174467808019
-0.04221776464554552
-0.47603248854427566
-0.9072248822318097
-0.7617610784887765
-0.5097803642703551
-0.4480133480756699
0.05767325147244413
0.6837243935209021
1.4438795614272204
1.0039466068913203
0.2470735262627587
-0.4976822367117288
-0.9749191279862734
-1.5020102571379128
-0.6856047309488985
1.0168179566092268
0.8842865511748804
0.08406321269223321
0.2132550067016024
0.051331778293148285
-0.6674887441518313
-0.06357005839923319
0.4910447958318272
0.18283716100071026
-0.027541621488528668
-0.18524971306530902
-0.3204619722005221
-0.23335181597404434
-0.0913424372908783
-0.04129875694765229
0.3665335222985539
0.35131407008148974
0.2819396349843435
0.0738281962390749
0.005253263545668815
-0.4511826231023565
-0.3924990058901729
-0.25750662396529583
-0.01716057039730954
0.2138592852994868
0.3493176090849744
0.2978356302148391
0.13477692517443066
-0.31312155275513365
-0.6694090332787722
0.00019507977249433875
0.8014965085795787
1.4309618101344606
-1.1967159267768614
-0.5133584424821174
-0.4646600772305815
-0.6971277237760893
-0.7778450180346161
1.952900096458577
1.111814257575788
-0.18905755974259958
-0.7738051104553106
-0.3967833884926876
0.29232606321898996
0.3986492412308275
0.43720096458287144
-0.21301964298134615
-1.062843128628754
-0.8860384829169297
-0.12412868398856093
0.6723736033860168
0.9761737720554623
0.8115193789418769
-0.09645635388406076
-0.3367631158206783
-0.793943880201196
-0.4110872193148603
0.04693044089578031
0.41794215627591663
0.15361341474681034
0.3243678248730145
0.22706023648080864
0.00021938198885643748
-0.3552195457829827
-0.5582684643418577
-0.8451948156665112
0.008683995500261407
0.24192990328311373
1.0463849989167564
1.5151019876822602
0.4220805963550802
-1.3543396182436607
-0.9730238529812082
-0.9634559389711388
-0.5822089568866549
0.9894165920071825
1.4108240881067526
0.5332489877107887
-0.23663637057111991
-0.7452702989086767
-0.6756401772641119
0.07935503065702115
0.2385409824478342
0.34291724717526073
0.15816946685329059
0.07624661252766082
-0.07950224335163039
-0.24654644671470904
-0.3182173000833466
-0.14850405523828422
-0.17129862714365496
-0.03364866021958996
0.3637019556022901
0.6305071022038897
0.6701125393682803
0.49251296743950995
-0.7408251784434945
-1.0517874652597905
-0.582649394208698
-0.3599552139552406
-0.10013747590709922
0.7453773080069412
1.1241910285872998
0.5231370576471155
-0.061352337630634295
-0.5120694638583095
-0.34545735533514765
-0.050310924133396766
-0.03235186921917168
-0.5817433027215375
-0.27341531020860305
-0.20290939372133654
-0.052894123211436654
0.6229443431764532
0.7194502323655458
0.3269719178470544
0.725902301445716
0.4380093794788925
-0.4715657862020874
-0.6637259009975226
-1.20063116556422
-1.26494084072885
-0.7530551890334395
0.04793076259919366
1.5172055239356157
2.3341443668578252
1.344275333418092
-0.49700435468429527
-1.0870594339281163
-0.8656410976559057
-1.477026864377305
-0.05281256080810253
0.8533390658282874
0.47243306519891554
-0.41824423875935796
0.242455686399421
-0.26877880869570353
0.07822218061147648
0.8201702532946249
0.3764038618261864
-0.14631790917590923
-0.3207557041201129
-0.346985083726636
0.003296972540719484
-0.7704148169066742
-0.07901951202096635
0.3466616651950603
0.42370638807412114
-0.12528728046806348
0.7902328276242823
0.20796256063511645
-0.4864487552988082
-0.5406636603348365
-0.4096674628388356
0.0651344627862126
0.46456235530632
0.5895608767860161
0.05591006663148652
-0.5073458401959896
-0.6550263863945875
-0.12384291037372752
0.5629738119303769
1.4844927038084643
-1.2896297950527555
-0.5058371883272872
0.07061469898533768
0.2508199403297901
-0.9885608053749302
1.6812230976896336
0.7338716325017165
-0.4032068868294256
-1.1211131074293603
-0.39068839983603804
0.07138795700478101
0.21834961806627814
0.26832794726881076
0.2860590784579107
0.1623510608585595
-0.0005461830733447192
-0.29561584435161886
-0.6136354519215874
-0.24835385257627468
0.29097463987444055
0.6614109100397472
0.6713909022203091
0.28031927889954117
-0.38155045183768305
-0.9786067852891316
-0.9370619227154625
-0.4327680946334768
0.7901258467991306
0.9760290665234714
0.9117265495613636
0.3028070514760236
-0.21146838925219186
-0.8075380071819801
-0.8112189818717104
-0.6436991870778814
-0.20324766805746267
0.30840813411856244
0.5238969387446691
0.8350074401095647
1.3322115960597358
-0.8192559547994002
-0.3597631555066908
-0.4827881331685691
-0.5722622083313638
-0.7532040711120975
1.3301303669448683
0.10774638603725567
-0.1410204935436798
-0.11774638858603964
-0.13129087664756636
-0.11652380841212771
0.5563600849277722
0.6847884708094508
0.25221279521206275
-0.3388419280931964
-1.0284973166316302
-1.0741253014246233
-0.6576250704300285
0.46459534681809667
0.8777641802800739
1.6190724299611878
0.9193017650317241
0.20553196702635387
-0.8272384065082788
-1.0948907364945961
-1.192743556883958
-0.4971412791722018
0.06975134609011746
0.4051277963164203
0.737139152490423
0.5138966360193438
0.5030956039907835
0.12709052591965977
-0.15601000340400026
-0.4294060612751878
-0.26781132828961524
-0.28007998893651526
0.13876470600440294
-0.5642966011064088
-0.09459355770412921
0.4777074443478853
0.6969520832161424
0.3068107686949231
0.45261226383867065
-0.29470969375001216
-0.7008046094495982
-1.2342637472400098
-0.658345583301732
0.33811069490136864
1.0733477519920953
0.9900521586014169
0.7883573274921392
-0.19957456487312905
-0.18494384067586606
-1.6600745465440006
-0.5249261703053214
0.3704988597681505
0.652768807691983
0.022795618098752753
0.8387874689376754
-0.30060272782676817
-0.7653539206322708
-0.29709173184002197
0.18724470174336968
0.5864735672485204
0.20290120104398884
-0.26675895681735146
0.06801509418148244
0.09959756607978447
-0.06551646330058888
-0.09665798902671266
-0.43794927383114507
-0.7224588639971471
-0.20489865571306795
0.590390001848616
0.8190654083495225
1.285050172284657
0.6485731893421646
-0.5163657050774866
-1.4257126719066544
-1.3806225956280846
-0.6926121255511475
0.33304091260386653
1.3511653948030438
0.08856725398488313
0.8484463431305258
0.639479058016056
-0.4525685216759486
-1.2508219075582256
0.35438710770291654
-0.1458569168909699
-0.040323814738871415
0.02339321080361762
0.041985031833497465
-0.15491415461519928
-0.12574765655113346
-0.04220448285421497
0.6881826825860594
0.6100210400194654
0.0259313831330873
-0.3775315530343804
-0.6907330137197939
-0.5433215827659835
-0.08406314168919854
0.4129226470226039
0.3180644361941244
0.4044445080577131
0.009075223333348098
0.008302358515362296
-0.18925895889853128
-0.23573946512015992
-0.2300011917736987
-0.10314371775529912
0.19355154587735984
1.3002051299904926
-0.7354501567133274
-0.033763738977305245
-0.05365244820247347
-0.7674159313718173
-1.0512989812913547
1.501391122495108
0.7471579560340915
-0.04918627331118546
-0.2509361598765578
-0.8750433215115179
-0.6113780267876534
0.15624652172746
0.9257435142177177
0.658876374772842
0.5867959791872456
0.25279734346057925
-0.4068330171383899
-0.759467220725506
-0.5783742146061854
-0.9819795469431687
-0.6342622236395478
-0.21441808217229036
0.4566782736480545
1.665755373890487
2.4778165959064884
0.2727419975853142
-0.6272647488900485
-1.2480405258976464
-1.6130001084878398
-1.6085312880546003
0.2871495242242685
0.7921088742428237
0.9398011218400536
0.7675494746303437
0.6187887827368659
0.2920643014367784
-0.1508652371753999
-0.5266300517939513
-0.8460577218198605
-0.8354087002471777
-0.2905390962049631
0.12147698382764681
0.6165363848341585
0.8227572909834551
1.3118940052647272
-1.2435041343277249
-0.4768620580882537
0.09623858511060951
0.31779240245293766
-0.5707178273876784
0.7080773837031525
-0.10488943090505592
-0.3884189875338382
-0.4386393802066479
-0.48497515470633584
0.27375094271419165
0.4179122260101791
0.4533953772688577
0.773399149766858
0.05113163699173629
-0.13042289990015268
-0.218163588112675
-0.6156083818935514
-1.0198014889907296
0.010768003728166336
0.24598715416314118
0.1344040161645324
0.3296280113948606
0.4153145943581576
0.6506000005264296
0.3515964755494454
-0.0854735497747276
-0.5261423321253575
-0.6226044070983
-0.7459466934517758
-0.3477899440856406
0.23706031721795956
0.5503914570273327
0.5498967551080755
0.5518645888017646
0.398381841015941
-0.14034064732880042
-0.5319288663710243
-0.6319081417309413
-0.6399412929678985
-0.28183244833207427
0.17359319421955746
0.6680189696768092
0.6953684205530009
0.4548995780967877
0.034671214088496626
-0.16736467063130653
-0.39139815324993804
-0.45014683513275583
-0.2703773204251462
-0.2589013683419504
-0.10213471353657641
0.20167966944579502
0.28740830839424425
0.16075959151151037
0.34596755224311265
0.4578055594828034
0.20624999719638526
0.033940551395044156
-0.222638726575842
-1.065790166598714
-0.6852721248892208
-0.3429411635017139
0.1972983018481704
0.6010279602319145
1.0781807075702827
0.3101847833500396
0.21420909020107431
-0.2440227297359427
-0.19383520812496163
-0.17747517166194232
-0.26592267262020125
-0.9955439207854913
-0.5430791704690047
-0.14709874352676414
0.6292593569236232
1.2143173728769017
1.352931564392075
0.26971906215698055
-0.715324727998103
-1.3278166576728858
-1.065706381331012
-0.5467152515662538
0.5002962892498676
0.9996056339389232
1.06961505321629
0.3710120009900327
-0.11389490446871492
-0.6642444477767143
-0.7784235512140993
-0.5295589532525302
-0.1401530296322845
0.4141187866573212
0.5764042106342451
0.5727073607319683
0.38698402049749575
-0.0399856130984376
-0.5872313072343299
-0.7171245199856542
-0.4438574015886218
-0.12284383618367348
0.3329938012460201
0.8171754817772223
0.9906190539802433
-0.34249435868852457
-0.6344627148516544
-0.5733940290995971
-0.4561708250533448
-0.16928156385705212
1.2174405882189445
1.0510581218351365
0.3028757525211689
-0.8089924247748113
-1.388283218714929
-1.4411500292840271
-0.29134204147826553
1.1621936467061547
3.3623944211249586
-0.17780670208908905
-0.501384138376515
-0.975919253754695
-1.0245059165604304
-1.855559066122501
1.3765850054768098
1.169562680962104
0.6427362922648598
-0.094922383025346
-0.5572220400137966
-0.06755072057612449
0.27187061384909256
0.01522186114216134
-0.39875750572121943
-0.6347064112770399
-0.271694358957112
-0.040371767267330265
0.5186860097852763
0.5897656987322717
0.6301872633194829
0.3506260239671394
0.13708817841492785
-0.8898345223389306
-0.5960757889664666
-0.3604324895283325
-0.22881361678414894
-0.10857891374782733
0.5986612156891626
0.33894145436967443
0.14144622620534725
0.16552434117069809
0.07086921008471551
0.014426114213820207
-0.1293420886736253
-0.13278132947354
-0.17408309958455048
-0.20096723397632194
-0.10660833317578688
0.07851603034515502
0.17970991923061244
0.060760617650763744
0.002787967039096484
0.08524474670834198
0.17301604966065415
0.11114323712861779
-0.4736851683475193
-0.16799221851708482
0.03300989735049573
0.32638357310554256
-0.1006681174315037
0.32730956177526693
-0.024123983050133406
-0.19262928455940492
-0.4097435531417179
0.1069146192811074
0.15627085349783895
0.1506975469523903
0.10986355177722454
-0.1449272979884189
-0.19411242242709775
-0.02156798218368084
0.18384528073747913
0.026403359223253653
0.10243940871152361
0.0016365655037192833
-0.0889072082716077
-0.17927291307989596
-0.07258693865604647
0.035536918747315134
0.15347845704727792
0.08779823599625991
0.03821421927699198
-0.004051695748538238
-0.053849967416260594
-0.12693804556187732
-0.03456616392613595
0.01984798934303173
0.04085369992422786
0.03837842951487032
0.02393239775475995
0.0072441888218060056
-0.005631954559167592
-0.012517867770189234
-0.014052193977822756
-0.012107918875927192
-0.008403366730780232
-0.0037803405629487333
0.0017126071918614695
0.008113965697638963
0.014632091359799612
0.019020966732508048
0.0176787656607032
0.00665328569659476
-0.01664488697675531
-0.05164043009044412
-0.09359216904671616
0.06583529103132003
0.036286358288681715
0.02547947577833035
0.03639431080915641
0.06614154332483706
-0.09297693370500656
-0.050697690520743
-0.015553745752691384
0.007477184871880793
0.017661344493702713
0.01764237614911727
0.011736074268990275
0.004210264429244473
-0.0018834336058025278
-0.005133511453157593
-0.005564357822386511
-0.004081241372772524
-0.0018559147537950686
0.00013971035674744916
0.0013639130322525609
0.0017158927092122197
0.0014048580432956953
0.0007705652430462376
0.00012916144113192502
-0.00031689730996936903
-0.0005003219498660194
-0.00046038547113086333
-0.0002915686984226138
-9.38374870195057e-05
6.053617629282735e-05
0.0001393360211838553
0.00014573604583030737
0.00010431619475260004
4.554225073486867e-05
-5.887592919737597e-06
-3.661839750470531e-05
-4.463380755211567e-05
-3.572597720588546e-05
-1.883781785338497e-05
-2.1423571626530953e-06
9.19614758292088e-06
1.3511088931496434e-05
1.1876837214395568e-05
6.810184811556273e-06
1.0328677138387096e-06
-3.3596628186523723e-06
-5.24982672393686e-06
-4.483920467884588e-06
-1.6725609641439742e-06
2.0527796465416383e-06
5.276980803559265e-06
6.565797849959484e-06
4.8187116966129116e-06
-2.781913629524311e-07
-7.798054886167865e-06
-1.5338189137491765e-05
-1.9285580189563347e-05
-1.5795172006690297e-05
-2.457550848819973e-06
1.9739401749172312e-05
4.494473802885565e-05
6.249304362188803e-05
5.93372960217219e-05
2.5065197988677266e-05
-4.1464210420592884e-05
-0.00012619030093761834
-0.00019796013097609193
-0.0002139549685142502
-0.00013400400661959505
5.812390516565678e-05
0.00033292625616123767
0.0006033851883706427
0.0007349321862097733
0.0005850587342677925
7.053245473379738e-05
-0.000754551099595209
-0.001641799770996505
-0.0021531620235546436
-0.0017622550370202184
-6.35683950042942e-05
0.0029386860087391707
0.00653168217162492
0.00907400735201647
0.00791243339395798
-0.0006081697496066891
-0.02124778318243788
-0.06045164129528774
-0.12777615115852398
-0.038126765833407156
0.3862322875978321
0.11622635992157655
0.12180308473139742
-0.015982594859357678
-0.2894296596622527
-0.6518506445436
-0.21644657250636698
0.1285740799638584
0.4907432776528961
0.7401398110623324
0.2864975668985906
-0.12245411924610823
-0.5801646212194821
-0.5876159338722557
-0.42246327544067
0.27588980734811874
0.5014585874093045
0.46388160431578473
0.17017735776030113
-0.18350457106127752
-0.4074360782159424
-0.30655648314650813
-0.07046718175619701
0.12799017899859097
0.32465165433893084
0.15113997695728396
0.024010414511249613
-0.05915008033522031
-0.1159288519929457
-0.17059178523924673
-0.04539693169354075
0.04469383537512145
0.09275071668347803
0.09741407952320541
0.059892144703451486
-0.01732267876892043
-0.12938807506571232
-0.06686694914563708
-0.014394701284399599
0.04808849095946148
-0.05870876259558865
0.08091255438541634
0.07240417892422066
0.10827308184002854
-0.030566260730924163
0.030826142157419946
-0.1301801116825892
-0.12549918800748883
-0.15149386990546895
0.010051491371465429
0.18506761167181854
0.19708131611198182
0.058175443099778755
-0.035135788909437055
-0.09981678887571117
-0.15974028432719106
-0.0381276837116458
0.04782101482518227
0.08880540877629038
0.08263235391404714
0.032664426267217876
-0.05300198867619464
-0.16155699565444656
-0.07594171435590727
0.02278987023648489
0.1509573067712007
0.1171851493750957
0.11948729501433292
-0.053417205019865334
-0.21666900796524355
-0.18228650744076053
0.045698674762467244
0.07148428322974426
0.10334379506680325
0.1477595240433826
0.005183784995034446
-0.13053587468933264
-0.06928578818266252
-0.020373883110564504
0.010878567413601036
0.024308258438899548
0.023920961668783387
0.015722897966226404
0.005501441849845903
-0.002673124134118668
-0.0069641762395064154
-0.007460096186598604
-0.005411880787236633
-0.0024049329308706096
0.0002615479752726295
0.0018748738167867463
0.0023149947785493616
0.001873454620453797
0.0010106597810677176
0.00014985117259867586
-0.00044149553180363826
-0.000678022391230171
-0.0006163014395918981
-0.0003851074614070324
-0.00011876234107158737
8.678093387963868e-05
0.00018976592440694942
0.00019574941579107635
0.00013849306945360287
5.907779515643898e-05
-9.593900784359854e-06
-5.005382237554465e-05
-6.0046499609688765e-05
-4.764535586379861e-05
-2.4941758204255775e-05
-2.798966130805274e-06
1.2084280080954174e-05
1.773313379640499e-05
1.5777550627142513e-05
9.620129618251675e-06
2.7240818364079396e-06
-2.4889400622923037e-06
-5.011449415107828e-06
-5.044926218009402e-06
-3.4930049836151473e-06
-1.4218540800691007e-06
3.3194623286746057e-07
1.3379386591078325e-06
1.5568808457192834e-06
1.2093619792176939e-06
6.116843987451628e-07
4.218340987809389e-08
-3.315533590491132e-07
