0
-0.00024376749435961852
-0.00024376749435961852
-0.0002437674943596185
-0.00024376749435961852
-0.0002437674943596186
-0.00024376749435961868
-0.00024376749435961876
-0.00024376749435961882
-0.00024376749435961876
-0.00024376749435961858
-0.0002437674943596183
-0.00024376749435961798
-0.0002437674943596178
-0.00024376749435961787
-0.00024376749435961833
-0.00024376749435961917
-0.00024376749435962023
-0.0002437674943596211
-0.0002437674943596212
-0.00024376749435962007
-0.00024376749435961757
-0.0002437674943596141
-0.00024376749435961082
-0.00024376749435960947
-0.00024376749435961183
-0.00024376749435961887
-0.00024376749435962985
-0.00024376749435964167
-0.00024376749435964896
-0.0002437674943596455
-0.00024376749435962676
-0.00024376749435959312
-0.0002437674943595525
-0.00024376749435952086
-0.00024376749435951902
-0.00024376749435956518
-0.00024376749435966444
-0.0002437674943597987
-0.00024376749435992215
-0.00024376749435996763
-0.00024376749435986748
-0.00024376749435958656
-0.00024376749435915836
-0.00024376749435870841
-0.00024376749435844585
-0.00024376749435860883
-0.000243767494359364
-0.00024376749436068302
-0.000243767494362243
-0.0002437674943634151
-0.00024376749436339653
-0.00024376749436150533
-0.0002437674943575866
-0.0002437674943523947
-0.00024376749434774933
-0.000243767494346257
-0.00024376749435048336
-0.0002437674943616648
-0.0002437674943783279
-0.00024376749439544246
-0.00024376749440483618
-0.00024376749439739825
-0.00024376749436702457
-0.00024376749431537128
-0.00024376749425554267
-0.00024376749421227824
-0.00024376749421651384
-0.00024376749429373253
-0.0002437674944482412
-0.00024376749464875667
-0.0002437674948231649
-0.0002437674948703609
-0.00024376749469324767
-0.00024376749424891386
-0.00024376749360123225
-0.00024376749295136296
-0.00024376749261830375
-0.00024376749295007877
-0.00024376749416907354
-0.00024376749618951478
-0.00024376749848087608
-0.00024376750007118272
-0.00024376749976978834
-0.00024376749662722373
-0.00024376749054309953
-0.00024376748280841213
-0.00024376747627692029
-0.0002437674748658358
-0.00024376748224261025
-0.00024376749987257873
-0.00024376752501863877
-0.00024376754965092014
-0.0002437675613319666
-0.0002437675467878446
-0.00024376749796426538
-0.00024376741902553097
-0.00024376733139433804
-0.00024376727321158436
-0.0002437672902435923
-0.00024376741775365278
-0.00024376765702733918
-0.0002437679550172327
-0.0002437681989491173
-0.0002437682372319116
-0.00024376793163404152
-0.00024376723316078472
-0.0002437662579956095
-0.0002437653261173572
-0.0002437649218979116
-0.0002437655508136064
-0.00024376750258683043
-0.00024377058317520692
-0.00024377392960719607
-0.00024377604700318692
-0.00024377517850074544
-0.00024377001900591558
-0.00024376062058804968
-0.00024374915455871937
-0.00024374007148314486
-0.00024373923080892807
-0.00024375183098106895
-0.00024377946388587097
-0.00024381723698152011
-0.00024385242066997845
-0.0002438661728076356
-0.0002438392765507333
-0.00024376139328327097
-0.00024364131087646637
-0.0002435137144695371
-0.00024343712456958693
-0.000243478891851291
-0.00024368713080358931
-0.00024405584274258478
-0.00024449646311103425
-0.0002448335839357691
-0.0002448409915060354
-0.0002443236594432067
-0.0002432319633965635
-0.00024177053268440753
-0.00024044498189848475
-0.00023998743587919804
-0.00024112719864406184
-0.0002442297016052246
-0.0002489052092739822
-0.000253762565805196
-0.00025651352681159705
-0.00025457975032503095
-0.00024619506943987144
-0.0002317473030754408
-0.00021483737096812262
-0.00020236967596997746
-0.00020306692910887334
-0.00022422683716699047
-0.0002672985408672204
-0.00032377376670228767
-0.00037360028583482264
-0.00038836359747939644
-0.0003404364987205317
-0.00021705146055665638
-3.521811358315555e-05
0.000149375125397525
0.00024735382568597864
0.00016014882882200388
-0.00017676603903375615
-0.0007423163898874151
-0.0013905269415277403
-0.0018499552847341676
-0.0017846093833507608
-0.0009219912796009184
0.0007759156060588028
0.002958126999089906
0.004832424520202301
0.0053006679776736116
0.003323977926542385
-0.0015287174069823395
-0.008513049352245589
-0.015392610898055645
-0.01867902725007369
-0.014642374088805659
-0.001059408552788983
0.02069895151665035
0.044011445525740205
0.05674842202744813
0.04320456586266968
-0.011638975306080272
-0.11641736712864073
-0.06815649620189185
-0.049817661057145586
-0.03226154251427952
0.019270043520768953
0.13586413969786562
0.13586413968924524
0.019270043497465996
-0.03226154254477919
-0.049817661083275296
-0.06815649621015843
-0.11641736710758983
-0.011638975251800996
0.04320456594099667
0.056748422104639346
0.04401144556346797
0.02069895147425029
-0.0010594087000636268
-0.01464237432863123
-0.018679027517713085
-0.015392611077793852
-0.00851304930470307
-0.0015287170239334466
0.003323978650850735
0.00530066888425472
0.004832425268059335
0.002958127127589367
0.0007759146924576324
-0.0009219933898607425
-0.0017846123448290617
-0.0018499581320208847
-0.0013905282051577842
-0.0007423145279391863
-0.00017676015494955103
0.00016015816981366178
0.00024736402666171724
0.0001493816582909008
-3.522059736547187e-05
-0.00021706697051203066
-0.00034046495204573696
-0.00038839848458059134
-0.00037362814806702867
-0.00032377679559265405
-0.00026726082968333046
-0.00022414332387657394
-0.00020295218564241434
-0.00020226212306473877
-0.00021479418630618324
-0.00023182713017862506
-0.00024642996787861026
-0.0002549439660214677
-0.0002569026272927106
-0.0002539992390772506
-0.00024878434491880765
-0.000243603337921351
-0.00024001061180113867
-0.00023864635986959654
-0.0002394100234072202
-0.00024172941862150624
-0.00024478181375238586
-0.00024762412426270386
-0.00024928165080609376
-0.00024888780043062395
-0.0002459419343984786
-0.0002406660038861902
-0.0002343259667548436
-0.0002292937668694428
-0.00022861867268351809
-0.00023499701497817102
-0.0002492811145739518
-0.00026899499937066494
-0.00028760389854726745
-0.0002953501867171608
-0.00028216576125407884
-0.00024243810084709393
-0.00018035878414159308
-0.00011355430165061164
-7.220854119003789e-05
-9.148808800996504e-05
-0.00019711154845018076
-0.00038718925763384543
-0.0006171072259838935
-0.0007966489235057406
-0.0008078317337436483
-0.0005466102189701758
1.8387470544613255e-05
0.0007893506430183253
0.0015144013925704745
0.0018251788882452532
0.0013545651641998417
-7.79361359372123e-05
-0.002268538531983801
-0.004517790335729578
-0.0057286806593930045
-0.004824104607364292
-0.0015314165439554754
0.002522052825774466
0.0025759905888330954
-0.01036728176261511
-0.05019860246808538
0.06447481483230258
0.11185462480995689
0.07040380386178278
-0.0756034936026453
-0.12938229747600996
-0.07606814072966611
-0.08106961205180033
-0.09416250559204076
0.14102049707118647
0.2749007597009089
0.14167793004585938
-0.0450146520557849
-0.0889602225828825
-0.20282849567934758
-0.1990692596545126
-0.0851874979807762
0.1341090079671873
0.2492720207770228
0.2374873370651498
0.05903765464909167
-0.13824785694484518
-0.2074422074102191
-0.18871666212448263
-0.0994132399688529
0.06776053043181739
0.1380283982151315
0.14271756984129408
0.10760458877248878
0.04613827283409681
-0.04028517734491157
-0.15599185976927105
-0.10212610844018204
-0.06952071367443559
-0.03668707688174288
0.026058344460755292
0.14792829340397498
0.14793997343864154
0.02807543747481611
-0.027913304685411713
-0.04965376487484998
-0.07126518372390801
-0.12180568658353953
-0.018335139747274253
0.0364138297645026
0.05164089502467948
0.04293181640446817
0.025954504980166288
0.011558928823284558
0.0035251216956492253
-0.000854229351774601
-0.008006606819636403
-0.0242824575429095
-0.05247625282733649
-0.08990680662455439
0.07117495487444157
0.04094166980262955
0.02817900074642554
0.03694071456933658
0.06508002088473684
-0.09480062749303234
-0.05251098480126974
-0.01687111596852477
0.0068083055038303175
0.017535293405467545
0.017823048767112513
0.011978449241611372
0.004340077145206465
-0.0019413412243765127
-0.005368155602928691
-0.005913676227915069
-0.004470206042488546
-0.0022246898485791147
-0.00017731029757782696
0.0011024811688413834
0.0014951426715358656
0.0012026732840526898
0.0005671639436058977
-8.759310276369077e-05
-0.0005505212479380023
-0.0007477822408849147
-0.0007154525532949566
-0.0005479335428867348
-0.0003471066956436692
-0.00018782225038243742
-0.00010448809866271818
-9.519360192488072e-05
-0.0001356434711927124
-0.0001949543118790771
-0.00024770411837376724
-0.00027985354866154745
-0.00028894321670636965
-0.00028060765501054655
-0.00026384570658308086
-0.0002469788594604552
-0.00023530515433377162
-0.00023055751320073386
-0.0002316726994198406
-0.00023614978254562498
-0.00024135800133464922
-0.0002454047839294397
-0.00024745479165344737
-0.0002476021182008205
-0.0002464996044626646
-0.00024495006005294874
-0.00024360084923722046
-0.0002427991153933083
-0.00024259379239480118
-0.00024282986657801506
-0.00024327161596039416
-0.00024370575537421547
-0.00024399970402124368
-0.00024411328793725652
-0.0002440773297907214
-0.00024395796325933555
-0.00024382304248317168
-0.00024372035155057113
-0.00024367007517076756
-0.00024366864079651234
-0.00024369855783007617
-0.0002437389832827971
-0.00024377345241263809
-0.0002437934048791009
-0.0002437979509775913
-0.00024379133171528736
-0.00024377971175154137
-0.00024376855036576045
-0.0002437611581134922
-0.00024375845392570722
-0.00024375955757676248
-0.0002437627258764722
-0.0002437662141201557
-0.00024376882115310377
-0.00024377006377250147
-0.00024377006189800132
-0.00024376927668494223
-0.00024376823805099791
-0.00024376735190990853
-0.0002437668196943428
-0.00024376665538992625
-0.00024376675905042738
-0.0002437670011625605
-0.0002437672833198814
-0.00024376755922147472
-0.0002437678186976978
-0.00024376805132655282
-0.00024376821272346127
-0.00024376821504474688
-0.00024376795414249476
-0.00024376737080861993
-0.00024376652588862193
-0.00024376565393589104
-0.0002437651543211084
-0.00024376548901070615
-0.00024376698610316573
-0.00024376959433442902
-0.00024377268333612392
-0.0002437750156665955
-0.00024377500402844774
-0.00024377129169683622
-0.00024376355677546748
-0.00024375327307613878
-0.00024374402704818672
-0.0002437409768167847
-0.00024374922215339965
-0.00024377125683246826
-0.00024380422654049014
-0.00024383823098658906
-0.0002438571131038366
-0.00024384278995958174
-0.00024378304666349497
-0.00024368096224291626
-0.0002435622694273903
-0.00024347582205660215
-0.0002434829392186635
-0.0002436344212537288
-0.0002439394089537366
-0.00024433669827750906
-0.0002446840724869861
-0.00024478136689592923
-0.00024443547894606964
-0.00024355963180564428
-0.00024227785435554402
-0.00024098621564559508
-0.00024031553530300752
-0.00024095676048200592
-0.00024335535422378182
-0.0002473492764493404
-0.0002518962266499441
-0.00025507637836111324
-0.0002545291617720811
-0.0002483607748919671
-0.00023634841040030336
-0.0002210199558503257
-0.0002080047917989632
-0.00020505973062540995
-0.00021948114200535633
-0.0002542419105330407
-0.0003040168585322113
-0.00035299064423954286
-0.0003765630550331109
-0.0003483734795110706
-0.00025227021275195393
-9.619608196462966e-05
7.774033377603746e-05
0.0001941850678979174
0.00016237688124740536
-8.806830053764982e-05
-0.0005606450825891465
-0.001151412937066297
-0.0016378597112373207
-0.0017197270684079697
-0.0011218270772720593
0.000255860765471101
0.002187379830285424
0.004043248850056391
0.004867017689005651
0.0036577753875955002
-0.00016095016184998446
-0.006208800342822903
-0.012778654236514956
-0.016907280702203632
-0.015111394913738467
-0.00482132355495318
0.013771656474106048
0.03609143154186248
0.0526488805777287
0.05041333418046471
0.016378225547507144
-0.05731877957472321
-0.16844855049249302
-0.10232899637421036
-0.034093145924653005
0.06406762299694954
0.21282213325158778
0.21692327703366596
0.06211291429885495
-0.08000055731090713
-0.24047891805005578
-0.2398279608932995
-0.07904674052557256
0.060869402257964784
0.21083218654587527
0.20087418116858716
0.048470929198613254
-0.04734240662864911
-0.10460101839890365
-0.1517024586689651
-0.0190404372347979
0.06775661526618842
0.091598842944382
0.04526749594306696
-0.06835437347289647
-0.03636333247951459
-0.036521507892776396
-0.03943276855901496
-0.012785946444573421
0.07268007445909233
0.03682074473424674
0.08523801713592079
0.007668670133811816
-0.019593495807094127
-0.027785931125184304
-0.04801234283797612
-0.10413321168700801
-0.008288610096560376
0.03982360141990708
0.05015154517197514
0.03742399487879941
0.01615997864403086
-0.0028804192572445997
-0.01413233895545181
-0.016763471468922535
-0.013060525610525675
-0.0065226013006868195
-0.0003151233781469938
0.003601061669885003
0.004665583272743592
0.003436733051997196
0.0010886107461015103
-0.0011005793177435359
-0.00214739752583463
-0.001610426885492785
0.00030865103727189744
0.0028018252187207208
0.004638596992317408
0.004512568695013572
0.0015353471466337323
-0.004213028289857932
-0.01126585511890058
-0.016744320579844315
-0.01696963360261315
-0.008805411148494648
0.008469333027007463
0.031321411706895716
0.051017522896883355
0.05446126692410791
0.02730730681645594
-0.04100898735990078
-0.1517901835102364
-0.09344487150129047
-0.04192871539526875
0.03385129208966554
0.16296316528409116
0.16296188304350978
0.03384576024829309
-0.041942358446585656
-0.09346952972647651
-0.15182398904241654
-0.04104261599682265
0.027290315577786658
0.054479941723323634
0.05108481662947188
0.03143367037661168
0.008598115755253908
-0.008713761092164178
-0.016982042227555016
-0.01691548116043397
-0.011603969087322582
-0.004648646347240563
0.0011602161599448299
0.00441796925767604
0.00503414943661251
0.0037773135800967246
0.0017201715611046844
-0.00020523746037804738
-0.0014446923294786397
-0.0018547763309041856
-0.0015977562575233558
-0.0009828204570177844
-0.00032278927941735533
0.00015638521301060228
0.000347834362022593
0.00025335313619949916
-4.707597988088289e-05
-0.00042806764744623776
-0.0007468264506495621
-0.0008690568586637883
-0.000699403803370233
-0.00021904549917959454
0.0004771653482729824
0.0011631289979030218
0.0015085368826547004
0.0011693893147775103
-6.062022763623901e-05
-0.0020743319310454387
-0.0043230774802739515
-0.005828739449488363
-0.005414172760958596
-0.0021692544886585483
0.003934350755778842
0.011486632203328368
0.017432610356262125
0.017494161766312397
0.007338249736360209
-0.015699300916478042
-0.050900751899525025
-0.09328940026481619
0.06569120252343061
0.035828455152558544
0.024889818072530077
0.03582922488884616
0.06569232929012517
-0.09328861606257316
-0.05090105610732211
-0.01570116499326941
0.007334954322610536
0.017490373974106528
0.01743003061810265
0.011487298746574177
0.00393983048096165
-0.0021588952187264056
-0.005401249460587389
-0.005818171886963176
-0.004321465729549078
-0.0020876765531607417
-9.102078101592148e-05
0.0011270268144791212
0.0014681587455336624
0.0011457949473665952
0.0005047972585163741
-0.0001339660700709249
-0.0005654644352192998
-0.00072390934202933
-0.0006554994586196521
-0.00046680875003315546
-0.0002722864899315085
-0.00015556587239745203
-0.00014988915125867532
-0.00023637995006824903
-0.000356078042886354
-0.0004315196934199962
-0.00039416003359432617
-0.0002133219841073922
7.991712089991271e-05
0.00038331477995458654
0.000538869466548882
0.0003796417759125125
-0.0001954242830862494
-0.0011372824392922168
-0.0021874512712660756
-0.0028861914308318027
-0.002683054378489564
-0.0011550047532999234
0.0017124435503456637
0.005282627250991804
0.008205448570327114
0.008670975738244756
0.0050378308819407445
-0.0032551361732888334
-0.014778491235251582
-0.025653796877392894
-0.03004036079915956
-0.021889231745576217
0.0021341599245762134
0.039258810653797487
0.07803058403766613
0.09808522650841577
0.07341556790739742
-0.02093264422133122
-0.20063513159275323
-0.2659774860750421
-0.20200765395327702
0.012657451397333232
0.1900179241246175
0.5163129419119821
0.5445014148912122
0.203754083397784
-0.3722882722386197
-0.8063918627392187
-0.6438674370275068
-0.34157030674686895
0.11019173404844228
0.7365436688141902
0.9147957243619791
0.32245052630262555
-0.08426590280755461
-0.2547011712840169
-0.5989262205259762
-0.3314583810458891
-0.02253691342868497
0.03007895638001267
0.005004407606570084
0.14103098330331343
0.10951177904461529
0.1850155576982179
0.2225836371547903
0.04698100646762254
-0.14474250362153857
-0.1704896667609178
-0.24663594465483155
-0.17518403356886594
0.06025819127648576
0.2887908198863547
0.14039734596836992
0.033948539270568116
-0.029794260591646447
-0.068124703835528
-0.11052768832551402
0.00998239816780237
0.06538282176016089
0.03924714796708768
-0.06919003082400835
-0.04371217993562493
-0.052919857102329604
-0.05555326530218295
-0.009100125137913445
0.11975582460708506
0.14552146319478543
0.0583461140168821
0.025062205849280515
-0.002636001659829
-0.07482037348960428
-0.22869874201267093
-0.0774019883629354
-0.005991689593702626
0.02386948878716252
0.06214878836591279
0.155533478830696
0.13423734443775392
0.004605632802540611
-0.05053469496710924
-0.06458421243695932
-0.07602338730896284
-0.11741269103124878
-0.007943270234275938
0.04873476607938165
0.061724845028448876
0.04709056090215422
0.02161958179798017
-0.001790785359172206
-0.016190751897163798
-0.020261537317319694
-0.016503325827840778
-0.008978968359334344
-0.0014414214499855718
0.003734055337410921
0.00578708644455314
0.005215456719593631
0.0031562970676671863
0.0007953187221650519
-0.0010217526217456722
-0.0019286630303230134
-0.001977114896565411
-0.0014673454080512565
-0.0007633280453500915
-0.00015591453278665277
0.0002009867957400474
0.0002881037147279581
0.00017736245083688584
-2.4033306754029884e-05
-0.00021998596135397954
-0.0003513897795237376
-0.0004009751599567102
-0.00038332850217474314
-0.00032864407345878566
-0.0002675763746303013
-0.0002215121995427729
-0.00019930533167939894
-0.00019911858803665946
-0.00021292307399567328
-0.0002312757720763166
-0.00024678346784572173
-0.0002556553296101
-0.0002575619712593338
-0.00025446690909100344
-0.0002491721939042771
-0.0002441366995495579
-0.00024083541941536022
-0.0002396608672241806
-0.0002401982339784123
-0.000241651234021693
-0.00024323050840651113
-0.0002443972229068216
-0.0002449390821684868
-0.00024491660403294624
-0.0002445440555036118
-0.00024406617366344225
-0.00024367066080358148
-0.00024345060106828912
-0.00024341018336499314
-0.0002434960410392967
-0.00024363502798744558
-0.00024376428864605367
-0.00024384707684365302
-0.00024387462629566723
-0.00024385861329890632
-0.00024382001688998508
-0.00024377917105975941
-0.0002437496689629874
-0.0002437365998335477
-0.00024373807251918832
-0.0002437483424252018
-0.0002437609829806154
-0.00024377110857778022
-0.00024377632176664606
-0.00024377657525033163
-0.00024377339873208126
-0.0002437689551818311
-0.00024376524964167193
-0.0002437636261505177
-0.00024376454222255057
-0.00024376754772669694
-0.00024377141035166302
-0.00024377438262034495
-0.00024377464189486022
-0.0002437709116612141
-0.00024376317671062167
-0.00024375326537241202
-0.00024374495676005053
-0.00024374326863164448
-0.00024375276632813142
-0.00024377512191288208
-0.00024380666564728816
-0.00024383712108947344
-0.00024385083591323654
-0.00024383135966447522
-0.00024376906617557185
-0.00024366984017301624
-0.0002435611694602639
-0.00024349113498249123
-0.0002435166719823453
-0.00024368065671097252
-0.00024398262188350854
-0.0002443538329920559
-0.0002446515389992664
-0.00024468636063651575
-0.00024428855386189456
-0.00024340305789943893
-0.00024218319453847936
-0.00024103605936111512
-0.00024056919570053083
-0.00024140753257946186
-0.0002438954998986864
-0.000247764477103392
-0.0002519093411239327
-0.00025444755947477834
-0.00025319570435143905
-0.00024657083691842355
-0.00023471915081812845
-0.00022044756680603063
-0.0002093847981253779
-0.00020884527149202017
-0.00022520288164706902
-0.0002602039033818691
-0.0003074203815563451
-0.0003506733751113675
-0.0003663464810035747
-0.00033070754384491454
-0.00023153720936703055
-8.083342475636784e-05
7.704454685170421e-05
0.00016845307559703636
0.00010975860161295241
-0.00015724599121673557
-0.0006218990178541375
-0.0011699514516034016
-0.0015797433816146813
-0.0015690868665412558
-0.0008991710138082787
0.0004826405408431049
0.002308955678323354
0.003938660589988879
0.004456464972866906
0.0029656828572499467
-0.0009577871558569872
-0.006780496073149546
-0.01271699153260182
-0.015883114593022992
-0.01308522704008925
-0.0022339168172229988
0.01593534898984888
0.03647358356972722
0.04998588454954784
0.04425804837251866
0.00790449481518969
-0.06471471363505245
-0.16905776770913444
-0.08872955711602892
0.0016714321384600837
0.1291927022684024
0.11296259647989856
0.15628815719275532
0.04407760743788767
-0.05277575485578705
-0.16736418696136054
-0.12494044232474433
-0.1340564971684011
0.015777206047413343
0.14914858228044298
0.09483440365949232
0.07516620417503989
0.09885400192711345
-0.04036736897406567
-0.15948744355712394
-0.07880085506497818
-0.014710238208429361
0.02453457623711313
0.039246655737884155
0.035740279922029335
0.022581823092483123
0.007335703457476614
-0.0052163383719946435
-0.013232642971017608
-0.016825190614854775
-0.01670267713949675
-0.01318002019311633
-0.006011015198364472
0.0049051995090249895
0.01830349199615712
0.030475675746173877
0.035075048850015424
0.024325274134901136
-0.008365759013097496
-0.06510820279126145
-0.14092022818059802
-0.023337765967971855
0.10491839779907712
0.06082361236325871
0.05548510526559884
0.09053858805749354
-0.0419908821555825
-0.1565373452921393
-0.06928245399625171
0.0057959276566180605
0.058573023389222816
0.08224365782894896
0.0721234148110035
0.02553227203875375
-0.05648845515950531
-0.16645100555396142
-0.08872567843848422
-0.0009290150303740597
0.12096868874743477
0.09533120734029576
0.1284130878321127
0.011806052338193668
-0.07488849607174876
-0.15723105888735447
-0.05788451106568559
0.009420549726409055
0.041925040258042764
0.04593715364589918
0.03259770755664346
0.013375506217114922
-0.0031636639191767704
-0.012693931579739142
-0.014778028824892639
-0.011504839658180128
-0.005878540778915636
-0.0005333227627495698
0.0029556868949932643
0.0041747023658760055
0.0035728109549106233
0.0020039872994335743
0.000311293581350671
-0.0009325389871547088
-0.0015047447145027596
-0.001473639602284907
-0.0010705093016354725
-0.000557680550361431
-0.00013533989442975766
9.806111627755807e-05
0.00013914085432279775
4.5727081515200234e-05
-0.0001036541121190593
-0.0002418655897690805
-0.0003299109075431987
-0.00035875902719926844
-0.0003411550687354081
-0.0002996483998667892
-0.00025596039087115446
-0.00022451520398537002
-0.0002106219440226792
-0.00021216674839200742
-0.00022299811089565078
-0.0002363279483112357
-0.00024708208827948087
-0.0002528530730892347
-0.00025367148581660924
-0.0002511010158091195
-0.00024718780927216773
-0.0002436452397022033
-0.00024144184737168536
-0.0002407728712718992
-0.00024128337288543893
-0.0002423809768644926
-0.00024350779520057752
-0.00024430173107303977
-0.000244637487827183
-0.0002445786719480481
-0.00024428857462720265
-0.0002439426276912382
-0.00024366922044176663
-0.0002435269235224264
-0.00024351186129697807
-0.00024358187142426604
-0.00024368375745038314
-0.00024377399444317516
-0.00024382881569822023
-0.00024384440311135653
-0.00024383072092517638
-0.0002438032267690237
-0.00024377583145915584
-0.00024375689622965614
-0.0002437484972071085
-0.00024374810727476265
-0.00024375138150197788
-0.000243754786980098
-0.00024375718928492106
-0.00024376000012811622
-0.00024376597319631507
-0.0002437771434654096
-0.000243792705664054
-0.00024380777399868211
-0.00024381388047919954
-0.00024380166791464498
-0.00024376548604574977
-0.00024370861027168082
-0.00024364686452353946
-0.0002436080021075964
-0.00024362477901775366
-0.00024372155173102848
-0.0002438972928205529
-0.00024411132726999147
-0.0002442803839772283
-0.0002442949570702624
-0.0002440580962865652
-0.00024354051104199956
-0.0002428342942297079
-0.00024217799069756844
-0.00024192403083259258
-0.00024243113346906751
-0.0002438911598679126
-0.0002461377046366595
-0.0002485201531345431
-0.00024994326918963583
-0.00024914888008571696
-0.000245241357948011
-0.00023833943635053468
-0.0002301064634033437
-0.00022382721383096724
-0.000223730214951478
-0.0002334516302894603
-0.0002538994614523317
-0.0002812225563962354
-0.000305946170171738
-0.0003143771999536488
-0.0002929039726982979
-0.0002347516876220177
-0.00014728969692936317
-5.6609852451745124e-05
-5.5357968542815955e-06
-4.2231543400070596e-05
-0.0001995669415540045
-0.00047004411053990197
-0.0007860644410061913
-0.0010183588082929478
-0.0010038920260098758
-0.0006065861421072067
0.00020003686922169308
0.001256341200580156
0.002187531741296496
0.0024640630596674973
0.0015738254769904025
-0.0007136675455623949
-0.004067750117170961
-0.007430782787067709
-0.009114920619862878
-0.007269641491106427
-0.0007131053630650704
0.010053512984743072
0.022007766743788133
0.029396122132598384
0.024514820745303957
-0.000490941601033993
-0.05132301014828041
-0.1297864651140851
-0.0338677935303511
0.03964099253097938
0.09054309020805319
0.11067884493381022
0.08207993964997184
-0.020201380841672268
-0.020475788847439762
-0.13205293135357166
-0.14765018050738887
-0.03422440694305714
0.06548507436863096
0.02475019995104864
0.12027899327123559
0.018701713353320725
-0.03474808136004815
-0.02348462822005341
0.03772786127870994
-0.095753193225966
0.10664878043927001
0.1591004603174204
-0.029293897742206827
-0.14103772930489794
-0.03678220212455335
-0.14504880798881872
-0.058202124801004985
0.06384491268306547
0.08307238368971716
0.06892159330712663
0.08393745506124867
-0.027064756469956503
-0.042420443296808386
0.036479986124056195
-0.010353423932638387
-0.014358101180768568
-0.01025701747187974
-0.02846568655720669
-0.08947937781887871
-0.0012846284509011358
0.03985280079723796
0.045819854112190576
0.03174475189626026
0.011446258027872951
-0.005496729663628506
-0.014635506550062526
-0.01585481379465225
-0.011662615846874759
-0.0053712688446708534
0.0002619204314921078
0.0037015709417567958
0.004666466960977239
0.003755749645456227
0.001937171165378586
0.00010853760438120751
-0.001157567643650201
-0.001673525685501939
-0.001554174345837803
-0.0010701178398223247
-0.0005062382088004513
-6.766355039708669e-05
0.00015488753194562357
0.00017137061546097096
5.233691118772425e-05
-0.00011531963293860754
-0.00026145875324131785
-0.0003484113207996927
-0.00037079941144148917
-0.00034535352598763286
-0.00029757577783822244
-0.0002505660830136277
-0.00021870119117817983
-0.0002063553036463117
-0.00021020962441046004
-0.00022311258198084226
-0.00023771750095261693
-0.0002488451370066385
-0.0002543026843960366
-0.00025447074616927103
-0.00025123953978975933
-0.00024686505688724603
-0.00024313125335747972
-0.00024096712716705743
-0.00024047102614507872
-0.00024118504622170007
-0.00024244210727715802
-0.0002436507878895302
-0.00024445195902917185
-0.0002447454576171194
-0.0002446262117721671
-0.0002442829903950042
-0.0002439050761646007
-0.00024362305370712555
-0.00024348964750483648
-0.00024349187605422063
-0.00024357923105924393
-0.00024369320930879392
-0.00024378849167576823
-0.0002438422327909508
-0.0002438529311303992
-0.00024383305855353002
-0.00024380003947293267
-0.00024376899865104405
-0.00024374888944676357
-0.00024374196828152127
-0.00024374555027229712
-0.00024375466086851329
-0.00024376442771323648
-0.0002437715624604667
-0.0002437748048432058
-0.00024377457166854208
-0.0002437722120194319
-0.00024376924513987036
-0.0002437668244565643
-0.00024376551128714027
-0.0002437653148297241
-0.00024376588852156308
-0.00024376676521215685
-0.00024376754530953533
-0.00024376799840460236
-0.00024376807967199874
-0.0002437678867545259
-0.00024376758952133473
-0.0002437673592409965
-0.00024376731295739336
-0.00024376747964923896
-0.0002437677902024757
-0.00024376809267336006
-0.00024376819443550286
-0.0002437679296316802
-0.00024376724163595198
-0.00024376625723971192
-0.0002437653173844415
-0.00024376492677908963
-0.0002437655998084891
-0.00024376761631369277
-0.00024377075264660848
-0.00024377410406903674
-0.00024377613791121068
-0.00024377508508204298
-0.00024376967389334853
-0.00024376004402212425
-0.00024374849545043828
-0.00024373960793980153
-0.0002437393069282043
-0.00024375272456042242
-0.00024378121041505004
-0.00024381947133201356
-0.00024385432466415447
-0.0002438666157895654
-0.0002438371915467602
-0.0002437563400147377
-0.0002436340565825465
-0.00024350655665761637
-0.0002434336468905485
-0.00024348294442760142
-0.00024370108740820698
-0.00024407857400111184
-0.00024452185973990984
-0.00024485067703746517
-0.00024483653760351597
-0.0002442873468995203
-0.00024316319592630883
-0.0002416843623093797
-0.00024037377379139123
-0.00023997496728978796
-0.00024121370857688247
-0.00024443000658222144
-0.00024918664547978506
-0.000254033527359786
-0.00025663439904074055
-0.000254403848660433
-0.0002456368246996157
-0.00023085990480254862
-0.00021386709450628422
-0.00020174658640897375
-0.0002032996145306473
-0.00022569734422454
-0.00027000064657100936
-0.00032709068148998027
-0.00037625422709604826
-0.0003886618435734327
-0.0003368647499912812
-0.0002091236758260325
-2.431287332295537e-05
0.0001596117247650562
0.000251488898882277
0.00015260302026899578
-0.0001990539616125726
-0.0007769193067010249
-0.0014275399001058787
-0.001872536476608492
-0.001773253730096851
-0.0008625970475176681
0.00088196094902766
0.003085640151263388
0.0049310253187456795
0.005304982653857979
0.003177153769151354
-0.0018420481083016652
-0.008935116721119074
-0.015778526486492625
-0.01881762210719431
-0.014321796957043963
-0.00017113703089646586
0.022046648347896058
0.04542102216782146
0.05756105450412719
0.04267315760971862
-0.014032869507331017
-0.12057533696527306
-0.07305369562816896
-0.05346997101489908
-0.032146117068797615
0.025285270883509302
0.14824523066039033
0.1522189387721304
0.03387609117536839
-0.027556618278389525
-0.06296897247102115
-0.10286121469407314
-0.1677973347301307
-0.0636696721399595
0.01617761306292049
0.08264909244342936
0.13980181823805035
0.1759076208864187
0.1613614063839376
0.05593320219975829
-0.17572757430929334
-0.3453322795457057
-0.22654587615379895
-0.1522507029383677
-0.027076674700902918
0.24714922720510596
0.5411219681698543
0.27405168848017614
0.005602170821437584
-0.1524295785739005
-0.3087917596536761
-0.36003955019762157
-0.16418025642588321
0.07081000951216454
0.18147152794597451
0.2306700617103447
0.08483768760491148
-0.005298422402476026
-0.015446787927357477
0.05123331143309489
-0.028980297840348366
-0.08896890171164307
-0.1587711326497631
-0.05666560397207641
0.014141699882624623
0.06278997914118034
0.10387413356456052
0.14975403487983407
0.005383496889393625
-0.13253869737103177
-0.07253409720371301
-0.023624023670777834
0.008553966033567232
0.023320465388140244
0.024220285410412327
0.016953553780096935
0.007146536385907089
-0.001196869140353335
-0.006240711744239306
-0.00798608739034249
-0.007447636210941332
-0.005774996625394485
-0.003658995383628258
-0.0011866099108507862
0.0018796828809281066
0.005577982163167686
0.009252154556113359
0.011373248088057264
0.009884268288351863
0.0031004729427141888
-0.00905002888117379
-0.023920304544551484
-0.035820832339115774
-0.03709207827380963
-0.020854555510708295
0.01492076248552119
0.06318400898182601
0.10525540750636331
0.1119261507932936
0.04943779088694183
-0.11013735504507607
-0.1768005811191337
-0.13321558591712243
-0.13249835257650594
-0.10578238548130546
0.22133122537150401
0.3080615318775663
0.18052274166157367
0.02332906143873512
-0.015901549381315234
-0.21078073150417242
-0.23499337341403426
-0.14327441463585475
0.039386194496287434
0.11793163108232725
0.11868015508674892
0.0766888747415381
0.024070187040592435
-0.017371537268817693
-0.03823624150806239
-0.039406561771746784
-0.02774641274208602
-0.011649294876260406
0.002187020803133675
0.01024075496704836
0.012099335052082584
0.00944332905841792
0.00475025502561032
0.00022662941139249502
-0.0027822669302238912
-0.003896396955730495
-0.003465124427565447
-0.0021901822879454064
-0.000777228976617886
0.00028549399738719426
0.0007987940703974262
0.0008070479843922504
0.0004930946236766146
6.883969916102116e-05
-0.00030182256211690357
-0.0005347443769582862
-0.0006183304107677905
-0.0005845999595111616
-0.00047740233493135395
-0.0003316642245359948
-0.00016920499234487554
-8.227780039626805e-06
0.00012248014945374808
0.00017583383608321687
9.420935540361872e-05
-0.00016467927133896395
-0.0005902355770215726
-0.0010854755575643003
-0.001459001815085496
-0.0014620914014498811
-0.000878335339698916
0.00034904717339323185
0.0019944196049967557
0.003495637607293302
0.004035773867286912
0.0027993764120218196
-0.0006219155166656422
-0.00578823233339898
-0.01113316046857396
-0.014083684020885962
-0.01175894125764797
-0.002257227956120329
0.013726938922462345
0.031498550563690796
0.041881961125036435
0.03227996299652894
-0.010563525339741751
-0.09666975576256205
-0.029096270320972086
-0.0019325240190262234
-0.0011230722171668085
-0.00826157495930738
-0.006555282171902964
0.012436052261776399
0.04295950299202691
0.06187074242158728
0.029637494351316858
0.09650822304069051
0.013741816501633287
-0.05163540998547669
-0.10159114665453856
-0.09552846043085376
-0.14671140216897371
-0.1298053811096156
-0.10025905058594818
0.07699136005043197
0.29548838029502983
0.3805534091581738
0.27699265344165275
0.05724867306066623
-0.2502161956392385
-0.41986806850988495
-0.3881629859041054
-0.22594771281900008
0.06745265477637968
0.3483509780108307
0.2989303208972251
0.19586119950187025
0.08868013024576041
-0.005824766026818136
