0
1.1819732957909753e-07
1.20490814068817e-07
6.474072711146407e-08
-5.5268546812254454e-08
-2.1769224509950605e-07
-3.671036162657895e-07
-4.223172194584081e-07
-3.0144746732687723e-07
3.8143030970158605e-08
5.56050106257604e-07
1.1005400545121099e-06
1.4187076952646933e-06
1.2223896538291622e-06
3.0971164487241473e-07
-1.285339289355429e-06
-3.1727629937060984e-06
-4.5921044264455895e-06
-4.572196431927327e-06
-2.2874649713335796e-06
2.4507060588165883e-06
8.731311329936622e-06
1.435443018942592e-05
1.6167262120298997e-05
1.1064804510080224e-05
-2.452200859086823e-06
-2.2606381717209263e-05
-4.3317800404841166e-05
-5.470292154048164e-05
-4.573768665103247e-05
-9.028405972969982e-06
5.3437260144463896e-05
0.00012582452390447972
0.00017821765538766866
0.00017318968402547808
7.988689209601543e-05
-0.00010695114562572414
-0.0003495444506937124
-0.0005607090723587838
-0.0006181448815071244
-0.00040431692999777616
0.00013287487425150046
0.0009164821556386857
0.001703610991384752
0.0021089616383522113
0.0017123234603826992
0.00024582075456515634
-0.002185068146065452
-0.0049361382890897
-0.006828921806923169
-0.0064224153268188635
-0.0025756770469240312
0.004802214013583309
0.014066325816301907
0.0215728767693268
0.022187259796894634
0.010720897981042305
-0.015920715589531773
-0.056564022249437254
-0.10459905934230447
0.051219509795411504
0.02370525969421916
0.02267374360971919
0.05052154320575589
0.09978217935251806
-0.04607689430519661
-0.008432936167484159
-0.006920971097997683
-0.05250467901148459
-0.14257059248241777
-0.06003738865672962
0.02261962736597459
0.13525754266475823
0.10053231290695194
0.12656762174347425
0.004803960770261533
-0.08610439445975186
-0.17208351336025793
-0.07470311896887942
-0.0052238748783062
0.03627256149582237
0.057007055783363556
0.06518755468732446
0.06428740127924411
0.05041913128580164
0.01394227758709533
-0.05526099808622465
-0.16097914717746697
-0.09537655214421471
-0.03797771747578745
0.03992345007968089
0.16669593788238626
0.1609731669626701
0.025337629211007726
-0.054319878240980154
-0.10379639521222662
-0.15247221087251128
-0.02571073306395537
0.05946812884370689
0.09476290842869842
0.07839548245380208
0.012600902124349828
-0.09757319662178081
-0.044003594475339525
-0.014816880672820268
0.0054502096614576
0.03434349379859538
0.08909188534234257
-0.015721278719201995
-0.06967357123059219
-0.06717958490015465
-0.007894879507989718
0.10269252297680236
0.05278010792786038
0.024848245720818698
-0.001832625811488037
-0.0469337656955873
-0.12436245816698462
-0.039062327147489175
0.013091620305392562
0.041966496986759194
0.057637243893532586
0.06493261008611206
0.060422350244907976
0.03332487457553234
-0.02966113348911896
-0.1372070670047254
-0.08669511743558207
-0.0610789072709532
-0.03122870672163141
0.03633159572834519
0.1686359845683713
0.1763146787455393
0.04845527104694059
-0.045329408545353736
-0.1461137161763434
-0.09345557860330947
-0.11441655484870303
-0.017716152832164773
0.005355261382457071
0.1743879393471563
0.11090144593370747
0.030891440356903666
-0.05826127008081855
0.04415150648401546
-0.0624010218648717
-0.1736198952580417
-0.07670487079206001
0.04877780865053899
0.025162905159727876
0.06793833153796025
0.17737016195315083
0.13405431261308676
-0.0993727855972318
-0.17055011744622867
-0.12646337599392937
-0.0032567420691990826
-0.019894273040111966
0.2236264134733178
0.14513359073471427
-0.021358183230789946
-0.22655268128485478
-0.007164897957070133
-0.290475255080202
-0.004709520272258507
0.10463708408817804
0.25585504453835217
0.015558011447269678
0.293450184293009
0.15209523652436135
0.03252743958354354
-0.20826961283457093
-0.25657697034850524
-0.3093010941896576
-0.46063850443544513
-0.11510637821429202
0.17322484553547504
0.4439860455403102
0.6718665572283119
0.3237940609444325
-0.054847219029926675
-0.22163181517819303
-0.39396807147543456
-0.5968327826812999
-0.017833029963269145
0.21920399752193384
0.2596294272996912
0.10768157045472947
0.00919569015903675
0.034523954621780026
-0.13500224416871542
-0.21717143442034825
0.06283317147179987
0.1649567617659795
0.12844218194681084
0.1700190677010327
-0.11186428841405423
-0.12708767967508097
-0.081413315762656
-0.16643608754423583
-0.15629452597975096
0.18691396456464018
0.10036948292075193
0.0046560530744033535
0.09029158376934644
0.11149438354336472
0.190084467596345
0.029996471137195807
-0.059911170242938586
-0.34012780539023096
-0.21961463540024473
-0.24776541011532177
-0.12426710995089581
0.07364729413236
0.4535190257325035
0.4715418302454248
0.3113000873055326
0.08689944397788345
-0.1281611191075482
-0.45466811826550235
-0.559475548123902
-0.42288195390337374
-0.13464640661919045
0.27795006874832834
0.3980242881978155
0.35981558846871653
0.6018151342029088
0.2478533809207149
-0.27754559384792143
-0.40463497740382004
-0.35952571421404467
-0.5099256163819247
-0.13180862198206164
0.19504025692927288
0.365010921262919
0.30901685310732263
0.1554660237486145
0.0017469516545331617
-0.09807815062367738
-0.13036555746580583
-0.10923650406424552
-0.06095357989344731
-0.010806385774619327
0.02461075948928991
0.039455421459930556
0.03654079442227374
0.02329146473502946
0.007728323406686987
-0.00428517141407621
-0.010146089279269905
-0.010219780818419842
-0.006730097394214995
-0.002435494438303954
0.0004659009314144538
0.0009776648388387544
-0.0005490726539025587
-0.002698868776026974
-0.003591914497463098
-0.0016666290025971866
0.0035212518037763966
0.0106989300168285
0.016729505859256494
0.01713983223491414
0.007391101080376095
-0.015329268819536227
-0.050369373625310875
-0.09274557591224067
0.06614938007803033
0.036165609137856713
0.02512126330478816
0.035997558529617224
0.06584412938010466
-0.09311874811221395
-0.05069682840505397
-0.015462875005619476
0.007596671928043289
0.01776167920683302
0.017699305708543247
0.01174778794151453
0.0041897160612487366
-0.0019179874818495714
-0.005166152091841726
-0.005585609716467529
-0.0040886607023548575
-0.0018522689159078116
0.00014921982537885112
0.001374166843847962
0.0017234204829066667
0.00140831529227806
0.0007703718699764465
0.00012672217401254408
-0.0003199939774017845
-0.0005028683764697452
-0.0004617931973984862
-0.00029182510298657305
-9.329683768626875e-05
6.140174952544325e-05
0.00014013277963363424
0.00014624859708127456
0.00010451253541274693
4.551401440369346e-05
-6.009422630810638e-06
-3.6736536975805694e-05
-4.472340768479893e-05
-3.5831081904831e-05
-1.9031459818468916e-05
-2.4671249215982112e-06
8.78314152123565e-06
1.3162833616202302e-05
1.1829486458391057e-05
7.296980150806172e-06
2.1535429227738847e-06
-1.772594817173848e-06
-3.704143175479498e-06
-3.7711575076571935e-06
-2.6372868966473886e-06
-1.096944756710527e-06
2.2032038965169144e-07
9.854770445916183e-07
1.16219584092222e-06
9.107532740326361e-07
4.660753572049429e-07
3.7424993261511205e-08
-2.470364772694045e-07
-3.5018126655996037e-07
-3.0416112958796814e-07
-1.75539835528052e-07
-3.2994492197838047e-08
7.353952221429981e-08
1.2049862625111773e-07
1.0825684871809598e-07
5.368824001608414e-08
-1.793245633123795e-08
-7.949342036639535e-08
-1.0707550488065589e-07
-8.46395137731759e-08
-9.274340324537516e-09
1.0363337602458607e-07
2.179184328102475e-07
2.806769419860242e-07
2.359950449286975e-07
4.837620135642595e-08
-2.693971141046168e-07
-6.349919076194281e-07
-8.963892217891219e-07
-8.656172457600745e-07
-3.8976197537104e-07
5.538592906367367e-07
1.7711554712314967e-06
2.8210521445835337e-06
3.089309695976202e-06
1.9904890145191855e-06
-7.2700049976677e-07
-4.663232231830891e-06
-8.585702970608897e-06
-1.0553432782887676e-05
-8.462225052162713e-06
-9.868561823510436e-07
1.1313727174450405e-05
2.5178247709648222e-05
3.46817901886409e-05
3.260963339758275e-05
1.3264137016128639e-05
-2.3846807928440965e-05
-7.074581603749553e-05
-0.00011000146760472825
-0.00011783145726506172
-7.21367954222843e-05
3.563015152543846e-05
0.00018838720964345105
0.00033696377032207427
0.00040570669468703525
0.0003143905755153232
1.5098229670286075e-05
-0.0004654140573580932
-0.000995559164965146
-0.0013429121521431598
-0.0012301960292052363
-0.00044582448035982884
0.0010138519133110631
0.002822367998293281
0.004293006795783691
0.0045091310250844775
0.002644058207096866
-0.0015770817838423254
-0.007419039407144585
-0.012910996349876906
-0.015104022014900178
-0.01097357081012083
0.0010852418261801636
0.019527763737180494
0.03835010443391581
0.04698793199696708
0.032025368915679676
-0.01926664417893617
-0.11440837978548839
-0.051830266693875075
-0.019429657597433946
0.0033735037208807
0.04040685327883975
0.11201165832971739
0.029138471943295163
-0.009690141837087465
-0.017622628996733253
-0.015390707350893032
-0.025381293895288877
-0.06569763681274034
0.05421767755748599
-0.06456834533515524
-0.01139531674043773
0.030747142880982396
0.08062635804858534
-0.04586072378887174
0.06093803961048133
0.0031240767242223266
-0.023884656681788206
-0.0288658154712765
-0.021664437593433627
-0.01049072964761741
-0.00041404229007866193
0.006715001222375587
0.011210212957061526
0.013991706517327313
0.015234329275725413
0.013795656854896714
0.007701917716642601
-0.004412149753109829
-0.021404644349967562
-0.038063006573238876
-0.04475233387899834
-0.02890287258381785
0.021656861978681368
0.11437687874090414
0.04826585524180711
0.012486928264043651
-0.011784184585113577
-0.046649253689319124
-0.11157840079711188
-0.018457061590634198
0.030714162257496055
0.04295653458087978
0.0310692479509614
0.009500651316244753
-0.009287169942434314
-0.017226410014519827
-0.011748943142587795
0.00414539218696664
0.02260599460935817
0.03236852740291782
0.020944879976708023
-0.022575034138038727
-0.10467960240647382
-0.02551923453765617
0.021168533982129388
0.04608381785943533
0.06114028546742647
0.0764194377767874
-0.10148868701818736
-0.06948437438404739
-0.02701636413281209
0.02478450564520041
0.08351204660549848
0.14602630270899752
0.010102907329466776
-0.122615059509271
-0.2437898172132104
-0.13839914987872265
0.010124680487404157
0.20987939936030406
0.24932288833059243
0.2908847531683848
0.07451270409197529
-0.26763644848392604
-0.38961522738023674
-0.31161570789623005
-0.010034478960882718
0.17801015073851598
0.33804558185155853
0.35714504102488925
0.10709299455822265
-0.3630805427604667
-0.42632134171604735
-0.27470454420841006
-0.12116762805530383
0.39233497778783955
0.7857218667911989
0.9412325460373451
-0.6775718907294195
-0.5883982519859431
-0.6468840338268904
-0.6171976504665648
-0.5731759912316309
1.0662115615793342
1.0794192652330015
1.3867518305186195
-1.1796941387765534
-0.6704284654233499
-0.38610550255445697
-0.2386803001882532
-0.5244835633243704
1.4843446954572899
0.5361783167367259
-0.0038527348527470765
-0.7492557715934934
-0.8815833429066973
-0.3455616333338924
0.1386511120148215
0.645050560986352
1.00552122899314
0.5874255440107777
-0.09879439804623015
-0.3591418391081854
-0.8563965541255999
-1.156442081414765
-0.5064726067111713
0.34016561891568176
0.8566858656138571
0.8559835959063488
0.8165270253707227
0.24907647587317747
-0.28351232514938196
-0.9012379642161064
-0.7205644421258816
-0.37644924637660415
0.023538488409602196
0.3036226251983994
0.3887198228191479
0.25384091471950065
0.0721261303410221
-0.02467580622242714
0.033418333084331196
0.05370221462676568
-0.0044383827203646874
-0.004790740015133561
-0.20637792058188403
-0.23950419580618973
-0.29237848313782416
0.08749294103598998
0.1773131771773302
0.2536242762005131
0.16621667444656343
0.1199916476624762
-0.129865570116183
-0.06890335772308039
-0.004304447360879522
-0.041478774765759716
-0.06217181453699415
-0.1087737296084839
-0.17805106605163504
-0.025787270137937822
0.018509792701786668
0.23049191738692937
0.2695202901739636
0.16364441618483938
-0.09416448024072278
-0.137886648847595
-0.2124058760264293
-0.15626237884366165
0.010435124896642169
0.08956788030703938
0.10055272293529507
0.07128787802778942
0.028748534763618813
-0.007573002381623719
-0.028124763385745
-0.03215595420415141
-0.024487444592321744
-0.011858002639922002
-7.779701431545475e-05
0.0074542453758828725
0.009925172537475194
0.008408684684387687
0.004834065760907098
0.0010677461668549093
-0.0016473586798723986
-0.002851483218127814
-0.0027243475185743343
-0.0017945636953135072
-0.0006468128950184761
0.00028100242923804314
0.000780379064291024
0.0008529752282987363
0.0006329107984493006
0.00029630028408491086
-9.084444539244845e-06
-0.0001994820743521507
-0.00025775091431561655
-0.00021424658042698026
-0.00011991203290733459
-2.2831138700183265e-05
4.5715154346560643e-05
7.483198657294888e-05
6.992087224010124e-05
4.501034576543873e-05
1.5213137113682138e-05
-8.384546062918959e-06
-2.0701195666377253e-05
-2.2039254527643177e-05
-1.601349191807845e-05
-7.207338837624684e-06
6.120929864382072e-07
5.368889052381881e-06
6.704543666901843e-06
5.459014208572406e-06
2.968653706417772e-06
4.671973480809806e-07
-1.2612579347442798e-06
-1.9616193919158376e-06
-1.7930617667361164e-06
-1.12725270961458e-06
-3.544238149846093e-07
2.451241648780962e-07
5.480487747813246e-07
5.687852024603252e-07
4.0445681625213016e-07
1.7424257869774626e-07
-2.5861331203812577e-08
-1.4444298506814914e-07
-1.7433289862295698e-07
-1.38621761842255e-07
-7.240961366984293e-08
-7.532928260938774e-09
3.609079394064685e-08
5.227389654100428e-08
4.5514604113093146e-08
2.5849528397316975e-08
3.955995745744641e-09
-1.2141317226503194e-08
-1.8452320204951293e-08
-1.4907816862838246e-08
-4.430600057226355e-09
8.24860875971232e-09
1.7779190027250192e-08
1.9406922829904632e-08
1.0321387310698415e-08
-8.931884004285583e-09
-3.337787033578311e-08
-5.359594461725163e-08
-5.7535234541195966e-08
-3.453542257200996e-08
1.8973316629244357e-08
9.38244002503348e-08
1.6531376874158248e-07
1.9630908295778208e-07
1.4822653190870067e-07
-9.109967443182892e-10
-2.3608602108882677e-07
-4.91250459962655e-07
-6.522512371340652e-07
-5.851369021591785e-07
-1.906449161280139e-07
5.267734516739335e-07
1.4009630489870513e-06
2.0920932525723414e-06
2.153319360337172e-06
1.1888713727946786e-06
-9.21267147471029e-07
-3.8021625685319345e-06
-6.481422750575454e-06
-7.521625030475921e-06
-5.458783592612119e-06
4.915924149719844e-07
9.653489633026519e-06
1.9375821665276735e-05
2.5192540204034027e-05
2.197012600070544e-05
6.050061162256329e-06
-2.2092049262748877e-05
-5.568129249922358e-05
-8.132594233029318e-05
-8.17765616797722e-05
-4.218774775677827e-05
4.1170319975010084e-05
0.00015262176366245863
0.00025354640401033506
0.0002880944163677835
0.00020070877380349295
-3.6326291390054464e-05
-0.0003930675420009482
-0.0007632024449610443
-0.000972112095861517
-0.0008232690884990341
-0.00018234587568354474
0.000920545966919034
0.002210378027221305
0.0031608298990078473
0.0031082393988721793
0.0014996428775727812
-0.0017694516998108087
-0.006042027003263197
-0.009780377771545383
-0.010813495523697588
-0.007045320969479236
0.0024503306889048777
0.01624900114286965
0.02981510055781993
0.035736921184015114
0.025352753567548857
-0.008314047580125853
-0.06708587588955957
-0.14504140362415316
-0.028370047384487306
0.10149216078727905
0.0621207150901811
0.06393208472613614
0.10625706462371266
-0.022539688925716287
-0.14086116854380443
-0.0673751251214403
-0.014947904500476198
0.012631504637221612
0.020230200782674516
0.017914235982529995
0.016036783811273027
0.020602517613114706
0.030307125703727955
0.03611583974968696
0.023612150638928665
-0.02238395489601247
-0.11220905530968026
-0.04662528054562819
-0.014820114065577095
0.003837204080914402
0.03463434313260423
0.10058006202508359
0.015938084175229274
-0.017783367173071586
-0.01235237174897316
0.010043176078091758
0.022110196941606815
-0.002007657350548349
-0.08025503460798124
-0.01758386058403829
-0.0034857128177128087
-0.012889311293947147
-0.01039980706243753
0.04291250447127111
-0.018517054264871664
0.02750716410739959
-0.015035663818293306
0.036686616586885774
0.14547090175517716
0.0598062655921074
-0.07605832393712593
-0.10940925215334325
-0.06695708777788992
-0.14720324469064133
-0.12030872329721091
0.06372362677199889
0.2606190818471237
0.11575547106298224
0.051994243976639126
0.06556986336676426
-0.06898999641220174
-0.187342303746449
-0.12186057589406397
-0.09121426472006439
0.10363136749470044
0.07648927661241853
0.04831630283067209
0.03840140519023354
0.05751393122470871
-0.09529002323570679
-0.03208054196817345
0.027368590913802386
0.06060800790660934
0.04821592280140238
-0.020503179549412026
-0.14280036963890827
-0.10034866210948791
-0.06144369505810525
0.011722469854566738
0.15200991199639352
0.17589289252204243
0.07597542970062786
0.020872099394228877
-0.036710512003188756
-0.1459570240430974
-0.142528250219554
-0.03685013488977984
-0.00994376551438578
-0.018147134272860535
-0.005417416634594633
0.08007871835366062
0.06942431752821472
0.1609835105681024
0.11681688763063738
0.06954402904942035
-0.060994083938295196
-0.14504968130267026
-0.22059291587297436
-0.2784533724301598
-0.06065280660700525
0.12625180343711673
0.1860510823851746
0.20351320050128474
0.21991070292692066
0.020900562483033833
-0.059961236216430666
-0.12372509249903098
-0.08012471666824582
-0.020467525252679905
-0.19601061641887108
-0.006493769172707867
-0.0009522498854328252
-0.09031117172400248
0.031127163021395524
0.26003524701143765
0.06000363103054547
0.0446530937741381
-0.028173499972308842
-0.04992926181750347
0.05610000707727296
0.1604957861364146
0.15833521459459005
0.000716559210566793
-0.2785772236216199
-0.5493844673137706
-0.593599603332073
-0.3421303032090366
0.06114875235543267
0.7816682364330718
1.62700608094879
1.8189473852852143
-1.1748542576452887
-1.1509396791936697
-1.0498346254817694
-1.2500688902676735
-1.1167669347183207
1.7775279574759937
1.5719652255745535
0.6116698893992664
-0.24262998652808798
-0.6643509761434667
-0.6683425674947189
-0.3903421732434519
0.5448027120884209
1.6583587725529305
-0.5416950712159708
-0.5112051690312349
-0.4161251398149785
-0.4892366636604672
-1.214612752341086
1.0504983807573112
0.8205161984731999
0.4104335506964323
-0.1284444082438791
-0.04866616832412268
-0.3174436038083645
0.19684629962642863
-0.04681295693992539
-0.2272635713879659
-0.1267395633866258
0.498441733551248
-0.26091756575576003
-0.2554015700607042
-0.07640429199476027
-0.2675083750387389
-0.14705538466259932
0.5628504875247472
1.5101580034538589
-0.8996239159805172
-0.09592566292884276
-0.3193960438532948
-0.5950112722215177
-1.117016804803077
1.3458280536820784
0.6278450825250336
0.5408482921262873
0.06242708505092419
-0.4526308546547967
-0.4422896974259342
-0.5040270353024955
-0.5762734761118243
0.053828446835592195
0.5162600651454902
0.7095964102782786
0.6576902868675661
0.09021611424691191
-0.34385531637651345
-0.4345871823553722
-0.5573116065763114
-0.4267059717452068
0.12602837941777523
0.3479322937937196
0.3370835994165735
0.20648639679329006
0.05260167936205727
-0.0628517318611836
-0.1160361670526987
-0.11272517247911619
-0.07474143948222352
-0.026858275508716126
0.01216525016434813
0.03327063184802323
0.036363465931564413
0.027038807408178434
0.012734033021059384
-0.00027697475461506285
-0.00841957315979464
-0.0109457456447153
-0.009131504266814515
-0.005136822680488672
-0.0010080170049628933
0.0019183653743283244
0.0031715588356795816
0.0029753892267900743
0.0019233883845681797
0.0006579486534413607
-0.0003479255432189822
-0.0008758953923402079
-0.0009368377036582619
-0.0006832684524291899
-0.0003097643499414065
2.315914435567187e-05
0.00022659158521990352
0.00028465446951229153
0.00023263080091916628
0.00012717332240038532
2.0790469673781555e-05
-5.300505743323499e-05
-8.317001585607801e-05
-7.632202819686274e-05
-4.81898926612695e-05
-1.536276540537152e-05
1.0198734194305784e-05
2.319226552152295e-05
2.4181843296962755e-05
1.7267478662898542e-05
7.50805739045003e-06
-1.0083064586576195e-06
-6.082521381126166e-06
-7.3964862231015295e-06
-5.921467395559302e-06
-3.1416986823872376e-06
-4.031664851593393e-07
1.4553299739508504e-06
2.1774673479573045e-06
1.9554054933093435e-06
1.2051566720235838e-06
3.5465007511563246e-07
-2.940839755893016e-07
-6.12856969747863e-07
-6.234492843843771e-07
-4.3574075929563124e-07
-1.8109186823745787e-07
3.650680344233306e-08
1.6280955592574482e-07
1.919613929294324e-07
1.5055173962676713e-07
7.740762897558448e-08
6.992077567381599e-09
-3.973959743781819e-08
-5.6913314498253574e-08
-5.002918386831845e-08
-3.006919343602499e-08
-8.059555014616185e-09
8.383696182969706e-09
1.6177094969720068e-08
1.6066647175787078e-08
1.098894927898544e-08
4.351240694640532e-09
-1.2035833146711844e-09
-4.340137018637048e-09
-4.9667620943535495e-09
-3.80773659617333e-09
-1.8785877464229053e-09
-6.354521461335879e-11
1.1109991146407535e-09
1.5089147069762725e-09
1.2843539560822696e-09
7.294260434157759e-10
1.3593093106717564e-10
-2.919551391836244e-10
-4.672402421033389e-10
-4.0581557144935574e-10
-1.9011957169835951e-10
7.018293022263081e-11
2.699179078954527e-10
3.306082981887073e-10
2.1619721440737598e-10
-5.495183358334309e-11
-4.033345502975802e-10
-6.936622134143482e-10
-7.613443204419459e-10
-4.652239892135617e-10
2.393323430747338e-10
1.2285295384872293e-09
2.1750938744048334e-09
2.5898337605185175e-09
1.9655222034835735e-09
1.3173960910209092e-11
-3.071087174095904e-09
-6.4220067141810025e-09
-8.543006468894256e-09
-7.676424841687355e-09
-2.5171870127048225e-09
6.8821067273892605e-09
1.8349455596841878e-08
2.7433719944894716e-08
2.827512950164779e-08
1.5675176528495378e-08
-1.1957903980974951e-08
-4.973137030442809e-08
-8.49154371232987e-08
-9.866783998319566e-08
-7.177169405061247e-08
6.111594441130888e-09
1.261940989350669e-07
2.537906212691262e-07
3.303806116417849e-07
2.886133764466535e-07
8.037442888099855e-08
-2.8833753236372034e-07
-7.289579320706703e-07
-1.0660787831300908e-06
-1.0734863683215685e-06
-5.561543098068109e-07
5.355417378513784e-07
1.996972450361602e-06
3.3225232326678007e-06
3.780069245639971e-06
2.6403064774224035e-06
-4.6219647646544304e-07
-5.1377041216621654e-06
-9.995060613846816e-06
-1.2746021576179956e-05
-1.0812245060377541e-05
-2.4275641851437574e-06
1.2020202111306549e-05
2.8930134091834935e-05
4.139782893265687e-05
4.0700575665971e-05
1.9540667590102827e-05
-2.353103594487347e-05
-8.000626140668625e-05
-0.00012983278002111888
-0.00014459609117405052
-9.66689922077612e-05
2.6716045612018773e-05
0.00020854939153928403
0.0003931426288796165
0.0004911213273971679
0.0004039163294287213
6.700146206607491e-05
-0.0004985488860125854
-0.0011467594326391062
-0.0016061877697643454
-0.0015408418636097517
-0.0006782237595104272
0.0010196831193383378
0.0032018944975984666
0.005076191998639037
0.005544435437552659
0.0035677453794023036
-0.001284949939446495
-0.008269281842978852
-0.01514884332486526
-0.018435259609388296
-0.014398606408243758
-0.000815640895651584
0.020942719061864404
0.044255212874322505
0.05699218914242666
0.04344833280073701
-0.011395208368140298
-0.11617359991137068
-0.06791272840128758
-0.04957389248022745
-0.03201777323863836
0.019513813028162574
0.13610790858478508
0.1361079069145863
0.01951380823469183
-0.032017780375763805
-0.04957390034339375
-0.06791273439487532
-0.1161736007886377
-0.011395201230530878
0.04344834892398424
0.05699221162323847
0.044255234562515594
0.020942729059592623
-0.0008156541210001659
-0.014398649739190158
-0.01843532917514719
-0.015148920132004631
-0.008269332319142472
-0.00128493398732478
0.003567858422393038
0.005544646211732741
0.005076453371643512
0.0032021070515843397
0.001019713788006651
-0.000678495649524762
-0.0015414579305304014
-0.0016070441783398288
-0.0011475736369641922
-0.0004988951409684076
6.756540508680981e-05
0.0004056408540870157
0.0004938301939806783
0.000396072202114271
0.0002103840305513775
2.5916074146981812e-05
-0.00010123854230423454
-0.00015287124151313643
-0.00013988622933520267
-8.79156643246942e-05
-2.415402105417557e-05
3.074038418569531e-05
6.506583571151862e-05
7.456268503478535e-05
5.965791581986207e-05
2.3753180752449084e-05
-2.649672082279152e-05
-7.960238271872543e-05
-0.00011831341737110802
-0.00012166073351697128
-7.14104886497455e-05
3.766513693065368e-05
0.00018697299999009503
0.00032833295603434715
0.0003895279768216423
0.0002952910378142133
2.41276184406673e-06
-0.00046022903599861873
-0.0009637524882774878
-0.0012844108167405501
-0.0011585362040375064
-0.0003891352063246902
0.0010184744533298414
0.00274209112304612
0.004117972496943233
0.004270626855267253
0.0024229165150851826
-0.0016616304514525313
-0.007245885657104507
-0.012415765625348931
-0.014343729374643607
-0.010168984284433637
0.001563302919277972
0.019253914048092086
0.03702195477945422
0.04464566479222011
0.02922919344342506
-0.021413487770241692
-0.11449253506417431
-0.04865110510494236
-0.012721930717936045
0.012260836265190157
0.048245395247258745
0.11423570081116614
0.021444185275642444
-0.028769671604211785
-0.04370165715928201
-0.03572694306997622
-0.017996616762016922
-0.0009567707813727074
0.009456664404738949
0.011891060355864846
0.008405786871166233
0.002732996344796583
-0.0014395131578535916
-0.0017832317221398906
0.0019404595940806864
0.0077965837990113225
0.012249988885357643
0.011358103502962727
0.0024335778701035046
-0.014172024853877675
-0.03374708229901183
-0.04708596609052465
-0.04214972142597227
-0.0076337624516808955
0.06228981301369659
0.1637148923884064
0.08137748245783787
-0.008710097070463921
-0.13243016672871843
-0.10877234166611932
-0.14272776410481303
-0.023181236772229427
0.07290821186008899
0.17152376947802125
0.09147255632068804
0.03730705047450303
-0.0019392972871880715
-0.047948728512395664
-0.12438574248622612
-0.04768830927877303
-0.020762647757017604
-0.03171627492233825
-0.057947856455867
0.12582838289490386
0.1383187335580803
-0.015612787401686963
0.052546703054309064
0.11842778413295219
-0.04657951392845035
-0.26421675771310027
-0.13981586119856232
-0.0584653178708789
0.010754191881836616
0.10341477690113952
0.24554453597753922
0.24258959035862876
0.07677933074790422
-0.08507737280655837
-0.27598961183745724
-0.3121060727536206
-0.18312009845385294
-0.055617955877674485
0.11007278352228299
0.33511759379523487
0.3994948402565779
0.2321746321910324
0.12137469344230846
-0.25483001083766327
-0.18513824640599535
-0.2822935276652713
-0.4560475787800208
-0.5139563781954007
0.004591461890654154
-0.03484618694043047
0.5601975361802596
1.2388382231999933
0.6693558625362103
0.1531418297314946
-0.10643013903830041
-0.8961775270007858
-1.4782697008952508
-0.5057782505804296
-0.1978849948853253
0.215378760469915
0.5921311545663691
0.9524527548666755
0.5647997841397371
0.27761927669122827
0.31458977422765183
1.1336718277849744
-2.2675041472385993
-1.0314065730276682
-0.14362998364107193
-0.5913968914946334
-1.1909490991877
2.32715995269318
1.2067995112816936
1.771563181938476
-1.4165161324826954
-0.5306991759479472
-0.40033721781503395
1.3879387982037736
-3.826879865447771
0.8597686493689168
0.3009207032054737
0.4268844275332069
-1.0587341813923041
3.0174400656097045
0.8296792891900514
-0.25594049351396875
-0.824439471534029
-1.1069165454862637
-1.06499389594418
-0.3044641486015367
0.35697879179728625
0.6661259951198767
0.673068550069557
0.26000913784135593
0.08431457681296421
-0.05163114627302684
-0.40450792370689215
-0.47833190863795594
-0.21049822340114377
0.03371618933176053
0.25473572926423793
0.4049820221000153
0.17756993656663916
0.2069515865613326
-0.11376217399107655
-0.40100787361854207
-0.24257839526455022
0.03661184769990804
-0.0034525598408706296
0.28851970780050706
0.04705493850989416
-0.3296376820120776
-0.40845989357060297
-0.15829792134703222
0.40759629848082174
0.5907363667933071
0.3795095797202739
0.2457104961713017
-0.029422318367274172
-0.70494142396411
-0.6204212005470171
-0.14533337497533289
0.04757265547300486
0.1798061229578077
0.3412437178137251
0.25317041835902326
0.03337784138901005
-0.027523445187198445
-0.07542395477990797
-0.0897943548382749
-0.07352108269519624
-0.04081577166534177
-0.007156665618423817
0.016774888594733722
0.027038118811075783
0.02535042727815465
0.01653518055657492
0.0058926288242605925
-0.0026297258946749225
-0.0071777118234366095
-0.00780612824151403
-0.005765219127578285
-0.0026747990492430184
0.00011478171750248537
0.001843761960370257
0.0023624801921935915
0.00195374252491926
0.0010857107486093374
0.00019781112488320924
-0.0004257417455968129
-0.0006875629694702188
-0.0006388433103601744
-0.00040881562616605627
-0.00013579153019986287
7.930408731622157e-05
0.00019067453180780065
0.0002016860800142844
0.00014576295870077335
6.492584779340725e-05
-6.46832154228419e-06
-4.9625116076894394e-05
-6.145767967709843e-05
-4.978051425313323e-05
-2.6869078826412682e-05
-3.993657313720033e-06
1.172583754250601e-05
1.8015761729555096e-05
1.6377872501821693e-05
1.0234483527989333e-05
3.155954622622117e-06
-2.3070086880164026e-06
-5.044250405713771e-06
-5.203280904067712e-06
-3.6813873805615447e-06
-1.5704730055473589e-06
2.549010801860897e-07
1.3304048164229669e-06
1.5960671525731714e-06
1.2664711652737454e-06
6.630085331899266e-07
7.443480461419914e-08
-3.2118592116701627e-07
-4.7135322087508597e-07
-4.193866435009739e-07
-2.5572661757394146e-07
-7.242716069371382e-08
6.61415065032204e-08
1.3319804300662244e-07
1.3409615148199005e-07
9.285320306623184e-08
3.780657050433973e-08
-8.809252372497475e-09
-3.555457905957119e-08
-4.138720079568546e-08
-3.216878346046212e-08
-1.6301526154769917e-08
-1.1751031263953087e-09
8.765762978048868e-09
1.2325711881747245e-08
1.0738124582516282e-08
6.388541424305812e-09
1.6476466834755793e-09
-1.862514856707881e-09
-3.4993863639729243e-09
-3.4405365466769834e-09
-2.3270889309943642e-09
-8.935575832827127e-10
2.954917271222511e-10
9.59072036628456e-10
1.083246554535798e-09
8.273973389857355e-10
4.1087263933323786e-10
2.2565293102015745e-11
-2.2680376015563068e-10
-3.10501570311552e-10
-2.6327365813549564e-10
-1.4793082326738346e-10
-2.545585568207669e-11
6.334108783811404e-11
1.0313950000105756e-10
9.952448629750938e-11
6.956736687316466e-11
3.2283964883932975e-11
1.9908500325970495e-12
-1.4433077466565035e-11
-1.696003496324338e-11
-9.905870999460516e-12
1.0109729596233637e-12
1.0967735576078409e-11
1.7212246374846984e-11
1.9160674598856316e-11
1.7783235383965985e-11
1.4730911302396704e-11
1.1570614653940822e-11
9.327460220488635e-12
8.364089688442858e-12
8.51089144228573e-12
9.31436575815252e-12
1.0282798608779434e-11
1.1053625199283389e-11
1.1459055362616691e-11
1.1506861624223616e-11
1.1313478165110677e-11
1.1027786480408553e-11
1.0772773713495189e-11
1.0616692136364685e-11
1.0571878355136621e-11
1.0611442098331853e-11
1.0692057795930794e-11
1.077351063851274e-11
1.0830094113071295e-11
1.0853297611285744e-11
1.0848144864329769e-11
1.0826656778219083e-11
1.0801533219561838e-11
1.0781943519168597e-11
1.07719638709912e-11
1.0771176783058631e-11
1.0776451618578448e-11
1.0783917240730288e-11
1.0790441088240597e-11
1.079433473728909e-11
1.0795350019213503e-11
1.0794227455944663e-11
1.0792102238786618e-11
1.0790005300226811e-11
1.078858013325876e-11
1.0788024425442589e-11
1.0788192141951619e-11
1.078876529883377e-11
1.07894162687159e-11
1.0789913484982516e-11
1.0790158370729689e-11
1.0790167235581804e-11
1.0790023996571965e-11
1.0789829181104223e-11
1.0789662479614533e-11
1.0789565548681756e-11
1.078954298981015e-11
1.0789574523455057e-11
1.0789630450543329e-11
1.078968437282496e-11
1.0789720212252662e-11
1.078973343431468e-11
1.078972822251776e-11
1.0789712972073649e-11
1.0789696125263288e-11
1.0789683521632814e-11
1.0789677532958496e-11
1.0789677597244088e-11
1.0789681471426349e-11
1.0789686548209743e-11
1.0789690802855707e-11
1.0789693210596907e-11
1.0789693698935045e-11
1.0789692820516189e-11
1.0789691351210442e-11
1.0789689966194432e-11
1.0789689066394927e-11
1.0789688754191035e-11
1.0789688911134774e-11
1.0789689315987379e-11
1.0789689751458231e-11
1.078969007051158e-11
1.0789690216414132e-11
1.0789690207261342e-11
1.0789690102853094e-11
1.0789689970730162e-11
1.0789689862270356e-11
1.0789689802603646e-11
1.0789689792415813e-11
1.078968981671201e-11
1.0789689855251422e-11
1.07896898907855e-11
1.0789689913337561e-11
1.0789689920643091e-11
1.0789689916023501e-11
1.0789689905298928e-11
1.0789689894055692e-11
1.0789689885990201e-11
1.078968988245042e-11
1.0789689882878025e-11
1.0789689885682611e-11
1.0789689889116665e-11
1.0789689891878181e-11
1.0789689893353046e-11
1.0789689893553892e-11
1.078968989288599e-11
1.0789689891876661e-11
1.0789689890966035e-11
1.0789689890401822e-11
1.0789689890232738e-11
1.07896898903664e-11
1.0789689890649947e-11
1.0789689890939914e-11
1.0789689891143517e-11
1.0789689891228969e-11
1.0789689891212994e-11
1.0789689891137803e-11
1.0789689891048584e-11
1.0789689890978327e-11
1.0789689890942021e-11
