0
8.679938060494736e-18
8.679938060494736e-18
8.679938060494736e-18
8.679938060494736e-18
8.679938060494736e-18
8.679938060494736e-18
8.679938060494736e-18
8.679938060494736e-18
8.679938060494736e-18
8.679938060494736e-18
8.679938060494736e-18
8.679938060494736e-18
8.679938060494736e-18
8.679938060494736e-18
8.679938060494736e-18
8.679938060494736e-18
8.679938060494736e-18
8.679938060494736e-18
8.679938060494736e-18
8.679938060494736e-18
8.679938060494736e-18
8.679938060494736e-18
8.679938060494736e-18
8.679938060494736e-18
8.679938060494736e-18
8.679938060494736e-18
8.679938060494736e-18
8.679938060494736e-18
8.679938060494736e-18
8.679938060494736e-18
8.679938060494736e-18
8.679938060494736e-18
8.679938060494736e-18
8.679938060494736e-18
8.679938060494736e-18
8.679938060494736e-18
8.679938060494736e-18
8.679938060494736e-18
8.679938060494736e-18
8.679938060494736e-18
8.679938060494736e-18
8.679938060494736e-18
8.679938060494736e-18
8.679938060494736e-18
8.679938060494736e-18
8.679938060494736e-18
8.679938060494736e-18
8.679938060494736e-18
8.679938060494736e-18
8.679938060494736e-18
8.679938060494736e-18
8.679938060494736e-18
8.679938060494736e-18
8.679938060494736e-18
8.679938060494736e-18
8.679938060494736e-18
8.679938060494736e-18
8.679938060494736e-18
8.679938060494736e-18
8.679938060494736e-18
8.679938060494736e-18
8.679938060494736e-18
8.679938060494736e-18
8.679938060494736e-18
8.679938060494736e-18
8.679938060494736e-18
8.679938060494736e-18
8.679938060494736e-18
8.679938060494736e-18
8.679938060494736e-18
8.679938060494736e-18
8.679938060494736e-18
8.679938060494736e-18
8.679938060494736e-18
8.679938060494736e-18
8.679938060494736e-18
8.679938060494736e-18
8.679938060494736e-18
8.679938060494736e-18
8.679938060494736e-18
8.679938060494736e-18
8.679938060494736e-18
8.679938060494736e-18
8.679938060494736e-18
8.679938060494736e-18
8.679938060494736e-18
8.679938060494736e-18
8.679938060494736e-18
8.679938060494736e-18
8.679938060494736e-18
8.679938060494736e-18
8.679938060494736e-18
8.679938060494736e-18
8.679938060494736e-18
8.679938060494736e-18
8.679938060494736e-18
8.679938060494736e-18
8.679938060494736e-18
8.679938060494736e-18
8.679938060494736e-18
8.679938060494736e-18
8.679938060494736e-18
8.679938060494736e-18
8.679938060494736e-18
8.679938060494736e-18
8.679938060494736e-18
8.679938060494736e-18
8.679938060494736e-18
8.679938060494736e-18
8.679938060494736e-18
8.679938060494736e-18
8.679938060494736e-18
8.679938060494736e-18
8.679938060494736e-18
8.679938060494736e-18
8.679938060494736e-18
8.679938060494736e-18
8.679938060494736e-18
8.679938060494736e-18
8.679938060494736e-18
8.679938060494736e-18
8.679938060494736e-18
8.679938060494736e-18
8.679938060494736e-18
8.679938060494736e-18
8.679938060494736e-18
8.679938060494736e-18
8.679938060494736e-18
8.679938060494736e-18
8.679938060494736e-18
8.679938060494736e-18
8.679938060494736e-18
8.679938060494736e-18
8.679938060494736e-18
8.679938060494736e-18
8.679938060494736e-18
8.679938060494736e-18
8.679938060494736e-18
8.679938060494736e-18
8.679938060494736e-18
8.679938060494736e-18
8.679938060494736e-18
8.679938060494736e-18
8.679938060494736e-18
8.679938060494736e-18
8.679938060494736e-18
8.679938060494736e-18
8.679938060494736e-18
8.679938060494736e-18
8.679938060494736e-18
8.679938060494736e-18
8.679938060494736e-18
8.679938060494736e-18
8.679938060494736e-18
8.679938060494736e-18
8.679938060494736e-18
8.679938060494736e-18
8.679938060494736e-18
8.679938060494736e-18
8.679938060494736e-18
8.679938060494736e-18
8.679938060494736e-18
8.679938060494736e-18
8.679938060494736e-18
8.679938060494736e-18
8.679938060494736e-18
8.679938060494736e-18
8.679938060494736e-18
8.679938060494736e-18
8.679938060494736e-18
8.679938060494736e-18
8.679938060494736e-18
8.679938060494736e-18
8.679938060494736e-18
8.679938060494736e-18
8.679938060494736e-18
8.679938060494736e-18
8.679938060494736e-18
8.679938060494736e-18
8.679938060494736e-18
8.679938060494736e-18
8.679938060494736e-18
8.679938060494736e-18
8.679938060494736e-18
8.679938060494736e-18
8.679938060494736e-18
8.679938060494736e-18
8.679938060494736e-18
8.679938060494736e-18
8.679938060494736e-18
8.679938060494736e-18
8.679938060494736e-18
8.679938060494736e-18
8.679938060494736e-18
8.679938060494736e-18
8.679938060494736e-18
8.679938060494736e-18
8.679938060494736e-18
8.679938060494736e-18
8.679938060494736e-18
8.679938060494736e-18
8.679938060494736e-18
8.679938060494736e-18
8.679938060494736e-18
8.679938060494736e-18
8.679938060494736e-18
8.679938060494736e-18
8.679938060494736e-18
8.679938060494736e-18
8.679938060494736e-18
8.679938060494736e-18
8.679938060494736e-18
8.679938060494736e-18
8.679938060494736e-18
8.679938060494738e-18
8.679938060494738e-18
8.679938060494738e-18
8.679938060494736e-18
8.679938060494735e-18
8.679938060494733e-18
8.679938060494732e-18
8.679938060494733e-18
8.679938060494735e-18
8.67993806049474e-18
8.679938060494746e-18
8.679938060494749e-18
8.67993806049475e-18
8.679938060494744e-18
8.679938060494732e-18
8.679938060494713e-18
8.679938060494696e-18
8.679938060494689e-18
8.679938060494701e-18
8.679938060494738e-18
8.679938060494795e-18
8.679938060494856e-18
8.679938060494893e-18
8.679938060494877e-18
8.679938060494781e-18
8.679938060494607e-18
8.679938060494396e-18
8.67993806049423e-18
8.679938060494217e-18
8.679938060494453e-18
8.679938060494966e-18
8.679938060495664e-18
8.67993806049631e-18
8.679938060496554e-18
8.679938060496046e-18
8.679938060494596e-18
8.679938060492374e-18
8.679938060490028e-18
8.67993806048864e-18
8.679938060489448e-18
8.679938060493334e-18
8.679938060500166e-18
8.679938060508287e-18
8.679938060514444e-18
8.679938060514462e-18
8.67993806050477e-18
8.679938060484507e-18
8.679938060457523e-18
8.679938060433216e-18
8.67993806042512e-18
8.679938060446631e-18
8.679938060504337e-18
8.679938060590805e-18
8.679938060680117e-18
8.67993806072991e-18
8.679938060692707e-18
8.679938060536344e-18
8.67993806026872e-18
8.679938059957145e-18
8.679938059729655e-18
8.67993805974717e-18
8.679938060143265e-18
8.679938060942478e-18
8.679938061984924e-18
8.679938062898046e-18
8.679938063156775e-18
8.679938062253779e-18
8.679938059959765e-18
8.67993805659788e-18
8.679938053205095e-18
8.679938051435501e-18
8.679938053103339e-18
8.679938059381859e-18
8.679938069853073e-18
8.679938081790144e-18
8.679938090161091e-18
8.679938088770667e-18
8.679938072638296e-18
8.679938041157628e-18
8.679938000934288e-18
8.679937966716565e-18
8.679937958853428e-18
8.679937996516997e-18
8.679938087571079e-18
8.679938218132051e-18
8.679938346788079e-18
8.679938409029406e-18
8.679938335633207e-18
8.679938084042259e-18
8.679937674815472e-18
8.679937218130638e-18
8.679936911504356e-18
8.679936993146352e-18
8.67993764818489e-18
8.679938886622004e-18
8.67994043675563e-18
8.679941715569608e-18
8.679941935358461e-18
8.679940373115174e-18
8.679936764395403e-18
8.67993169980451e-18
8.679926830233694e-18
8.67992466869308e-18
8.679927852254458e-18
8.679937914462864e-18
8.67995388905611e-18
8.679971335191053e-18
8.679982509218622e-18
8.679978263846158e-18
8.679951741373902e-18
8.679903082246786e-18
8.679843417780644e-18
8.679795763886349e-18
8.679790576591211e-18
8.679855061220469e-18
8.679997878302375e-18
8.680194111524959e-18
8.680378057915926e-18
8.680451933638931e-18
8.680315442946072e-18
8.679913747783326e-18
8.679290878050761e-18
8.67862541887964e-18
8.678220600608482e-18
8.678427209214082e-18
8.679498315270543e-18
8.68140783904844e-18
8.68370137559867e-18
8.685471520669547e-18
8.685542121443345e-18
8.682891916367575e-18
8.677247735399117e-18
8.669653338745278e-18
8.662719419693847e-18
8.660246503275561e-18
8.666042592566216e-18
8.682050854936778e-18
8.706309584844436e-18
8.731652459280763e-18
8.746219312798352e-18
8.73657659443057e-18
8.69342442796596e-18
8.618579075639246e-18
8.530530001859351e-18
8.465005567026925e-18
8.467371421277875e-18
8.575867255988482e-18
8.798625450351015e-18
9.092188067558251e-18
9.352979110162973e-18
9.433454298628267e-18
9.189293063296513e-18
8.55239352745039e-18
7.608674061591251e-18
6.645129249121549e-18
6.1251045219698286e-18
6.562310473505257e-18
8.296890292081438e-18
1.122704701472501e-17
1.460269518864188e-17
1.7018830101175175e-17
1.672780461111438e-17
1.2301721648356663e-17
3.5217211112721934e-18
-7.812399302898815e-18
-1.759746608580623e-17
-2.0112098883300816e-17
-9.897054982413113e-18
1.5402202250720736e-17
5.207307659731911e-17
8.86439230056174e-17
1.070338936876695e-16
8.762732769223428e-17
1.804985773696923e-17
-9.653020178540382e-17
-2.257665794050597e-16
-3.1447618288919235e-16
-2.954182855856118e-16
-1.1543337352371177e-16
2.301856921046654e-16
6.672506496882379e-16
1.0334458468053808e-15
1.1071685221250322e-15
6.823266629659171e-16
-3.210921256341624e-16
-1.7444085171148033e-15
-3.1299074924733283e-15
-3.772839169859434e-15
-2.925345869891685e-15
-1.399990891032293e-16
4.335321065289134e-15
9.276007101165078e-15
1.2517310480883757e-14
1.147548267506965e-14
4.177893570465991e-15
-9.410107910924514e-15
-2.6243254021013697e-14
-3.990944202086961e-14
-4.1835521440572164e-14
-2.4257961868430566e-14
1.5481207315292862e-14
7.066107478166865e-14
1.230502426913696e-13
1.452105530953891e-13
1.0867522994807658e-13
-2.619209780388938e-15
-1.7721731931272356e-13
-3.65817337978109e-13
-4.836008357082383e-13
-4.3141782597968103e-13
-1.3633123062529357e-13
3.972235966208391e-13
1.0447153367200597e-12
1.5531806184653228e-12
1.5913430955174607e-12
8.674172695616523e-13
-7.041725154422673e-13
-2.8409282256925463e-12
-4.817857007539145e-12
-5.567923345814746e-12
-4.009371708549143e-12
4.2970830384802293e-13
7.233604034597763e-12
1.4421842358827994e-11
1.867501103746287e-11
1.619346460671385e-11
4.291117583115555e-12
-1.6634458278322495e-11
-4.1508114447938145e-11
-6.036324199937136e-11
-6.041434531917646e-11
-3.0721801253287974e-11
3.1345490989935385e-11
1.1399093087884226e-10
1.8842951411670157e-10
2.1321301823795844e-10
1.4730632775172573e-10
-2.9449923047106734e-11
-2.942875101517352e-10
-5.678147174915587e-10
-7.202760109191051e-10
-6.062652406258458e-10
-1.2730037459631467e-10
6.924065249454363e-10
1.6466659977323384e-09
2.3432998370124623e-09
2.289460119104329e-09
1.0760819377610033e-09
-1.371891595564601e-09
-4.564651324907365e-09
-7.361043287022671e-09
-8.152889743862714e-09
-5.386453796186192e-09
1.6402512290444506e-09
1.1937127551173718e-08
2.232779314347967e-08
2.7745974314669316e-08
2.2635307244719726e-08
3.4031531849883965e-09
-2.8669075923308837e-08
-6.522837082632095e-08
-9.086206791043232e-08
-8.659585225579197e-08
-3.7177357620010324e-08
5.924685143516771e-08
1.8244071759472758e-07
2.8722996728296724e-07
3.112899132490926e-07
1.9590557973454447e-07
-8.299728474209235e-08
-4.82881421627051e-07
-8.768978238843607e-07
-1.0674621172385078e-06
-8.425707892371959e-07
-7.191112090291025e-08
1.1815024297598337e-06
2.5801698298242253e-06
3.51911178380412e-06
3.2687614469162453e-06
1.2621939633515604e-06
-2.531080041769103e-06
-7.278724945977744e-06
-1.1194960096597414e-05
-1.1867216384236086e-05
-7.081287273274714e-06
3.972333797457456e-06
1.948418268858381e-05
3.439743089875221e-05
4.101511426013252e-05
3.126092394827759e-05
4.3917863569009555e-07
-4.848883610296145e-05
-0.00010191990804729741
-0.00013613592583256403
-0.0001231216460578337
-4.187703390815932e-05
0.00010716148478358376
0.00028989333615836823
0.0004358188148462197
0.00045165439859331987
0.000254078643335042
-0.00018342495935970275
-0.0007845300305257914
-0.0013479874311048711
-0.0015742852987747128
-0.0011561889457806164
7.440375360503928e-05
0.0019830175882823743
0.0040235522534402945
0.005269046472656892
0.004648373958711065
0.0013918733748141295
-0.004412440652569004
-0.011362456284553719
-0.016669726622938492
-0.016733958704701617
-0.008465282723635637
0.008845514174351499
0.03167912176313279
0.05132801649321143
0.054721069495815046
0.027530015712891844
-0.040803209545860246
-0.15158329848234695
-0.09322579647184502
-0.04169421043471103
0.03409850227960102
0.16321742635838238
0.16321742635838246
0.03409850227960127
-0.041694210434710714
-0.09322579647184458
-0.15158329848234647
-0.0408032095458599
0.027530015712892025
0.054721069495815046
0.051328016493211275
0.03167912176313255
0.00884551417435125
-0.008465282723635848
-0.016733958704701752
-0.016669726622938554
-0.011362456284553743
-0.004412440652569011
0.001391873374814133
0.004648373958711072
0.005269046472656893
0.004023552253440289
0.0019830175882823674
7.44037536050319e-05
-0.0011561889457806225
-0.0015742852987747165
-0.0013479874311048735
-0.0007845300305257923
-0.0001834249593597021
0.0002540786433350436
0.00045165439859332155
0.0004358188148462208
0.00028989333615836834
0.00010716148478358333
-4.187703390816008e-05
-0.00012312164605783447
-0.00013613592583256462
-0.00010191990804729787
-4.848883610296183e-05
4.3917863568981094e-07
3.126092394827744e-05
4.10151142601325e-05
3.439743089875227e-05
1.9484182688583925e-05
3.972333797457564e-06
-7.081287273274641e-06
-1.1867216384236065e-05
-1.1194960096597429e-05
-7.278724945977763e-06
-2.5310800417691115e-06
1.2621939633515638e-06
3.2687614469162585e-06
3.5191117838041354e-06
2.5801698298242355e-06
1.1815024297598358e-06
-7.191112090291322e-08
-8.425707892372004e-07
-1.0674621172385114e-06
-8.768978238843639e-07
-4.828814216270546e-07
-8.299728474209585e-08
1.9590557973454098e-07
3.112899132490896e-07
2.8722996728296485e-07
1.824407175947262e-07
5.924685143516745e-08
-3.7177357620009874e-08
-8.65958522557912e-08
-9.086206791043162e-08
-6.522837082632048e-08
-2.8669075923308612e-08
3.4031531849883436e-09
2.2635307244719454e-08
2.7745974314668972e-08
2.2327793143479377e-08
1.193712755117352e-08
1.640251229044358e-09
-5.3864537961861855e-09
-8.152889743862645e-09
-7.361043287022587e-09
-4.564651324907307e-09
-1.3718915955645804e-09
1.0760819377609909e-09
2.289460119104294e-09
2.3432998370124206e-09
1.646665997732306e-09
6.924065249454243e-10
-1.2730037459630164e-10
-6.062652406258089e-10
-7.202760109190536e-10
-5.67814717491511e-10
-2.9428751015171485e-10
-2.9449923047136305e-11
1.4730632775163505e-10
2.132130182378181e-10
1.884295141165533e-10
1.1399093087875468e-10
3.134549098998649e-11
-3.072180125304366e-11
-6.041434531874785e-11
-6.036324199886308e-11
-4.1508114447554385e-11
-1.6634458278324485e-11
4.29111758250507e-12
1.619346460544276e-11
1.8675011035774275e-11
1.4421842357311785e-11
7.233604034101193e-12
4.297083052075702e-13
-4.009371704926221e-12
-5.567923340400203e-12
-4.817857001961462e-12
-2.840928222605803e-12
-7.041725178134669e-13
8.674172597331347e-13
1.591343078746846e-12
1.553180598988073e-12
1.044715322563906e-12
3.9722359785071977e-13
-1.3633120568496163e-13
-4.3141777585767767e-13
-4.83600770489393e-13
-3.6581728104079913e-13
-1.7721730352356505e-13
-2.6192668042305698e-15
1.0867508595071709e-13
1.4521034260694576e-13
1.2305003085094933e-13
7.06609652034131e-14
1.5481313357519103e-14
-2.425756731248e-14
-4.183486535304839e-14
-3.990869593278927e-14
-2.6242733379248175e-14
-9.410200153379262e-15
4.1768781655784895e-15
1.1473508685940356e-14
1.2514794333804446e-14
9.273874114604285e-15
4.334844812655329e-15
-1.3762228199540832e-16
-2.919631333173467e-15
-3.76466581103849e-15
-3.121876117156341e-15
-1.7405595470016826e-15
-3.257500018903196e-16
6.665197904753704e-16
1.0815313490952625e-15
1.0049070344300994e-15
6.481904503263751e-16
2.3549900477317543e-16
-7.421790559117437e-17
-2.1777368241997372e-16
-2.1752253960163783e-16
-1.4607687650279e-16
-8.339752260167193e-17
-8.047827312340262e-17
-1.3881652585652137e-16
-2.0997621992339012e-16
-2.1527147682122974e-16
-8.137191018475217e-17
2.1713809381637558e-16
6.221499127810852e-16
9.805274133152805e-16
1.0724434972051227e-15
6.863290715447504e-16
-2.701143724969633e-16
-1.6559871108385128e-15
-3.03354989830771e-15
-3.7141637361867905e-15
-2.953907348529833e-15
-2.8899513331961583e-16
4.073074587510448e-15
8.966723592876922e-15
1.2287369387935866e-14
1.1484207940936944e-14
4.55865346536813e-15
-8.630125500181659e-15
-2.52176351487311e-14
-3.9001566986852396e-14
-4.156124500917169e-14
-2.512001471600119e-14
1.3248421781793043e-14
6.736259845837085e-14
1.1969325792875728e-13
1.434155482145974e-13
1.1023340138086601e-13
3.4704406339941845e-15
-1.6696716579489337e-13
-3.5404332983582774e-13
-4.752209597752407e-13
-4.325318965460295e-13
-1.5190077079012297e-13
3.664811699654235e-13
1.0051436689270823e-12
1.5191566056397596e-12
1.582854432330371e-12
9.034688289314348e-13
-6.154950904829509e-13
-2.712781131948372e-12
-4.6904840850190494e-12
-5.504545677432674e-12
-4.078367807658364e-12
1.8550715384018113e-13
6.832850230555214e-12
1.3971166765177508e-11
1.836753875621315e-11
1.626384329721139e-11
4.923979741846742e-12
-1.5424515972013587e-11
-3.9982418703236665e-11
-5.909041077253726e-11
-6.016842374819533e-11
-3.222003422297745e-11
2.78290990000353e-11
1.0901792073144418e-10
1.8360521072382157e-10
2.1100124141264081e-10
1.5031347335385784e-10
-1.9676607566692852e-11
-2.7863720043327024e-10
-5.505889855691302e-10
-7.090495917182794e-10
-6.100529079018123e-10
-1.529501371201323e-10
6.448459061285704e-10
1.587915533769251e-09
2.295817908550569e-09
2.283187304622171e-09
1.1380286431062468e-09
-1.232657126999824e-09
-4.371886197201519e-09
-7.178674861199891e-09
-8.076827116026351e-09
-5.51588521409698e-09
1.2498368449377576e-09
1.1326651016489578e-08
2.1670377675303846e-08
2.7338361584490942e-08
2.282336958521198e-08
4.439958275718615e-09
-2.6801848178969342e-08
-6.296892169621883e-08
-8.909623820245632e-08
-8.648038747233813e-08
-3.9727083893894316e-08
5.374152680088019e-08
1.7497739935082057e-07
2.8035023630785005e-07
3.0872296015594027e-07
2.0141971636930019e-07
-6.742901179261796e-08
-4.5909561243047294e-07
-8.518468517306263e-07
-1.0527572240330529e-06
-8.51464002808413e-07
-1.1371677396581202e-07
1.1082835350682536e-06
2.4933880978651015e-06
3.4536625635776467e-06
3.26928137383166e-06
1.3667173455478026e-06
-2.3136974282452893e-06
-6.990106271558258e-06
-1.0935994356263859e-05
-1.1782738159162604e-05
-7.314206954863459e-06
3.352575746951224e-06
1.8558481502163005e-05
3.344441033681046e-05
4.048858344116845e-05
3.1667914845186626e-05
2.120963548213568e-06
-4.562114189544859e-05
-9.859121872652282e-05
-0.00013371910516483536
-0.00012333702480439574
-4.6146279666937823e-05
9.858934500998168e-05
0.0002787452781065317
0.00042609366491749097
0.00044897079138835836
0.0002638462426241631
-0.0001587927341869873
-0.000748544492124679
-0.001311793077729364
-0.0015555981305269502
-0.0011743799885206773
6.8942229205755785e-06
0.001870833649086477
0.0038960498878869067
0.005180169794376613
0.004664341908322834
0.0015656697335819023
-0.004074862210071877
-0.01093240662447219
-0.01630548891138491
-0.01665327146234583
-0.008872552375480644
0.00786767919785008
0.030281318276586682
0.04995521869541767
0.054064304364269185
0.028328887388526233
-0.0380962405630244
-0.1471914036997768
-0.08832778668752168
-0.038394519714030205
0.03327565123634366
0.1563368680788056
0.1502385849656058
0.01800149073247743
-0.05463476154615359
-0.0946807506869171
-0.13425718352527724
-0.003049832483468828
0.07672307052787365
0.0922424912710779
0.03996812698968232
-0.07502845502083073
-0.0395506641855001
-0.03301102619004799
-0.029380357476731244
-0.0009227734512550542
0.07666154428587223
0.018964935948221306
0.029160914129775964
0.09727711058358643
0.0030260454276209766
-0.07842894668817374
-0.1696311177792264
-0.08552936108421483
-0.03194548409738602
0.19174046554843716
0.18763907810991415
0.1556179173662339
-0.1063190256487569
-0.19732881498462412
-0.3077208040705279
-0.016207724350083958
0.10646593526308172
0.28816023941338875
0.14456132936281346
0.07246738766716561
-0.1494760075815066
-0.1531560371428155
-0.17044169235728127
-0.024652010372471434
0.07267323457976439
0.11954160166929509
0.11841874275875586
0.07191013017336459
-0.018167503843627895
-0.14801464858054794
-0.10741211370715446
-0.07682999251556873
-0.0286925234026743
0.0666566311530076
0.23222407498578904
0.07647346734430621
-0.010167700763495676
-0.05269094489056545
-0.0837962607246694
-0.13422556874355784
-0.02479697637987387
0.0372969755456523
0.057365465214150875
0.04862205245834523
0.026449838541039102
0.003675053696007272
-0.011965647473016159
-0.018071834808820166
-0.016213283340715767
-0.009907953534818463
-0.0027772970095136327
0.0026327504787686624
0.005253430573293072
0.005283346195804996
0.003659659405933214
0.0014932967173671135
-0.00034224616467343856
-0.0013967025975640953
-0.001628368045365556
-0.001267254005856414
-0.0006436740582495049
-4.845298749826202e-05
0.00034323814662682325
0.00048402355512983445
0.00042216064354206565
0.0002513707325447742
6.49184917604914e-05
-7.330161378593815e-05
-0.00013790199654775497
-0.00013577592227648447
-9.20922618464325e-05
-3.573514718104413e-05
1.106736884436266e-05
3.72300916698284e-05
4.217500095631243e-05
3.2152617345007776e-05
1.578507320900546e-05
5.065110821695403e-07
-9.31876897645254e-06
-1.2629775550159038e-05
-1.0786493284601298e-05
-6.25667489429755e-06
-1.4394932074641948e-06
2.057394952637737e-06
3.628463775145822e-06
3.4910929047126796e-06
2.315561698441435e-06
8.497066265392764e-07
-3.4275682413896703e-07
-9.903944403329382e-07
-1.0913497800338658e-06
-8.149175999334964e-07
-3.8589626043035756e-07
5.894425196693637e-09
2.5195755946378434e-07
3.2908449285679206e-07
2.75268804491759e-07
1.5538173619568703e-07
3.107257118733849e-08
-5.7271875575724286e-08
-9.531201083485612e-08
-8.966077780775307e-08
-5.812651893747749e-08
-2.0048247229131847e-08
1.0296904400513494e-08
2.628662307240352e-08
2.820710260905352e-08
2.0626574531608803e-08
9.398191277638437e-09
-6.370367837544161e-10
-6.788070645207403e-09
-8.563375796327645e-09
-7.0164024737507995e-09
-3.849680196515521e-09
-6.455442415924309e-10
1.5831339443369564e-09
2.4996437767477493e-09
2.300102778763024e-09
1.4566150694987842e-09
4.686981557957372e-10
-3.025471690764706e-10
-6.962021217115555e-10
-7.281893998796502e-10
-5.213610656842052e-10
-2.2791914939394373e-10
2.8823908490492517e-11
1.8228717803099974e-10
2.225475793839604e-10
1.7862592034374967e-10
9.513489325745774e-11
1.2641411736545581e-11
-4.349732428508295e-11
-6.545490879102913e-11
-5.89378210262837e-11
-3.643589675117591e-11
-1.0836416970874542e-11
8.7404393521496e-12
1.8401987948927503e-11
1.877702088498932e-11
1.3159170349380626e-11
5.501178165055809e-12
-1.059734778157312e-12
-4.880624334946654e-12
-5.7763447948334694e-12
-4.541889068228915e-12
-2.3445227005629406e-12
-2.230794841824087e-13
1.1888052288009474e-12
1.7114642156093867e-12
1.5084979023738628e-12
9.096902292130918e-13
2.471405129020008e-13
-2.491439287888162e-13
-4.85474935577691e-13
-4.836319530753863e-13
-3.316622910785549e-13
-1.3208664260444512e-13
3.53855657390539e-14
1.3033278255225252e-13
1.497936236029604e-13
1.1542760188012496e-13
5.77134763046022e-14
3.20299687449572e-15
-3.231464625403381e-14
-4.4774913785597016e-14
-3.878387344879162e-14
-2.297902010887406e-14
-5.8410846928279975e-15
6.893314085349014e-15
1.2991087740820513e-14
1.3086554843660294e-14
9.369193068803414e-15
4.27394924257971e-15
-3.877092573329854e-16
-3.716227515033255e-15
-5.5396540269356044e-15
-6.00384117781991e-15
-5.205965377475022e-15
-3.0657165669785892e-15
5.045882613678132e-16
5.2192437500517e-15
1.0039482964634054e-14
1.306336441751498e-14
1.1909979033853346e-14
4.663006231816878e-15
-8.818587663609437e-15
-2.5703465459297442e-14
-3.979082056384779e-14
-4.2583238282441194e-14
-2.614784572351961e-14
1.2620719849224066e-14
6.763788860745865e-14
1.2127032997435033e-13
1.463109402113793e-13
1.1382926393249884e-13
6.435034338382956e-15
-1.6644436911309174e-13
-3.576363455969553e-13
-4.835574938682891e-13
-4.4426992301154676e-13
-1.6324120265872359e-13
3.613512405764735e-13
1.0123555082503723e-12
1.542321686602502e-12
1.6198200749405449e-12
9.440316002463095e-13
-5.892349428124445e-13
-2.7220658556175495e-12
-4.7513696684476225e-12
-5.616978335307191e-12
-4.2168593052051365e-12
7.408176884789165e-14
6.81911304263393e-12
1.4118588967668765e-11
1.869701012700227e-11
1.6718661581472668e-11
5.352757612055053e-12
-1.5248202666917372e-11
-4.0291998639126187e-11
-6.001534479469034e-11
-6.161005797250432e-11
-3.376781358681558e-11
2.6876338759974932e-11
1.0947508497645533e-10
1.8606536435307348e-10
2.1541457243364428e-10
1.556386954636992e-10
-1.553457229212445e-11
-2.7840638177114334e-10
-5.56653326569056e-10
-7.220743789370259e-10
-6.276593443994147e-10
-1.6912077710540252e-10
6.389136334614182e-10
1.6010878276718581e-09
2.33269210191624e-09
2.339348431086904e-09
1.1969941961789954e-09
-1.1983186846756983e-09
-4.39339182253393e-09
-7.2778398126294566e-09
-8.249856954103255e-09
-5.720381108886655e-09
1.0963903722537753e-09
1.1329505888246593e-08
2.191884910284852e-08
2.7852561721609325e-08
2.3504128287772533e-08
5.048460837234483e-09
-2.660742276200884e-08
-6.35247330688019e-08
-9.056383294210132e-08
-8.866573511588747e-08
-4.1969810797453015e-08
5.251337317135794e-08
1.7595796555948273e-07
2.8433829067202944e-07
3.1549875517914495e-07
2.0926210621839484e-07
-6.176581696644267e-08
-4.5966741195646507e-07
-8.61990836218314e-07
-1.0730302434370165e-06
-8.777543445944622e-07
-1.365607126093012e-07
1.1021443136002682e-06
2.51667505089748e-06
3.511979314354098e-06
3.3542207309788525e-06
1.4518722111726466e-06
-2.2701678566995727e-06
-7.033814781684074e-06
-1.1096036273651634e-05
-1.2047765386739217e-05
-7.61454590864581e-06
3.1444416293861865e-06
1.8598643102366533e-05
3.3857193806964514e-05
4.12868427469112e-05
3.268199518196032e-05
2.976376615241163e-06
-4.5438054854155385e-05
-9.95609252459434e-05
-0.0001360328330692551
-0.00012663463790768765
-4.9373730769735506e-05
9.706332766085785e-05
0.00028066030899948926
0.0004325032726074838
0.00045932499459746574
0.00027533186427053515
-0.00015117931059168885
-0.0007508028472811958
-0.0013285401418510773
-0.0015869903434375958
-0.0012134471993381006
-2.5049773786509765e-05
0.0018658899504992756
0.003936214577430267
0.005271831185684252
0.0047922177526492854
0.0016877603867478073
-0.004022083032843663
-0.011015179286713648
-0.016561697960917294
-0.017057315389544987
-0.009311108677430657
0.007590726761539305
0.030396292206868108
0.050633002691707375
0.055297635129199336
0.029832529184782932
-0.03690630271911798
-0.14708367645460566
-0.08998388123958444
-0.042023379088959735
0.028313925903538803
0.15170623146382634
0.14839776320279258
0.021447839633452353
-0.04458159717437176
-0.07922175503526806
-0.1179899158999
0.006339361580930314
0.07051810256122175
0.06457593768390948
-0.007209838073190205
-0.12748259207896415
-0.06892202031261846
0.0004988518048531538
0.11041024373759903
0.08061189497174474
0.11578147612010727
0.004551161220612198
-0.0763764044363343
-0.15451414627028068
-0.05326940735597579
0.013878385183883348
0.0449719577613866
0.04721882250215679
0.032439728746032556
0.01243215694109281
-0.004234347960536124
-0.013436835181625762
-0.015008139553834803
-0.011265072710110428
-0.00534155719042931
0.00010119072851863878
0.003534054866170621
0.004620100526376729
0.0038792820517089127
0.00220897706590867
0.000463865552681983
-0.0007947646631212468
-0.0013638284599932808
-0.0013256448959296878
-0.0009120255028998057
-0.00037312247480429054
0.00010693966095068851
0.0004361513359523024
0.0005952716517393728
0.0005986232659770107
0.00046117123417075106
0.00018915581521403472
-0.00020248035944891359
-0.0006571371323410745
-0.001049860034261958
-0.0011913835573530253
-0.0008797078572895984
2.2513939296189685e-06
0.0013697354922831094
0.0028512563527168383
0.003799252225806523
0.003447505379982467
0.001222361516683129
-0.002857798398636727
-0.007842333141461095
-0.011771856930545372
-0.012060465012996324
-0.006423126995714862
0.005774727526215682
0.022131377601030993
0.03638749562262547
0.03880082440772427
0.01807608239986046
-0.03538916002369134
-0.12594644977256333
-0.05037376834860975
0.0018220177683501825
0.04513985804310944
0.09304175912688904
0.1534512480525177
0.027123812732562553
-0.09007711549168994
-0.20207600948367568
-0.10752567824806038
0.0020989984755487665
0.13986839592606426
0.11755342705299589
0.13986844541294802
0.002099065727037124
-0.10752564551843441
-0.20207606353523597
-0.09007728267625416
0.027123555863381114
0.15345098657000136
0.09304162888169411
0.04514000549601
0.0018225333777004051
-0.050372926290217
-0.12594550970483656
-0.035388531404371766
0.01807590681531811
0.038799463416210524
0.03638493202777931
0.02212817753250095
0.005772099544751932
-0.0064235549654737805
-0.012057204707092371
-0.011764374247658553
-0.007831865071943089
-0.002847771265468809
0.0012267499759465164
0.003440819436723078
0.0037783588621554524
0.0028182058081405214
0.0013337593465228411
-2.061869639532684e-05
-0.0008705939097810458
-0.0011362125993745848
-0.0009490884946354488
-0.000533959189660051
-0.00010459504278622462
0.0001988283805182783
0.0003266635824167985
0.0003025386312883836
0.00018974634754774066
5.752242339706368e-05
-4.256817209504913e-05
-8.680869706008867e-05
-7.797583801095204e-05
-3.689808743769011e-05
8.506716683788388e-06
3.3431647669525594e-05
2.387588451231636e-05
-1.890445051496923e-05
-7.767079320756816e-05
-0.00012282412449853122
-0.00012088126046291043
-4.734056977070665e-05
9.852704870948213e-05
0.0002819449848651003
0.0004307830735281641
0.0004500318503955476
0.0002551217064492878
-0.00018102051414231962
-0.0007820139530717025
-0.00134618529638607
-0.001573496854642107
-0.001156287759888417
7.37743495315943e-05
0.0019822487235065444
0.004022934898004704
0.0052687174901405115
0.004648330026019814
0.0013920235035325716
-0.004412214547610366
-0.011362252611741128
-0.01666960065416345
-0.016733921182544437
-0.008465312865445019
0.008845450617906103
0.03167905688246244
0.051327971006091065
0.054721050463783893
0.027530019354692015
-0.040803192693052937
-0.1515832785255556
-0.09322578077407621
-0.04169420232675353
0.03409850305692371
0.16321742225493907
0.16321742044624676
0.03409849706658961
-0.041694213579810055
-0.09322579732777388
-0.15158329762292863
-0.040803207869063655
0.027530017384007604
0.05472107064224
0.051328016950159726
0.031679121641334365
0.008845513724337397
-0.008465283240998748
-0.016733959103352142
-0.016669726822165633
-0.01136245629547389
-0.004412440540934879
0.0013918735291827532
0.004648374091983404
0.00526904655102309
0.004023552272628679
0.001983017564043236
7.440370944599697e-05
-0.0011561889887738474
-0.0015742853276239097
-0.0013479874420086774
-0.000784530026674769
-0.00018342494737357278
0.0002540786567309915
0.00045165440870412014
0.00043581881972557445
0.0002898933362060781
0.00010716148175924744
-4.1877037933233485e-05
-0.0001231216494609934
-0.00013613592778102284
-0.00010191990846773172
-4.848883542545335e-05
4.3917979664478297e-07
3.126092505311252e-05
4.101511498494276e-05
3.4397431157091864e-05
1.948418257121258e-05
3.972333478958675e-06
-7.081287619718703e-06
-1.186721664033207e-05
-1.1194960215669487e-05
-7.2787249412197805e-06
-2.53107996014273e-06
1.2621940681623856e-06
3.268761533714103e-06
3.5191118321387004e-06
2.580169838749647e-06
1.1815024109663758e-06
-7.191115137490063e-08
-8.425708175967064e-07
-1.067462135418155e-06
-8.768978299539392e-07
-4.828814181414714e-07
-8.299727629748685e-08
1.959055886836753e-07
3.1128991972688953e-07
2.872299701771134e-07
1.8244071731889056e-07
5.924684923957239e-08
-3.717736034566891e-08
-8.659585446691269e-08
-9.086206910650142e-08
-6.522837100716291e-08
-2.8669075405386148e-08
3.4031539835450857e-09
2.2635307971834185e-08
2.774597476984675e-08
2.2327793284656106e-08
1.1937127449647138e-08
1.6402510056088223e-09
-5.386454027085506e-09
-8.152889907484322e-09
-7.3610433570536994e-09
-4.5646513138825494e-09
-1.3718915366904205e-09
1.0760820085528692e-09
2.2894601753622755e-09
2.3432998665315783e-09
1.6466660011279516e-09
6.92406510752857e-10
-1.2730039549202005e-10
-6.062652592470688e-10
-7.202760222946062e-10
-5.678147207352409e-10
-2.9428750723863754e-10
-2.9449917146753185e-11
1.4730633370235226e-10
2.1321302236483843e-10
1.884295158027605e-10
1.1399093049474311e-10
3.134548941573887e-11
-3.072180308963081e-11
-6.041434674877112e-11
-6.03632427258168e-11
-4.1508114502949714e-11
-1.6634457891337806e-11
4.291118129096803e-12
1.619346508304759e-11
1.867501132119497e-11
1.4421842432218695e-11
7.233603952012206e-12
4.2970814832248866e-13
-4.009371861729832e-12
-5.5679234497461314e-12
-4.817857047900122e-12
-2.8409282132444507e-12
-7.041724734614198e-13
8.674173171383457e-13
1.5913431317992321e-12
1.553180636286724e-12
1.0447153373035997e-12
3.972235861152267e-13
-1.3633124487162391e-13
-4.314178381505457e-13
-4.836008427705452e-13
-3.658173396055156e-13
-1.7721731699337314e-13
-2.6192056866225585e-15
1.0867523388818146e-13
1.452105557093234e-13
1.2305024365021248e-13
7.066107439294387e-14
1.548120619372766e-14
-2.4257963104764016e-14
-4.1835522363475715e-14
-3.990944245529586e-14
-2.6243254006776336e-14
-9.410107612389893e-15
4.1778939594093986e-15
1.1475482999814401e-14
1.2517310657779517e-14
9.276007117091028e-15
4.335320958230459e-15
-1.3999925496999098e-16
-2.925346025705333e-15
-3.772839257314417e-15
-3.129907474361568e-15
-1.7444083858938068e-15
-3.2109191067151144e-16
6.823268925975535e-16
1.1071686654685156e-15
1.0334457954442514e-15
6.672503298439019e-16
2.3018511616684084e-16
-1.154340651745719e-16
-2.954188191049531e-16
-3.144762066542843e-16
-2.2576579000591e-16
-9.652851983441759e-17
1.805211934026696e-17
8.762939037286627e-17
1.0703462618999932e-16
8.864219361397461e-17
5.2068310152015336e-17
1.5394986507300097e-17
-9.904583763511832e-18
-2.0116409304439406e-17
-1.7594561293073646e-17
-7.799515688404234e-18
3.544036303655789e-18
1.2327956208645071e-17
1.6747308349446623e-17
