0
-1.8160299201435788e-18
-1.8059413621052336e-18
-1.8041965764261697e-18
-1.816498409802741e-18
-1.8449373846407236e-18
-1.884864746025434e-18
-1.9232717685527666e-18
-1.9403483104542945e-18
-1.915297864431574e-18
-1.8360139433806774e-18
-1.7100903378781415e-18
-1.5725134077239739e-18
-1.4843196539404465e-18
-1.5176361132822195e-18
-1.7265721132271354e-18
-2.1100951592230725e-18
-2.5805337444448638e-18
-2.9564955193100703e-18
-2.9978623091555534e-18
-2.4900384959462968e-18
-1.3645217847674252e-18
1.8254050729613162e-19
1.633405633703223e-18
2.217224650126441e-18
1.1430203274445695e-18
-2.0221877429591504e-18
-6.932209957158581e-18
-1.2180040903025836e-17
-1.5375527235777117e-17
-1.3752629853029873e-17
-5.3144033012529636e-18
9.736466834851781e-18
2.782081709942859e-17
4.1787071603472986e-17
4.236213178968117e-17
2.1489933136694504e-17
-2.2991973195185048e-17
-8.286588842723828e-17
-1.3755884046844177e-16
-1.5710994090583546e-16
-1.1148662649750792e-16
1.4656341335859245e-17
2.058894810876194e-16
4.057499231917753e-16
5.207503045992753e-16
4.449609041502228e-16
1.0499183509172495e-16
-4.849519349612279e-16
-1.1792282859172292e-15
-1.6962428744070565e-15
-1.6783131422367286e-15
-8.23776928234367e-16
9.318268730776603e-16
3.2463118435192625e-15
5.303449000605173e-15
5.940070516340033e-15
4.017926244045308e-15
-1.0009025944725316e-15
-8.440456167633715e-15
-1.603944875294089e-14
-2.0145499816478828e-14
-1.6707660043876293e-14
-3.04145229842887e-15
2.0055025665388884e-14
4.6673024104814557e-14
6.573870146172265e-14
6.347253860409634e-14
2.8609681197516595e-14
-4.05889426576926e-14
-1.299505163019365e-13
-2.0713920699042922e-13
-2.27049483924938e-13
-1.466230282585908e-13
5.274306693870773e-14
3.418337615295706e-13
6.302587610155406e-13
7.75490509167424e-13
6.228423171222829e-13
7.464328283689126e-14
-8.285339548013382e-13
-1.8476273256708063e-12
-2.5476901133219624e-12
-2.3985432089353393e-12
-9.807813348293555e-13
1.743239724420289e-12
5.189265404225847e-12
8.078104471321865e-12
8.662675304589076e-12
5.317421898335803e-12
-2.5900448847048934e-12
-1.3810829434437646e-11
-2.473827423595473e-11
-2.981686920952343e-11
-2.3148935239489297e-11
-1.202503842289272e-12
3.4074931763167045e-11
7.30357278706761e-11
9.861722126159019e-11
9.044661758569141e-11
3.295977793983083e-11
-7.413739338844531e-11
-2.0686080676015407e-10
-3.1467617819887293e-10
-3.2999270204639624e-10
-1.9157291435536559e-10
1.2160067754056751e-10
5.56622868557353e-10
9.698313929318616e-10
1.1449281308027563e-09
8.574147150398017e-10
-1.9530205253013012e-11
-1.3958562932578486e-09
-2.8831409439249944e-09
-3.812826604307177e-09
-3.403099275521273e-09
-1.078443337733758e-09
3.126991750792956e-09
8.232352429496353e-09
1.2243967379759507e-08
1.2549994749272102e-08
6.848780712392742e-09
-5.536800274458325e-09
-2.2382718933166542e-08
-3.7975913684098706e-08
-4.3904650406686315e-08
-3.16375871674107e-08
3.341247006990111e-09
5.697625247476163e-08
1.1366372811768329e-07
1.472387873791661e-07
1.2773985818017105e-07
3.3970584991605384e-08
-1.3096661235958495e-07
-3.2709570611729183e-07
-4.758654003815388e-07
-4.764703790812397e-07
-2.426131042564785e-07
2.465463994781474e-07
8.98126622038499e-07
1.485290816349831e-06
1.681284564868118e-06
1.1624710779052935e-06
-2.3036505192819478e-07
-2.3181182902638795e-06
-4.475256715278913e-06
-5.6789759888600755e-06
-4.782666999926386e-06
-1.0091258833601391e-06
5.4520113048189004e-06
1.2976540875509576e-05
1.8473461553479228e-05
1.8056902197934454e-05
8.499783751077807e-06
-1.0793433250634812e-05
-3.596582862950692e-05
-5.802443831855043e-05
-6.429103369274351e-05
-4.251114421425363e-05
1.2860752356378197e-05
9.403421535043357e-05
0.00017598151246877647
0.00021876669683631772
0.00017857359800259646
2.7047045977026433e-05
-0.00022575913413801576
-0.000514043091290286
-0.0007163255366347969
-0.0006830003340793185
-0.0002937380610042124
0.0004662191284868785
0.0014375053221171346
0.002264098619166724
0.002454623888827434
0.0015459394869984358
-0.0006522407382488373
-0.0038052039904532403
-0.006913454877159799
-0.008419363964537888
-0.006650658617573999
-0.0005775774272170198
0.009307627459892184
0.02035165099144266
0.02779664663726079
0.0259089118952942
0.010246527298071092
-0.019390592143550243
-0.05638864186749984
-0.08662194710969273
-0.09108411173424703
-0.052535673566623364
0.034672061529791354
0.154399625406124
0.26261862580440787
0.2902527317971808
0.15798376047953022
-0.19822247849938002
-0.7978033386034583
0.006034434719313695
-0.8714046389326096
0.1306624040044912
0.9743742861692943
0.9727488366964614
-0.2471579830564946
0.4482826680729175
-0.4756284735523387
-0.9751393343259588
-0.37894700745659304
0.04438623935551078
0.2924765359541891
0.41109053712484345
0.26406608297787115
0.10552032052000265
-0.03570031341353894
-0.15678895040073285
-0.27101748661873115
-0.1944910523793415
0.06336912281101523
0.10201875335722116
0.12551327192553538
0.13582119555323008
0.12839662366908675
-0.10714310280444303
-0.1814455841602692
-0.09794430541072693
-0.04758672511417563
-0.008803935950213945
0.04681947004082158
0.14535591936251382
0.10156447769724204
0.11387382508001052
-0.034480986147752773
-0.16851458962946425
-0.11162023174899034
-0.07695290336978011
-0.06359897969391008
0.14121530197428872
0.15535816093500673
-0.006199435622878212
0.0628536327404927
-0.04141223062746113
-0.13075374625593314
-0.02013999927257586
0.07684729301625716
-0.04893585573208127
-0.0011141443489177862
0.021701440535190606
0.024482295215525553
0.014088757974803414
-0.0021525844486073673
-0.017367620171876413
-0.025707209650094532
-0.022988536949749127
-0.00777222279627993
0.01711225397928246
0.0430796852832724
0.0552120825440369
0.03346925251458201
-0.04394179670792615
0.004434619516250278
-0.031499576744730716
-0.14993938439222515
-0.13724034052798822
0.027681762902835378
0.16562755058032608
0.28928456307695877
0.3997502909134549
-0.5093596673744062
-0.2408550351524683
0.418966517341604
-0.8919295716765777
-0.31419937170882883
0.8182476234006214
0.5565438074916482
-0.08230697323180097
0.27774300925840895
-0.4189136324148345
-0.4388513209449666
-0.2378661955268918
-0.248348056050235
0.5194606501750598
0.46527048049813857
0.18431514461519177
-0.1402891882130456
-0.3345414782608605
-0.2229952343767201
-0.017731245231852353
0.08698859786568697
0.11246814871595573
0.08801773111172685
0.04227851108183407
-0.0030174446538383404
-0.0353096524681542
-0.04999980582162067
-0.047532034308336905
-0.03075038030029709
-0.0038973091993428997
0.0264591017588144
0.04935841656646887
0.047718192695383674
-0.0015176778699640108
0.07562845794253281
0.056043572282035645
-0.07286510335441518
-0.10610821483385671
-0.2177552877336073
-0.1643813217733063
-0.09677448581754829
0.22195445542503695
0.3977505559002544
0.5951812714406848
0.14321169668244665
-0.24019623166634496
-0.6108449847167079
-0.7626645117071914
-0.41029176190666816
0.1994032026292021
0.8483871258997056
0.6954038067860105
0.23122000267687737
-0.34248568744549923
-0.30602073249065304
-0.39399733487986194
-0.16079372990272656
0.24883113515629035
0.3184149929196076
-0.0314222485052747
-0.24053115732661495
-0.11075090430926676
-0.011364496253773526
0.11099464707279348
0.1191307412220021
0.07187822581557207
0.014046697371720622
-0.028081193475841
-0.0456421694575981
-0.042182608833200255
-0.027200246032334733
-0.01043401381044728
0.001756610230186249
0.007563326787314578
0.008865131377589297
0.009169194630762037
0.011302421386563191
0.01568343434014657
0.01976152191939135
0.01888576612666146
0.008469266381243073
-0.013153218594736197
-0.042248878841618646
-0.06899760891974255
-0.07996960322458191
-0.06455990482506441
-0.024936414204157435
0.012675097948058383
0.18937951666808198
0.41297619423230203
0.3704144042892689
0.1556913057723692
-0.29031083395227875
-0.9391844411330255
-0.8504861776304031
-0.37966713225808685
0.17481182199922662
1.0945878761719101
1.359650318780328
0.5929693593306966
-0.14513804180508494
-0.7092836877635098
-1.1866341122527213
-0.8123878465521372
-0.11442335362594447
0.49632340538699454
0.6936623284542229
0.5822088716849824
0.2467975928607029
-0.07616617187850613
-0.39974734472803364
-0.3666548126878144
-0.22206356518597742
0.007844240521277605
0.12433136928595392
0.151554517566687
0.1242780707143642
0.07475422600705547
0.024157949601238817
-0.019124816271217086
-0.05518314374174254
-0.08527113718585011
-0.1054374223493052
-0.1046353880620583
-0.06934377852025594
0.005597030834538571
0.10289650029290007
0.1707731988830624
0.3194449492921839
0.431865045122613
0.19109227865086403
-0.2793354538762463
-0.5732950248551953
-0.9758518408144078
-1.2714204785805876
-0.19688985286165583
1.0667784463941474
2.592319388997935
0.43626321917861743
1.4418304910938313
0.13164652192844872
-2.1285117342814766
-3.3468647296999747
0.02858148245864522
-0.6610342595918013
-0.3827109168162546
1.1882858159253575
2.2234157489495
1.724340038775738
1.4017727721555766
-0.11122800578114589
-0.9147293377242851
-2.0116902564414056
-2.064405234088426
-1.4115546213195922
0.6045726742517632
1.3922523877894308
1.3786880568193036
0.8493899914162593
0.21390025778592103
-0.2686318351464905
-0.4989608378702226
-0.4995208331270907
-0.35552186107766126
-0.16049106181841555
0.017934533555585882
0.14758298822411092
0.22173193471012317
0.23979153310938497
0.18967064886840398
0.03980648291795641
-0.05633605351428066
-0.14601160673384955
-0.2600458336866659
-0.40117889860417805
-0.3446397223037877
0.14714382453950015
0.7009597446243526
0.9125449389779979
0.34426255685990387
-0.05024649787213786
-0.4783335895872142
-1.4559244898267054
-1.1770811510321804
-0.12848014212620157
0.8448180638757562
1.0393086236356264
1.5944494852391944
0.6349909102835567
-0.12056197524337214
-1.2862810156691882
-1.2971868086896152
-0.9012444189098268
0.10772262429953883
0.49899694281709767
0.9637050644239392
0.6490754163579017
0.09762125222946405
-0.3888620821490006
-0.35618968099793896
-0.18430224863047212
-0.06722672396191065
0.0023052093551020596
0.03857532579794766
0.05959772190416734
0.07876302107568557
0.09625768352715375
0.09442200150547235
0.03952396688520047
-0.10982510557117671
0.010295343798119179
-0.01718983566230001
-0.18040185753367574
-0.23633527030406534
-0.11906572428685103
0.04165722206548129
0.0951894546436775
0.4458077223438994
0.43942925564464097
0.3698777355571894
-0.09209425434869103
-0.45254792189004756
-0.9453534806304141
-0.49963265708684385
-0.13964856592959143
0.1780852075575264
0.7006688282079974
1.209892447223013
0.7742280862744819
-0.660172768468942
-0.8379673303096173
-0.7390657860093058
-0.5249410639474296
0.09162479886128405
0.8464545257096728
0.7026838102613869
0.22627064744041636
-0.2258762974916601
-0.7000297089165368
-0.22868375930816026
-0.014740696990738019
0.1736694698767879
0.1957628559744581
0.12271638779003052
0.02130718494733502
-0.05813058086348446
-0.08754266930500987
-0.06173824506193845
0.00420658163331898
0.07917559336195874
0.12158644761620843
0.08690391360805086
-0.06261528670706763
-0.14713007273487558
-0.16033017668844796
-0.06617255544276612
-0.003867453662927076
0.0988765979126339
0.1072358054999736
0.059992035423512974
-0.045607642540342774
-0.06137890715354977
-0.08634993340564537
0.3452069339351803
0.4864337672416676
0.4111970461407762
-0.5451605939964441
-1.1471161652845696
-0.6378084062536613
-0.15055671158213452
0.4419614783254946
1.0520948661233027
1.0996653999569317
-0.14060291563317784
-0.5500602039808324
-0.5363694314545022
-0.17860837949461272
0.03252276691216138
0.24427160543980483
0.07469839961472537
-0.37155056464254305
-0.30311013097252937
0.14397540418807742
0.2804853919860445
0.23239163654759737
0.1116290511035814
-0.00329134247401343
-0.0734054514832592
-0.09353954787129473
-0.0793458125729957
-0.052733180307177996
-0.030306662605819715
-0.01746495139584392
-0.008729989759480862
0.006806460237583639
0.03718314952247782
0.07930731905240376
0.11371653011835967
0.10478896683055554
0.007455318831020144
-0.020656189654092227
-0.20509452899433925
-0.3436827035166279
-0.004112692373504508
-0.1330312752683161
0.12469530123631485
0.402634008450389
0.4946409994045635
0.15101574640966822
0.09358753631133593
-0.5534811848667979
-1.0284916293884776
-0.3078502653460423
0.2958966076049525
0.9130002230814501
1.2840858727351399
-0.6667464188661055
-0.8427782010018396
-0.7724831975600552
-0.20703933996427337
0.27186588876460704
2.235447366606251
-0.20422971409171786
-0.5872292257056265
-0.6766037531778774
-0.8195875169268418
-0.5186771736445797
1.1742792368710895
0.8425226114326789
0.08136770383981484
-0.31621892227268494
-0.3581917019734351
-0.24076635688652523
-0.13547842679661812
0.014701859791595896
0.08702935790967858
0.16153398741326358
0.30137657368972853
0.13848952962418698
-0.13041612682908768
-0.13672426787958736
-0.12531776874433134
-0.1385897674355736
-0.004662235138042566
0.06723298877344057
0.08447798270376196
0.06453613646157866
0.027565450394681206
-0.009186995541487082
-0.034138395628762024
-0.041681964124035235
-0.03128840747628701
-0.006642724712146617
0.02453066881743373
0.05010814758655808
0.05341700701762295
0.014095811249418087
-0.0897845944760913
-0.07895755144412923
0.029228477190850668
0.02138302641160276
-0.11312622003132039
0.015732339002465425
0.19733554589854432
0.22201370284804478
0.08753259839895242
0.01071947576723485
-0.3587687467922509
-0.5290089553692152
-0.3684297338759439
0.07481388358693558
0.7392973449346434
0.9136023992318958
0.011507937801927768
-0.4299790824584948
-0.529827408019363
-0.43041497344253893
-0.06797255430514715
0.4441143859167477
0.418593541232953
0.19095879575667812
-0.28272215762057434
-0.4234308169646144
-0.024857340215135724
0.14776735981541772
0.15263816784882192
0.06112534439689857
-0.05441795153466533
-0.13210119849883722
-0.13040744191401835
-0.036839771250044354
0.1251934253576247
0.2937702400499401
0.37428478078413946
0.2573120337199905
-0.15171749029093654
-0.8976466527430819
-0.5481205504935218
-0.18734897980270643
0.1613010044597889
0.48808738164924836
0.7406568231207706
0.37947648548702373
0.16196995076787857
0.16168140100891162
-0.984592248615002
-0.6196822131980867
-0.42108418436441325
-0.18549561338487258
-0.04782907618277535
1.2752542818966477
1.038524061485276
0.4417717484722915
-0.36145597105485017
-1.0231421378882397
-1.3493937882613105
-0.6675706686134588
0.16647662166014277
1.319548258526545
1.1112620995968359
0.7560005250332706
-0.055445740473946376
-0.7256771355557956
-1.2858446208020584
-0.5248093797636507
0.05911725509963406
0.46872545136778443
0.584061883676561
0.3208319701319092
-0.009579286584883885
-0.12554409725964458
-0.18307755231595657
-0.17093376013053987
-0.10063482895457593
0.002216547024891961
0.1026216144928789
0.1578850186254195
0.11962983772683657
0.13950245296296138
-0.020074217329781853
-0.17199000800943248
-0.2924488560871381
-0.317580498884524
-0.3541691803506238
0.09448479184334604
0.49349662165112085
0.8449843695140123
1.0763071162590956
-0.3403916754941025
-0.7382379207769261
-0.9923446569489474
-1.2711846812223966
-0.8286242149343572
1.1535240743500768
1.8866890930296247
1.495151767866107
0.37291626302597825
-1.2006335315844303
-1.3952614638580094
-1.5495559880247451
-0.5171620890353141
0.9351472492100419
1.6811835907828985
0.9698175109609809
0.17713070470782688
-0.5996172299859578
-0.9063369998157007
-0.6757392506198073
-0.1781942405901879
0.19985918214606446
0.3449790067383339
0.3824079133098254
0.23450890168166227
-0.013060067910336206
-0.12887437667806498
-0.1360162615298468
-0.09952506301409852
0.09278567448606323
0.1511084655130067
0.003046948844832092
-0.1902335097394031
-0.22334562381389939
-0.04434049936372357
0.037336487037680846
0.1333010527713828
0.15292377938683846
-0.02020422336737102
-0.14697184214565262
-0.0434139176433269
0.21821075948663768
0.3190163566884409
0.3147851776164453
-0.13163795908349074
-0.31167904805789015
-0.636258518502085
-0.6180129398884311
-0.08098328515934555
0.4005552868723674
0.844331527622591
0.8028008614000525
-0.07319979387795361
-0.4380557319397982
-0.2244478768610612
-0.5998672279733976
-0.32435020902943673
0.4773333547363713
0.3249453981976323
-0.02204605979111807
0.02485916853497652
-0.1268093020299786
-0.057498559414070616
0.0596691480646743
0.055205546213590154
-0.03996024936346437
0.002952111392682526
0.008885788489246857
-0.0019497246239364874
-0.014487829556174647
-0.019061631880766056
-0.01177988286343294
0.00486230995077863
0.021299135692903346
0.020602663016883366
-0.020788617578645387
0.0692185757953715
0.062455498096872106
-0.06387608426692068
-0.12092772078850822
0.09715489717128184
0.015904499121103564
-0.1208505978243169
-0.2571601735810435
0.06405314888110805
0.08647085073676994
0.22580251261965345
0.2605691333448829
0.3335951509392699
-0.23340605294788586
-0.5149627478482868
-0.15464811709507897
-0.14551891566332392
0.17465843766921643
0.11229109557789699
0.19549315138702478
-0.25263562960320074
0.061464006597921825
0.18389661346881828
0.3048250211557769
-0.03884887510905285
-0.1497674889431711
-0.1486713451002576
-0.3514639523226414
-0.05156577392059156
0.2882587858948085
0.23487019152473895
-0.02147532023132612
-0.07377400255692913
-0.1027954503843014
-0.07991193020310176
0.029919497239849983
0.06382704773045246
0.05574552615336786
0.031757209240142074
0.007679474265752981
-0.010352137089342529
-0.022731901646611343
-0.031986044300542096
-0.038813168944385315
-0.04007139487674821
-0.029615094145793868
-0.0019843503923468956
0.04207668059205652
0.0902098198587985
0.11554798047511354
0.0784161478507126
-0.0665945244146451
-0.15942868000632826
-0.022419643502648027
-0.051162683491802086
-0.011601975762179707
-0.0447227500135155
-0.0783462660770777
-0.04399382942552084
0.10452980946469201
0.1754453492475409
0.33162509263782186
0.2963585504619206
-0.02587013327362914
-0.31700963274279176
-0.6108855527104298
-0.46951764523060113
-0.18172476472640267
0.21215926153961528
0.6765107934982235
0.9337964593471466
0.4338007144797137
-0.6492123518614267
-0.7927615289009607
-0.6904051770502686
-0.023408796606803842
0.14736205430508542
0.9700153757256299
0.5832081248171446
0.1066218512059175
-0.7504009380510613
-0.4650177859487267
-0.2746610844572427
0.037361098359967676
0.13713473978206725
0.3187745257626631
0.2758849030216224
0.0768982513908813
-0.04784845055304206
-0.10508837737793515
-0.1267858792029395
-0.15361277703214593
-0.019954053343371695
0.05543762536466931
0.07198239960636157
0.044342807109096785
-0.0035295889767847383
-0.04523835104495971
-0.05856265991182795
-0.03153594997670918
0.03230047028802978
0.11040851610017938
0.1612293427490557
0.12937642149025919
-0.043466627661692056
-0.2039701030596731
-0.37367435903206075
-0.34260126584302475
0.125882696843663
0.4798539524141703
0.3602669286607624
0.38939780041271344
0.1744545578901014
-0.47292424187622994
-0.7098390905746802
-0.6429518376225829
-0.33147742958019666
0.18174619503115239
1.0189438325502937
1.2161404479141193
0.6964153108304181
-0.7160576853066812
-0.8432248815089135
-1.0829322250724336
-0.7516942541234849
0.13560179661713484
1.2435264166538893
0.8662869007151325
0.27653341811287957
-0.3040867723778504
-0.5040903736482213
-0.3785896180504474
-0.17908012935006856
0.06877683350278238
0.17242806616611064
0.16609706167341842
0.09714343245373591
0.012036963083699363
-0.05354461332096918
-0.07929768757024151
-0.060815462091217576
-0.008140356289208022
0.05618654690433516
0.09939788387215094
0.08190802301275303
-0.03732146532409623
-0.0936996575923695
-0.10993803107481315
-0.09160403838710046
-0.02742157325022
0.10533794324368506
0.13228553014950362
0.0736752772521754
-0.05989759633646954
-0.0656490380540605
0.25964916565322627
0.333047253979912
0.2012772976845024
-1.245968872643857
-0.67378492402378
-0.3200404087382772
0.563523560182212
1.0573683402413776
1.9301156121970933
-0.1708291194268512
-0.8821123909026749
-1.4518060726446915
-1.2622377138051275
-0.18287377717339137
1.2276923582300017
1.0769645550687654
0.47724344737106883
-0.10236480211102061
-0.4532513125586867
-0.4148363190469892
-0.24608971685198877
0.0026670247966673593
0.10688148569607715
0.07111335173569643
0.1220684114115155
0.09726255237787962
0.03461113810428852
-0.03405360268415563
-0.08518714599332326
-0.10318287682801505
-0.08003203921423538
-0.016937498849412206
0.07192413911332061
0.15538423011965824
0.18432970320888398
0.0970544437389381
0.03221364538543289
-0.05266529018130057
-0.3627587671748121
-0.6555884585487429
-0.24615629676346723
0.36969531958246454
0.6792209258629845
0.9175308338296342
-0.3510960343926649
-0.4259824219232149
-0.23917719429230205
-0.11269273964915738
-0.11772134303754239
0.7546168043972601
0.0071521064271812245
-0.9660037938265478
-0.900945581047272
-0.3073669887796542
1.2682955589735678
1.1739095518861729
0.8010792724620112
-0.2243139943103353
-0.8031711233964306
-1.0893459674176067
-0.20810404968973029
0.2065845407634183
0.4418475644695534
0.30388843024779155
-0.30571375110696375
-0.4247427593614722
-0.06947643211362531
0.5259507693640919
0.47555767859863274
0.22095495242950428
-0.06899025234143354
-0.2777864136782978
-0.5078199286565668
-0.2462566917431483
0.057958851649036386
0.20020477608008908
0.2111764048847341
0.13992282943545004
0.03706250915332665
-0.056418733634839624
-0.11353899779769713
-0.12095544618531401
-0.07727704599040518
0.007329148354331154
0.10979711552279191
0.19300800296185414
0.20805414578492287
0.10251160082140419
-0.1654384980419885
-0.4111637100233159
-0.41334230787147413
-0.3167556357285431
0.14885778524055912
1.0386942016663652
0.16386591505265197
0.2781810719539395
0.09012372655842374
-0.3012278713235449
-0.9582394170014387
-0.0625093139237583
-0.09503936920078702
-0.047701885287187745
-0.06427896736808064
0.09966198441045093
0.8140303774727047
0.5260951715687585
0.14180864875773375
-0.15637403616657838
-0.25957930642870336
-0.6655198497893973
-0.4145476171990342
-0.04662277460782871
0.21125336386578736
0.22833169366338363
0.1339464455806308
0.07517082098340822
0.18005538033009327
0.1340202685362635
-0.027696749213065936
-0.11289548376595988
-0.15544298452118058
-0.19542571052190202
-0.06325324719798406
0.02779784849468649
0.07973131105798206
0.1012365822665573
0.0969019132680193
0.05882084550738114
-0.03637065316005472
-0.024273199309730004
0.05532461994737252
-0.03136780054563765
-0.10303017310743236
-0.35838006567960806
-0.17807328201827616
0.2662624993731841
0.3992278309484711
0.4322048078063295
0.16511635092484983
0.003075427108143491
-0.6162348391403067
-0.596322312712051
-0.5719482802158875
0.07316064248341128
0.15993191602453943
0.6506070319408418
0.9895582710251903
0.4709898466821635
-0.15140732066796533
-0.4124805173217337
-0.6569003652193675
-0.9594372581899661
-0.26988713287633864
0.40175831022298775
0.559963481606112
0.3725062016367132
0.21451922333167783
0.02571245573797781
-0.11026734855158755
-0.16497904340554528
-0.14985426846773192
-0.09552822352727897
-0.03361079762947988
0.014584327784576604
0.04137893230548334
0.049853367541128825
0.04782386857516527
0.04183911290787267
0.033571351193514676
0.019736572220590533
-0.004665618370092103
-0.04120701382757977
-0.08326911505706142
-0.11428480950903777
-0.11116083737534181
-0.05368096521073197
0.061540788939548646
0.2065793064281095
0.3132203172133654
0.27574886298399387
0.16929522479136416
-0.3176506865551834
-0.44438939273258876
-0.38559239780937166
-0.4185814127755351
-0.13842020932728658
0.5004529436710039
0.5275016209643366
0.7024990790365283
0.2831786019643199
-0.37560502765772413
-0.5934823985620401
-0.3205875338611647
-0.49623692286222504
0.17546208389538276
0.42855881034902443
0.422465573244289
0.12492674440034923
-0.09863024511620744
-0.2848116821032642
-0.06345920412556177
-0.046636346727164685
-0.02137757202620313
0.05069643804138357
0.02683808653152765
-0.02848297304086642
-0.05792471986903214
-0.0259389151534489
0.06856868528468053
0.18422509089380926
0.2367550606705029
0.10838363889956645
-0.1330500531711858
-0.40916265992919404
-0.40755476408354696
-0.3675678276554014
0.3209369357496772
1.109489904346936
1.0842461897066968
-0.22839533682478097
-1.2422243604718177
-1.4916145155117189
-1.2360949751483041
-0.1079286123388995
2.400435114207802
2.439641602206452
1.1434291854365695
-0.75891184353873
-2.056000670903776
-2.7311855667074
-1.0598857886597257
1.6278207976331138
1.7119548890454022
1.4064160496443303
0.4907068392024606
-0.3138730302142585
-1.9175313937433034
-0.8074806628150891
-0.0001566006149350559
0.3739338045015184
0.44755930726957094
0.37013031310194894
0.25888916053007316
0.16655407764776067
0.07494400482375174
-0.08586487499202222
-0.2013634504955048
-0.33293656409256206
-0.4896590246092696
-0.6240615965057621
-0.25780634195463775
0.4670639460781527
0.9276466160356629
1.176117465695468
1.1385897718780182
0.27211849575957536
-1.3269115904357287
-2.9949229099896217
-0.8016593790939845
0.27812221844296714
1.1065940291431333
1.6595955773721809
2.4835996522661006
-2.022490771962341
-2.679579824086358
-1.1628788009437314
1.9802343766143335
2.1217565656268524
1.772580039225761
0.45870967912555105
-1.3364296849212902
-3.3916462364670465
-2.38809354490703
0.5695316917840821
1.721111588848754
1.7268299516611472
0.9053331740330861
0.09500402539222774
-0.42326570883052667
-0.5357345714627735
-0.4565743878698305
-0.2680252607336391
-0.06470088798253731
0.08351831531094886
0.14651769758874086
0.13119670850020923
0.06859406545924088
-0.0018164168545402887
-0.04581622734593237
-0.04404856325261729
0.002651180055888753
0.07177942957272626
0.1213562245269857
0.09582102540180061
-0.06490380473610265
-0.21524811860376655
-0.19651085930416995
-0.23634128316563804
-0.1576277280988309
0.2049436119300272
0.5876348305618484
0.6906197104573955
0.3917923563593412
-0.41442044856289
-0.7604735409883981
-0.7496301153946785
-0.32281283921863235
0.13527698353211118
0.5479374551861608
0.2672791987190093
-0.016868777256169313
-0.16112343899080991
-0.43227563996167806
0.8577333509534888
0.7518673888416836
0.6885821303662489
-0.41616799760951234
-0.4556761786149226
-1.4117101217995318
-0.6577339490140138
-0.3134518287955646
0.5379617282919129
0.7797300264166431
0.7651185235533345
0.4269813297926556
0.01807363073807527
-0.3083970338385217
-0.4847297093364106
-0.4987009669420561
-0.3673074950803784
-0.12833871849924633
0.14679657393788947
0.5270661875712751
0.599147171244811
0.4670271896081646
0.38799345086508147
0.6481383903173465
-0.133928681763494
-1.3013259318059103
-2.48895071022045
-2.0296267591747763
-0.8620331862918957
1.2685215356165451
3.771275400049314
9.024191673242163
0.5327997042270005
-8.527076568107619
-4.635351485858365
-1.0524411125224646
-3.4774878988520532
2.899373925949955
9.193863576736243
2.5907159303035865
-2.6019411777205157
-3.743708985853681
-1.9266656713166044
-0.6017390482154532
0.7487217315595024
1.0543689411036694
0.6270538045317389
0.09298969504645749
-0.0791059685363078
-0.23436023157435038
-0.16772505248063535
0.05728632411931667
0.30282135649709796
0.16173999679779127
-0.027047786940075733
-0.15457504431976316
-0.3138018394872216
-0.17470775500396366
0.030746813167008943
0.11043835051231458
0.10201046575514766
0.055790546571095084
0.016582570544551613
0.009069012683589483
0.029546646169535243
0.04495140777721835
-0.0010836049081547495
0.0237399195145619
0.05635519120082651
0.05560387831674189
-0.18269507998355125
-0.21715267829924056
-0.363154538832603
-0.10916648481557152
0.053833595173672075
0.5963175089900644
0.5192388667330281
0.3412107522747109
-0.2875606284597042
-0.3452385362179543
-0.5825218657901177
1.7335492917995494
-1.9386197167700143
-0.3993432936877256
0.07381834583510039
0.06997844474100257
-1.6420465949315055
2.5871723217152685
1.8048939395242591
0.22073984102974153
-0.36072481240373006
-1.0428088184844413
-1.1055237657760508
-1.2854933832209414
-0.1066660559870024
0.5193448461582431
0.8308413700695833
0.7199383746525377
0.4386981134919148
0.13661075144580176
-0.15717268840272558
-0.3103616687062097
-0.4385651310065253
-0.451580773874879
-0.21343565893813726
0.07293713671990099
0.25560985651773627
0.4065064891503091
0.3905332654523716
0.043652227536226995
-0.2331282955226893
-0.2647750447659567
-0.2855448673304574
-0.12380678241586146
0.20527767357260157
0.2983743048569131
0.15792986055806732
-0.012918048147012142
-0.21107655170259357
-0.2305711050121107
-0.05959340083521629
0.11894207050143514
0.12253032583707309
0.162277766085909
0.037984317827431655
-0.0621366962901622
-0.15695354258332886
-0.06545186846466214
-0.0005901432894358118
0.03363742766011238
0.04144996081823976
0.032021537585330925
0.0155475327528735
0.00015548973378025864
-0.009603240398739204
-0.012717538994805107
-0.010661886195626294
-0.005992581148039843
-0.0011413159591016717
0.0023006838076932335
0.0037701429085575493
0.003528827338779089
0.00227784609512948
0.0007768587092480704
-0.00041484800447830954
-0.0010394941943997317
-0.0011106371775128213
-0.0008093849452847649
-0.00036643115224125765
2.8073289580125714e-05
0.0002689177944786548
0.0003374428253097589
0.0002755721135420774
0.00015049085527122448
2.4418955452596234e-05
-6.296655333858394e-05
-9.862431095334518e-05
-9.04327852103676e-05
-5.705040491635641e-05
-1.8138267394504205e-05
1.2138958698138027e-05
2.75113220668576e-05
2.865929846069641e-05
2.0448979090495207e-05
8.877485070346298e-06
-1.212471276808766e-06
-7.2186980280785395e-06
-8.76809731163096e-06
-7.014347181266313e-06
-3.717430120655103e-06
-4.721538499352347e-07
1.7284878481686115e-06
2.5819328446574262e-06
2.3168284411088274e-06
1.4266407239448573e-06
4.1852165705518366e-07
-3.4986005413038915e-07
-7.269497336002913e-07
-7.38867638746407e-07
-5.16010890816064e-07
-2.1409549828840163e-07
4.369848903735251e-08
1.9318844826131896e-07
2.2753548681091233e-07
1.7831685498259212e-07
9.157059943547403e-08
8.12884309548043e-09
-4.720277252603453e-08
-6.749421056835286e-08
-5.928698393323635e-08
-3.560676802875862e-08
-9.52028347005544e-09
9.95431311966954e-09
1.9172638564517012e-08
1.9026915716173042e-08
1.3001636334229504e-08
5.13496837334528e-09
-1.443790989050131e-09
-5.156216599363382e-09
-5.897373191295417e-09
-4.527381188569594e-09
-2.2487818247338595e-09
-1.0579640765399198e-10
1.283143600871517e-09
1.761863106755863e-09
1.515373907282248e-09
8.868786108559886e-10
2.1265401113298806e-10
-2.8026496282798983e-10
-5.047601964600997e-10
-4.894100091224931e-10
-3.270868973438949e-10
-1.2238477786019955e-10
4.530087126410117e-11
1.3727612531909714e-10
1.5266625841997268e-10
1.1479898063037823e-10
5.5041650519198556e-11
6.748624419405719e-14
-3.473784465309638e-11
-4.592838713562986e-11
-3.8687441671875844e-11
-2.2042089001526487e-11
-4.636646170693405e-12
7.822276382594468e-12
1.3266334981905862e-11
1.2574220600240319e-11
8.21532952516759e-12
2.895539055632298e-12
-1.3734035170115042e-12
-3.6462674690893265e-12
-3.9473956010927934e-12
-2.9070276060065496e-12
-1.3422542981667783e-12
6.639361307657486e-14
9.369978992267103e-13
1.1956759622588604e-12
9.864918431362823e-13
5.464941718452118e-13
9.765407199963029e-14
-2.1680909955445224e-13
-3.481635397167378e-13
-3.226639937103751e-13
-2.058370741352941e-13
-6.764256410063077e-14
4.095278461440597e-14
9.688388032817386e-14
