0
-4.148574613691273e-15
-4.148619020403665e-15
-4.148645356227945e-15
-4.14863015347999e-15
-4.148556794079932e-15
-4.148427674971422e-15
-4.1482740637725465e-15
-4.148157446950507e-15
-4.148156768111748e-15
-4.148339655799538e-15
-4.148722527285555e-15
-4.149232773225898e-15
-4.149692867079596e-15
-4.149846956273338e-15
-4.149441488217601e-15
-4.148351500687062e-15
-4.14671684334598e-15
-4.1450269622795635e-15
-4.14408260852292e-15
-4.1447819042051145e-15
-4.1477342485790865e-15
-4.152792411109622e-15
-4.158685918019283e-15
-4.162995200035373e-15
-4.162677030168625e-15
-4.1552022919045245e-15
-4.140100780181828e-15
-4.120387983153517e-15
-4.103102198317814e-15
-4.098170892764071e-15
-4.115195227638766e-15
-4.158529030542593e-15
-4.222087433854753e-15
-4.286286667613457e-15
-4.319860121694186e-15
-4.288486026146877e-15
-4.169928543797947e-15
-3.972011051430387e-15
-3.746207934694053e-15
-3.5876134587764934e-15
-3.613395888471803e-15
-3.917867237071701e-15
-4.512738087732893e-15
-5.2734019715556626e-15
-5.921221094436428e-15
-6.07143963232419e-15
-5.3612043129793206e-15
-3.641098129368003e-15
-1.1726608238240492e-15
1.2619706919596182e-15
2.4433431179213146e-15
1.0618238854034768e-15
-3.689330570326123e-15
-1.1424504318145241e-14
-2.0063678174643132e-14
-2.58740174042778e-14
-2.4350136236727407e-14
-1.1986022610706656e-14
1.1417066859615692e-14
4.0733021225890755e-14
6.494640684670513e-14
6.916273108012754e-14
3.969719724241064e-14
-2.847902983736052e-14
-1.242363326230197e-13
-2.1639265514428024e-13
-2.5744153923302617e-13
-1.9748899541110168e-13
-7.456385135035865e-15
2.945072142740601e-13
6.245567799877442e-13
8.363397562885584e-13
7.568399872454006e-13
2.5616689348362344e-13
-6.634006302705003e-13
-1.7918220372378188e-12
-2.6942156864868335e-12
-2.79467180665297e-12
-1.5782143686575257e-12
1.1200413843196139e-12
4.830426858224817e-12
8.311867031944256e-12
9.715756946935105e-12
7.144359163345937e-12
-4.4247419868481063e-13
-1.2216925813597817e-11
-2.4806951913176164e-11
-3.248133984226842e-11
-2.8604820750500615e-11
-8.383310379860014e-12
2.7704797074626053e-11
7.108408054432365e-11
1.046084525892769e-10
1.0603638751981675e-10
5.603440570264807e-11
-5.0607110574133984e-11
-1.942085940574703e-10
-3.2545329230534246e-10
-3.7248913314640994e-10
-2.6325855470208775e-10
3.9109470011446964e-11
4.977053546211922e-10
9.772040703590206e-10
1.2534324461663955e-09
1.072275631617784e-09
2.5753050926115797e-10
-1.1570357704282158e-09
-2.822453612859123e-09
-4.063576371782967e-09
-4.022481814020535e-09
-1.9751834236392143e-09
2.2338352313465217e-09
7.785021472895265e-09
1.2721683873840267e-08
1.4254255352283883e-08
9.651616500162526e-09
-2.379033494775689e-09
-2.0220216040585277e-08
-3.8452080091344183e-08
-4.8316390005481844e-08
-4.009504391782246e-08
-7.342197697947119e-09
4.803978421264636e-08
1.1189229012103701e-07
1.5766418060865275e-07
1.5230367316466285e-07
6.877369624421449e-08
-9.71326179037528e-08
-3.1146735321550615e-07
-4.967117506388469e-07
-5.446890164009492e-07
-3.5208097010491756e-07
1.2583475817940387e-07
8.191338935521677e-07
1.5111610241402042e-06
1.8601340892691613e-06
1.4949535054552977e-06
1.8107009533044242e-07
-1.9846666583636886e-06
-4.429383772790159e-06
-6.110208357376047e-06
-5.755412120774517e-06
-2.3583077930182118e-06
4.1727987686585265e-06
1.2438329634683297e-05
1.9371592111459772e-05
2.078245644480502e-05
1.277025145379987e-05
-6.185901915484587e-06
-3.309626808105977e-05
-5.931579290520432e-05
-7.1522023216296e-05
-5.556574911500283e-05
-2.9641183123461e-06
8.162993211302708e-05
0.00017509631623532945
0.00023652290818860892
0.00021704075245430768
7.928920350447047e-05
-0.0001774922912076747
-0.0004958456159213739
-0.0007546186826569988
-0.0007917019251576004
-0.00046014687863613974
0.00029061301842261625
0.0013338957916243337
0.0023253158297782918
0.0027461327538753828
0.0020576837447946975
-4.472849240199754e-05
-0.0033458756968487444
-0.006914857523444353
-0.009148343213232548
-0.008170095797896642
-0.0025964759315429157
0.00749726102133775
0.019770103789482456
0.029458835807883325
0.0303275308913987
0.01689752670590124
-0.012399048560827351
-0.052166250287646196
-0.08867195751155861
-0.10184882334832664
-0.07172667676380136
0.011133802071133252
0.1337231754721072
0.2516884176180199
0.2888339233254134
0.14913086690156593
-0.05842762412489943
-0.38728352583499126
-0.42336778935652497
-0.47011875011796056
-0.15797995939923049
0.11976734913093569
0.5530089557534524
0.6592820985385764
0.6463989694672112
0.20822167812717146
-0.6429333794927548
-0.7180578354786092
-0.5888320816784356
-0.34364305078063484
0.023294313191631038
0.7896836800023646
0.6632408644636982
0.34019807269096214
-0.11881148187329992
-0.4892965406314572
-0.36603514937527065
-0.34230785588388135
0.0018306622609881177
0.29614813388801553
0.3642209212742888
0.003226982040029234
-0.031224191094507428
-0.2294526007668433
0.07996849824688589
0.348495730237624
0.4346806148540494
0.037788805255928745
-0.6671841002595295
-0.8034083081822166
-0.5886563980479558
-0.1644843462982984
0.5430424233843443
1.5472335131718093
0.7359873120708876
-0.15584051525943085
-0.5248408241776786
-0.4361313432357495
-0.14247275350273084
-1.0130099259754204
-0.09319697780706725
0.2941679553628222
0.11009946201063577
-0.26251940191745243
1.3172447068859026
1.1044209626807573
0.06026549295662188
-0.9155391158508854
-1.1257679358502293
-0.8167880438331264
-0.5484866676731225
0.5920314482335398
1.539499875053146
0.5868969268215755
-0.060979273564595024
-0.0968864819856228
0.11798053125830378
-1.5933352838154635
-0.16982075398275956
0.32227157584211996
0.2955963907168221
-0.3771525421877859
1.2056077468924473
0.14553233935656115
-0.27185483066034966
-0.5785514216770237
-0.317095098127658
-0.43605221927474386
0.5041755035148452
0.5158008116222712
0.367086473127078
-0.023905198700025082
0.021596261846601225
-0.4305450775331372
-0.49467222865949045
-0.038228173022565134
0.1307168907094649
0.2589218566393976
0.030782321411839633
0.14625124983713533
-0.0991317941303711
-0.028210966991368408
0.010637864458994077
0.042263600472715504
0.06805577477176125
0.07254055181243145
-0.1683049254836718
-0.27936844701769586
-0.0822113439393617
0.20370841524034866
0.1551633961453433
0.1383657971448847
0.10604584243892219
0.0014510750506579158
-0.23116785955888283
-0.23337813977587427
-0.02207359328481749
0.013976367927596932
0.1093327539586686
0.11113538874399925
0.06668979728398544
0.013546928727733875
-0.025495860505981464
-0.04224927983163363
-0.03932191555489226
-0.024837465023731554
-0.007643691875107084
0.005806963566565929
0.012619995590944226
0.013058491481342143
0.009296416522021999
0.004032548758343875
-0.0005490125417403432
-0.0032744480665886054
-0.0039774067599637605
-0.0031821236373511365
-0.0016869835949915998
-0.00021520123950416248
0.0007829471000341563
0.001170237986343994
0.0010503044386164938
0.0006468644063473851
0.00018986261284121886
-0.0001585136540629133
-0.00032952005243489646
-0.00033497088580287314
-0.0002339675145988953
-9.71015120006317e-05
1.9777917346245587e-05
8.756503699130673e-05
0.00010315173107507098
8.084880464188914e-05
4.15262227458836e-05
3.696397815261398e-06
-2.139261726901583e-05
-3.0596644001923915e-05
-2.6879577060396962e-05
-1.6145910253097712e-05
-4.319598656301666e-06
4.51032763444284e-06
8.690929755815645e-06
8.626106406074998e-06
5.895251293444688e-06
2.3290443910407337e-06
-6.53688205904463e-07
-2.3371422849573494e-06
-2.67354875516874e-06
-2.0527258733146405e-06
-1.0198151655185426e-06
-4.824826084071007e-08
5.815448357016669e-07
7.986989229540097e-07
6.87046149344234e-07
4.0216068881906625e-07
9.649870528357187e-08
-1.2699622284819462e-07
-2.2880947227351119e-07
-2.2188204629907308e-07
-1.4831032961414803e-07
-5.5511729906448627e-08
2.051547962510253e-08
6.222353762950566e-08
6.921088797819597e-08
5.2050275006714124e-08
2.4961470528120584e-08
3.777590388954883e-11
-1.5744025891244193e-08
-2.0820149965790535e-08
-1.7539506167098436e-08
-9.994315158571478e-09
-2.1038134741902326e-09
3.5443787749811106e-09
6.0122086169453845e-09
5.698047876312883e-09
3.721827033015791e-09
1.3109035320129603e-09
-6.221959124194129e-10
-1.6490166171391355e-09
-1.7815299881378524e-09
-1.3072578215597304e-09
-5.98846858321302e-10
3.345912226295568e-11
4.1645659612604795e-10
5.192591380845102e-10
4.127094560249298e-10
2.1167976260393182e-10
2.3501684313732144e-11
-8.462471363460548e-11
-9.646007575656739e-11
-3.971477344998263e-11
3.215983948344032e-11
6.286627739788353e-11
1.5514215422470404e-11
-1.1027860055030646e-10
-2.7088351300037477e-10
-3.8513517439928633e-10
-3.5765805693035495e-10
-1.1772117188796628e-10
3.3470388734533283e-10
8.920542513313153e-10
1.3332707691837038e-09
1.3688988899338633e-09
7.444903186244894e-10
-6.143725131171172e-10
-2.4621054633467148e-09
-4.169558393258423e-09
-4.812193928058758e-09
-3.454537393320223e-09
3.952701200633812e-10
6.285914423237314e-09
1.2498236243315887e-08
1.6156834574996346e-08
1.3976123757932461e-08
3.641443237790081e-09
-1.4486763780120317e-08
-3.5997978701444344e-08
-5.225449345982326e-08
-5.2194691296541546e-08
-2.6377513709006377e-08
2.7424208526322184e-08
9.893903177489204e-08
1.6320430378476933e-07
1.8434100583026086e-07
1.2689940469265536e-07
-2.6421497052916337e-08
-2.5571362994038396e-07
-4.920736354634588e-07
-6.231213360111177e-07
-5.231474714821055e-07
-1.0732893143552597e-07
6.027372631207473e-07
1.4279078301536737e-06
2.028333612918062e-06
1.977664850174719e-06
9.229565795496468e-07
-1.1987871471429058e-06
-3.961272300655055e-06
-6.375001367467804e-06
-7.048015215669524e-06
-4.638275010318375e-06
1.455981084833255e-06
1.0369999048181026e-05
1.9347464843518952e-05
2.4000947377239995e-05
1.9527355468681625e-05
2.833728828790805e-06
-2.4945880379297925e-05
-5.655580127495769e-05
-7.864130105990968e-05
-7.478997551609568e-05
-3.1845356364019603e-05
5.1719409379702044e-05
0.00015829874687482264
0.0002487256573364646
0.0002690585241629206
0.000168588131540289
-7.329673038650377e-05
-0.0004194829046713516
-0.0007599181468995763
-0.0009235081425806814
-0.0007269940215892724
-5.8177823857495376e-05
0.001027600157720832
0.0022376167999368893
0.003048482386721768
0.0028306156655931725
0.0010975664819726388
-0.0021701659234615034
-0.006243248830530506
-0.00956730827508085
-0.010050760862336586
-0.005789548538244735
0.0038675260158762413
0.017225971617172695
0.02962211167930639
0.03380529718840852
0.021654941982657726
-0.012927458211618904
-0.07078388321231065
-0.1453358344330428
-0.02296446545461655
0.11341088194088908
0.07846273083569608
0.07865409871186717
0.10917919135763542
-0.04485166154887755
-0.20357585005474524
-0.18644554887721568
-0.00842532750563718
0.11977542748116678
0.18832949951127415
0.18517950120740687
0.09701248898216287
-0.08401892339152155
-0.3498991080872051
-0.2680528676364225
-0.1805415332936828
0.18538897371971927
0.297302598842001
0.3952090206076975
0.07593702037890283
-0.10922892072689695
-0.24293488824113285
-0.2212691334684458
-0.13226583979859816
0.1600317334673787
0.2233726062561398
0.05839151447408274
-0.10387980004040841
-0.20603269729592075
0.03002821868667954
-0.10545053768459059
0.2783486703023495
0.05993449491086551
0.09421247960313055
-0.39500567530888286
-0.018395504701389218
-0.02147736946956831
0.3176906701201276
0.2952713637893554
0.19585746070046225
-0.08470272440296718
-0.41146601895764356
-0.5863657378748343
-0.3390113436464574
0.059931277538704295
0.3633333011995605
0.5004758211033554
0.5347812894761379
0.24244901288588538
-0.07929599325013953
-0.3767477200857908
-0.5898406460384951
-0.40607033571305684
-0.2347299951910098
0.1901363268616669
0.3807866806998471
0.45309343219991893
0.28653673608600316
0.10080395722076176
-0.14465175760875001
-0.33086623168538837
-0.3491586488087668
-0.07252668103960912
0.061939462817559104
0.05601033083208698
0.14094530863532273
0.16165877963312084
-0.03922082763533653
-0.03282161208557269
-0.009120577390344298
0.024009482294710865
0.04635916907171081
0.03388690151465236
-0.031584405714052945
-0.15363354680259983
-0.11608497109002874
-0.08385298742491136
-0.010796591994838149
0.14688517223986705
0.21578415470115622
0.1944310441054858
0.0512166612083865
-0.06715308325889659
-0.21910792876959187
-0.24956463673597387
-0.17636786002441657
0.012875272333954796
0.15255475269188792
0.28324762967437367
0.23533577463992633
0.018975370267983085
-0.17597143917665822
-0.17130208747887757
-0.1882603361976043
-0.03779703225558921
0.08279529739556148
0.18668852466779304
0.09075105974256452
0.009281450994035394
-0.04890877998976077
-0.07967991642405002
-0.08075341602498352
-0.049378046970343856
0.01778633789806157
0.1224146039565196
0.061297429163610306
0.024265695806937135
-0.00516710328313317
-0.04629598014635804
-0.11617839452821481
-0.025139537801364728
0.02536957507532008
0.04190296459874242
0.03584036460523546
0.019428282528452877
0.0025412487602582837
-0.008987462242939453
-0.013401740723214792
-0.011919010019968005
-0.007185719925469589
-0.0018964919384232256
0.002074554173849965
0.003958991297933665
0.0039266791643593965
0.0026865815752710794
0.001066282150122693
-0.0002906503205826211
-0.001058398758047384
-0.0012141675446458004
-0.0009342015723214277
-0.00046582779168565885
-2.427168069601021e-05
0.0002626480676826424
0.00036227016002252386
0.00031232734376964236
0.00018332859649467285
4.453658275374335e-05
-5.717139010219483e-05
-0.00010369889950958162
-0.00010080278312445928
-6.753738334521412e-05
-2.5429131894526384e-05
9.143902816932166e-06
2.8168345818118653e-05
3.142227158126448e-05
2.368291119439781e-05
1.1400993731439719e-05
7.463321110281765e-08
-7.11526534760787e-06
-9.445872571872438e-06
-7.975075867884052e-06
-4.557615301398747e-06
-9.74075619679335e-07
1.5971107764377621e-06
2.7259815758565345e-06
2.590233393264952e-06
1.6966415384320553e-06
6.021764539109078e-07
-2.7810862975235187e-07
-7.483808422565901e-07
-8.12581418131259e-07
-5.998262753269481e-07
-2.7817138608165097e-07
1.2093184518381891e-08
1.9199144326837573e-07
2.4596780527874595e-07
2.0344226013339765e-07
1.1311448624940685e-07
2.0694295990815064e-08
-4.4253564968968515e-08
-7.159368191609735e-08
-6.663405387746743e-08
-4.2785104075898985e-08
-1.4389925103136658e-08
8.094341275827775e-09
1.9918051252969632e-08
2.139311865100824e-08
1.5891537499358615e-08
7.624256627528837e-09
-4.041143178627006e-12
-5.1382601991701125e-09
-7.3978673656294265e-09
-7.312975031588356e-09
-5.663552149628484e-09
-3.031138532164133e-09
2.9164859928233447e-10
4.069658425086535e-09
7.753668479511886e-09
1.0224656256224259e-08
9.88953800141006e-09
5.243711561549375e-09
-4.187511772999359e-09
-1.6854201752292657e-08
-2.8649225491335956e-08
-3.3390977945379984e-08
-2.4667060642391426e-08
1.1016318104662708e-09
4.120333066090394e-08
8.427937390683121e-08
1.1087999973927238e-07
9.834873817810116e-08
3.013531906248633e-08
-9.248955249078601e-08
-2.407032041643002e-07
-3.563346906166289e-07
-3.6349491710569746e-07
-1.9569359729489492e-07
1.6593380399095193e-07
6.556816058670396e-07
1.106564640995478e-06
1.2738244879988458e-06
9.104090416022958e-07
-1.1260595233641194e-07
-1.6739142974175104e-06
-3.3165187261907775e-06
-4.278101520532832e-06
-3.6894912166013116e-06
-9.409853682154319e-07
3.866572590814631e-06
9.559067653074521e-06
1.38447784849976e-05
1.379508659268963e-05
6.9180787869985636e-06
-7.359914571153436e-06
-2.6298196409254974e-05
-4.326860768450543e-05
-4.876560276572135e-05
-3.3420632768019705e-05
7.301344806939218e-06
6.806139905479073e-05
0.0001305465936122057
0.00016496443178268545
0.00013806206560718247
2.750542768600838e-05
-0.000160776526941963
-0.0003791090084677906
-0.0005373359234227838
-0.0005225932392958978
-0.00024175062367208752
0.00032123702265622297
0.0010526774311700037
0.0016898632262334124
0.0018640398069075144
0.0012205722838232135
-0.0003980995432314937
-0.0027604333397935146
-0.005134039536107399
-0.006355858043519235
-0.00515519999616237
-0.0007170973656947155
0.006652416949704172
0.015028184679958851
0.02087805424658111
0.01987625287561691
0.00858302457615943
-0.013334241246744755
-0.04112081217024604
-0.0643191132963372
-0.06863474367336075
-0.04085326926764862
0.023744906237372028
0.1134869035009287
0.1952063350343767
0.2155365116054344
0.11088455995989457
-0.17475677002644688
-0.4691763725606275
-0.5567814636489082
0.02294577752279843
0.16016933424904437
0.7476088221002702
0.6536833387444759
0.10902352223977797
-0.687139640547112
-0.5454601393898867
-0.6637269315573202
-0.017687778719442646
0.6279668186328312
0.6942434302007116
0.36286352673781586
-0.03338845492681909
-0.3984451467116647
-0.4438963291899133
-0.2560990208134529
-0.07315873395306292
0.12022045778815742
0.18021468150146944
0.1804637426078094
0.1872313058814336
0.04138612860642711
-0.0483323906874136
-0.10082355915165159
-0.1505904826442178
-0.03348512794610532
0.024977185611392713
0.01594219163186411
-0.052360359655308095
0.04091458638001887
-0.0784371813641266
0.011430984896067862
0.12051334979985215
0.24256547384083277
0.15655651182300764
-0.16518131610923445
-0.3441613970754872
-0.18342913379247133
-0.06177912101806288
0.06191216606303865
0.2353948382235372
0.2962736353652463
0.05883781246564716
-0.09024823231874243
-0.1863252602696416
-0.07436811949237111
0.004862907451277502
0.025524710435735835
-0.01817866465780687
-0.11279426124638825
-0.03149508330319961
0.05656234645392932
0.17586848460635324
0.1365036011482618
0.13165581064080845
-0.05771027947412355
-0.2524765888801921
-0.2637218814688613
-0.08544111843996506
0.10439938809372488
0.13449708525434104
0.22673660374373356
0.18485393231897015
-0.009551108874798415
-0.19193867685841917
-0.20316306433699347
-0.07649152144868095
-0.02859877229767975
0.1427122935781057
0.05471948345504743
0.1329397256643636
0.004620656819890754
-0.1054358175132528
-0.1768011991697467
0.005331972449554399
0.0480573989587243
0.14778752769523507
0.08813543557870034
0.04095840236676923
-0.028232183986106302
-0.1514478444259754
-0.14890292090970061
-0.02277112367885805
0.04349742811285056
0.0801416291069403
0.12248741008234766
0.0020087863145391164
-0.06024360272887298
-0.05668765316675566
0.006948396786547018
0.11407103934722093
0.04128745888036944
-0.03628188081002626
-0.13917583257639052
-0.07877854819203552
-0.055338311418023464
0.14027272912611372
0.12194063804139374
0.10320356781056408
-0.10591769561605067
-0.09923529085402398
-0.07292869099108965
-0.024382063269953118
0.04720011122633666
0.1385540389262157
0.040087091810117846
-0.06451452504322365
0.004191713159802505
0.02631911285035352
-0.01146349099358313
-0.11088261056268778
-0.05954877854277391
-0.032247253396618034
0.0036762394116300655
0.08001081097312311
0.21904003899415797
0.027712681843647433
-0.10305088285916497
0.006353395947470739
-0.06766610799476559
-0.14362730470310678
-0.029617059846239434
0.07742099858608027
-0.012104895728444419
0.11314322858943056
0.05913530915760796
0.022782832296598037
-0.007854841695681286
-0.04977632985555752
-0.11936452078291898
-0.02719242301115407
0.024710918729433876
0.04238447143365609
0.03693733217429582
0.020603366740478322
0.0034185031326064196
-0.008561218609482344
-0.013387935902436901
-0.012167598991580231
-0.007521533986776577
-0.0021822855731775765
0.001909667357239347
0.003922022003039164
0.003982134131112456
0.0027831808052227467
0.0011587593029836205
-0.00022964028022844036
-0.001036336991633727
-0.0012236366894324557
-0.0009606726489434474
-0.0004948041093048636
-4.579837961046084e-05
0.00025254733263760826
0.000362548685975337
0.00031908640158950796
0.00019208053223536458
5.182044919092817e-05
-5.308769731202664e-05
-0.0001029134638741489
-0.00010234919241618222
-7.007702710509559e-05
-2.7805306324480513e-05
7.6121137910037e-06
2.764848292008441e-05
3.1704800241159714e-05
2.438504528439723e-05
1.214968667683932e-05
6.193261387370923e-07
-6.8694986559405944e-06
-9.465884059166471e-06
-8.157017210611718e-06
-4.7852862776678675e-06
-1.1596940058108376e-06
1.4959752442525996e-06
2.709835388777966e-06
2.632901522802277e-06
1.7632305235193163e-06
6.631560249446837e-07
-2.39672111974497e-07
-7.361795102659035e-07
-8.20788763640095e-07
-6.184183965332557e-07
-2.9759461552264444e-07
-1.8713537662471173e-09
1.8577610610538728e-07
2.4658408923289683e-07
2.0826235133935252e-07
1.1925991428178634e-07
2.5997755092870704e-08
-4.091069897730952e-08
-7.043471451914872e-08
-6.736860170478957e-08
-4.495895146896595e-08
-1.754080050016707e-08
4.497406006991116e-09
1.6644872358477674e-08
1.9549787066503076e-08
1.676919496638504e-08
1.2218689711610903e-08
8.283744526573364e-09
5.108057863224524e-09
1.1132554969637727e-09
-5.57952385211982e-09
-1.542443639433281e-08
-2.6153810192716393e-08
-3.260651407943885e-08
-2.8131814519912155e-08
-7.531503574309808e-09
2.917785420975204e-08
7.360900159536897e-08
1.0832358555020902e-07
1.1031860948326403e-07
5.9297404034101356e-08
-5.063200177813172e-08
-1.996313358092321e-07
-3.3697269156342773e-07
-3.88145549152103e-07
-2.7782211466779985e-07
3.34521468695605e-08
5.089684123563646e-07
1.009732274547467e-06
1.3036011735895392e-06
1.1256366614066215e-06
2.8964881373609983e-07
-1.1743288696059737e-06
-2.909334491667176e-06
-4.217637177486789e-06
-4.2068027417340606e-06
-2.1164941588063946e-06
2.230143854592485e-06
8.000654908360993e-06
1.3177685072986588e-05
1.4865421876574479e-05
1.0206820883317135e-05
-2.1858867983223027e-06
-2.0694462666003056e-05
-3.974737853235244e-05
-5.0270956555439856e-05
-4.212828874439323e-05
-8.497759733310866e-06
4.884083872790784e-05
0.00011539090261383586
0.00016370198390939242
0.00015937907397891996
7.400226908494091e-05
-9.739923837783338e-05
-0.0003202868936350548
-0.0005147016413915678
-0.0005683059781012614
-0.0003729529911104865
0.0001195834754624222
0.0008390602805123699
0.0015626154463888292
0.0019360084338645293
0.0015719321835181278
0.00022168249356145636
-0.0020218342967820344
-0.0045716000123255844
-0.006348933175210137
-0.006029559927505452
-0.0025533309269262974
0.004200792092393599
0.012811544898926197
0.02012342975447971
0.02180004397219229
0.013783253807516245
-0.005534995039436785
-0.033086862069178984
-0.059921707922346516
-0.0722236637879272
-0.055387153886285345
-0.001006503673414826
0.08480386377811341
0.17478871919553274
0.21939800889559233
0.15414056523305025
-0.08409377607392718
-0.3352625069767017
-0.3962763131670441
-0.21169704449016893
-0.08109965674841965
0.31708875383813484
0.4927284098625428
0.5142762412356868
-0.006073498374209243
-0.30694976683757796
-0.4557424147705324
-0.32088606895482774
-0.15094479450956777
0.2318491815481103
0.42397079504366175
0.22602439397936766
0.030465662303484062
-0.1822260969886134
-0.23864129721142066
-0.16336705306261637
0.028417078221081152
0.13315940945065055
0.15630275865232027
0.10795428567167614
0.0003348265170026741
-0.15148789122267015
-0.12685596634412985
-0.09787616193717338
-0.0318181825040562
0.1015078259561775
0.11916372383249395
0.01504968854001497
0.15458282455686356
0.07702598719448742
-0.09382120167732873
-0.03237233088334923
0.008612928007070338
-0.1845777509045264
-0.17666723921823144
-0.08459684184373324
0.008779548155807797
0.030430899299272243
0.08758096489470739
0.24042183194218258
0.6851628998823366
-0.4464348261543463
0.13058469189575042
-0.11438419781382063
-0.4923151866916283
-0.6668053183612818
0.557260109691481
0.02578788372231984
0.21308666266023604
0.3951099981969829
0.028722338049822452
-0.05677844917680205
-0.25565565453717176
-0.17422444271185034
-0.21916753873713307
0.00830118880811004
0.11045375403101108
0.4860132025837281
0.5239043115005609
-0.5969585073322162
-0.501193210515102
-0.20895733697394395
-0.1337973031086648
0.11038112537855632
1.2977822180408685
0.5851739616704489
-0.47804505553915744
-0.9237403807342639
-0.9351644671973319
-0.4323938778649295
0.5133564745548675
0.8383939848412478
1.2357495651282093
-0.2813145021080043
-0.18477796842924257
-0.6052780191226188
-0.2870083630069627
-0.5434232174602374
0.5709792022158976
0.06702512232042225
0.008818836141828284
0.09153541389658164
0.01715442180454492
0.07352636154146544
-0.08054924480288643
-0.0234377019726014
0.02765588110815903
0.020598934396066124
0.07705355961923614
0.1053572096933352
0.016520132855274795
-0.25880803527384577
-0.15594019497181608
-0.06845953046203203
0.04986577205906166
0.0736139288092791
0.08794359059310818
0.16962641424110284
-0.02816880400733346
-0.08411254260583904
-0.009103823020361222
0.3601242819787556
-0.42788873850163084
-0.026103720455778703
0.12335065230147867
-0.00222303663939315
-0.4029247770413598
0.34125465865258936
0.06338019999890139
0.00022822852367644734
-0.016497197925702062
0.03375797111120036
-0.04233741913736089
-0.05193935228251448
-0.014121481096126638
0.0431289256382238
0.08680143157034771
0.0839254331321451
0.008005397971714694
-0.15391482606759807
-0.19568504684900553
-0.09088325621445341
0.0018891834884154366
0.12775137478450052
0.3219344521601219
0.19929597298086715
-0.04831990407774388
-0.24560205923606623
-0.2214243539303578
-0.19685497050633932
0.020710328898222122
0.23514260224418357
0.25334962890286605
0.07657559161173626
-0.1037857965397138
-0.10404732060589507
-0.14167450204575632
-0.02825724571286649
0.03455060278935795
0.054803423448780336
0.04665268689040895
0.025463815347596737
0.0037082651362920155
-0.011202253937913091
-0.01701072061695032
-0.015245655774245295
-0.009271651766595017
-0.0025325745347305377
0.0025619209276888863
0.005009085959758982
0.005007137642269666
0.003450032800145092
0.001391297335462568
-0.000344383926248568
-0.001335072774145414
-0.0015456841141634997
-0.0011970860835379105
-0.0006033404970802689
-3.959413215697844e-05
0.00032940833354442396
0.0004601447265152606
0.00039936692183592347
0.00023637025199889052
5.9526314824692106e-05
-7.09328559485106e-05
-0.00013136117098303633
-0.00012863478926110935
-8.679801853447704e-05
-3.326034204652027e-05
1.0986523487384679e-05
3.5557410523440056e-05
4.001669517488513e-05
3.0360055981342277e-05
1.478290013621575e-05
3.169508849767374e-07
-8.935047654613513e-06
-1.2002970803709253e-05
-1.0201333865146586e-05
-5.880333658896124e-06
-1.3126321097421517e-06
1.986841722421911e-06
3.4549990243760502e-06
3.306602608710419e-06
2.1816237187315403e-06
7.895202286437908e-07
-3.375100475015239e-07
-9.453814075842803e-07
-1.0352108957158344e-06
-7.692440010081253e-07
-3.610862674223553e-07
9.766831688535722e-09
2.4137386233153974e-07
3.1265292351746185e-07
2.60259228475839e-07
1.4595080921108975e-07
2.8111755571162458e-08
-5.521430667935448e-08
-9.071731706319826e-08
-8.488834494768488e-08
-5.472442585766222e-08
-1.8571013545985512e-08
1.0093490782392161e-08
2.507404883584383e-08
2.6718220684722987e-08
1.940848025522269e-08
8.717430455948048e-09
-7.649348738896944e-10
-6.503164299901127e-09
-8.058816155895147e-09
-6.467972773406008e-09
-3.3893625281422304e-09
-3.677352115252416e-10
1.6067171849512472e-09
2.2196898967465806e-09
1.7152478861084791e-09
6.572702149022915e-10
-3.2655051608158083e-10
-7.533891296329292e-10
-4.1967945562773904e-10
5.440752606508397e-10
1.6992093745829177e-09
2.4102508191458255e-09
2.0432730688757726e-09
2.3157814078242055e-10
-2.8510163868657942e-09
-6.314576827317009e-09
-8.605713595341786e-09
-7.894114070968326e-09
-2.803038460938279e-09
6.667020506732995e-09
1.835626664443277e-08
2.776776850057991e-08
2.893095258618211e-08
1.6486746086306678e-08
-1.132142101714493e-08
-4.96963081366105e-08
-8.585093463507045e-08
-1.0067455151597328e-07
-7.448015271118375e-08
3.629165957055195e-09
1.2528959119927483e-07
2.5582025418728427e-07
3.3604010554870455e-07
2.972128924859046e-07
8.9375218975788e-08
-2.8314469662270656e-07
-7.323479498909782e-07
-1.0813676544974147e-06
-1.1000505696217516e-06
-5.874517594096317e-07
5.121827575436413e-07
1.9976662238519728e-06
3.360883421975996e-06
3.859048487145469e-06
2.74455337459268e-06
-3.693960661928837e-07
-5.108733257209276e-06
-1.0081250666315833e-05
-1.2971744771508291e-05
-1.1147255482759404e-05
-2.770201427068377e-06
1.1834364126569277e-05
2.9083686313632735e-05
4.2012086971802193e-05
4.1740228047063665e-05
2.0740268205199638e-05
-2.266982611396496e-05
-8.01042590348257e-05
-0.00013139841686254987
-0.00014770961862490878
-0.00010069441404244185
2.323323775229216e-05
0.00020764040594063458
0.0003967488858151592
0.0005000851634862142
0.0004169271709869312
7.999076566993025e-05
-0.0004920054753506695
-0.0011536463538746272
-0.0016309359027219946
-0.0015816646420595258
-0.0007243843083154401
0.0009877980926864447
0.0032083251274711206
0.005140278531179569
0.0056688781293418615
0.0037282346346132395
-0.0011423155464101316
-0.008216750340343632
-0.015249241127658813
-0.018701876749630728
-0.014756344793444058
-0.0010865922578229715
0.02099973955258482
0.04482126859948309
0.05795691714610895
0.04405502148352732
-0.013040318736442657
-0.12374663649278163
-0.0876983762310342
-0.09145744327853231
0.08956742671735049
0.08531789826139292
0.12356767028665955
0.023654019116096492
-0.006334274696068604
-0.16856513346614166
-0.07216386644760606
0.07015100202991413
0.04396737082003216
0.033589605487836904
0.022040194840813113
-0.008227675201353113
-0.07353137287239295
0.013498753952388367
0.046263259527557284
0.025815639725484365
-0.038540170175438884
-0.1299400367234905
-0.026348929107941593
0.09515466699861984
0.052887971809607984
0.055608958719385995
0.1001615109826689
-0.027029631846973844
-0.14495110926037974
-0.07140730050004897
-0.017535472767812248
0.014428451379618255
0.02956967357092655
0.03599082860493913
0.039799705982874696
0.041419984674096605
0.034614771823041346
0.008613764939236948
-0.04738783245599413
-0.13909031408732553
-0.06355805454969998
-0.009169375575588076
0.04045699934743389
0.09995465801166525
0.17599125180832775
0.06444884124787358
-0.04717612066816604
-0.17275053582562172
-0.11890473954280228
-0.07901393342490513
-0.03297665801780572
0.04654189406572457
0.18364312703706065
0.18876183114823727
0.05279435238703538
-0.051425044833834845
-0.16065120684949757
-0.10916352961437019
-0.11792829966395274
0.011041737913046317
0.09366793041187879
0.15750284998823202
0.03334540353923014
-0.051980707295269074
-0.07994257347670644
-0.04186049099736067
0.06109593366202015
0.018507571955909588
0.011762505910732711
0.015975922296170973
0.003078975231109061
-0.05410575940112067
0.022552495659029607
0.02040674514583946
-0.061320108029659606
-0.010703636364912167
-0.0044172471377447306
-0.011159072634552037
0.003263779055839561
0.07015435078734733
0.01270713724937179
0.0425491208937978
-0.041248424186254296
-0.050753641163370875
-0.006119163111188027
0.06810243628119995
-0.05347451642119936
0.0060500342012409026
0.028410975717316628
0.002020774168506357
-0.07709602173863446
-0.005510877089233431
0.026109950005725267
0.030402056812579605
0.020254029243196796
0.006212064872618645
-0.004976492086918582
-0.01050200687496915
-0.010612636655969251
-0.007257805969112788
-0.0027835581614061205
0.0009738816277749027
0.0030827801118957377
0.0034753782698482777
0.0026501375296610445
0.0013063663881189079
5.077606964980052e-05
-0.0007588083722386088
-0.0010343035329397616
-0.0008861563990999634
-0.0005161960558997765
-0.00012123665560784717
0.00016640863313711153
0.00029648105061825207
0.0002863085050075145
0.00019058070205081026
7.057563127352681e-05
-2.736645338583296e-05
-8.080582921348218e-05
-8.942204570254963e-05
-6.698982543329625e-05
-3.190688548573906e-05
2.409168919843118e-07
2.050702516290748e-05
2.6935615117296053e-05
2.2604054452494315e-05
1.2814806855204668e-05
2.6247968909799657e-06
-4.641291845515612e-06
-7.79155376989116e-06
-7.355241970739942e-06
-4.785619424186271e-06
-1.667442077036575e-06
8.25500344545712e-07
2.145469705818923e-06
2.3116536041722015e-06
1.6959723460014696e-06
7.7755971773105e-07
-4.601843278556722e-08
-5.527785699482837e-07
-7.0105499355736e-07
-5.762685139926538e-07
-3.176161311556697e-07
-5.49159709072057e-08
1.284288026487703e-07
2.043907942393046e-07
1.8872065844926666e-07
1.19957666739741e-07
3.9042810236681215e-08
-2.4329698111764766e-08
-5.6841326909914295e-08
-5.968812961608132e-08
-4.2877140786756547e-08
-1.886999734972315e-08
2.204396072131541e-09
1.4851594429654322e-08
1.8222862346782716e-08
1.4673642394251083e-08
7.852298097039448e-09
1.0876219474231347e-09
-3.531800475558091e-09
-5.35338457251679e-09
-4.836651700221666e-09
-3.001505383680797e-09
-9.043929004722237e-10
7.045428751906986e-10
1.5028833204982971e-09
1.5393858446421947e-09
1.0824615386112329e-09
4.558075192059143e-10
-8.283444825924117e-11
-3.978255243067463e-10
-4.730817608269084e-10
-3.731816216940554e-10
-1.936046237650653e-10
-1.9609664918716352e-11
9.65972115082404e-11
1.4000295717793133e-10
1.2380945329454573e-10
7.495463652918838e-11
2.066791787908198e-11
-2.0127626340338053e-11
-3.966534389609303e-11
-3.965959406922762e-11
-2.7289323229122057e-11
-1.0952788116511705e-11
2.798814515184954e-12
1.0625721200210655e-11
1.226173059960619e-11
9.468867607686099e-12
4.743780054168017e-12
2.702252875408511e-13
-2.646442855372664e-12
