0
-0.00024248278290454545
-0.12233546608175715
-0.0556928013452997
-0.007891092293440264
0.018946966858185265
0.02776695771246338
0.024516489963973112
0.015575174417768477
0.005771049218108906
-0.0024291643515166024
-0.008548470465725315
-0.01297860315220683
-0.015751255983531755
-0.01581937660476457
-0.011248964348869236
-0.0003703066478504169
0.016471166814532867
0.03528667188672013
0.047844218962579024
0.042868985754671636
0.00927885365887239
-0.05919818580973367
-0.15964435148446113
-0.077962116697652
0.009037622827557858
0.12738955867424626
0.0975844446143213
0.12741399964316258
0.00915411889884352
-0.07766207756707987
-0.1591174074914162
-0.05852083599645929
0.009874537714249
0.04302852671108388
0.04720876962750348
0.03368046011262794
0.01410239185644849
-0.0027873676525121925
-0.012555582229015321
-0.014732165906817984
-0.011430581497792927
-0.005708235175830658
-0.00025408036755513244
0.0033180882250259617
0.004578042117086014
0.003977596035328735
0.0023847174949600857
0.0006592283536368173
-0.0006128300712820471
-0.0012016643684041968
-0.0011746643584298266
-0.0007662834913598842
-0.00024360576402165043
0.00018884248504663433
0.0004297407320152741
0.0004744528518685994
0.0003807564636638699
0.00022780332791750714
8.370542792909578e-05
-1.124445413140188e-05
-4.625961446066978e-05
-3.1847563685250923e-05
1.1786105234425922e-05
6.447419117076759e-05
0.00011131098161855408
0.0001433718552120462
0.0001557943979290785
0.0001457274900046603
0.00011210865344793039
5.783949672926594e-05
-6.764185924957347e-06
-6.173420211797064e-05
-7.93327397634866e-05
-3.201109887266104e-05
9.400043959477178e-05
0.00028327613811821354
0.0004809540593522186
0.0005960985560594319
0.0005251076571344862
0.00019529424328997241
-0.0003812163795207499
-0.0010639832871568425
-0.001578738193794943
-0.0015747106899644749
-0.000753034833734207
0.0009558089054150257
0.0032245543557137446
0.005260110238057226
0.0059241601198656325
0.00409419449980812
-0.0007731401541011671
-0.00803615783445938
-0.015492986529193791
-0.019555135392230177
-0.016201932848175997
-0.002698710405984657
0.020322026203068465
0.047221840333317715
0.0671997031297173
0.06649960436259449
0.033154507355040885
-0.03680995325961595
-0.13428957321818938
-0.236878029558469
-0.3172837718891432
-0.1622837754491982
0.2000139567787285
0.4724249028253438
0.6730744403356371
0.5453427033651512
0.4013229161975362
-0.6047423439033197
-1.3906301916992405
-0.6759611460379485
-0.15610818565125947
-0.13657952088626543
-0.024598714970507512
1.1440290720463298
0.17600342461503424
0.4248550037546336
0.7572663657710141
1.5974282941803077
0.848944392116117
0.27324064726800495
-3.3217717769779207
-5.352873341024849
-4.468687615658656
-0.13739832668105414
7.6147014611994726
6.834375111945083
6.017076349798493
2.772906298472046
-4.185941545066453
-15.657297730274836
-5.995827776994398
0.5625080234715201
3.9725610407296785
9.106357291555774
3.9362564098490957
2.4090227276382303
-7.635081121969313
-0.07310534468609968
-4.115880890926595
5.16689978471862
0.9460072665823064
6.338686135306272
-4.881318287321538
-8.003923681688246
-2.6149393725721715
-0.23337975398990604
1.2084145121085892
3.5014215594460767
7.454921360719955
2.3152334177175775
-0.9700687231189942
-2.813790778609204
-3.4502583583190014
-2.934637249103429
-2.4215413620203434
0.1878786041858864
3.2191507321480035
7.278862472676351
-2.1120158879987234
-1.6242982234609393
-1.7436618051052772
-2.5492380439989373
-4.309231712342627
6.269693888474921
7.554259048044516
-4.085055441769751
-2.270188892532816
-2.132890781730407
-0.8010027494726124
-0.7114543919473402
8.825629884506233
-2.972773863875521
-3.7718812704912392
-3.3369180295773937
-1.5876954261472176
4.088734564482803
6.093528519098008
-1.286367132581478
2.1388989300566887
2.427007959378481
-11.227147342149982
-1.6163724624863778
6.249168923955138
-1.0633388324134772
-6.795936530120847
0.8752355880154796
2.0429321200742896
6.289510138977721
3.8430325071541795
3.1835032028757424
2.3534619660498435
-4.0775339530953625
-14.153835474950242
-4.805286027748922
0.34513345633409326
2.950078020584598
5.763709040316721
8.537588133211976
1.233733918327999
-1.865570103026996
-1.6985533815274074
-2.6870715552756246
-2.065132428389886
0.17913241608947136
0.039969302728710764
-1.7457961514622917
-0.9249047856714949
0.08057724961851438
-0.7395323666983851
1.2506281656510791
7.202063168546316
1.9780808894715782
-0.852148250117219
-1.6161094061724421
-3.2065198084135096
-7.541199165502255
-1.1419869868591443
3.0946183704883974
5.154373347139034
5.09456272720169
2.900819731764297
-1.4989397353903586
-8.071421011669633
-4.668857336129711
-1.5152783499841034
0.9139119483160829
3.222365393561341
6.93829294679142
4.030006533459194
3.022578113929319
-8.241032638421636
-4.864625608033437
-1.1420482779361385
-3.7379063850537335
-3.6931674739818883
9.764529142357706
10.922765656759195
0.5613413243585899
-6.270478933386203
-4.0669875365762165
-3.383690080364754
-5.622819880816141
1.9988505486260697
8.690462241603521
4.026988572861805
-1.0754355467816326
-2.8475433197687385
-2.2043103346563284
-0.5944241358652178
-0.4466528874627998
0.5292167694856124
0.7719084525558246
0.44511026305010565
-0.01084164247901202
-0.12751795542676878
-0.043557140555336306
0.07719184682737336
0.24294600849120918
0.04367828759907723
-0.13042587969005484
-0.26703825959247657
-0.313489880062156
-0.16961948406470737
0.10403785132688265
0.26389182115554183
0.2534283214534219
0.1752879114894313
-0.12647790060008693
-0.07006126674322434
0.07353746841192636
-0.0011979994585415814
-0.2123987612086874
-0.07023868316365699
-0.061720329264700564
-0.043209968941426924
0.15930105570316425
0.14466541432272875
0.12958150588063186
-0.056539925707320006
-0.17366255509500145
-0.1716370034001882
0.007921348141347612
0.026180364558712702
0.13827109057817913
0.18375240390596895
-0.020058173987533314
-0.07938089508782241
-0.01973532705980922
-0.07819474349913404
-0.09505994811296037
0.09266568810248996
0.054990274662386734
-0.02979210093858935
0.02481873579800267
0.013034252686597917
-0.06378654301059934
0.00208222252386225
0.02343640420711102
0.01619467865129523
-0.0030416526211060856
-0.01961666705884226
-0.023419955567712654
-0.011375892118469733
0.010329603189917588
0.0247400353243525
0.00414463889517341
0.11258525871770776
0.11159999606724809
-0.030796848468930896
-0.12925101934111946
-0.171292905714732
-0.11256600401064004
-0.08026273799783638
0.014530146977096984
0.25826359182927044
0.31567389407015567
0.016280838548616245
-0.04882126795484246
-0.11945847586171172
-0.25202609228492107
-0.10437893835724622
0.07470916943553296
0.049203344467453156
0.1938024480071345
0.08972114877380033
-0.07830580845099605
-0.12224607680210896
-0.04904186929004881
-0.05908697375315313
0.053336371278779916
0.09748684544742457
0.08284269019064376
0.01696751649049327
-0.09421870482542789
-0.044028410083844095
-0.021980425686337606
-0.0119587404732283
0.007350250002959688
0.05971554171293523
-0.03290919162731919
-0.05512352583044788
-0.0023162455227207154
0.11647942806783247
0.0781185451278517
0.048296924976139216
-0.011712869148124878
-0.1356384969628332
-0.1427569776171824
-0.03173298192522565
0.019787197103289838
0.04944058036510752
0.10014685254685876
0.009056408159945465
-0.001355669641329469
0.07211584278541995
0.013925317891143226
-0.005004253479865283
-0.018765812195376794
-0.05686730023423712
-0.1362191517920996
-0.05721468242995994
-0.0054002787144000405
0.041536775948276046
0.10374885549367617
0.18989412559950972
0.09233565477037596
-0.010731382350404774
-0.14653860089263013
-0.13564856415491996
-0.18154449719839286
-0.06658114927961097
0.04349219463134656
0.18777704235991438
0.19571461113897579
0.07559725033217675
0.010689820406882076
-0.03558616673119154
-0.10753535467781783
-0.24278596558209656
-0.060868119864880436
0.04136545739352369
0.08651228279876376
0.10776826152311302
0.13854879804211404
0.0045876679609997036
-0.07927899806863344
-0.10791347213731574
-0.0824568279065881
-0.007341268547859391
0.11070467661760934
0.061904028429605275
0.03250298738861317
0.005312188066372557
-0.037685958166407345
-0.11144562941597548
-0.02433379126222941
0.023450568980883237
0.03887575123653965
0.03307711352003331
0.017717012675016252
0.0020536313655494763
-0.008523844405510477
-0.012455649147745875
-0.010937413745354237
-0.006462485929088262
-0.0015370017978928296
0.0021170357286126665
0.0038128773437607817
0.0037320236246417473
0.0025471340907715686
0.0010304712871482156
-0.00022449985987105472
-0.0009231418313448742
-0.0010521421672451106
-0.0007805438625510378
-0.00034016052930720413
6.971715826564493e-05
0.000332503088532932
0.00042029066039734643
0.0003699858707264409
0.0002479971588319086
0.0001186938551142286
2.5084164987957113e-05
-1.6750044545449022e-05
-1.2778551521165806e-05
1.893769102959898e-05
5.831915017376579e-05
9.027042691467734e-05
0.00010755695589733138
0.00011017400995899182
0.00010269301108975623
9.115547271372284e-05
8.064922381212971e-05
7.407209673626986e-05
7.203246143705934e-05
7.350011749347175e-05
7.672906748303559e-05
8.006468914237718e-05
8.242619789736845e-05
8.343330683150924e-05
8.326825566993942e-05
8.241325496410587e-05
8.139063503173669e-05
8.058529191757804e-05
8.017418075631971e-05
8.014541113905155e-05
8.036845679117415e-05
8.067577959865645e-05
8.092764789329435e-05
8.104755679843732e-05
8.102877344644571e-05
8.091989249837343e-05
8.07989801630384e-05
8.074413215525867e-05
8.080586310500242e-05
8.098565713923686e-05
8.122560366078601e-05
8.141502042128002e-05
8.141904582487138e-05
8.112929776330741e-05
8.05273602225042e-05
7.974020241673403e-05
7.905758152068427e-05
7.888162395719531e-05
7.959387865951149e-05
8.13566807585375e-05
8.390768003425232e-05
8.644411864218734e-05
8.77056210568937e-05
8.632989057220712e-05
8.146461317306518e-05
7.34829921531369e-05
6.451067124892105e-05
5.8395033604245416e-05
5.9808380866439977e-05
7.242419889076244e-05
9.652719402005087e-05
0.00012690618560021112
0.0001522324037417021
0.00015709173446104885
0.00012720982405829164
5.714826929989998e-05
-4.1886616670603076e-05
-0.00013790541724828417
-0.00018183749642063131
-0.00012179958816766403
7.296737764364347e-05
0.0003846777781977954
0.0007275880968545732
0.000950805390100146
0.0008748308525087686
0.0003634093944449332
-0.00058423093076032
-0.0017543701322457203
-0.002699627584466683
-0.002823794833934789
-0.0015891871588820411
0.0011846433689599136
0.005025174551464358
0.00866191120381962
0.010191510374070154
0.007652315283716411
-3.64255841594793e-05
-0.012021261713699537
-0.02480062036007372
-0.03240311681299094
-0.027900416951647276
-0.0063136892257502734
0.03164523557562081
0.07622978005135951
0.10735696838613105
0.09677997137694262
0.01406861073299766
-0.1651720768192873
-0.25250339957464096
-0.24605638137391375
-0.13987553790144883
0.05669093559861023
0.29474270530292657
0.46678096570233474
0.6049373047768027
0.5058227845043457
-0.016702093067241044
-0.6615392358728047
-1.3760508314773625
-2.1268262887558382
-0.3293340324417588
1.260319905134858
2.2187680614961
2.3468690900704288
2.636246067546593
-0.45816455644227805
-2.6579325051488643
-5.684731375758617
-4.1687013404183855
-1.7248205675865056
2.189484294120874
9.720482005172725
7.931937831715209
3.359605181417805
-2.5053555535216314
-10.067825761093605
-10.82412336403507
-4.1668629683907685
0.4078720436145511
6.071034450055397
11.57743525962159
9.20954590856698
-0.9891803120906855
-8.968529997697027
-4.680327470651908
0.25222960010551215
-9.823441878160317
1.0177587793298288
10.830523413411553
8.190056835081016
-7.226818739952997
1.2483656876727034
-1.1062758631734935
-4.530747655002936
-8.361315203002727
3.267756558696655
4.998977973708991
9.592589752928417
3.9809519873576282
-1.2418661973306437
-8.484296594332008
-5.699198152244121
-7.003675415528802
0.853102329514384
9.524367458235778
5.096202921325262
1.094209042950426
-0.7686362148646506
-2.2338395780853633
-5.767764256664369
3.4410525729256496
0.06315180565597613
-0.863590541728966
-1.106777224575451
-0.07917437033047463
1.0766286187725584
2.188225571391833
0.5749796276409398
0.22330599501022433
-0.37373818338583054
-1.1312438212846676
-1.6829754399929668
0.46455105251703926
-6.301942941257626
0.37430299831046726
7.839305565656072
4.867665002061037
0.2235557652296105
3.813557053529634
-7.785065525404574
-8.93494595178192
-1.6554159771738304
-0.1854386150135146
3.369661595527187
7.995593604029071
1.2998195099202188
-1.8160477353831639
1.3552735854951994
2.8808177054919195
-5.4850486494146375
-2.3067151150658414
-1.324790295836725
-2.0653338404615864
-3.2535544094637445
5.581346722526771
3.3868404924102866
2.469739587702913
3.69409220092504
-6.144650442783029
-2.986437512490261
0.7059590488999707
2.7451218849466525
-8.059336135387532
4.928231634172364
3.1253509349132775
0.056694179667747556
-2.1013356464614223
4.876067423951474
-0.8904164925978415
-4.119904245493336
-4.947065404123213
-4.200637969823397
1.1832051473227412
9.654341955520124
6.975581913665896
4.145778841265153
0.42676453930843794
-6.153055668417004
-16.794870854157395
-6.084750308761711
1.2731554106154706
7.490491909829817
14.25171640009004
9.89021976907009
-5.335582072175606
-6.348148212712638
-7.236030494084516
-8.959939987384349
1.3772939214069368
8.375749033877478
4.539995888226592
1.389828278046671
-0.9600991199180142
-2.6703620523903298
-0.911514937489853
-0.5345393950164543
-0.9512433454553276
-0.27016593670380795
0.501589692522711
1.4081191460788027
1.6800614896205939
-0.10846478480234094
-0.43932890077161835
-0.8088054945142436
-1.2700066225774533
-1.7931419730537812
0.9315610696538043
1.4460370967990142
2.0550631664858883
0.17296067908330845
-0.683803404840398
-0.8538028495376309
-0.8604097883222461
-1.1497134216234883
-0.0660617372334301
1.124582683685439
0.975646084465884
0.39262259788356263
-0.2143337017170735
0.058029792301185566
-0.37053993679683134
-0.31854261045789145
-0.1928391000868305
-0.14896580900635722
-0.07037692970463187
0.23187088537456116
0.20365547726351638
0.12478542995087634
0.08692126782935418
-0.021821977956389665
-0.1239323536102477
-0.15316416442225408
-0.05256199526876148
0.026765414066533964
0.12471906936656361
0.07003954988870319
0.07906858159767087
-0.04277222491593705
-0.09662551468039628
-0.08459591561521913
-0.005439777402953826
-0.0536532703842255
-0.022621413611580835
0.08921713626377041
0.07159622386232309
0.09811221255465803
0.12715537332122243
0.10946751166825225
-0.19860620435564408
-0.2197737327637769
-0.14391845159623645
-0.1251975036519494
-0.0910418434588685
0.23828986601805577
0.32521091660900797
0.1934651104421629
0.0174751086057988
-0.07386239671977128
-0.18051256002338623
-0.20767156510102644
-0.042569915487810896
0.06239958169874512
0.09764980980212119
0.09613379265716014
-0.07282761125750502
-0.11355817641530211
-0.11700417888199384
0.023550436245267415
-0.004995421287637986
0.247932916197519
0.18532760638408266
0.1609006650985186
-0.1108456907932728
-0.13436561130349384
-0.20811760716101735
-0.2024742049072318
-0.1472186329661394
0.1680910197956222
0.18229030032023733
0.1447185580698923
0.09828284066451175
0.06910264655393973
-0.13505061366842996
-0.11901786354356185
-0.09124172645442624
-0.056038768963634404
-0.010322187545674998
0.05451163362513098
0.14718535755591355
0.07067574258296881
0.01889636210709997
-0.022442135584107833
-0.07124419364322108
-0.1429370421885013
-0.045763614763872744
0.02035276096414966
0.060935047042856426
0.08160220672284992
0.08299129347715987
0.058618488050893564
-0.0029273871534561263
-0.11196823341953861
-0.0701971492504277
-0.06486001566887016
-0.06756335368455413
-0.0391275976718355
0.06014621711978613
0.05740755385579791
0.15538018921023833
0.1260076094560409
0.11292971325563511
0.043759931117890956
-0.1500722225016711
-0.31132681399983336
-0.24012522016929902
-0.08899260018905894
0.027076097740248484
0.20777476473907963
0.33911474602448105
0.26916075863772
-0.0038310562762639937
-0.1272594880170891
-0.1764738740071635
-0.2307461117612917
-0.15162487124070717
0.029636243482727868
0.11310007542714
0.12161428525829425
0.08765988743315116
0.04100456310521045
0.000985110688328534
-0.025272363477836783
-0.03965427678246048
-0.04721975806758702
-0.050419659238468834
-0.04560835219800861
-0.02306208112171952
0.02958186518207281
0.12183627675613633
0.055082884347457256
0.01981724738338584
-0.0032001190067269866
-0.03808124077026988
-0.10690556132620395
-0.0231803701475941
0.012159523420292029
0.011067216957617743
-0.00484114312078569
-0.009942911043599952
0.018826986103102943
0.0960795854681156
0.02418506336581748
-0.007375695835951511
-0.01932280339050545
-0.037398612557539956
-0.08630949365226011
0.015496025033789562
0.05907451369244948
0.04605603402455057
-0.011943357535206787
-0.09497106442927368
0.02267813700930337
-0.03130635651619853
-0.03226126118374507
0.03581059892920587
0.17530982078715485
-0.027458708126034865
-0.0009453988493408304
0.017120710001663927
-0.011810124872143394
-0.11791759594404945
-0.1157221850764157
-0.0009474855041157783
0.0474289450573511
0.06070771200530669
0.07197989820497784
0.10862624545713631
-0.011851379943569874
-0.08189975888822588
-0.10093468433166862
-0.07158568143962529
0.00258616879144
0.11692290335690853
0.06382166463420198
0.031087225080488428
0.002213748493350289
-0.04089741497851635
-0.11373739533976861
-0.02532949949418158
0.02359940356974632
0.03973181376412457
0.03415283090912544
0.018631290096829695
0.0025919220963246253
-0.008423143143335428
-0.012747477304981693
-0.011512174002263714
-0.007166024566205038
-0.002173467462104379
0.001777463817878115
0.003995883310293167
0.004577931724811527
0.004000008346755492
0.002741720314778802
0.0010878653591128195
-0.0008477412941812841
-0.00293488820944958
-0.004804646249517845
-0.00574403917747146
-0.004827908867399116
-0.00132282715677584
0.0047258686303068235
0.01194170665994239
0.017400150482287206
0.017026839704608963
0.006723158018487097
-0.015977714773188025
-0.05028715073147375
-0.09137517814664917
0.06889329829210798
0.03962680982521797
0.027768552711083302
0.03548356994151997
0.05921915730201475
-0.10922759916578383
-0.08029268822888949
-0.06417435272153951
0.13057844035651345
0.09732966503784675
0.03149100202211665
-0.06828722033680452
0.0022911330835098873
-0.14445003622288233
-0.08775097353354153
-0.0014396713467886915
0.13968442282181223
0.15207278634780008
0.03741735121675722
-0.018833096973927623
-0.04358743516311326
-0.0683397833472704
-0.12048103125780986
-0.01676400167753234
0.0391283190517915
0.05472230341445371
0.044023779754440696
0.022102336173242167
0.0008889213331664918
-0.012855532928353825
-0.017450048391571646
-0.014796989364272737
-0.008399206833381138
-0.0016490786005999934
0.0031990243355111718
0.0053153629112069
0.005029409595751558
0.0033008432328141563
0.0011898350297648635
-0.0005080687072163033
-0.0014101668126693737
-0.001513128398097175
-0.0010568611274128815
-0.0003670189916177419
0.0002674128952802969
0.0006590144221045918
0.0007352926565668987
0.0005213903722620117
0.00011350167004207123
-0.0003451472731856002
-0.0006863285214091522
-0.0007458337909531761
-0.00040817464974380875
0.0003342411480641345
0.0013247081252361174
0.0022207867669161506
0.0025445927431002537
0.0018277002442962545
-0.00016157459062694096
-0.0031708678760767935
-0.006306908893378367
-0.008100255067398756
-0.006889826795584714
-0.0015242548448654843
0.007781713165721651
0.018768514111243705
0.02706900994502944
0.027148801529476525
0.014361572544315287
-0.012265681153666998
-0.04751148074382365
-0.07919152716627373
-0.09071636481150458
-0.06795798919571125
-0.01005236557754435
0.05815213191361979
0.27622395141964845
0.34617778577754776
0.14296246928253564
-0.06139130669839305
-0.3642515054552679
-0.39926404655248887
-0.31593751605235065
-0.1819245801852087
-0.011211298142413766
0.38740499336789874
0.3548816563347247
0.5367249135854381
0.46358273468666406
-0.03387701233175495
-0.3781015793518289
-0.7791817117203184
-0.7711129924512784
-0.3691725510883491
0.7419199449943024
1.3941248817125105
1.3134153052888506
0.10558448710735686
-1.9467138192155038
-3.0952540766334358
-2.5792199058834226
0.6579565386233086
6.6049099768331825
3.2361283261640423
0.8671176922773196
-1.13815896483489
-3.7303284267718033
-7.701733823885212
-1.095910371802272
3.2217144305355174
5.239863431745863
5.018369812640711
2.5713930187513463
-2.103723148715539
-8.869271181181846
-4.669424211360345
-1.2679260773571954
2.019046551692439
5.42651641279861
9.81412929527797
2.2758420306671945
-3.4047943310110225
-6.2675301542374715
-6.395503000994812
-5.03784162066063
-1.3850939117411964
4.5748832423245585
11.434410168086147
6.385453016238639
2.0874684279024183
-2.918935364993178
-11.123114603087583
-10.291891519820934
-0.5024809924359928
5.079884388870804
7.689703101403088
6.675916719783359
-3.3458305467422327
-5.558960057885343
-2.4031568564547143
4.920553402131315
4.632886940821414
2.218428432015525
-6.490437695007397
-5.642060941482452
-7.60731315472042
0.5712901125657499
7.913519213271109
14.931293449507066
0.14620209376247703
-3.546528244602441
-5.848871547334109
-8.307347079980305
-8.456538055614079
2.36919623039223
5.527163576269449
11.799180402031574
7.810831401694712
2.9679226721880223
-3.197044086302384
-12.575324250983744
-13.60212658576251
-5.266187428099385
2.378950179945185
11.810779055477163
11.977718200228235
3.736948108112665
-0.30725485309527395
-2.843647493730558
-6.660515747324055
-1.2462468304948282
-0.8444113240659572
-5.771064724022424
-2.51075433480135
-1.012242517709975
-0.3129860020035787
5.266600724161427
15.386040454776944
5.447019003460834
-1.373944128380347
-5.612068142316313
-12.903769269045492
-10.591709640458538
-0.248315369460427
6.1289206126355085
12.112691295706863
5.263822703259184
-0.5594003241271754
-4.834464510929622
-5.748473304916152
-6.233259979773658
6.596636700077774
5.1308426632534925
4.296188484291581
-4.999229316076112
-5.380242986181688
-4.1154910129863085
1.1049538232378326
6.694910981344702
7.048039372129536
-2.5398912469616515
-1.8328656993865209
-4.114568357156671
-8.038162637937827
0.026571921554247663
9.298926717883221
4.99145215837493
3.926893611472934
-7.730732265609417
-5.4183222657609305
-4.070755062422779
0.9218506707233862
5.454943900157519
10.20621705493649
2.0056345279951278
-6.431997396295933
-5.4269815726178985
-7.23273621838971
-0.6743202138677926
2.9742154602428696
8.498134476690769
2.7657823316129666
-1.3740101432526965
-3.219503328200669
-0.9627417149199231
0.28023677135932296
-0.12296363384834756
0.2706783816236196
1.131624468794237
-1.3384037886445772
-1.1577648964171556
-0.18151058694939173
-0.7912210576137113
-0.8535188902119808
1.877102672359642
1.35507277587909
2.4952069339074305
0.7284266858286604
-0.11480204273453558
-1.6104878746558668
-2.0932780948823493
-3.032760942865306
-0.3046881625605454
1.2069877137529117
1.8908640500536684
1.8276067096454272
0.8199704240940164
-0.3107767116213119
-0.9417650392365093
-0.7946629301180352
-0.6482079457315228
-0.055711910449769565
0.10715320969862256
0.2570496833613404
0.28728350262889835
0.1356569189866693
-0.05050428195905524
0.05701426737247082
-0.05115755348042275
-0.13041060668574284
0.017457761331209593
0.1497645576719494
-0.007020878494970819
0.05657387845293806
0.0497891990918914
-0.1006950444387226
-0.23552903647873802
-0.153957038341573
-0.014905158672579046
0.05128368621804857
0.1232234011417994
0.26676597921203576
0.1180406386300615
0.07663152368514495
-0.0892483666166237
-0.2280188565076048
-0.18619202055527795
0.007264936975265635
-0.05125478225611619
0.058581131967683865
0.17244631442771288
0.12971405699367622
-0.036944250230352284
-0.1079994498379167
-0.07918960977733579
0.03925216149307805
0.02460339626181744
0.044181058721539324
0.058693885078915646
0.026940594996470262
-0.08824808827176606
-0.11392302184288937
-0.06257462938768879
0.06911666912907781
0.0980502644290064
0.050248891898275035
-0.04382486615893475
0.04731839993267002
-0.04567761140756279
-0.0941601364499651
-0.07313391525666273
0.035630930376946424
0.03915980298756222
0.12895515125909565
0.0791392316486875
0.04916154594810838
-0.008277984299499556
-0.13556627985909453
-0.1581550308989537
-0.07633108547083554
-0.0640298264648911
0.12444517177351676
0.14183637226238968
0.03362819815041689
0.026552903216098257
0.12309467376178038
-0.09703462254017398
-0.06961871055464361
-0.035546406044898816
-0.030564162276566494
-0.07793384082841288
0.014495622731356371
0.05276459438644309
0.052060850883612744
0.030750954428615963
0.005166039103369883
-0.01360064398694926
-0.020629257399885418
-0.01636816615867228
-0.0049225134813097385
0.007852894756202908
0.016088636838847762
0.0154116866140734
0.0042978549608228105
-0.014789182346851512
-0.03478626595755978
-0.04446265783726814
-0.030344916071067037
0.019870855895852337
0.11318171286309893
0.0478778612169498
0.012472148074972184
-0.012181581953117568
-0.048046067397988494
-0.11401599029008047
-0.021153767767041764
0.029280031313025836
0.04455964589798978
0.03689719650995226
0.01918223627829387
0.001607517937904649
-0.009988780983664841
-0.014056411808612288
-0.01209736365794711
-0.007006340796027622
-0.0016162712988559702
0.002197202184491813
0.00378632250919421
0.003516656470457594
0.0022975389804169785
0.0010795490837996972
0.00047590605475930376
0.000584876381990709
0.001023385195950178
0.001136456071038483
0.0003172727937825457
-0.0016508255805826122
-0.004339344372033988
-0.006623956509242574
-0.006933749258813953
-0.0038257239572210737
0.0032131520692412936
0.012986422686447334
0.02220664452244819
0.025906230125742225
0.018871762280874407
-0.002041870584128872
-0.03538798858478045
-0.07357070077947793
-0.10363798247930972
-0.11141551136212882
0.11122802276694688
0.15804538341700342
0.20281056191975727
0.20069311635491208
0.09907811040414935
-0.3435078893884525
-0.3361856784075687
-0.24097834727305928
-0.17259501178207085
-0.01607452247484417
0.34137628570819045
0.5743694059220017
0.2921626739329715
0.031233244302540094
-0.1284957084571634
-0.32895026708871394
-0.49296405400135485
-0.29141292842722105
0.07081756365603903
0.24690415528062168
0.3235220030073171
0.19050711273096674
0.1160320418233176
-0.06553124805761038
-0.15195616583670277
-0.16181442720913866
-0.1200887014194514
-0.04690101284769629
0.04721789104136078
0.1595805109915119
0.0899222510746693
0.035105644263987636
-0.013194485667454032
-0.06710576377296369
-0.13886033849154444
-0.037228314898919
0.0338519057206061
0.07388009628071406
0.08280545511690676
0.05856303050253618
-0.0030855682373894244
-0.10599110678977981
-0.04949936191653279
-0.024867809713556562
-0.01411438605766488
0.007898089251527289
0.06865653233684367
-0.008082921538290145
-0.007913295098050614
0.07053480818124302
0.014744941342224267
0.0005967857718127585
-0.0025910979992003653
-0.025322953357401954
-0.09110511207527999
-0.011299662613968423
0.016993435893472526
0.009542050446599889
-0.009419628428940206
-0.013409985059707339
0.019706580537014944
0.10220878361033668
0.033447825492164775
0.00018484183126004156
-0.019575185234848646
-0.05034076233619368
-0.1124927279250656
-0.017434775017296577
0.03397990513867807
0.049594614314928814
0.04185986517193752
0.0233788006274581
0.003715105321044923
-0.011769932448774766
-0.021239104350738183
-0.024704369985628586
-0.022408398181843668
-0.014107911665762718
0.00038737235757150146
0.01966803173931508
0.038945095464901235
0.04908543068384571
0.03738749366266562
-0.00955179112080353
-0.10143512814465655
-0.03976737866681758
-0.015060376559304475
-0.00706441788728082
0.011751189791489182
0.07039904148481095
-0.007106426634305222
-0.007181988793662889
0.07025374204652761
0.01174379456041259
-0.00670047835151245
-0.014202780980856599
-0.03853315345785094
-0.1002431973428623
-0.00906491990515838
0.03647125766381427
0.046370015604701255
0.03470959203165867
0.015114947370419001
-0.002425401246138374
-0.012798374311291934
-0.015269975043570735
-0.011951089954627698
-0.006021007335675805
-0.00031249044317823403
0.0034552126884751597
0.0048057543024074955
0.004196858242306413
0.0025329406151328275
0.000717623802533535
-0.0006287522976598087
-0.0012591676317426402
-0.0012402140711210462
-0.0008163527367013059
-0.0002684600852441506
0.00018708503174427849
0.0004421682417253503
0.0004908856066831693
0.00039384627282044234
0.00023484651534656475
8.622557326307944e-05
-9.482749003729971e-06
-4.1866088021583425e-05
-2.4082954514208563e-05
1.989734308078915e-05
6.673945483659452e-05
0.00010078577817316319
0.0001161191841405413
0.0001148308402399629
0.000103426997145949
8.91786855068181e-05
7.757354897762166e-05
7.125962550026546e-05
7.026249812262745e-05
7.294044298181043e-05
7.710869728248423e-05
8.092016071216866e-05
8.331735774878505e-05
8.407218675508781e-05
8.355245098405573e-05
8.238831544180757e-05
8.117945016152691e-05
8.031923749961213e-05
7.994786700220022e-05
8.000160864717816e-05
8.030757722878807e-05
8.06777308143852e-05
8.097307346619089e-05
8.112898500874854e-05
8.114805590633603e-05
8.107459562984853e-05
8.096549406727298e-05
8.086786151460393e-05
8.080793015549817e-05
8.079054192184672e-05
8.080549446629291e-05
8.083624769304688e-05
8.086740898838333e-05
8.088911160234117e-05
8.089806191620598e-05
8.089615242024192e-05
8.088796693058612e-05
8.08783628195333e-05
8.087085589709653e-05
8.086701679605998e-05
8.086669559697947e-05
8.086870046895568e-05
8.087155196639462e-05
8.087404998738553e-05
8.087554540381548e-05
8.087594012467607e-05
8.08755153087755e-05
8.087470440854595e-05
8.087390207704182e-05
8.087335535461444e-05
8.087314084788458e-05
8.087320343555288e-05
8.087342183517384e-05
8.087367072052076e-05
8.087386128660573e-05
8.087395552849282e-05
8.087395943531267e-05
8.087390496538561e-05
8.087383054333088e-05
8.087376670347517e-05
8.087372946627339e-05
8.087372067310668e-05
8.087373261951678e-05
8.087375396346802e-05
8.087377459802276e-05
8.087378834933733e-05
8.087379345735018e-05
8.087379150360277e-05
8.087378569083368e-05
8.087377924888071e-05
8.087377441758301e-05
8.087377211193053e-05
8.087377212331267e-05
8.087377359722328e-05
8.087377553692966e-05
8.087377716651346e-05
8.087377809172511e-05
8.087377828274871e-05
8.087377794965707e-05
8.087377738880378e-05
8.087377685872516e-05
8.08737765134108e-05
8.087377639268176e-05
8.087377645170292e-05
8.087377660605472e-05
8.08737767725951e-05
8.087377689491617e-05
8.087377695111514e-05
8.087377694795183e-05
8.08737769082141e-05
8.087377685772555e-05
8.087377681617817e-05
8.087377679324371e-05
8.087377678923792e-05
8.087377679845815e-05
8.08737768131719e-05
8.087377682677348e-05
8.087377683543003e-05
8.087377683825834e-05
8.087377683651696e-05
8.087377683242716e-05
8.087377682812672e-05
8.087377682503401e-05
8.087377682366984e-05
8.087377682382479e-05
8.08737768248926e-05
8.087377682620507e-05
8.087377682726306e-05
8.087377682783014e-05
8.087377682790976e-05
8.087377682765613e-05
8.087377682727072e-05
8.08737768269221e-05
8.087377682670548e-05
8.087377682663993e-05
8.08737768266904e-05
8.087377682679856e-05
8.087377682690949e-05
8.087377682698757e-05
8.087377682702053e-05
8.087377682701463e-05
8.0873776826986e-05
8.08737768269519e-05
8.087377682692497e-05
8.087377682691101e-05
