0
0.0005259358983785178
0.0005259358983767139
0.000525935898369839
0.0005259358983583376
0.0005259358983451927
0.0005259358983359283
0.0005259358983373622
0.0005259358983549979
0.0005259358983895477
0.0005259358984338026
0.000525935898471586
0.0005259358984805214
0.0005259358984394608
0.0005259358983396205
0.0005259358981960861
0.0005259358980542327
0.0005259358979849437
0.0005259358980644848
0.0005259358983400423
0.0005259358987895902
0.0005259358992925726
0.0005259358996321255
0.0005259358995460514
0.0005259358988297221
0.0005259358974703381
0.0005259358957645803
0.0005259358943520314
0.0005259358940990092
0.000525935895803233
0.0005259358997608758
0.0005259359053294927
0.0005259359106998256
0.0005259359131101851
0.0005259359096546413
0.0005259358986313978
0.0005259358810803851
0.0005259358618621469
0.0005259358494800766
0.0005259358540042106
0.0005259358830178573
0.0005259359364370279
0.0005259360021014911
0.0005259360547581344
0.0005259360609066495
0.0005259359905221755
0.0005259358338693621
0.0005259356180767904
0.0005259354151644764
0.0005259353326074563
0.000525935480949297
0.0005259359211052558
0.0005259366055363064
0.0005259373387270221
0.0005259377876490993
0.0005259375660671193
0.0005259363939994367
0.0005259342973712882
0.0005259317727961933
0.0005259298160377089
0.0005259297210009118
0.0005259326151226623
0.0005259388071265852
0.0005259471596718286
0.0005259548105149967
0.0005259575818896525
0.0005259512758164225
0.0005259337312125423
0.0005259070711912774
0.0005258791434326634
0.0005258629754178457
0.0005258733607629039
0.0005259205937711091
0.0005260027846695574
0.0005260997189087012
0.0005261721829973316
0.0005261702620605894
0.0005260517273972917
0.0005258073088570707
0.0005254843935059253
0.0005251965580090817
0.0005251060144471611
0.0005253718987085861
0.0005260700598657595
0.0005271073380992829
0.0005281693775750579
0.0005287471577799064
0.0005282748588212808
0.0005263757398193585
0.0005231575511475532
0.0005194406469362859
0.0005167673170061477
0.0005170607523782272
0.000521898349104242
0.00053153362994338
0.0005440028891502866
0.0005548059981734688
0.0005576519369952115
0.0005465196362889735
0.0005187819490045308
0.00047847025731455805
0.00043815245247625376
0.0004176938818890016
0.0004387025636406961
0.0005148910179117092
0.0006407342267755297
0.0007830240439946687
0.000881163236785541
0.0008611273679064199
0.0006641488799792338
0.0002845376912207281
-0.0001966851634571593
-0.0006013208256538016
-0.0006852482914397843
-0.0002201268752192498
0.0008855866584005993
0.002463351017296408
0.004018718092169352
0.004789050972424574
0.0039680522995834
0.00108234642067529
-0.00358052265333681
-0.00868234375257209
-0.011925004620080896
-0.010736989696295277
-0.003636556648246708
0.007879230385126643
0.017339497646956494
0.011824339005861505
-0.028314641291944196
0.07201918886756001
0.08622107128224782
-0.008421755622661717
-0.023813711632729766
-0.15452796749067635
-0.17422619735628359
-0.037422941618552676
0.11262209981835673
0.13177520087687658
0.26294673504896554
0.12893707910108884
-0.06679980356848347
-0.3322453455207735
-0.276347662612312
-0.10217652955173878
0.19210784614209128
0.2049879729080669
0.32114146334708815
0.10558196723759489
-0.09312173784873583
-0.3309574264675709
-0.2531052309075049
-0.08225686529496501
0.18421140280863696
0.16771525755885333
0.09654343891101236
-0.005738155818459242
0.0728610909938646
-0.06779203901357851
-0.03529768378580544
-0.03755144384768182
-0.07621045645077723
-0.14347680247905142
-0.023670664446991112
0.10072749521203507
0.24095863091586153
0.19570275486873664
-0.049655119882832124
-0.1169065182138229
-0.22433388563139026
-0.17641657022941296
0.041028438845247095
0.05780018740530142
0.10963354273173478
0.22607635205877105
0.020894394572257956
-0.11150161414226747
0.007073598499481787
-0.05359698233346724
-0.12298700303462741
-0.022528912756283385
0.03790394472775753
0.059464670219328705
0.050981036105749125
0.024753248992442193
-0.006820836821944456
-0.03310180350595843
-0.045899112102303345
-0.03993068348142538
-0.013892355015584574
0.027698476071848537
0.07264918304976448
0.10071005959920741
0.08619866516517702
0.004283983133252159
-0.1601147736718338
-0.2037319848105793
-0.10054919229542689
-0.004588665893983473
0.13980730616868883
0.18326850634254147
0.15751160900363087
0.06737747384828825
-0.1085805971147658
-0.20993357953150746
-0.0825836331961145
0.0318365265996131
-0.0979774563708362
0.1078980449385801
0.2382063206641089
0.0878481831469171
-0.1424720215448834
-0.04378843861016763
-0.19563354134372038
-0.16537333167329885
0.08738401701969048
0.20146520942846374
0.20307593538933436
0.09776948290865675
-0.13084249422954844
-0.11509584399996307
-0.0928203060952187
-0.09684870300345587
0.051859052140128786
0.1460988812591742
-0.009759214599340097
-0.003925126839202052
-0.021505190831748126
-0.04823383752710947
-0.07370103132286328
0.10579236276832502
0.08520866010051488
0.050678977344993326
-0.017564964457486898
0.060901761693456166
-0.12540431745076105
-0.17277491643924855
-0.058995985766886465
0.054052718364174974
0.011792700961506638
0.054639379155517226
0.20590785823125696
0.06403783044384403
0.002014035541967896
-0.025443636862875933
-0.06900626080339273
-0.1702808729039181
-0.15049032825867595
-0.005991543177913508
0.08806494524506718
0.1676466029248567
0.06736957861870022
0.01021208810235295
0.002556968450973549
0.03533658815071974
-0.11006509882344492
-0.05373384531934798
-0.00984702795577155
0.01765506744097228
-0.16488857024707543
0.05494588402457555
0.08849461296706396
0.13818865125435797
-0.00797296380796941
0.022826149006682266
-0.006802475345082107
0.06535112641725381
0.013402142233756291
-0.1650151809658029
-0.24153389647191598
-0.15780063268803937
-0.03614459497747368
0.20124297949984418
0.4101579827865632
0.4075152090552784
-0.0327795587584612
-0.3686242117466847
-0.26754743157082367
-0.3831349432570584
0.06009138021641139
0.26818883192726284
0.2672731348629408
-0.1125975923699114
0.1480652738600756
-0.1502126595991453
-0.02717690400912372
0.08160117984899454
0.13294169588582314
-0.11376288897126505
-0.08625632829889393
-0.19140382285778265
-0.01203946196483929
0.0898481534842003
0.1643978806744329
0.06256607538637017
0.02575244637134323
-0.12139752149693266
-0.17495032647746525
-0.15385081561634345
0.09854603848295324
0.3145373869844658
0.40726292840009853
0.28529839876156404
-0.1219899954167775
-0.6332778038969922
-0.7899626997104059
-0.4509322165497874
-0.01670329416269969
0.9196842174979762
0.9111875026794666
0.6085195934385578
-0.05450159507196911
-0.43544196616920966
-0.9282014571696726
-0.5009110075476757
-0.05032356142359004
0.2130225591445503
0.3485831873891655
0.2498004983227248
0.20421661764681923
0.0633460450884076
0.02972133216500655
-0.1383360267661861
-0.10897534027452227
-0.1536576803130545
-0.12630312053561724
-0.05048637855418206
0.08286013624244432
0.10829007057821667
0.07293098663941236
0.022479620376915043
-0.010007305423989876
-0.010394008448113144
0.015608066632014864
0.04624065669417527
0.05113932651713173
0.0010201333644903096
-0.12231056735051021
-0.11821976192197299
-0.16461754111664043
-0.022360180628533448
0.15363183607660588
0.19974017091624144
0.1307937713877492
0.1342660072152007
-0.02563608218382214
-0.19501036598781843
-0.21307239473552247
-0.0972136169618114
-0.0359443865440512
0.007763056035414812
0.08416521778697314
0.24004620508841476
0.10354489736225495
0.07567117352100293
-0.0689458299105424
-0.17306331902570793
-0.08352400209675942
-0.03870027217306775
-0.06071374808664868
0.04591511451736866
0.09005492302146956
0.08681409110117061
0.050639515558245696
-0.008850453040453909
-0.08739856665058733
0.016197543472530006
-0.09658273424011332
-0.02144397367304347
0.04945598759581589
0.12654814073320805
0.021224666266696435
-0.05533129968283183
-0.09255249023088077
-0.08093726863103823
-0.013746580781910624
0.10963662371663403
0.07976294379479314
0.07481024296304029
0.06209011021730154
0.004203688958269965
-0.13134057810582933
-0.16207695236895314
-0.08395902164355559
-0.07125695188283315
0.1162358964889316
0.12085381176077711
0.17400280484648145
0.08733512258542425
0.05152334783772766
-0.15703407338788977
-0.16451445345477747
-0.18802378540848133
-0.02896864975433196
0.12592892927622
0.0968733955384614
0.10032917545580353
0.14024903331526473
0.004797855095309935
-0.1303955371263463
-0.09419248393884408
-0.11067020595843384
0.0076973790968770635
0.06226274178047648
0.06593815220259125
0.03827114800454892
0.0001695447035954228
-0.030088271661167003
-0.039048983808534284
-0.01881775242771291
0.03315531410030771
0.11508099835618799
0.022891644474843764
-0.046476984668636714
-0.09121395674421875
-0.10180374916091212
-0.06119669413665628
0.05093703707563253
0.050585508784841714
0.14096265277480075
0.10675700312378172
0.11404064178857665
-0.08308963742753941
-0.13077211223242233
-0.26262696062440183
-0.091035557077375
-0.006154988261708092
0.2169638932071867
0.20657258755823027
0.18337163848242646
-0.04440295102912667
-0.07821866664046691
-0.32122383951634914
-0.17020722578516542
-0.012757612895893836
0.16811291375222726
0.18395761355975854
0.2308885575869382
0.08543069852120141
-0.09049956291171175
-0.13652285711676856
-0.27759493575977107
-0.11138049193874999
-0.004679687402752967
0.09921048906671835
0.0645839478548012
0.14432215175842103
0.16412563717074977
0.11504448510251568
-0.043385579386025996
-0.17058652847268677
-0.1273470571795849
-0.15924595972708688
-0.08646852164923943
0.09733977488905506
0.2181496616916556
0.1104640333992343
0.006930585929727601
-0.06791849532788044
-0.09916473892395752
-0.08000218823877395
-0.00975815943215268
0.10695321326744864
0.06000108699922122
0.03373804749685525
0.008618999468510358
-0.035171584373205896
-0.11303342730646958
-0.03202234193367747
0.010564276165548756
0.025289296839464546
0.025897006111914065
0.02338651398594294
0.020653236235992353
0.009182511224490092
-0.031335624071785556
0.06978410557464493
0.07996686956218986
-0.028562829342172715
-0.06964579938027592
-0.035026615600060984
-0.08979550346580453
-0.17385002678777714
-0.010585428727746697
0.07802473954808853
0.15324764212654401
0.24356720907658713
0.1364137342428668
-0.01869281235217606
-0.09570192412634738
-0.17058460027011124
-0.2999721886038005
-0.10718428679696303
0.019629581284587024
0.11700039426049681
0.22774724185209821
0.18206104926450756
0.18544976390599685
0.01808108669800656
-0.15455363393644272
-0.3644487755760338
-0.22513286264130639
-0.12444452408083889
0.1702770691648368
0.29668451328109346
0.2786447484955317
0.11281601835610536
-0.03337154861527772
-0.21159971587612508
-0.27501338474858655
-0.06048186785400847
0.022510046901621377
-0.006893793107331572
0.0914108181593263
0.1658271327476984
0.06029290826126282
0.005459194229561423
0.015774079573793755
-0.10805968810450374
-0.17372323049191016
0.007834607128496648
0.024919712099556453
0.06456873461245945
0.11051819940245709
0.14219739185161895
-0.06323612283465845
-0.12554376796439642
-0.05456551617845482
-0.045023784208201995
-0.07586066074925255
-0.11543567010697223
0.06820152934805193
0.09486848804109485
0.36228087200515224
0.44375555001914874
-0.30299687674110803
-0.3170962560728387
-0.21243813915430226
-0.3623432722303079
-0.2993507666658738
0.4673498347679077
0.42203524636096384
0.21130710433191083
0.22416102910061614
-0.008612025621370471
-0.1952637328094601
-0.25108119960912906
-0.2647263797870276
-0.2742652349276308
-0.06054976124637929
0.24054922662034642
0.3121266745215975
0.22607130736499212
0.019022839151783207
-0.11862327895937894
-0.03911611917332139
-0.022148119285984567
0.046892795263950654
0.10024270171588022
-0.0915671306525587
-0.30560613716299906
-0.2629540834568901
-0.03865548029141639
0.11479430093900493
0.3351709664353249
0.31833036374172
0.09601472072888313
0.030545134903066772
-0.17253066298658412
-0.23875055258522926
-0.09459670295508807
-0.041728672924639054
-0.14175735791003058
-0.013728556242879792
0.15735056387268023
0.20549658117067993
0.16825151249883696
0.07611107173504754
-0.05050441335915496
-0.19815175058816187
-0.35605923202507406
-0.3167847624611381
-0.0859490839229958
0.3001052180823575
0.5565840649392287
0.7451834121531352
0.6940028604701506
0.047058158778907455
-1.0657457318123178
-1.962262224858375
-0.9774270366802817
-0.0934946380372089
1.1663082041701698
1.6075212628078421
2.044874419236757
0.24042920563861112
-0.8759466167253322
-1.7136696731750323
-1.0955718974517847
-0.5483739516371341
0.3545356591831947
0.7890748451522168
0.8319673936860135
0.3976602443521507
-0.011854465419695068
-0.3300458353296132
-0.3230285893215868
-0.3729347979442782
-0.2620281658891211
0.032345798231828926
0.32997741969820993
0.4331277941585074
0.5154059384760136
-0.07647422171238083
-0.40515442687621045
-0.31513623175425426
-0.4074752449494427
-0.4291813226811188
0.31596395635223484
0.5376834115659617
0.3215706955452641
0.09823541953804427
0.030990564778103365
0.026313037312062356
-0.03664643933434422
-0.2666709156404979
-0.3227478458231051
-0.18917730497661076
-0.17159831317676652
-0.11646951160700394
0.15024538844630864
0.5756826852948067
0.6383229310431654
0.12576054034046222
-0.26008734171773545
-0.2724397867345605
-0.4754505940407174
-0.4023933228421888
0.07025283695292056
0.32695056206783785
0.19857155678411972
0.13844300791511807
-0.0007077561905532187
0.018134949665139382
0.01140236284691894
-0.021189561801107263
-0.08762445301029788
-0.1937687415601125
-0.13680586867381903
0.09547618160541774
0.11952427701867044
0.14782054530307784
0.18210717553017794
0.011872784870047368
-0.18072108640054255
-0.21166926576359066
-0.08622565143951794
0.005283362491806232
0.08496449804379916
0.17956062750440052
0.11103828540235132
-0.11058053410462948
-0.09002289488346923
-0.04542120190338496
-0.004396659258751423
0.20111451228312968
0.14108396832718664
-0.005063490415262289
-0.24038375587145241
-0.34475030793527517
-0.2758074528269471
0.22075464743633866
0.3934392827127082
0.4667740670308756
0.23205069220235677
-0.14682761992940072
-0.5136451250919228
-0.49533490144168213
-0.2850846055201974
0.15762837906857244
0.48919221995287426
0.35435028012605946
0.16184398548919093
0.07410295106241865
-0.18498831034189442
-0.30805044700803647
-0.17692187364361248
-0.04010232846746392
-0.1019609332586646
0.07423978635644658
0.15224126430077276
0.2034618287560693
0.08916695631159274
0.049431095274904774
-0.09898416768183173
-0.15734866238636241
-0.13638293739263077
-0.04900644505329667
0.09256578145316414
0.07516399521759708
0.08074378163832596
0.08354208001697769
0.050948653410205144
-0.051119368373555074
-0.04971826388921043
-0.15635877359475014
-0.16224282309497923
-0.04024868640353444
0.04556344155763973
0.125200360773137
0.20771812871036094
0.27201885304162027
0.06829731465937909
-0.2685212596678431
-0.1966083907734209
0.056797137785304874
0.11355630790478215
-0.34897557608805146
-0.40656891702466674
-0.112431779660811
0.06563070753051999
0.40345059251220344
0.8879614917193518
1.0097785314251548
0.39180684726071224
-1.1482542450137836
-1.921229365959169
-1.1084059030420053
-0.1530135385552299
0.9879165695643642
1.949727473285433
1.2647944216240816
0.10802103700631357
-0.6940565088420217
-1.3980361666486198
-1.054274921825561
-0.03208233032115229
0.41402094449256543
0.532578413283581
0.43286537631983074
0.23478438085994943
0.03015874706321139
-0.135408287101806
-0.2612419524052253
-0.3787332553560035
-0.1364877645751558
0.2098472449710991
0.4020997453940218
0.3827681808242494
0.10285530103400356
-0.46313713918553584
-0.4990848828282879
-0.3352440921209559
-0.05146917728796792
0.30148914933377896
0.6686591570150832
0.35801568504723896
0.02085738201839493
-0.3482906844005007
-0.3954220968780913
-0.3848116960072445
0.01773871448407396
0.149712080501285
0.34607596462751194
0.3304321730285857
0.21233613327937978
-0.10338281853969657
-0.29603111443422375
-0.40444927096261285
-0.2089638625644578
-0.028854043982936194
0.0614681343388008
0.20153289534619406
0.3086144223111236
0.24769916680135506
0.21716080166640597
-0.04534189909762522
-0.23885978532743568
-0.26528144309593404
-0.3972524020879818
-0.2588248261317427
0.17505497556171876
0.3614551187591623
0.3629495329115752
0.22321210259046223
-0.04578948257324478
-0.26174264724060914
-0.2588815502302014
-0.2719495434121484
0.07484035906242481
0.17000049984596038
0.2096901951653271
0.19070168814354363
0.10715740767278799
-0.2463789056640492
-0.2670431818860211
-0.13606846844900267
-0.016812400933683736
0.1390630687728558
0.17904658792033393
0.13587674858187068
0.017838107162461963
0.006763087302215421
-0.13602887648849502
-0.05848922975543028
-0.005287132574758493
-0.007615213948897445
-0.07764850646212743
-0.008395844547075784
0.021579511641137927
0.040093724152062506
0.07222725069783772
0.13274836030987278
0.022163877678136833
-0.07286614762911471
-0.17586678717492701
-0.11626798547170651
-0.12727736879703952
0.15301523231198869
0.27912261323978377
0.3985478547266974
0.05956317997573275
-0.37231276946784536
-0.29330010374448573
-0.2445456318523637
-0.3087432031959384
0.07492966548861472
0.4798353018407315
0.25388463415649565
0.08688839813389584
0.99387837353413
-1.4811695674394116
-0.24479029911395736
0.5739579214198169
0.44947273871867266
-1.1211038426623892
0.7943630664083522
-0.03127001744736449
0.01468485731812946
-1.2230715263550354
0.517240467249849
0.8939141044032238
0.3412243292509472
-0.7423521468160003
0.6087193805073873
-0.45704299283993993
-0.3869154805543839
-0.20682947812014404
0.08477280330902576
0.31035298075821044
0.2981637109929531
0.06642084178759966
-0.18622331192825423
-0.08111051677175765
-0.052619401924145076
0.06232016906628396
0.03488074027714024
0.05335813543446475
-0.07025715085401124
-0.09702132489542319
-0.16239829009777398
0.016594107166677027
0.12857405005279707
0.05150240058075481
0.03675892863655804
0.09772160323125605
0.005851704292561444
0.09546437946564623
0.07645500038875239
-0.14757646745134703
-0.26002092608962957
-0.1159759673275407
-0.13555368075621863
0.2923767148629976
-0.0019005599590779826
0.21586459311855796
0.17163180324519992
0.07795399731331187
-0.4632900440750272
-0.05331875166096331
-0.08914217080283213
0.03920828922727115
0.1459664375520931
0.24402902462982246
0.1406944179555333
-0.16207978071527973
-0.26282016371029526
-0.15429849251530128
-0.020369091746320334
0.16147231582267588
0.21280028370726026
0.1461646106619182
-0.039567428499855395
-0.15854504868935568
-0.23345037914814618
-0.09089048009641454
0.04008806787189964
0.12593040276034012
0.3259616723634188
0.39415753262126296
0.08908429601079003
-0.40866953584656135
-0.8784991160518573
-0.652544287351391
-0.02873677077245521
0.8958740018062907
1.784808123465853
0.23651431729430514
-0.6092831206830615
-0.8328435396289394
-1.0823113883273952
-1.1364064143561268
0.8971018693248737
1.3453529641363806
0.7152486631454859
0.0469259418818678
-0.5034671848970814
-0.4483834182638097
-0.33307290955220054
0.10302096844763006
-0.045634210832221495
0.16200409695210666
0.11275223487074276
0.030039156440650996
-0.23866543843925048
0.16539728944897064
0.1010261475290698
0.01841786205458777
-0.04594214866252634
-0.07064079631364434
-0.0478530186730845
0.019507339255751818
0.12094638173872332
0.0417089341824942
-0.03343307211581648
-0.11608264151608233
-0.010955699199598757
-0.11513785602823984
-0.020996940777165084
0.07759067242968505
0.17779606565833186
0.062489921820332
0.10022977897342934
0.05217493482330928
-0.1151796367465834
-0.21529476006159168
-0.23045056054663576
-0.1094738187342379
0.02300675089636599
0.24744483022579308
0.22633019115642777
0.185301500020756
0.10541019019181373
-0.07044615355981608
-0.219076301094482
-0.21297230833506478
-0.0988983664357114
-0.08590948691289471
0.05411917557606965
0.1747928349724992
0.13706375826979356
-0.00930004706691848
-0.03956024534247442
0.03957331218985635
-0.008625678305615465
0.15742494369490176
0.07123449300380513
-0.1251680848882207
-0.2652272582163989
-0.14716646717985063
-0.13307938435961153
0.0402698422084991
0.24122142595731616
0.3198467171433343
0.08949142160492524
-0.08018645879375211
-0.05627424765492961
0.27589775801318683
-0.3628504379943622
-0.22237913596341516
-0.1084161746313399
-0.18164622415166118
-0.572554837465248
0.5915824906960367
1.5571511985895292
-0.4744395123728547
-0.14314988910905233
-0.10253140144405046
1.0224699318973298
-3.1250560359651485
0.1843644572748213
0.7509524641497689
0.79602089805358
-0.9056707008971725
2.1138388988643153
0.3857925984666837
-0.6830981869206929
-0.759904048325202
-0.7147757724565346
-0.3565279840872215
0.20407706226865865
0.3559428876489799
0.36136708180431454
0.3174093714676886
-0.07956570168997032
-0.15660934604639556
-0.0722454071339668
-0.0134188131785665
0.01332611581789966
-0.007939131944676565
-0.0935778261771817
-0.05410860320858815
0.10883158748046197
0.002571600246448158
0.041678446036611055
0.04590015013377799
0.03882657774339288
-0.15263407223140973
-0.09883253799898487
0.030693519745075445
0.06320983993250552
0.01735151266626411
0.09821116979457506
0.09521049464478948
-0.015794661370166694
-0.06627918619829273
-0.08651414432701557
-0.09774611265952601
-0.10810618792290316
0.0860461624614287
0.09377630186641644
0.12070409239036707
-0.038944923785738064
-0.0064997372889637325
-0.01795732690571285
0.08164506567362319
0.04743133772488706
0.04590263793412652
-0.13393075759695625
-0.27244543101034346
-0.11773032729812825
0.007274283915095968
0.18933263195403924
0.3053405045511549
0.2051120167088743
-0.09770879793936697
-0.22454240303977158
-0.22317116073292478
-0.1568768380546921
0.10381434264683242
0.2855797979403415
0.3157672081576643
0.1294456877936089
-0.1173746843712054
-0.4306413809426089
-0.3644746155657789
-0.21957649441881003
-0.059480420608768486
0.2568178791189113
0.6351288961141804
0.5134042345420854
0.24953943923862706
-0.46397137171786307
-0.3629009187169596
-0.36543506591653946
-0.33464794201264364
-0.2623265045180019
0.5216798875913194
0.3201126389111589
0.23131233411728655
0.11826302583000176
-0.006917634199940198
-0.18072920567033626
-0.07231093406549718
-0.16121807491692927
-0.11668409649178829
0.016032405599630328
0.019906810367998812
0.10197031148667049
0.08394357250517889
-0.008300171070426802
0.04688330057534584
0.06247109160395322
-0.15757435719029195
-0.015671613012899367
0.08327498245806986
-0.06453142598796997
-0.0593744846195883
0.10298567723465857
0.031150480113468954
-0.06279462441219522
0.03554415233127678
-0.058536010480137096
-0.1307224761316436
0.029825620881017274
0.22801963439499148
0.26204156185050725
-0.07392576716392801
-0.18312497734016867
-0.25851020320364654
-0.27896812879974564
-0.21404217129671957
0.36219007084468774
0.6531870474420184
0.4275078483804719
0.02110777279966741
-0.4427892238161526
-0.6230542483250484
-0.5332448100579539
-0.13136766221041743
0.4670437632092428
0.7579379585720681
0.41417936112709663
-0.13705956120535448
-0.3165549924321764
-0.3773459898384614
-0.18134819426207435
0.02042649421016551
0.1974197752226298
0.13867007330031447
0.04580492982347367
-0.07500843852971201
-0.018889590287704063
0.014969243144153422
0.02291444923617822
-0.002077757639208821
-0.06853961416277872
0.015541148759579283
0.04446599430729925
0.01599047453748005
-0.06809745543846336
-0.0019485440873017311
0.023748565984014883
0.020498417294131502
0.00026503448396512984
-0.02634945653606145
-0.051708476827528306
0.1276495724774505
-0.0895803822488119
0.09092227950483792
0.060797714674530164
0.011918643883652278
-0.2602695232852725
0.04547497466891094
-0.06441423043621289
0.017505360621774588
0.09295831481386511
0.15131013447831582
-0.03380362953396286
0.09786662801690423
0.1019409635022813
-0.05687154808211339
-0.18957228584962021
-0.2711800648718878
-0.2377759243995486
0.004458241107238119
0.35922884583424725
0.3151896179407852
0.32515244211427635
-0.0026153328219505915
-0.29837439453960396
-0.4144185052379144
-0.40705111958659707
0.07425245402863595
0.387100957191941
0.8898858015275322
-0.2623284027591809
-0.11254467083849617
-0.2871608640526487
-0.3795061062209419
-0.7422204650720298
0.504211793552889
0.6473820229858285
0.35251518567425405
0.03899077609241028
-0.1261864083819274
-0.21654020010096486
-0.3225745684808699
-0.126663545940749
0.1151301621605749
0.18057651931714128
0.07938396201618422
0.04585650495327359
-0.0702505642072936
-0.21321094159225426
-0.13168874127879923
0.009172662786793424
0.21483234815652527
0.2512401882515354
0.24291098671868405
0.08360217684193143
-0.1398820789168476
-0.31557700211118445
-0.2750807261086518
-0.17338537058851597
-0.0872202668953766
0.16644136788229935
0.1963581432083227
0.19659705103221978
0.1100485676570862
0.004150130460207441
0.06298668586707616
-0.0044345655262460785
-0.1433092863937895
-0.12508439550132164
0.08152794101841784
-0.06464367977338015
-0.06010311996387195
-0.1489487805183031
0.07523626709270811
0.05907074089595726
0.07339710196505964
-0.004513907408930154
0.0932594609588487
0.014342641312010625
-0.018684406137102195
-0.006865573656759011
0.03157835324964452
0.07086888161943128
-0.11176010297647396
-0.12703761052777598
-0.16880045266307642
-0.015321594194411536
0.16302495883171486
0.19227316056863553
0.08407895458171853
0.030148657129982773
0.004163485653239212
-0.029760686498010298
-0.5057538995601134
-0.04676480719991946
0.5394353498742327
-0.14152492781224835
-0.07534540445908372
0.3568984281164494
-0.022646478070898566
-0.5878598128538365
0.09182106805688997
0.04865785784224694
0.10950015611179671
0.08636051901775157
0.16894479179768063
0.12313925288317029
-0.10284821982849524
-0.16615995386975121
-0.11505350706042801
-0.17825484466080882
-0.16227382679865948
0.14207799817877725
0.3467349912582091
0.2530488008989185
0.04493638249917109
-0.10730095022495355
-0.23330498259173646
-0.14454826145842856
-0.018953171649355702
0.006124997780258335
0.030321133581751546
-0.02286326964960778
-0.025705623008618925
-0.06865904846515301
0.11852116101541121
0.3512193811085529
0.1842513085167287
-0.081091022238891
-0.1777467102261048
-0.24623895474016197
-0.20848313021592427
0.05054354105438874
0.08936288268469339
0.10550178514262198
0.12409378844804805
-0.015312634717726512
-0.06988962736644275
-0.0009606690280491274
0.022138559379769086
0.020923686470252802
0.008595281513549356
-0.007717916221663706
-0.02395770377871529
-0.036277753507879554
-0.03932126390893308
-0.026364016377271576
0.00858764696706411
0.06751728635982153
0.14547994941904624
0.029815166461298333
-0.09743034151096842
-0.05429896032888625
-0.05289099654373002
-0.09502318847818145
0.028640841537848825
0.13576908699683948
0.047195704544998995
-0.018464439276198338
-0.048702774644256444
-0.03897129783938276
0.007029113173263488
0.07797730263519431
-0.043731041235714634
0.020269537725982584
0.04768245955624072
0.019891908432777012
-0.07330307975200341
-0.02959961768904447
-0.032098609451435736
-0.05043421689568556
-0.04564177370518106
0.02182555899289011
0.18271735569327094
0.05093527085219307
0.019576934592414625
0.06272011449873884
-0.05739587635308299
-0.18013105145383151
-0.1366875248238704
0.055754609351905494
-0.005790969534819164
0.08505389005652092
0.1370167987126759
0.15553697356656546
-0.05880731427632879
-0.1072585687562049
-0.18721206598232976
-0.08751177969204745
0.012066507158123432
0.13617026839427043
0.10593095142274335
0.13141089773757228
0.007955355542769108
-0.08197080408592958
-0.162505697036329
-0.05665574692841212
0.01963033643128802
0.059708503356215234
0.06502389578762574
0.04213628788741008
-0.0001077688007137562
-0.05221291173168562
-0.10462358644357689
0.05185385602216928
0.025021841347384915
0.019654348507274804
0.03601947984269449
0.06951278821922445
-0.08811359409840894
-0.04623818000315328
-0.012574220385192642
0.008756044660070308
0.01762963033350417
0.016955339455927657
0.011012579750592374
0.0038532434609687216
-0.001733298742423703
-0.004545334726244086
-0.004718446095919995
-0.0031720327926010733
-0.001026159005586531
0.0008244777884654465
0.001907439846651091
0.0021645826316828995
0.0018176199041208556
0.0011958401661394183
0.0005936629098740032
0.0001914851625379665
4.122489322543613e-05
9.727422717659042e-05
0.00026650410467546056
0.0004547114271658197
0.0005963259466469864
0.0006642717724643363
0.0006642222593024203
0.0006208053518802054
0.0005630462068952928
0.0005138727520193532
0.00048543113924507476
0.00047945863544423807
0.0004906269820298236
0.000510611825125712
0.0005313001150900439
0.0005465176406126384
0.0005525016793443083
0.0005477880228203167
0.0005331574304105726
0.000511898193939253
0.0004901095301488789
0.0004763610266390741
0.00047997227649445846
0.0005076133218484423
0.0005588044553249719
0.0006219520725831415
0.0006733389012071882
0.0006814473607017883
0.0006177034447140718
0.00047212964947348807
0.0002690397036379856
7.50258670237269e-05
-9.220002964513072e-06
0.0001213573611676057
0.0005270084924344318
0.0011675384714947322
0.0018638859482867593
0.002305895656654511
0.002129319540650881
0.0010643309229565643
-0.0008761172364683551
-0.003237892919984272
-0.0050930941180260475
-0.005223408824126804
-0.002556809385985714
0.0032056488137437765
0.010962100900170716
0.017873495191851146
0.019626549351005353
0.011474934968709391
-0.010051356363582536
-0.04526226457262158
-0.09005130378198828
0.0639474850119463
0.027501392858002672
0.010725792485901872
0.019923987762170664
0.055406169527419634
-0.08912224391318753
-0.02564734136448665
0.03011414939170613
0.06124141391689833
0.052549045738516945
-0.006041355618394711
-0.11608097576890872
-0.06828357286513977
-0.04289933282712227
-0.013793538724811313
0.044202432312473644
0.14676373416397526
0.09351701187069274
0.06647595485087164
0.035028836973648045
-0.033340912363830986
-0.15990351092098862
-0.344094053128055
-0.16055612994835317
0.033297441291211434
0.2806459075735565
0.40584896411492133
0.4012978897140039
0.02800282032477917
-0.36854670362010605
-0.633533166362204
-0.38078121042211976
0.015077638883735419
0.4077285152155404
0.45474564257258737
0.39168996954800006
0.01709974591419169
-0.3053969731922861
-0.43041558923220175
-0.2087033719214452
0.13027484732698852
0.1851676874096321
0.17927015993881185
-0.048856269950741577
-0.05601325034846333
-0.20388575790448368
-0.06737084155141426
0.15796024137087225
0.2504261456870392
0.1617838322389095
0.024827494659793375
-0.030338743529247498
-0.25469701809495127
-0.2600945832116351
-0.20808212701021095
-0.013326773745314883
0.03759102438591044
0.2567231675427711
0.32358375198246725
0.2624377515495862
0.03584295634244389
-0.04314626803193927
-0.2842516416959759
-0.38807192971425897
-0.2201681466218755
0.0001333480591979685
0.09330293503932709
0.29946987440496453
0.25352284616548254
0.16560886418331697
0.014450288910513257
-0.044418777467099546
-0.2590898845262601
-0.25796248633078206
-0.031223721853304718
0.07648005532436153
-0.04004974190013644
-0.06412737493183093
0.11841702595160764
-0.006251904906152353
0.19944003176014463
0.3143996391367938
0.2634065711701663
-0.06285453888864148
-0.376406769986518
-0.5587380330938855
-0.4380091821140379
0.013415789919908504
