0
-0.00215291255411844
0.07885249958919767
0.17175195965620754
0.0804887469140784
-0.00247901589116699
-0.09505344515708045
-0.019784784810409038
0.004043366626586808
-0.032340677473953465
-0.12294258592676369
-0.04711156421109841
0.02573189943420017
0.1278860932884871
0.0842202554098881
0.10528459252750125
-0.014852086882047864
-0.09549766345999154
-0.1626443599201933
-0.041735672107381404
0.04729583719605861
0.09159065361589964
0.08443081309718752
0.02381119909669647
-0.08789582240981275
-0.04297999741113341
-0.027226399723162993
-0.019999798382762002
0.0035796919876671268
0.06857969914509823
-0.004609967314633897
-0.00454383205972949
0.06880689655070803
0.004027139512297589
-0.01931242157157657
-0.026399296787353692
-0.04227958886263667
-0.08772426215508097
0.02304617748680282
0.0825304037603422
0.08879935104292236
0.04444709363471163
-0.04328710863912203
-0.16139288988357495
-0.09045114436062757
-0.006330802422482519
0.11503285461165629
0.091004469331947
0.12652418377275831
0.012092530866782412
-0.07329112336626109
-0.15528591967687178
-0.05629955906268932
0.010337418689913105
0.04222673794457906
0.04588575618148283
0.03248274757778618
0.013369846437633002
-0.0030693835864287005
-0.012665947370045411
-0.015036708363348696
-0.012179742969315953
-0.006873137774852817
-0.0014594498862363478
0.0027200903617588135
0.005279218481278072
0.00636629334876376
0.006179327420959831
0.004680701854774087
0.0016500026464106065
-0.0029501982316075892
-0.008477843587053873
-0.013272789551285595
-0.01477889445015927
-0.010321343488877335
0.001499312008435852
0.019148369751713367
0.03687762367460121
0.044594090285816144
0.029456589733210012
-0.02078691984756555
-0.11353711159690841
-0.04770083678574719
-0.012342348959162855
0.011442360120361829
0.04583308717690417
0.1104048634750502
0.017185747340436798
-0.031672752151366744
-0.043106864366356024
-0.02999475551939243
-0.0071047406700654545
0.012542240150636595
0.02021019005792586
0.012820344986478398
-0.006630710111465309
-0.02948329186524502
-0.04277188429258024
-0.03173568462590165
0.016575427405966795
0.10926768074997946
0.04444117505094828
0.010333232278529421
-0.012469768213307685
-0.046228888199205224
-0.11027435919509203
-0.016305715322508532
0.033661172733380984
0.04630754129590251
0.03384342438964498
0.01016222811533198
-0.012377643758889582
-0.024963950134072647
-0.023261783528005335
-0.007715092124631123
0.01645649483226265
0.0396325901524564
0.0489575968303957
0.030733903508615684
-0.02597956444983157
-0.12540170350672852
-0.062277785941461945
-0.022006867132662082
0.015592777300277015
0.06971352044199228
0.15149148119568406
0.05932085635288189
-0.021282570106204133
-0.11289031911301456
-0.038116563764214344
-0.01124276663120668
-0.032330922815724965
-0.0855373592186231
0.05803863358721805
0.03386315588709797
0.07567791553783643
0.007715382583979488
0.03942548541545085
-0.03623851741205878
-0.04108737233731995
-0.007497429178084209
0.02696712405497074
0.025037785880781573
-0.04535211972478682
-0.0072174525699418915
-0.07221860281126807
-0.040317721880340725
0.09865895235294582
0.16239134906493996
-0.026209860572552653
-0.03980658313423794
-0.04615722738775917
-0.20805080395198228
-0.0858856051419735
0.15585064754600914
0.13910818098823718
0.06289913908103872
0.09785819255214749
-0.012689451400295702
-0.14511562229664543
-0.1837143071166789
-0.00829006395210593
0.11605623807309373
0.14620984419953886
0.06670088472332987
0.09550509658052649
-0.10974885325607542
-0.24741034383595986
-0.17350977888673327
-0.11387784158187766
-0.08868205772869667
0.05279742929463057
0.19385971841115013
0.31860176503278137
0.4977253779069779
0.700709001822206
-0.5630670278521321
-0.5811253251413065
-0.36906667075992905
-0.41706583820006976
-0.6688683528141185
0.660127351039937
0.6320596822768315
0.11982092771162262
0.14477417546164545
0.2352544467784846
0.013260361073691098
-0.1920944014554697
-0.1121461576601861
-0.2984982627053751
-0.28672380184342694
0.027109678829307822
0.19318969587435048
-0.00021499504071755828
0.05622880450319868
0.17464720214967921
0.15706956075272166
0.19226055691510174
0.06349896765138248
-0.43535051733645713
-0.28202080018146375
-0.2148817041780512
-0.13581606931539592
0.2713906277331858
0.5121499493330433
0.05140168633707038
-0.10671065955256043
-0.0236771166339105
0.1845616590790151
-0.028800775652182163
-0.21095822269468503
-0.07836960679674182
-0.09140689507181109
-0.24018160044504855
0.15554998620022004
0.23285538507830997
-0.038100318386270364
-0.2831567809552356
-0.154268363370677
0.24294496592641152
0.5283884171007182
0.2390696122503674
0.03812598382972059
-0.2581964867404721
-0.4420621260648414
-0.47579471792307515
-0.06583346619625016
0.3444698457825412
0.3649299003611576
0.24010710717143835
0.032770766490180354
-0.1841686223378477
-0.1270749153820928
-0.09731979423219016
-0.18002454568568735
-0.05096373269211486
0.006553116145606134
-0.12325126264713165
-0.01636292755544256
0.4682372843068249
0.5799155687310562
0.4902660290751159
-0.06676541635462452
-0.7339252692272106
-0.8647429245556133
-0.4745082669990073
-0.026703196561028153
0.33869958857749966
0.7439163807654785
0.2987841857643256
-0.1652275853153471
-0.1367928805992491
0.5637453971712609
0.0013326903185873539
-0.2346721404495698
-0.17867558912314474
-0.23655883431823127
-0.7458968520916519
0.04135853406472668
0.3505674646593594
0.4559796189319387
0.2447092860954042
0.18718040385580054
-0.07657395469540455
-0.1334147633004923
-0.38238735135841306
-0.2186527741736966
-0.22539868620553083
0.021311944714281085
0.33633741384173144
0.505653620671757
0.27379939091569483
0.14756697139100355
-0.18168815794108312
-0.8034452192014201
-0.3540684353922488
0.0026683275501000804
0.17261016031030668
0.3074730789657374
0.5701097463149513
-0.0988522994918355
-0.40408546768659076
-0.306054042689536
0.178088592085952
0.3795091098266443
0.18791824680180566
0.06877156185983038
-0.11212969101322605
-0.4606564590998803
-0.4311275737002776
-0.01653751672640711
0.24319973331312522
0.2375211356463645
0.2547791591412576
0.1559341142107541
-0.03951299257698521
-0.152708748309488
-0.03255754733063434
-0.13689709497978
-0.11445418533604157
0.00729363115251371
0.02585729164920883
-0.04070247676379581
0.03593834401498027
0.08173518364678067
0.1091221882696006
0.11078237155602948
0.06060233433881079
-0.07797132978715537
-0.1384526895545512
-0.1370299398125791
-0.06238622834428803
-0.07328283730476712
0.09507965466496895
0.11783449474726498
0.06436587662023537
-0.016062165957890527
0.09661259228789418
-0.008806750567352447
0.03007296615954117
-0.04060063474460309
-0.07811545011338646
-0.1310050070372533
-0.03058845812772768
0.011754445053390202
0.0014242241694924134
0.15335185767611803
0.08368405015235356
0.0034475552102313845
-0.08396605164513918
0.018491790675096542
-0.09493654871006485
-0.029130621571920937
0.014130060105425819
0.03636439682779333
0.04108677840606383
0.03218415878878413
0.01312314433338139
-0.012497113793933654
-0.039405141752532034
-0.05919713498977034
-0.06025570247611615
-0.029946458076214072
0.0409975414505374
0.15326855392995217
0.0953005147420056
0.043459360852753405
-0.03285784151041992
-0.16239184323486822
-0.16264567961144863
-0.03380768640795099
0.04139845662696078
0.09187662576912432
0.1488549085741263
0.03689046052974241
-0.03163006903445539
-0.05722382233158536
-0.05011910164739121
-0.025221829678243116
0.0026714100882774526
0.02218339177324859
0.02698467276070785
0.016201244815446356
-0.0058178042933575615
-0.030097054972543443
-0.044148258510822866
-0.03396875230069247
0.01291994247109444
0.10385003817922475
0.037932288426535864
0.004875790007201744
-0.013502343696596574
-0.03937608301207867
-0.09391497345860325
0.007152752041500064
0.05619462303842207
0.054252937234269105
0.010079088478106226
-0.061690925025848435
-0.14304211824853036
-0.01609412749598957
0.13231679152942594
0.10605043212814502
0.09724050954483177
0.08814037132093876
-0.142291581791938
-0.20905124344484466
-0.11288747206025213
-0.03724592626090419
0.04767440822525076
0.17501771730952406
0.16951224191799116
0.03869618778939992
-0.029413840187242395
-0.06162099742462956
-0.09012669606615158
-0.14234803746327057
-0.03383166823036255
0.03344185461097278
0.06738678871411147
0.07893960504703587
0.07525481158085598
0.05594693157850927
0.013936015930665865
-0.05949457127184487
-0.16764787457927485
-0.10266054725358953
-0.044095782974844726
0.0367697417082656
0.1681811963708718
0.1681115952116946
0.03760865311981152
-0.03982018062445807
-0.0925822660885549
-0.15165089476180227
-0.04137149481193083
0.02623233643405897
0.05223402484653757
0.047419439916224104
0.026854741457005706
0.004643583641424245
-0.009650510910487952
-0.012443463527732217
-0.005713998807562471
0.004650972891033193
0.011132170573122083
0.006992597001876091
-0.01156987477167946
-0.043969920625633215
-0.08497382247183617
0.07403585181305715
0.04246405526689333
0.027480705667500053
0.031855782376637255
0.053613855504307494
-0.11241888887062415
-0.07209528666284629
-0.02996496286927125
0.010883921737701049
0.04691859052714914
0.07124958945719778
0.07154455208815198
0.030416310938189264
-0.07112971898567473
-0.04807971250115748
-0.10571316663174776
-0.0361984212562958
-0.019040071376880213
0.17464549518820222
-0.02434410242138591
0.010487729369938933
0.09752360067489617
0.0466412144154689
-0.13806868155628793
-0.05399509357922667
-0.09641989033885169
-0.05783129575280061
0.06896776307459353
0.08502052026959277
0.1793981661774439
0.12667380226375088
-0.1101629277187065
-0.17167905703695002
-0.09182962969944819
-0.08986191335181928
0.032447569671137884
0.08749747459828977
0.09441940041166104
0.07087545742752041
0.02731403007596276
-0.03458933690578375
-0.11956353984977958
-0.0342526449758471
0.017122229619118252
0.03536304864890717
0.026809748542811075
0.0023637057648438612
-0.024192571188130098
-0.03814601597695782
-0.02602511549168337
0.0220326274639273
0.11012395519308019
0.03548739419195195
-0.010675315832681633
-0.04034613356493485
-0.06483306030262127
-0.0917691168872279
-0.12477585021563246
0.033476454738547545
0.17592576358922088
0.2865392558332315
0.1403845511628346
-0.08914973732284726
-0.21708438343238473
-0.23275335965746996
-0.2923082969374109
-0.12400602248349141
0.15198779657090972
0.193500870632454
0.20528394885749582
0.3184599264291961
0.39037147314286197
0.22976095325041937
-0.15507002703501538
-0.49578308317096176
-0.6088988008686783
-0.7663066577649588
-0.30721694629518975
0.10397060977159844
0.38465771684546785
0.530747036157508
1.1357982033343519
2.5639803137379773
-1.4040218562963567
-0.45561437344741446
-1.192207696444417
-1.5869397033678558
-2.7056383360946303
1.8774274888628197
1.1716266619782887
2.0081213066167622
1.08241734406245
-0.3472854059006312
-1.0839103222681066
-1.1498176546042338
-0.9134927578269507
-0.01893325609174106
1.26490969807822
1.679653630469695
1.6167691807758522
-2.22491127245798
-2.1702430913800854
-1.1176645241838392
-0.34405998694020823
-0.18036539466091167
3.461927465312697
4.562960156295672
-2.6796834308316306
-2.4433313222157644
-1.4086186834701142
-0.27588474016194225
-1.7194117694164157
3.4032930490889175
1.8078636096848122
0.5468276067029045
0.21647860211483144
-2.9866963910551476
-1.188008976826367
-0.380275821353988
-0.028390492500309377
-0.537889187404526
3.2398204269192474
2.113157220916297
0.5148522305559156
-1.2494166645359202
-2.0816808225336905
-1.5510128149256757
-0.9932344583785309
0.1049253131770641
1.2296327172619257
1.3008189148128613
0.5207015689841843
0.460501206727669
0.4183538276917765
0.25669482411362604
-0.6952770217605785
-0.7048615505742051
-1.104282906428035
-1.0026332036747778
-0.4676106323417796
0.8178005528283858
1.0428332955713695
0.9385125008091311
0.872497261351186
0.20178559223207787
-0.30585052373699273
-0.9948506480035157
-1.0201489188203718
-0.8571536931762362
0.14863461883656237
0.783348372929999
1.1298708328891962
0.7217128619666457
-0.2898056998631808
-0.9442196778958023
-0.6633855353852247
-0.24362576907258537
0.13544507525563237
0.4811689046407274
0.5460846791443721
-0.009866459293867086
-0.03863623564154168
0.10242571689702995
0.3819544690727769
-0.2559924753913076
-0.23502602872156447
-0.49529409968037325
-0.4621904789822182
-0.44584566594978153
0.32550975221025596
0.6460170712420925
0.46395965500864605
0.22637006521946873
0.2540447199323048
0.15443582684498106
-0.5318195785971698
-0.46440690926543177
-0.035393567070216674
0.0825404535489079
-0.24023614350301503
-0.39952589997242827
-0.2982819766566206
-0.21319202185927993
0.3254383941985842
1.4600668129693353
2.362857274313734
-1.556470174299055
-0.9881325684577955
-0.6252088515175288
-0.668707170145254
-1.5698591898208807
1.9729706148340884
0.9685951701445966
0.06230765399761657
-0.531490784073852
-0.07459293928393157
0.2760344991050025
0.07101510642509129
-0.012967403508421816
-0.14425067557808524
-0.10259528843969934
-0.24771213340631587
-0.09630789933340246
0.08844776446033759
0.09492040784495054
0.15198011345230955
0.11439584544934037
0.04967836465286752
-0.17093865836797706
-0.07764567218342469
-0.20570899875515047
-0.10019336664666487
0.27757576396995537
0.34415714463152186
0.2933021710833874
0.10428276859626798
-0.2412999529549391
-1.1411514315293687
-0.763734951931027
0.1410681544793223
1.2129725204930153
2.6490488460509978
-1.2091057021521598
-0.6542134568649756
-0.764795125898646
-1.155375072379785
-1.7551114824779106
2.769848483261293
1.3588292968032418
0.09216900764642205
-0.4491666328802346
-0.7851565724649839
-0.5067182379628382
0.1669762391928153
0.02801516478848485
0.3110586343501174
2.5206960539594996
-2.1391812235780563
-0.93552312638331
0.010639438133829065
-0.29184856446895563
-2.5658081103983594
2.43165943236375
1.7895359732036493
1.1452765782194159
0.44943554314176143
-0.3862715442117798
-1.1685392690564917
-1.6694449869485561
-1.0922453215368508
0.0017662182870354425
0.8883248332940075
1.0101483465482937
0.6760547897343923
0.16772822925275638
-0.11905055509979207
-0.290704752656262
-0.3379773520207337
-0.3004953655312828
-0.030516540302089994
0.03280147806644646
0.07454514123146463
0.10261813457627021
0.13898414555100536
0.009145415280734375
-0.06620841678810645
-0.0758312994619898
-0.01925165546563406
0.09402326220238075
0.04666483584000446
0.016969549315552647
-0.016414542668747697
-0.06920816232114825
-0.14728182058723915
-0.04537892684588829
0.05013767591057188
0.1551428394547761
0.08060686716504473
0.027549199669353125
-0.013743003661205682
-0.06008676157681031
-0.1291841345766632
-0.03358134557118494
0.02280567623385955
0.04461751223047427
0.042100063736310395
0.026993851995728936
0.009039167994662872
-0.005820401937220656
-0.015375290040768801
-0.019797331938839875
-0.01991416195003715
-0.015987333476939036
-0.007540201492133432
0.005702515854769198
0.022195801874540247
0.03707288437409933
0.041663024938941626
0.024679390605359296
-0.02488832637344201
-0.11396962543514658
-0.04216290541424673
-0.000553273134749234
0.026680559798252217
0.058439270927942606
0.11227632760097285
0.0012040863447304996
-0.0671940121648052
-0.08961871728478532
-0.06530246467368435
0.004744546954974572
0.11683486780963279
0.06282981616483743
0.029170508369550176
-0.0018791213472938325
-0.04862921740075997
-0.12528864647682414
-0.038291289819788715
0.014586784196444593
0.041768813126180485
0.053088263068562715
0.05474174108641589
0.04614115534320553
0.02000954629824544
-0.034245085640011746
-0.1251888161828269
-0.0542673414891196
-0.013189600835220487
0.014983113180361935
0.05141801757906682
0.1155437720010941
0.019872574951142363
-0.03255171756157158
-0.04751707051161027
-0.036627741018443905
-0.013461862397940541
0.009702001816621958
0.023927969586018265
0.024531683389947056
0.011337636363447342
-0.011309792641729195
-0.034761169245682365
-0.04688086127098155
-0.03396196302825563
0.01611264272291994
0.11003792740440836
0.0458937421902001
0.012108325272098824
-0.010549118581851225
-0.04432330674738159
-0.10872662786308376
-0.015728503597207864
0.03251368061097209
0.04290313847671913
0.0283718918273484
0.003957133867021663
-0.01677833904032744
-0.024371967472242958
-0.015099910439160378
0.00820574338982723
0.0361735466180805
0.054066927927524946
0.044545725514036294
-0.007907522892033154
-0.11162505640378792
-0.063083402296246
-0.04494105114278339
-0.028226286392995348
0.021312082283612872
0.13434905498463431
0.12946985120394047
0.007985767066549554
-0.04608022071554282
-0.061042547018861366
-0.06977200257921248
-0.10206370172903628
0.020387809745039093
0.08543210737497273
0.08905783593350927
0.03296639019398192
-0.07713762362149082
-0.03191130368233566
-0.01802636224789473
-0.018289622818767146
-0.013065802706877608
0.0169591106625191
0.08737995240388642
0.007154357999469519
-0.022806127114389525
-0.009090429063426728
0.03637585348555894
-0.1007748986886882
-0.0347474159485566
0.021960350444753484
0.05886605359816726
0.06717398499106925
0.039861075372402834
-0.027086349299480533
-0.1325638218228087
-0.06871636439989406
-0.02145039651505297
0.026080994411271402
0.087830767409043
0.16937231128054372
0.06537959321307718
-0.03809048114670092
-0.15681502655136112
-0.09972559657613415
-0.06209831429884019
-0.023684615717484286
0.047292033488051645
0.1857931146138031
0.020413577427032446
-0.034089960667012385
0.019848996951750776
-0.036415195717285805
-0.0336214232573199
-0.009047401530217459
-0.0010465985648409144
-0.044681409993220074
0.031153759936766716
0.005276847513793469
0.06499527462048235
0.006842130627578101
0.03777626272613257
-0.023268309323599065
-0.1444057172878262
-0.08190378205028152
0.015247309939036124
-0.002956397277256413
0.1019681406011219
0.1473388858507824
0.12401689102603411
-0.0020099080981174906
-0.08091985703687496
-0.16572411552722427
-0.09879141032789203
-0.10292807329550695
0.020009225616610907
0.08287135686483457
0.1020760844401706
0.08599574655268107
0.027336284537928184
0.10253464427108783
0.07897355098245287
-0.07156082525569778
-0.1569298379503227
-0.15157564860383438
-0.19208942379937063
-0.18565959550045805
-0.03225560404008933
0.14315741220668085
0.3566228316164882
0.3406342146828792
0.3400223671878903
0.33508171209789933
-0.10892219104006054
-0.7759380087267441
-0.5349044233147634
-0.29782867037535904
-0.2162520787791979
0.07873081626907019
0.4004781461193767
0.11230139183388671
0.036467613542420736
0.3879287901617085
1.1496480554760093
0.4997967160123512
-0.3086064358377084
-0.6288224986744954
-1.0901263522506472
-1.4921311615600275
-0.15520521428597894
1.0589954551635081
1.0668742276951062
0.451383036132698
-0.04642407308383605
-0.6095018219466974
-0.5941069142016298
-0.15143389074737051
1.1720732146469406
0.6556710318695722
0.25174298800526446
-0.3381707905371905
-0.5681066764050839
-1.1550737850462405
-0.4160917232861522
-0.055699167435918816
0.19036772293186138
0.26733106781430443
0.4946940246612787
0.871208716521797
1.0187887699593448
0.1822570462918743
-0.9145730347653982
-0.9748085585836967
-0.8286551771333335
-0.561721642125383
0.30708371933010964
1.1969442102938352
0.6031251178887282
-0.37305563985555784
-0.4816911438240324
-0.16064733593395358
0.6480806880291958
0.09882087190494002
0.25847533039505394
-0.062246861731684026
-0.46744960949992814
-0.9346455451840611
0.21453684501246661
0.5233952589868661
0.18943361242310902
0.04218525366844295
-0.08015913283633896
-0.14874815637737132
-0.15501911380872332
0.28465924629322964
0.33035407489180907
0.1268408580068699
-0.38093983561256933
-0.22810341549425953
-0.21204636108079594
0.11641562258510903
0.049303552882999875
0.10626526508856754
-0.1874391500946078
0.07598406120618999
0.16804581405433386
0.31414277870412194
0.4965730964698945
-0.32824689105303206
-0.40200091106236785
-0.5356044871096315
-0.2916223202667863
0.012731199083388467
0.6810689884481238
0.200188541905017
0.002976215847740693
0.044300019717064876
-0.0035323895173753283
0.06447643145594106
0.21712827371399965
0.027877103007867367
-0.48246774091398614
-0.6108347862669397
-0.1546939908338672
0.18114474964982547
0.3551955512486913
0.3472736923325114
0.3179706268682113
-0.018083296829649258
-0.19950526320571282
-0.20815241792474334
-0.049525340364121644
-0.13275198990093956
-0.057200652160125064
-0.009008322522785757
0.03286363799938594
0.08424047440470492
0.14187353487091936
0.17329529109336847
0.11442104708868454
-0.12361989100583734
-0.24031344094457563
-0.1290736283843671
-0.06381596343261063
-0.09285154538678912
0.15938823848148695
0.2859446099036243
0.09157959542719687
0.19274953109737286
0.02550762311082986
-0.3409479117757726
-0.3916492944938427
-0.1627679519688408
-0.25492783179780215
0.13571924091108412
0.5745934669244354
0.3458596259310795
0.02332351066327861
0.06505915054274056
0.03437031885762238
-0.15792031725966266
-0.19996586464599675
-0.126283253434978
-0.2774416529800335
-0.2804794790460786
-0.05370277621271229
0.3663881649508325
0.3841586754304666
0.20171591514830284
-0.01512263863222168
-0.15538146767922908
-0.16618187560562525
-0.04568129319013222
-0.031939804964836276
0.007712670917751135
-0.01501521625930675
-0.0029254871896718325
0.1330400492223383
0.28231054219214186
-0.05290970928730695
-0.14129071485315933
-0.004757702401264727
-0.20475168697276172
-0.23825101653941033
-0.1479557168831872
0.05226456142048578
-0.059995551303036763
0.24291684025950644
0.6043484342437995
0.5676033551420465
-0.013001911782727141
-0.3339571001059897
-0.5871874446391467
-0.7054431926406173
-0.3274669191113392
0.20526783046478433
0.6210498729589937
1.0725919813687372
-0.7076420396385421
-0.03672289973084774
0.10967134274798757
-0.09577820069592133
-0.7167759652256973
0.7634340175564048
0.05681658973462691
-0.11743885913391704
-0.2229966520767659
-0.09908841437283122
0.04204841432148452
0.011461215110425476
0.03436842499119445
0.1387903482458287
0.14592333601404092
0.06556597702360945
-0.10202211473287463
-0.15908950778925177
-0.10175566222270037
-0.11406170045675348
0.03234364202758932
0.17268576549834652
0.14026778181900437
-0.041667331827481176
0.035901614418362475
-0.03116931369975801
-0.05488066381895012
-0.047812475729033015
-0.016394193716408642
0.043323282148153675
-0.053619119073952295
-0.08400383328529801
-0.02243400948924702
0.15076028504010677
0.04166011507586553
0.03744991060346562
0.10585087622409266
0.00013864286060299156
-0.13127100280479803
-0.13338524650600425
-0.03494738189496827
-0.043615590039619165
0.05268939496865144
0.07925602988627786
0.06556593102286803
0.0369838633812675
0.009642020490136327
-0.0104427244170153
-0.02451821817536841
-0.036118766780133836
-0.046023685171588655
-0.04905284535638766
-0.033931515841698116
0.01356899803685281
0.1051832224367286
0.044337198090233225
0.022233703405306674
0.017527606996571098
3.836567199535231e-05
-0.06238971302843715
0.004289848507954308
-0.012367967045348127
-0.1068682561698416
-0.05564747888354565
-0.02178688435893902
0.03613531208313862
0.153222927738508
0.14876704596955215
0.021393926504546176
-0.04929165719423965
-0.09520665013934251
-0.1493972185395967
-0.03668107324328337
0.031564081835640634
0.05740872656053169
0.05229022691965079
0.031212777068492285
0.007583344559434683
-0.009874989272328
-0.017835060643031968
-0.01726983424668886
-0.011496039687033834
-0.004246763881862707
0.0016576745722532568
0.00485708761090217
0.005339005960813393
0.003946354413485553
0.001799234550169165
-0.00015705612698878595
-0.0013831848696464666
-0.0017652176143278867
-0.001494107338690513
-0.000894275483867012
-0.0002734774773598584
0.00016702324225395532
0.00035609743451428614
0.0003271356260804314
0.0001692508115718846
-2.097281043784425e-05
-0.00017234016935365506
-0.00025192064431060106
-0.0002612632042239605
-0.00022325014485005635
-0.0001671267737311251
-0.0001170450225375842
-8.640282102012656e-05
-7.761578724349233e-05
-8.539734440295263e-05
-0.00010123593342471076
-0.00011723356801419452
-0.00012834332485872496
-0.00013289606136902623
-0.00013188039889285388
-0.0001276583457173721
-0.0001227243111300762
-0.00011887854411144924
-0.0001169205622382311
-0.0001167672495128661
-0.00011780290685019868
-0.00011926698217029176
-0.00012054476432713689
-0.00012130597950816039
-0.00012150377862077753
-0.00012128546886594089
-0.00012087498890975856
-0.00012047400335481716
-0.00012020570317060173
-0.00012010356220505112
-0.00012013276884627794
-0.00012022651252626197
-0.00012032101215667824
-0.00012037883508660633
-0.00012039651547408668
-0.00012039771840139059
-0.00012041652558973309
-0.00012047709208808243
-0.00012057646902608939
-0.00012067704034087433
-0.00012071350012008722
-0.00012061602422836755
-0.00012034596657655983
-0.00011993369672222496
-0.00011950213771499167
-0.00011925741517232107
-0.00011943325842443388
-0.00012019036300464692
-0.00012149432100239983
-0.00012301962569232505
-0.0001241418167822306
-0.00012407243384437172
-0.0001221529193320518
-0.00011825480045565377
-0.00011315065537685035
-0.00010865618959046759
-0.00010734066323751525
-0.00011169791847761268
-0.00012287349594891287
-0.00013931748114247568
-0.00015598384908791193
-0.00016478805753076332
-0.00015682768019268934
-0.00012629502576447905
-7.513562304737294e-05
-1.6589736327148586e-05
2.4776695874998976e-05
1.860454696424759e-05
-5.965994529624084e-05
-0.0002132955752629238
-0.0004103421324336589
-0.0005788969167782203
-0.0006193633762476575
-0.00043745183323222323
6.2922163747190725e-06
0.000645259045529952
0.0012781236567150423
0.001590027201899766
0.0012421164746377117
2.503291335065234e-05
-0.001962162355102334
-0.004181142556333462
-0.005664332766865383
-0.005243669887737379
-0.0020147339937493895
0.004050922645591636
0.011551606571039095
0.017449772771527625
0.017491466534910568
0.00736760625757049
-0.01557335934367443
-0.05062479218217438
-0.09285309207741231
0.06622552199808884
0.03631455178253646
0.025120885683871212
0.03560443818717565
0.06491904029585523
-0.09448661724812639
-0.05211898875662147
-0.016289554922640247
0.008092536526592123
0.02006375123308416
0.02166896718917187
0.016337845574559546
0.007442960809169537
-0.002421190032735832
-0.011372220939334154
-0.017723155996184223
-0.01955329681831772
-0.014858332790759283
-0.0024979002443489854
0.016257766060796545
0.036202374931120725
0.047563189452795016
0.037056982467633844
-0.009083879648411874
-0.10067553026997231
-0.03913995071130736
-0.014803256442657443
-0.007216562348234609
0.011302621498951988
0.06984442535564231
-0.007573753084379653
-0.007425763164582742
0.07027300717483506
0.011951991411042875
-0.0064811119294326
-0.014211451103058203
-0.03899368017918947
-0.10126124929265473
-0.010525700235845802
0.03496060462153282
0.04544159642393314
0.03506220054028936
0.01721281126586796
0.0012885061553483733
-0.008466142601263734
-0.012193500999435369
-0.012462157159105659
-0.012021712288219176
-0.012083648263456127
-0.011661720335768984
-0.008151668003434342
0.0010406275836446898
0.01636121840542028
0.03426900057880649
0.046603778820189776
0.04188316280914091
0.008694876748838221
-0.0595297789665089
-0.1600225520916986
-0.07863863643937036
0.00803435986969762
0.12634422468656215
0.09704972666351469
0.12801368736965124
0.011266190828218265
-0.07425021947030434
-0.1554347218564293
-0.05635159622819718
0.0084630427441556
0.03656739858649328
0.03591690304779687
0.020342117277185268
0.004167442158220526
-0.0024089828829122416
0.0037674422380459577
0.017949192462269954
0.028680944749961638
0.020798446354601346
-0.020318223638090153
-0.10421028265593209
-0.0318538623846622
0.005533987333771194
0.024889765377028597
0.04750364853834055
0.0944910081552632
-0.016879422650238743
-0.07509037229632591
-0.07468291014036069
-0.015923717669771097
0.09529000281062311
0.04727268227793761
0.02298066818848586
0.0019417028981958456
-0.03619674004592593
-0.10743675924628224
-0.020070670507736726
0.026457736557899316
0.04006666497428406
0.032670307640553196
0.016360475958161556
0.00046943155022739975
-0.009791152844729343
-0.013149643111729427
-0.011078142044393538
-0.006259101694369848
-0.0012734319475369465
0.002187822958236415
0.0035470626791828555
0.003138195512364194
0.0017911265592673172
0.0003976048140591752
-0.0004129075662619564
-0.00043341961486475817
0.00012177148372326565
0.0007467590990369255
0.0008582788141493794
4.556669709622755e-05
-0.001702210360025615
-0.0038622456782153817
-0.005415712517981343
-0.005115887042433875
-0.001987999000258527
0.0040354027034987874
0.011552742447900534
0.017494132692811182
0.01755738679152334
0.007391187818959363
-0.015670585907500173
-0.05089307670233725
-0.09326979961291415
0.0657837563409514
0.03606290156131666
0.025306966254459263
0.036400543679141736
0.06629167127909498
-0.09287924889475585
-0.05093573202545469
-0.016363721457729227
0.006063901903027977
0.015942711205515894
0.016268121653662537
0.01156909192774099
0.006009234323793416
0.002095214304541184
0.000274119152281724
-0.0006248592234517778
-0.0023734429680439084
-0.00613985670065542
-0.011519926936300294
-0.016190305924655514
-0.016452142894527726
-0.008711925843303452
0.008379154919729582
0.03177933839463297
0.05284757965421148
0.05804199772513832
0.032087587001404724
-0.03671135958031378
-0.1505017688528028
-0.09767069471681514
-0.05282863005211969
0.017847579815563445
0.14695866419053333
0.15508131505323683
0.04288488262970911
-0.010670481235078497
-0.04320950921201084
-0.09862478680135477
-0.014953980409476259
-0.014075112830903453
-0.0959550615369699
-0.03880368055616757
-0.005047210620733144
0.048376760947125966
0.1582041773614904
0.14507939830820094
0.009037753119147602
-0.06832957415538184
-0.11620004527420062
-0.1647190262080117
-0.037100757670182664
0.05361312933207911
0.10287727759548032
0.11019140321369414
0.07510317961377606
-0.003793994813439673
-0.12630008091636558
-0.08609597208030585
-0.06716155849572196
-0.0437414973679777
0.015135545505621666
0.1377139567013423
0.1409844588221118
0.024955231535522787
-0.027863551975313462
-0.04745724036233103
-0.06769149670391732
-0.11723907408749773
-0.013083814834023948
0.04160807654512479
0.05524185987624746
0.042727858968517586
0.019834587177618955
-0.001144996614471245
-0.013487131973746715
-0.01595927610562715
-0.01127225301799028
-0.00394380116687801
0.0017022511770674582
0.0029747628447532918
-0.00046499521919785415
-0.006602639137165839
-0.011734477071497844
-0.011716619648293613
-0.003642432195317429
0.012378374545345804
0.03188622549770702
0.04587858605150948
0.042361053028098936
0.009788787972230924
-0.05826598701978653
-0.15879839275867305
-0.077497253914072
0.00905365288019045
0.12705384755021393
0.09706810319834855
0.12688161881314758
0.008714841524717803
-0.07796822612100865
-0.15930661674085456
-0.05863981735660937
0.00977432584909548
0.04290866918242174
0.04705108549454581
0.033485244579725224
0.01388154296050778
-0.003018317558623683
-0.012783645431550644
-0.014950020939874171
-0.011636786920294321
-0.005905534187758526
-0.0004470205525667154
0.0031252337262532475
0.004382521272656575
0.003778511724058607
0.0021826739229782147
0.0004556370845823103
-0.000816466857712527
-0.001404286375242347
-0.0013759173132553715
-0.0009665216374555831
-0.00044368566962045585
-1.2090719321743e-05
0.00022720241649809477
0.00027020954515515733
0.00017561348515560712
2.34510732272963e-05
-0.00011768599842243846
-0.00020783585450990534
-0.00023761259131078595
-0.0002199035116246517
-0.00017767041315669614
-0.00013308955605066317
-0.00010092502955274507
-8.664705149840869e-05
-8.813930736601799e-05
-9.914484506677162e-05
-0.00011273758506401521
-0.00012372766299753823
-0.00012964226059249159
-0.00013049933287250288
-0.0001278880730761028
-0.00012389723856529549
