0
1.9263849213102665e-05
-0.02181296472461598
-0.029246634626995553
-0.008098779015485754
0.0549779444935681
-0.028669071174546635
-0.05125962556407767
-0.010292383986025248
0.0899365803398603
0.0375716799044968
0.01394139430008428
-0.00372014542505052
-0.03791260503381491
-0.10610359969417565
-0.017204107541475788
0.02943173422513866
0.0422219618344843
0.03367934429542113
0.01636832968767842
-0.00013201634410023853
-0.010578543197384499
-0.01380673181386509
-0.011441439633314903
-0.006292622002902372
-0.0010128843107875126
0.0026827066676076775
0.004209278298204807
0.003878528780485408
0.002470641804792126
0.0008175301611940153
-0.0004765835417789527
-0.0011405956235487561
-0.0011990872750986018
-0.0008562654314595048
-0.0003664157465841436
6.373687651100993e-05
0.0003220051373932639
0.00039099667051037775
0.0003187224375689241
0.0001796067125337306
4.1580490820976085e-05
-5.2715189575602205e-05
-8.993680723507298e-05
-7.943858176722021e-05
-4.2019024412309026e-05
7.678684878428821e-07
3.361098968505889e-05
4.992308269038331e-05
5.068982742339564e-05
4.1380095951174015e-05
2.859341950277627e-05
1.7587186917587226e-05
1.1132001366266637e-05
9.564301474619583e-06
1.1579354512105131e-05
1.5243884624378688e-05
1.8829895024409477e-05
2.127359261423304e-05
2.2253519872486746e-05
2.2005157548883902e-05
2.1031055262570083e-05
1.9841753112440627e-05
1.8803503978775345e-05
1.8104408439842144e-05
1.7802709333404724e-05
1.789977494787893e-05
1.8385652811322998e-05
1.923003992496346e-05
2.0325539742253488e-05
2.142142467813212e-05
2.2103585885340512e-05
2.1871059619730025e-05
2.0327504312618237e-05
1.7451359397957703e-05
1.3845801114958383e-05
1.0823966284738913e-05
1.0186344496107795e-05
1.3620211690476944e-05
2.1799637953631053e-05
3.3459103127481394e-05
4.488506716198706e-05
5.032069611940328e-05
4.3615031550058276e-05
2.1025832048082203e-05
-1.5536492305977494e-05
-5.616749946736263e-05
-8.320839570176718e-05
-7.544719055780353e-05
-1.651038965398909e-05
9.425807387901821e-05
0.00023234835427338334
0.0003455532352576657
0.00036361602717368017
0.00022237280392389447
-0.00010109389667753516
-0.0005532172489560395
-0.0009859275494173742
-0.0011746981120103256
-0.0008846380288742948
2.0155864339362476e-05
0.0014529438416306243
0.0030192892052385333
0.0040352824690170295
0.0037003674572045593
0.001429403037895446
-0.002728225067302384
-0.007742113695090989
-0.011549554542594433
-0.011517989771957017
-0.0055364490719730765
0.006351679759849079
0.020115279418327366
0.026246013037969747
0.009192907331890285
-0.05189631586809742
0.01890383146755214
-0.0025402159161358757
0.06352498403603807
0.005257004435875652
0.024019117414796367
-0.06123746833597066
-0.011321760563945134
-0.16760512629398303
-0.057827494749594824
-0.007452629640451217
0.044679883171578526
0.12975127216156923
0.23625899912272763
0.10612054921361713
0.0426930563004599
-0.06956451180365898
-0.1379576280808331
-0.23407134405907307
-0.17390182926755157
-0.11192274204923758
0.04833445954657073
0.02933664728985463
0.14663992313528826
0.27693874273268054
0.2361915611034217
0.17470194925056595
-0.008400439614682677
-0.23461179485517625
-0.4081989616825871
-0.1827685675788782
-0.14299720403464478
-0.007418599586415222
0.14860258515413377
0.25665400991169346
0.016206833878211282
0.06326568058081873
0.35484922637183514
0.17363190036629514
-0.04718139506318339
-0.08339261989930274
-0.27318709828282
-0.6770482423537026
-0.25677060677898117
0.1184540478777275
0.2392624113202382
0.30624401460320555
0.47851365222196396
0.23644019686840848
-0.031089844721904646
-0.21298915054534162
-0.2424856557925649
-0.25592879729124424
-0.1567502539071342
0.006021583450089766
0.041013318708478255
0.001528233473423122
0.16233854336584044
0.19396910308540558
0.1418395265544824
0.015553429061301955
-0.009784306291067137
-0.18221203195964866
-0.15653446654950723
-0.1790192136234993
0.12198457616711472
0.137663933309587
0.07406010113413831
-0.05555550658345729
-0.03813312541590175
-0.06652993938543224
0.05691559114121178
0.11908083287866875
0.09763147462958817
-0.03388262716131339
-0.09773530688853715
-0.10246878930985658
-0.03513038611819758
-0.058124322775133304
0.08800122703992146
0.07643902553388131
-0.01730843553686801
-0.1278010403604671
-0.011066137827286762
0.14640259620497503
0.12263395570878159
0.061061617328096625
0.07864986041644745
-0.11925981396749367
-0.22037261798629762
-0.08789464295402218
0.05122145221381506
0.009402711003360846
0.03293450839048653
-0.010021541471496464
-0.044805998672305544
-0.00601884294972454
0.14916032839086737
0.23284645609552565
0.025892948478363
-0.11421268737117048
-0.038803999489815416
-0.19135964054126942
-0.19442223468353884
-0.04484739399517157
0.08071637126901934
0.01192009242744725
0.16744868505703422
0.34111645582493805
0.29748368016835197
-0.2197571285180168
-0.26828309268037964
-0.28343870803718524
-0.2600247980932278
-0.14765736932251955
0.33767370643045536
0.2899251637444389
0.18616845335468593
0.06639649895890451
-0.07365023020889874
-0.0757634401788746
-0.0025383772529459798
-0.11692729138223142
-0.2644789716160873
-0.06325345541734498
0.09610006684466588
0.04093693990653044
0.20196424276452354
0.19919620268477564
0.03382452581668889
-0.1113337980852823
-0.06381241150926478
-0.2500165612906298
-0.08558925726443688
0.028307120640407423
0.10170901613999861
0.14780994850710386
0.1744923520131567
-0.020329277943831537
-0.047451949125079565
-0.12016813430724144
-0.24650355185077338
-0.0239813504725471
0.1605001838645714
0.12596697206537344
0.09075189374710754
0.06760566734569734
-0.13730700937270254
-0.12195177716400102
-0.08496472544571941
-0.02399010607111857
0.06280598549973668
0.17293347983473423
0.09612684739431313
0.014100169059327287
-0.09511976292763345
-0.04928500185652524
-0.053379343512142415
-0.09392305629075494
-0.1387651949906672
0.056754468901826484
0.13856684322968493
0.14091677796726979
0.07612756858083292
0.13083834821417795
-0.12990947393032684
-0.1524337648420761
-0.18216526813342562
-0.05421722239181331
0.009949753370025858
0.19959101620556272
0.1083812208492812
0.12916450257567136
0.05335048202472727
-0.12410142563919493
-0.19639171160960325
-0.13786789505942884
-0.10311464758410101
-0.03489307818682929
0.11990650806015303
0.19075818742539105
0.16717163853764727
0.19229613348181385
0.17081235105637563
-0.008784744720306938
-0.4424265660868246
-0.3784335595485722
-0.19600627410435542
-0.002432040709859586
0.14920673499973863
0.42741334797485425
0.18525151557598532
-0.07013873103176671
-0.09424016692207254
0.09370480387050968
0.02254088550738542
-0.010552829907276408
-0.11648300008737866
-0.19252983652316316
-0.30746749531599343
0.10300279480167368
0.2302316750249481
0.2797423633549297
0.05784673351208766
-0.036486635798899464
-0.21228317328481994
-0.0816192965813063
-0.05320668411827992
0.07188060066134272
0.10098202944123444
0.04801105699296973
-0.06921029074169503
-0.031204815627114947
-0.018588591266020058
-0.0139176758307823
-0.004087859502762438
0.016914619296218993
0.045761807709108246
0.069220474425709
0.06634787028131596
0.013844389029043351
-0.10623680197460149
-0.09858767517905592
-0.14955889027596717
-0.027532729051928013
0.11034338403427267
0.10664911694402664
-0.008967091007603999
0.17060315432955295
0.026549396494471196
-0.0818109570114218
-0.0065631267477372374
0.0029029217250455663
-0.08608149496181786
-0.07914931700439101
-0.15119186320336828
-0.050869829067582015
0.08699658561635193
0.12391733171801741
0.09993987063711841
0.2211043889004428
0.05645384438343097
-0.05395299961209215
-0.18219938316522352
-0.19214160783470852
-0.12211056304603853
0.02396651518835882
0.07493433714354265
0.08190265974332572
0.10305683701724816
-0.01143092744216573
-0.030698827266054957
0.051165568695071946
0.015410314448545076
0.024131806465840813
0.029779665640458804
-0.013104467884901468
-0.1362979710651883
-0.14931190714315798
-0.03647182070814231
0.03897356464012682
0.12461282594867315
0.06564488793384962
0.09286656192753237
0.015458937469156218
0.02029748757630603
-0.1227118500972352
-0.051549377806823435
-0.002329606269935851
-0.0016106559675139935
-0.06234693824611099
0.016219818813082505
0.04542665216032034
0.04216448535536994
0.023627088595397885
0.003319720418213398
-0.01085264871392875
-0.016437024509360035
-0.014875189204987078
-0.009426629650580802
-0.003342576900130425
0.0012560705486911684
0.003695487491468111
0.004427146216483272
0.004372488348221109
0.0042555841046028504
0.004177146175651834
0.0035699821556247164
0.0015462015847275384
-0.0024822486788320074
-0.008140264653534518
-0.013685544522376282
-0.016161669314233882
-0.012289984318248822
-3.910089187368214e-05
0.01952485421212956
0.040832215055909865
0.05373396971582236
0.045462536704429186
0.0047103809677048756
-0.07309573475272188
-0.18130159543071087
-0.10080597634726657
-0.0039539124906688705
0.13660366931145485
0.13681010711932393
0.19236395616038784
0.07645385163887253
-0.05392957409292706
-0.24462461023168774
-0.1285598705371487
-0.11357945285278392
0.02160966745810069
0.12209116561174554
0.04421310188679975
0.0402547909923342
0.14489840770243848
-0.03312872033051813
-0.11279179248170776
0.06370552354347303
0.03987589589383213
-0.04367668928154039
-0.03741376862075432
0.027602730127277254
-0.05301754536610721
-0.054508351894139676
-0.1263385091790538
-0.00176054126106732
-0.01253645676405925
0.09381501048679869
0.1384908326066598
0.3025562632399882
0.12890906494531712
-0.06353864135863484
-0.3562959225048939
-0.20538455282950333
-0.2220105751252727
0.03312423535374183
0.039748891918781726
0.29573906872028816
0.09014626391712088
0.07999286146805097
0.07727083802743233
0.048877007649644894
-0.07163143519683068
-0.1645876102774575
-0.10295311536057242
-0.135301487965015
-0.07753361284241315
0.08511497346466512
0.18754978218385687
0.07013015391214253
-0.03498998384995716
0.0875659894053735
0.034709274438972475
-0.010332748337454229
-0.06880064979424758
-0.15586435801242893
-0.07227997631575657
-0.0010969364485499697
0.08952261475353164
0.03854833252574717
0.08217265056801075
0.04481146090483404
-0.06686783697595758
-0.06628842898878362
0.013627782068387646
-0.0772017113485238
-0.002697493699488034
0.16388283128177797
0.14670478948588203
0.07761872606166152
-0.08996291198290246
-0.16578167665691942
-0.1106308734617463
-0.2329345519225654
-0.19814299772064006
0.14831023409655317
0.14822199182418613
0.09589163433876097
0.4115503643872999
0.43224932574649405
0.02559109507707585
-0.17483536267858277
-0.3212220811658072
-0.7057009958821259
-0.7337316078311177
-0.12870172910717415
0.4312505317974679
1.0570782399023397
1.5969397580100575
-0.5869766339096939
-0.40031574354434923
-0.36405571642721735
-0.9511600036348519
-1.3408264332301372
0.989178145918934
0.6281032309076162
0.16954888813117616
0.345114233995398
0.3780229435544075
0.17092351748818876
-0.06964804626283941
-0.1799693289157587
-0.3725683431272193
-0.5759782568949825
-0.5994590381029294
-0.3350654585676072
0.2014767758778533
0.6029604609233495
1.1994110876701682
1.8113496150187096
-1.0511250328410615
-0.940456794774795
-0.7948080486229293
-0.8670104361336868
-1.2919384168326962
1.492613884890681
1.080540999438192
0.616313227639131
0.3332365333070377
0.13610166342461205
-0.16664701888596925
-0.5953202115610591
-0.921993945303336
-0.812802353568801
-0.41138950188153706
0.22968008926830846
1.2820127658611238
2.467623679812444
-0.9883688529062619
-0.35707509691085043
-0.359395157187899
-0.8980914605602205
-1.8010112112893915
1.399238042845117
0.4413594118782798
0.07882548342821735
0.01465405966933944
0.4519021283009238
1.8766281921367909
-1.5199976211827746
-0.3852461621270529
-0.13114142293526268
-0.46817250889692885
-1.7686575602122827
1.7290180981844891
0.6788603247567442
0.16518787322917292
-0.1580844930789944
-0.31092884258693093
-0.20914170285969375
0.13159086824234892
0.4049037658096968
0.234547632655115
0.006802614005189998
-0.08755340660975444
-0.40868375502659054
-0.431850695790387
-0.33230585391360945
-0.19874709108762345
-0.07495226950063225
0.38069743165031444
1.0366303301695776
2.053130561167686
-1.1107704158493457
-0.6452274381915937
-0.7098629999704305
-1.1593872926576876
-1.7078237594449086
1.8509508442483085
1.1730197855139852
0.6735677286756513
0.2528326856257968
-0.13378248675022622
-0.4553609790082475
-0.34821863783844226
-0.24477971479476526
-0.3112877307323557
-0.2102516800492081
0.10578037603849232
0.17153565318280525
0.1668284371098013
0.26799567992339274
0.20592993470897553
0.040224984619279425
-0.04642901025666411
-0.13513960171406986
-0.14491848865165288
-0.0018871261584646212
-0.010899751171911306
-0.03475133638702933
-0.08374517171675416
-0.1165640058087584
-0.05198068032465086
0.010640169103297568
0.16608663675569282
0.2791811929202648
0.16833096232210373
0.0017468536085783572
-0.09239675661405719
-0.20520319295168618
-0.22248322471982399
-0.00390603246347976
0.02870597775298542
0.0922569369572252
0.03424318210223273
-0.08074076621326556
0.013883535855895383
0.1729496083218534
0.029538829101847974
-0.009579699485479683
0.03758942987664643
-0.06500914033468863
-0.16189969781318184
-0.09654956149083746
0.09574951484740138
0.1918712776157171
0.18285589759986134
-0.1242818177085937
-0.3044873578864528
-0.11424713705649989
-0.09580945377976612
0.2126026957616012
0.26279385386344106
0.2839898593670773
-0.12307199441725519
-0.1831886020700993
-0.337307200351706
-0.0322413045696717
0.08543510936743036
0.16976373034469416
0.17255519372572517
0.04181655933420579
-0.07501081167992873
-0.02233513235962573
-0.024460808234570284
-0.07424054662580823
-0.12626331742144745
-0.09756390321559393
-0.0772109738763045
0.05612024971161894
0.21208145722372876
0.2676921310420497
0.05355510267969604
-0.04861583251089461
-0.09685980698591351
-0.1719225698772008
-0.1582438174270285
0.07140014706412343
0.0643466203380629
-0.01062032897009191
0.032973536458428765
-0.006788244894633923
0.07378199300250543
0.07973312115051845
0.015903123093880697
-0.11207169543319294
-0.09544835916867472
-0.1208766782682235
0.028468446493766664
0.16884670369984045
0.11075570451192085
0.05550715949931932
-0.004074058959562815
-0.07856412430549434
-0.17458021905548654
-0.0886257409680386
-0.005284405055591074
0.09899682163934845
0.047837107383901
0.05575875842457857
0.1215504675796385
0.026792633310373525
-0.059625227178721985
0.02780697173099096
-0.13757059011873377
-0.16523241574876496
-0.0434159109747064
0.0576982237712455
-0.023940081940363945
0.1440253546173805
0.17528453741238684
0.05688426669978961
-0.050732145498550985
-0.005335519686315725
-0.06853857269606507
-0.08955460005678477
-0.09152879619401491
-0.06398674755734679
0.036787622986069655
0.07976326709490437
-0.05420486051349402
0.11219260769980134
0.038595599738743144
-0.0431394622439593
0.06664205998475607
0.13725085780292748
-0.08470040062906237
-0.0634390637076549
-0.06064581149815759
-0.12389587878235059
-0.0799108304460127
0.06592374575951931
0.12449735627910369
0.11506949202907414
0.058047945865117995
-0.02885985343666841
-0.13052237864721788
-0.03185663749857669
-0.11556062518037162
0.03767623625984925
0.045851570235191146
0.12041068246123929
0.061436311907670536
0.05552970022041479
-0.12265647711246862
-0.10613589496949007
-0.13085142586407938
-0.03279955843240248
0.1522161256459683
0.1877923456392049
0.23840741666608603
0.07621125523172259
-0.3065333909225859
-0.2830337442035739
-0.18226863238865962
-0.09051547369484969
0.13316840473510197
0.23027187428684157
0.11216438078756974
0.03413169037900733
0.1811832676436371
0.06921685753744691
-0.0387330306804112
-0.10488421207698762
-0.0841349414808652
-0.29429856040928815
-0.1963951778981403
0.010309009726359562
0.17802752294278337
0.18912701475830174
0.13119300538080916
0.07629399056095357
0.06976034680469055
-0.07013075947582977
-0.14392003654703814
-0.15902597861780318
-0.11958748243473337
-0.02219478265987736
0.1413176301547401
0.17613902721936162
0.07612108413156202
0.019153469621990906
-0.03134450722393863
-0.11928560875806146
-0.08583544019289144
0.04016946165417022
0.04863294469594668
-0.0497262796824162
-0.025541878947266745
-0.03655706556353847
-0.03612503280003402
0.016787750067188578
0.14805091033647202
0.16186924157761604
0.039832213600924316
-0.05334659582472187
-0.15869097053978723
-0.110090247607298
-0.12431109367047488
0.0025755227074535387
0.0914387287357462
0.17102152508754884
0.06751512110841851
-0.003182403063276192
-0.0381469203409417
-0.04508186372428693
-0.0368550835921637
-0.02549489206873479
-0.01781356329277294
-0.013881333671585016
-0.008557597065305816
0.004567961037830274
0.028100454517226762
0.05629214907044019
0.07275208253306509
0.051762520489359504
-0.03636950838449441
-0.016835301230860262
-0.10096105195556439
-0.07895495427049679
-0.11755623494848173
0.03585250772776225
0.043087139315323084
0.16148348247584202
0.030604916360294315
0.06322652822998556
0.0430646816497327
-0.07044742185145794
-0.13210061301749793
0.0013760264711268325
0.08262261280811274
-0.11833740843667323
-0.010446519409809105
0.01755119696046945
-0.007695263699714102
-0.051786204104754416
0.11866566108979104
0.128217472795537
-0.012299291335166206
-0.10655281781601977
0.030428404756544607
-0.022225385705298268
-0.0853368578094284
0.024968379192773466
0.09985769836670844
-0.061717954041038636
-0.054244171333279176
-0.06815944420204481
0.10669291726884925
0.07738011552698992
0.04522590391446337
0.005476785274667153
-0.05033237233917086
-0.13031733491983769
-0.03844848802095715
0.02712973865369785
0.07297055455585749
0.10719176922355862
-0.06399339593405363
-0.03869034777722342
-0.020325995723421683
-0.017761375278193686
-0.0451364300483552
0.07850241865134328
0.13048112835909276
0.08775421735443359
-0.06723588197530816
-0.13888056195302062
-0.11141982957296478
-0.14597861374181603
0.015992264478247715
0.2429554520875207
0.20005140780820146
-0.06333079234943134
-0.12179163652663422
-0.17719971530245013
-0.058520256940330556
0.18011290582732808
0.2631740442363819
0.10134954767699678
0.004882087174413241
-0.2979966226436214
-0.2417379337661393
-0.009460552243882371
0.07062618522941155
0.11678462586642396
0.07544135594036494
-0.1030214297614562
-0.2907548419411388
-0.008664108704088765
0.15023100173661458
0.5046256675588988
0.2821384857945348
0.03537036603944539
-0.32234280343797816
-0.26747323391227507
-0.2144030615096524
-0.07312614773604743
0.17512233718634174
0.2816203795261761
-0.0849835582521167
-0.36968467670505034
-0.37619302781411873
-0.3251219102465543
-0.12186446071388604
0.5757300258798482
1.3075571457250577
2.0010902238120187
-1.1827870630664865
-0.7489756752874442
-0.7369629666124606
-1.2004330643747507
-1.7384451288163973
1.4983153188543707
0.9290824491079438
0.42022858435867977
0.3588363373145767
0.3590457608482626
0.2218717206374667
-0.048224570046449894
-0.1804728168200436
-0.5484198842076772
-0.6784403024902501
-0.37942311725707645
0.09034594056565806
0.21493851909202114
0.37943338256346576
0.41202939211412276
0.12773067170624972
-0.11290756347398878
-0.22430155105164665
0.002755671774544914
0.11321949508873275
0.007557162272627092
-0.03532344521733574
-0.13546285335508634
-0.1929377341136176
-0.07573551260424406
0.18404835618533016
0.18683928869646765
0.15859080272363688
-0.055851950934743017
-0.19708864015082592
-0.19437788185498603
-0.17083743660904915
0.14701948444983917
0.2161780326211849
0.2647166221093484
0.0858851703389787
0.04272317051848898
-0.11698418560065206
-0.24033618145817248
-0.3515297434424375
-0.24474500403508903
-0.09251129322471745
0.13164821841409266
0.6243940970647532
1.130617204614906
-0.45876950490390533
-0.2834729311499908
-0.2707647470543782
-0.4886014279586924
-0.9134451320954989
0.5741959692498663
0.36417135036498177
0.27009542781002666
0.07790210087784152
0.3054677318832894
0.18328337892007704
-0.1415221142214703
-0.38236055413033615
-0.2810549119638658
-0.37755459119982965
0.01014609146729492
0.5940715663624069
1.5176851252193924
-1.2407645247444867
-0.45860787004770664
-0.05784298669279678
-0.30459301377454484
-1.2285286124956627
1.5373898945140112
0.9076751290575794
0.30435482493252697
-0.15545333922445645
-0.23701800053937502
-0.33840840303633485
-0.6324619820199137
-0.4207110619146388
0.08627837321294254
0.35815342620031737
0.3106318344060766
0.262299072955459
0.09757169460861778
0.04629751515873252
-0.11672786459820131
-0.05548606757623209
-0.04683511697397394
-0.15339108848216867
-0.20281907994869888
-0.17907263622209801
-0.028025025332409945
0.1240739955212401
0.3451232236196598
0.2734262936298722
0.10443412143367795
-0.006766312800272784
-0.1277624183476181
-0.3221666193706443
-0.2235385800616822
-0.019153052622235368
-0.04936267592614597
-0.02305478468959649
0.15523104928751713
0.1541788176965015
0.18933966228028157
0.20936064051239056
0.09969412731863349
-0.09573758634832913
-0.13936797103496362
-0.15977463540977807
-0.21672017171139024
-0.2807556637658415
-0.033248425245094096
0.11237514680829064
0.1728804760946959
0.1499840861706783
0.18825310255250097
-0.05466131811962735
-0.019767200908946823
0.1612887382336151
0.6925596819985543
-0.6455628955313021
-0.24856040797447634
-0.2435723897256788
-0.26089434207072865
-0.6301510161988501
0.7971073504631825
0.4051875586758476
0.16578811087022335
-0.0019900259437228857
-0.05318611028674962
-0.017783208875557264
0.015360812390499938
-0.075244343457396
-0.21443461929527344
-0.10449132322187737
-0.00752705566004991
0.061460500401610836
0.13152051166207054
0.06566959774829503
-0.052528000282843906
-0.13301998305575335
-0.09280893653690604
0.13140301912573735
0.17242865955706196
0.02579993677342727
0.04938136095385119
-0.029512602755400952
-0.10066197782627728
-0.05421906772628404
0.03548672024584741
-0.07767713136572485
-0.005193575053905346
-0.12419814585525302
0.015753004509867958
0.08090204450918219
0.13918883586586314
0.04734740145427954
0.042435355298691
-0.060501131070788874
-0.06503628518077124
0.013660083754279432
-0.04323650192062373
-0.05169310511172024
-0.02119659407125647
0.04551200049478237
-0.05016487678819565
0.0931404295844859
0.07274443595869295
0.07971209516192962
-0.10059068260765824
-0.08551842195007481
-0.09132455507764846
0.0695208397610704
-0.011281828024723382
0.06055456555890739
0.0798102134874403
0.04081827236697018
-0.06135986309366265
-0.027902708585190852
-0.05276846047187533
-0.12076082485812292
-0.008662757624175498
0.11024336359021525
0.05952040493541865
0.053219058760777885
0.09234803543748774
-0.0344069367283323
-0.14606038387560227
-0.06275158522458166
0.00015432957896167692
0.03528854654872619
0.04334797808149943
0.0309488150810197
0.007739704206737993
-0.01610448392162931
-0.031651460297789785
-0.032533556963389935
-0.016325029133737182
0.013802906831121196
0.04751512731905572
0.0667577993007629
0.04730029136055273
-0.03700601945899131
-0.007638608434742492
-0.07399262698766132
-0.0273471147681771
-0.0383533563425528
-0.059447080001486755
-0.0324288528984324
0.09984700269752053
-0.020041822500117993
0.023707263787665814
0.21254528154734584
0.09338974341644887
-0.012737348940995279
0.006008498902708976
-0.12628132728940042
-0.25265179342439525
-0.16961820377493386
-0.025167092622221072
0.07020569764954157
0.22227584158542746
0.1279084597335609
0.053139075486352966
0.020118983484487044
0.0052979799900908075
-0.05207707817395586
-0.03436284618527505
-0.02707088458744814
-0.10182518508761698
-0.10425586024721181
-0.049090143677735655
0.07705679159922399
0.10673986407806613
0.0798474377508311
0.032673839064881596
-0.009207492672684928
-0.03321120293784956
-0.03788866362187264
-0.02875908685744317
-0.013771026281058136
0.00018229041935156356
0.009067766298285306
0.011930897312467856
0.010061860490218436
0.00576454005732762
0.001261602221877534
-0.0019719183697723894
-0.0033960575161858858
-0.003232107599409062
-0.0021147087552000413
-0.0007424907114569272
0.0003631165879386482
0.000955331862794269
0.001038084449778968
0.0007727087468653486
0.0003698298681797036
5.586719989487759e-06
-0.00022062381089744083
-0.00028895463286270523
-0.00023608026455977275
-0.00012300175590957725
-7.0903741391723765e-06
7.446935554906501e-05
0.00010886102032035378
0.00010268337870386496
7.276227224502056e-05
3.714789076928788e-05
9.036606725248736e-06
-5.561372877547991e-06
-7.056944182542096e-06
2.0424176133507932e-07
1.074194502644407e-05
2.006690451357961e-05
2.5716755039404726e-05
2.7279454869009606e-05
2.576876646078611e-05
2.278449704577401e-05
1.97984066658448e-05
1.7742302855091107e-05
1.691578304248869e-05
1.712499871275172e-05
1.792432580270485e-05
1.8847788909000902e-05
1.956183841593255e-05
1.99207248154671e-05
1.9942975416297422e-05
1.9745284665595073e-05
1.9470073089578323e-05
1.923162903872245e-05
1.909080276544968e-05
1.9055657562828945e-05
1.909834177373918e-05
1.9176963202218754e-05
1.9253807836491135e-05
1.930556469379893e-05
1.932530469328023e-05
1.9318625380525198e-05
1.9297306613860873e-05
1.9273369515951508e-05
1.9255242416954543e-05
1.9246454208775644e-05
1.9246332748178978e-05
1.9251752924988716e-05
1.9259003748884998e-05
1.9265150367405596e-05
1.926865569697883e-05
1.9269344996822412e-05
1.9267970548027637e-05
1.9265660771842464e-05
1.9263464013873357e-05
1.9262083425794264e-05
1.9261798652424065e-05
1.9262512588597263e-05
1.9263852576411344e-05
1.92652811097769e-05
1.9266207834971308e-05
1.9266119202108818e-05
1.9264739803650924e-05
1.9262208891320412e-05
1.9259209989030975e-05
1.9256955539877756e-05
1.9256930628721973e-05
1.9260361041680434e-05
1.9267492073636534e-05
1.9276916279814907e-05
1.928531009363927e-05
1.9287951381252445e-05
1.9280222556068445e-05
1.92599358659964e-05
1.922981510605917e-05
1.9199002086891346e-05
1.918227824754434e-05
1.9196056956238137e-05
1.9251245436657966e-05
1.9344676008688605e-05
1.9452498693235025e-05
1.9529930071706722e-05
1.9521172048181845e-05
1.938051583949143e-05
1.910072340827994e-05
1.873892367752916e-05
1.842581888092674e-05
1.834397654183153e-05
1.866796136851881e-05
1.9473661742209685e-05
2.0643615891994267e-05
2.181267284854366e-05
2.2404179049190517e-05
2.1791401109972777e-05
1.9577323639897412e-05
1.5923641141080564e-05
1.1795364496432448e-05
8.951515544883503e-06
9.539117289249249e-06
1.5260309365948345e-05
2.627527836420058e-05
4.02283180097125e-05
5.194846321487947e-05
5.4363774707892605e-05
4.08831382359236e-05
8.923574198438148e-06
-3.6490377236315724e-05
-8.078720748082294e-05
-0.00010148820918715103
-7.469585876135305e-05
1.3952472152246816e-05
0.00015667180885523322
0.0003145106450995329
0.00041845633914985874
0.0003859964527838141
0.00015394538025503187
-0.00027920020432610666
-0.0008167189376491596
-0.001254315901202352
-0.0013183532284667795
-0.000760425020091487
0.0005056486948034068
0.002267337861629884
0.0039450464636220026
0.004665204402153222
0.003520997424024723
1.2448240074826765e-06
-0.0055263857599625495
-0.011484910128577865
-0.0151633755366612
-0.013400289450815997
-0.0038996669126348475
0.013084955291941506
0.03328398433954028
0.047958806670242
0.0451909955037267
0.01317445189905859
-0.0550769051642071
-0.15716716529600758
-0.07905177520968415
0.0031623330856268145
0.11710791294175593
0.08556362264796198
0.11862418052832803
0.009774769224302397
-0.06260150161727308
-0.12900625675055
-0.02036814070196025
0.039761294349017866
0.04035267117695981
-0.015260009140474652
-0.11060648056491572
-0.01994904656488462
0.08571345969191126
0.031513479435982185
0.03215774656405048
0.087851776932247
-0.01601538955946943
-0.10533618215919781
-0.011021426409273742
0.038173261463706545
0.022019433650582693
-0.06670920484404427
-0.02023381438422371
-0.016596712672869364
-0.023431769494930383
-0.004252653187393181
0.07388680058978922
0.03309718518879412
0.07964373499281788
0.002720915307194729
-0.022508817058357933
-0.028430953203093325
-0.046947046348569416
-0.10224276137134014
-0.00638182039877363
0.04124333512815863
0.05093181838717467
0.03767600497916839
0.016113374199959982
-0.003011630588527452
-0.01422877129294923
-0.016810385744503498
-0.013101307262234628
-0.006585468187474507
-0.0003497447056082135
0.003743885433031398
0.005191428219850719
0.0045044541867236025
0.002676026432666007
0.0006928040038606017
-0.000771274277894722
-0.00145092774033656
-0.001422541501625397
-0.0009550672051689886
-0.0003555349562991308
0.00014062550433605828
0.00041668346111707795
0.0004674076490711694
0.00035974758365365416
0.00018544895682383723
2.3339683958640796e-05
-8.050536272757371e-05
-0.00011510201590582398
-9.509405453748653e-05
-4.677450025011875e-05
4.39166019935835e-06
4.1404062108768275e-05
5.791940805976732e-05
5.631555172456363e-05
4.3747084796841606e-05
2.816004286883873e-05
1.5523462201340352e-05
8.694156892135753e-06
7.668889445700524e-06
1.0635765784926611e-05
1.520347886909684e-05
1.9359774613677436e-05
2.1959712217166836e-05
2.2764155178141015e-05
2.2181673324440826e-05
2.0903262964989613e-05
1.95831524244346e-05
1.8648300513994635e-05
1.824872722244078e-05
1.831244256586718e-05
1.864943054163732e-05
1.905424731568217e-05
1.93757498646481e-05
1.9544283622698567e-05
1.956347499250655e-05
1.9482187283998955e-05
1.936267013389197e-05
1.9256232211650628e-05
1.9191260067895336e-05
1.9172784893012528e-05
1.9189491182182064e-05
1.9223248703777975e-05
1.925726875020202e-05
1.928084659297506e-05
1.9290465079055403e-05
1.9288251650728022e-05
1.9279241914250377e-05
1.9268741354296927e-05
1.926057183340638e-05
1.9256424715168267e-05
1.9256115903775093e-05
1.925833203324619e-05
1.926145474537715e-05
1.9264177346685098e-05
1.926579780621526e-05
1.9266215597507652e-05
1.926574213603002e-05
1.9264852381647213e-05
1.9263976670576663e-05
1.9263382914176205e-05
1.9263152709737896e-05
1.9263224322311596e-05
1.9263464575600424e-05
1.9263736617342994e-05
1.926394394335854e-05
1.9264045671713228e-05
1.926404886285042e-05
1.9263988710590042e-05
1.9263907235505127e-05
1.9263837674639806e-05
1.926379734320542e-05
1.9263788082730014e-05
1.926380136970678e-05
1.9263824780114877e-05
1.9263847296051712e-05
1.926386222498173e-05
1.9263867698099195e-05
1.9263865481500413e-05
1.9263859090511567e-05
1.9263852051096608e-05
1.9263846796465405e-05
1.92638443096634e-05
1.926384434962224e-05
1.9263845975900506e-05
1.92638480987898e-05
1.9263849873933434e-05
1.9263850875510094e-05
1.9263851075303912e-05
1.9263850705477848e-05
1.9263850090552332e-05
1.9263849512292253e-05
1.926384913754798e-05
1.926384900843082e-05
1.926384907499347e-05
1.9263849244614402e-05
1.92638494265522e-05
1.9263849559550535e-05
1.926384962011072e-05
1.926384961595228e-05
1.9263849572140555e-05
1.926384951690027e-05
1.9263849471654014e-05
1.9263849446840296e-05
1.9263849442692585e-05
1.926384945291442e-05
1.9263849469040995e-05
1.9263849483875056e-05
1.9263849493265653e-05
1.9263849496283737e-05
1.9263849494328568e-05
1.9263849489836298e-05
1.9263849485139514e-05
1.9263849481777898e-05
1.9263849480309336e-05
1.9263849480496513e-05
1.9263849481672977e-05
1.926384948310855e-05
1.9263849484260422e-05
1.9263849484873603e-05
1.9263849484954725e-05
1.9263849484673903e-05
1.9263849484251627e-05
1.9263849483871526e-05
1.9263849483636637e-05
1.9263849483566872e-05
1.9263849483623342e-05
1.9263849483742076e-05
1.9263849483863184e-05
1.926384948394803e-05
1.9263849483983473e-05
1.9263849483976605e-05
1.926384948394511e-05
1.9263849483907847e-05
1.926384948387856e-05
1.926384948386345e-05
1.9263849483862022e-05
1.9263849483869696e-05
1.9263849483880735e-05
1.9263849483890466e-05
1.926384948389633e-05
1.926384948389792e-05
1.926384948389631e-05
1.9263849483893176e-05
1.926384948389006e-05
1.926384948388792e-05
1.926384948388707e-05
1.9263849483887298e-05
1.9263849483888138e-05
1.9263849483889107e-05
1.926384948388985e-05
1.926384948389022e-05
1.926384948389024e-05
1.9263849483890032e-05
1.9263849483889744e-05
1.9263849483889493e-05
1.9263849483889347e-05
1.9263849483889314e-05
1.9263849483889358e-05
1.926384948388944e-05
1.926384948388952e-05
1.9263849483889574e-05
1.9263849483889595e-05
1.9263849483889588e-05
1.9263849483889564e-05
