0
1.3401914886436471e-11
1.8917571947294286e-11
1.830938590533267e-11
8.322613728290685e-12
-1.1564700908838631e-11
-3.729830380020764e-11
-5.958956712094884e-11
-6.54549040667166e-11
-4.246965148487899e-11
1.4784410063489375e-11
9.798210060861284e-11
1.8118054821096866e-10
2.2337846086684053e-10
1.7998194664734933e-10
2.2695950817489925e-11
-2.3707106836980946e-10
-5.307842890356829e-10
-7.333998394666594e-10
-6.921891232881508e-10
-2.859372199510573e-10
4.970286497032198e-10
1.4895049081903776e-09
2.3239872504901433e-09
2.497522801768053e-09
1.5409560340942048e-09
-7.302456976991111e-10
-3.959847117637503e-09
-7.112525888763144e-09
-8.589935401839847e-09
-6.691602762862936e-09
-3.936759771658479e-10
9.753771138073437e-09
2.0984270164287213e-08
2.8391860683447104e-08
2.610701070157171e-08
9.629943600797014e-09
-2.1156740369078565e-08
-5.938653995993212e-08
-9.053931894024963e-08
-9.515469040787368e-08
-5.555498022221102e-08
3.4408146980333665e-08
1.596316889996873e-07
2.788694094614983e-07
3.298844013835751e-07
2.4793694845361873e-07
-3.763255323094059e-09
-3.997034593901411e-07
-8.284783861989033e-07
-1.097838124514716e-06
-9.825077050023552e-07
-3.160379983131728e-07
8.930207387172774e-07
2.363757518791051e-06
3.523252135276785e-06
3.619429617068966e-06
1.987709683925557e-06
-1.5706911863616389e-06
-6.420432682460555e-06
-1.0921006744717002e-05
-1.2651779652907831e-05
-9.15211577772163e-06
8.891943513472095e-07
1.6320583712967948e-05
3.266575127972286e-05
4.239988838593885e-05
3.688859670765334e-05
9.99904061557936e-06
-3.742569335767818e-05
-9.39330481872349e-05
-0.0001369469793433897
-0.00013743747419372405
-7.048109626771815e-05
7.007249385387094e-05
0.00025767265844662727
0.0004271710781807607
0.0004845236420709498
0.00033636348819363293
-6.359496292471761e-05
-0.0006644197106670703
-0.001286632037528792
-0.001636034783980197
-0.0013820821130230599
-0.000299607464951402
0.0015592032066698842
0.0037298592120448555
0.00532573569789403
0.005230977675062433
0.00251888397660908
-0.0029795210811317274
-0.0101501620161545
-0.016399322947899246
-0.018077427651594605
-0.011683317524184023
0.004273254781446954
0.027252386629484746
0.04935194371463751
0.057620665945099424
0.03667598187198044
-0.02649691343522502
-0.1367929918747408
-0.08646886389567436
-0.05421055631876709
-0.009110564153166781
0.08109480447667092
0.24022722752247513
0.07611037600718557
-0.021517153123893115
-0.07664856581122223
-0.11816441289494076
-0.1704904748994785
-0.04788931603788617
0.04524283142769406
0.10852645422180275
0.13728298586216384
0.11608869095844504
0.017843647668596037
0.009715750197970151
-0.13558015354901842
-0.2270838485020219
-0.04630622460375751
0.054815132967488425
-0.0524932628640101
0.11310335337051945
0.22725523202807693
-0.054170341582852735
-0.10409372242832737
0.07323272323573934
0.04553845357294663
-0.039924106767601955
-0.046478743608585366
-0.03772377331113466
-0.06882065666920288
0.019042348575174943
0.00037324725726752467
0.06378794007632495
0.008470641001619915
0.04030092913843398
-0.03109718572263232
0.006151795789885752
-0.03402726212520697
0.06484809452657753
-0.07762607010918589
-0.03869940003955358
0.006671635462677925
0.08400923201570025
0.01699516459269905
0.025421298628281897
-0.07605448910485278
-0.07850571976854744
0.020609054707426216
0.016179839500084513
0.0937972389869827
0.028753748397478195
-0.013136577932434907
-0.07240000194993516
0.009057639365938988
-0.0063960914033156955
0.053135810208522066
-0.02671479783628105
-0.043758103957250744
0.02188073160736951
0.006818884813768759
-0.0388590807958335
-0.05721435516649734
0.009887255599066846
0.011781902748361548
-0.019993566961188654
0.12123888651744989
0.2144085170574551
0.01377123720134131
-0.14171968396723558
-0.1147610703013821
-0.15589952041081792
-0.09418031773988325
0.06485636153859893
0.13397266952548662
0.13485078255060234
0.08893767885443031
0.012197778724268917
-0.08491419302383697
-0.19371768679564302
-0.10308012274549222
0.0020597118010086415
0.13805886177318508
0.11715403160669242
0.1424755648724219
0.00665062251567894
-0.10480279291967277
-0.2068335679000248
-0.1084956396509469
-0.010431579455004647
0.09228447281737708
0.2034530126496276
0.11897014044601094
0.02392628922850852
-0.10442821795031268
-0.0888990923240143
-0.14323788842351196
-0.06584565893263337
-0.03912929403043432
0.16516724087499773
0.17693126574489662
0.018722437020659732
-0.0997131945798433
0.017963479006126312
-0.04186078821803712
-0.0973299659583363
0.034264284378270185
0.14067561063218564
0.017515723357532403
-0.13006038797774547
-0.08692429080581576
-0.029589640973659966
0.06941566501860975
0.03484194558716165
0.08147133700546556
0.008722452948152581
-0.0010066469665756237
0.020451021615212832
0.033741787051967335
0.001170191236267938
-0.10373264611179996
-0.08874127612228734
-0.1400515959223683
-0.025606227345218655
0.09561849835903276
0.26100109916844944
0.09274147955099844
-0.008247718784797712
-0.06086574311316397
-0.09584470745557296
-0.14487684061482706
-0.031126411706254187
0.03578522966834578
0.059467183367245
0.05242618233733849
0.030182280173405032
0.006187177107669682
-0.011077046656884344
-0.01860430230252806
-0.01761102178118558
-0.01150686289779365
-0.003982188559539158
0.0022421052077556155
0.005858975895895076
0.006781162211232606
0.0056283621658408285
0.0032130758019960873
0.00023348271704644354
-0.0027706309775423314
-0.005280865601134606
-0.006646785757681004
-0.006087170204974471
-0.0029458926217687774
0.002828086775932365
0.010159200264450266
0.016583568171284247
0.018571332996084804
0.01263320831330144
-0.0028716348502394184
-0.02569734336990779
-0.04827481681277563
-0.0578514558551446
-0.03891812373205213
0.02211773735094533
0.13114711552686611
0.08157973877778989
0.05292385782885976
0.014160025485037931
-0.06850919405648166
-0.22192622265456047
-0.05778833368070141
0.030867422680460332
0.06729364333224816
0.08407749681889254
0.11461971627439892
-0.013834697503296618
-0.083825667113422
-0.08805534184162857
-0.027962095502864576
0.0879262715395215
0.04522901364685853
0.025020737022310856
0.006045838316304877
-0.03190905924118356
-0.1041930333945737
-0.018352077463365604
0.026724926045931095
0.03922374483277412
0.031102487699012776
0.014417324276824928
-0.0014824307876431125
-0.01126782446560978
-0.013517677977730172
-0.009683525962741737
-0.0027382235781077424
0.004037940609454563
0.007934574670141846
0.007366225506715282
0.0022056945305016303
-0.006053619757767169
-0.014382972123569553
-0.018734773767965233
-0.015163060686267481
-0.0015368704778371573
0.020497786648098384
0.044017585307905685
0.05669995372888085
0.042838024371634656
-0.012387933036701704
-0.11728217448756369
-0.06854481340636757
-0.048991300749105335
-0.029675650693641344
0.023556013413589615
0.14086354695357292
0.1396294160162068
0.019321162392135792
-0.037998392819603724
-0.061732777655863325
-0.08377585078828731
-0.12995923717150595
-0.014965033814608569
0.057874595960571026
0.0926099921013922
0.09501971753018792
0.06831443519509169
0.012343574257451162
-0.07346866271127814
-0.18529434299652742
-0.11128148220755023
-0.03198608187499203
0.07420784777544
0.2225283919763191
0.21417220124038622
0.03389452829295041
-0.145001066767238
-0.1497587545940754
-0.19601881157142848
-0.0799790080599379
0.021420536852572905
0.1421340421239447
0.1138301866033603
0.15320190079997556
0.05474707530058814
-0.008270075276078285
-0.07515516692849554
-0.1847797469485643
-0.1631585997726656
-0.016172420074348964
0.07021452716910309
0.12308329677817928
0.1725688120331185
0.043181837068965445
-0.05035258436582223
-0.10214254164933988
-0.11103953265528646
-0.07663505607940505
0.0020118936610237586
0.12419493054860015
0.08338574289482813
0.063824716669471
0.0404236640690874
-0.01701689878783224
-0.13633035966464102
-0.1349302617747047
-0.014344735870444122
0.04046976603687108
0.056875059208347345
0.0672247125867358
0.10132173376631884
-0.018855279605079267
-0.08103970785737293
-0.08169893894813773
-0.023799391530727187
0.08510167956652263
0.03382572617687508
0.00805759784738793
-0.008854069163526929
-0.034437883153017164
-0.08533181468253276
0.02413952992443933
0.08271219056466696
0.08263043452218079
0.020630254173741105
-0.10006519015745483
-0.067355964516521
-0.05910936490185674
-0.044925890312206465
0.008556219794759604
0.1298617895672296
0.13486557440402125
0.02193096997611959
-0.027901388826139486
-0.045523584076794125
-0.06507348311144306
-0.11500760634196001
-0.011840846237562526
0.04176272605051164
0.05459774172088773
0.041787650608616875
0.019134359274326565
-0.0011897845898367469
-0.012701060767835637
-0.014484844515153363
-0.009586806175976242
-0.0027831236432330334
0.0015425522849789072
0.0009566038761940511
-0.004250666135744054
-0.011147259372239954
-0.015093963008405644
-0.011440508389009467
0.0022772060211604093
0.024160961071021916
0.04658157765953783
0.05649841002692005
0.038080501311435526
-0.02248244771559425
-0.13114581780892443
-0.08126554646023292
-0.05226704062213078
-0.013117884061932135
0.06985921371966394
0.22326117669391074
0.0585077070514738
-0.031509826737325664
-0.06987041823186992
-0.08852974241632468
-0.11978441449416777
0.010546509867574926
0.08646749250417952
0.10190225765571868
0.05920345542594892
-0.032147567028572216
-0.15605014347084725
-0.09043007060616398
-0.00961163006773569
0.11081622392906648
0.08767575147376332
0.12494564426027065
0.01218132720589468
-0.07225469970720863
-0.15422874500190722
-0.05594857947416104
0.009741067660225112
0.04103490287603304
0.044945396716891094
0.03283696457867913
0.0158047769726343
0.0014764633433030513
-0.007104436082354764
-0.010704778822651187
-0.011967023543969163
-0.01322903675777651
-0.014924799800015707
-0.015128750255725019
-0.01044640605299854
0.00195506345749513
0.021794541790007303
0.04355458686258075
0.05586360927063374
0.04321801802093254
-0.00980918395587878
-0.1127669546989633
-0.06383727128425935
-0.04697212278432722
-0.03336817959123416
0.012485779564074396
0.12369247262489423
0.12156437687942005
0.009093495135617339
-0.030534698688970484
-0.030025466830752356
-0.03014496936464385
-0.07047186479343125
0.018810540825677173
0.022361547759922336
-0.05838740570574914
-0.006771665674789591
0.0046673651000448966
0.007788336951312786
0.031826868733197844
0.09734275393423661
0.012658797853278747
-0.0262780758396032
-0.03270702718575243
-0.023688361660094914
-0.014301388185654488
-0.01304799067033043
-0.01955240604069648
-0.024980046538332627
-0.014985280307176546
0.025567652353115356
0.10739170000458026
0.03267345942543411
-0.006515773999553948
-0.02675024468901468
-0.049381393490177825
-0.09583384506978697
0.01625471127026786
0.07507595974951488
0.07502048609832175
0.016340701056314827
-0.09498970337661158
-0.04717527273360015
-0.023076111446316133
-0.0021631051553355975
0.03592974537552595
0.10718600965785754
0.019865433779552626
-0.026618038389291346
-0.04019907467326341
-0.032792119703518516
-0.01647716150624349
-0.0005711853265241833
0.009723041879205344
0.013128858792517557
0.011097211088457725
0.00627850414227842
0.001223540824150019
-0.0023870474975967895
-0.003949574130139419
-0.0037278452112104762
-0.002447872556367256
-0.0008964070969345131
0.0003514221039732012
0.0010359460241212031
0.0011758689742613377
0.0009525319278167089
0.0005813751362033587
0.00021891182863350973
-7.279139523426501e-05
-0.0003071314208906149
-0.0005202315542449753
-0.0007135774860193026
-0.0008204008584060811
-0.0007154601705511972
-0.0002726824036747193
0.000544207970822288
0.0015923547680714721
0.0025090885077096144
0.0027660693871678264
0.001842201444641634
-0.0005054504629239114
-0.003952594816824726
-0.0074341117717140245
-0.009239367582664304
-0.007487162987467251
-0.0009712001231776172
0.009814835778674766
0.02185255922811269
0.029460981458055088
0.025255714764553516
0.002293257359909512
-0.043047729548220885
-0.1084641040974242
0.015308624075592964
-0.05697122496628144
0.09102279788096201
0.07204575682246002
0.09093493516102859
-0.057094917569262646
0.015235893156307185
-0.1083966502728596
-0.04279003396832776
0.00271210982519616
0.025705094403212603
0.029721602350642688
0.0216771084117623
0.009034178867909528
-0.0023210490130875423
-0.009066407506786117
-0.010397979873328161
-0.007353535078244894
-0.0019515329910270202
0.003545621247723975
0.007138819737253798
0.007426962280915001
0.003882337631308372
-0.002879335472668571
-0.010912526713124258
-0.01704524616730564
-0.017514639573162932
-0.009258916105574532
0.008291122662555338
0.031448954103441965
0.05137475886693951
0.05492845076317384
0.02777438197849182
-0.04061163518944647
-0.1514848735624419
-0.09321703182398942
-0.041744960945819816
0.0340258598968609
0.16315353900231613
0.16317900075226535
0.03408824112467483
-0.041683302043296594
-0.0932046968604808
-0.1515621523184409
-0.04078856996691824
0.027535813515977108
0.05471903977517479
0.051321032074863555
0.031670526759944265
0.008838219349206438
-0.008469200775819486
-0.016733364789042332
-0.016664496282865766
-0.011353640683607858
-0.0044024486020762
0.00139934544255511
0.004648992822553003
0.005259256852443291
0.004002584561547779
0.001954847520865064
4.8622938158558044e-05
-0.00116571717179993
-0.001553663884839838
-0.0012900411462456849
-0.0006962184118266434
-9.063073755486487e-05
0.0003082874026515445
0.00041823810968238327
0.00028044205088655565
1.8369658956834404e-05
-0.00021410549079172638
-0.00028343910152056476
-0.00011967279037655435
0.00025284896461080374
0.0007047192845835895
0.0010207699545965385
0.000957896709888978
0.0003402553423292915
-0.0008271555733810489
-0.0022667572533534917
-0.0034136619918319665
-0.003529551757628672
-0.001964976433684982
0.0014711133055368489
0.006152818720980987
0.010472192283050125
0.012062373227460612
0.008528302155315396
-0.001371725519257351
-0.016397175999457256
-0.03188723324928941
-0.039849343804287424
-0.03054224908226969
0.0044780022791228
0.0686371920740989
0.15747015475730475
0.058355565968607546
-0.04611382988715495
-0.17180714683877027
-0.1263452268008239
-0.10535749446958803
0.10604588994683857
0.12690929711776136
0.1720902993864551
0.04593312384800305
-0.05914475421536088
-0.15886085605272246
-0.07035372759762247
-0.00592534417218099
0.030190386779892768
0.04138449189549631
0.035652890129942535
0.02185163421850795
0.006833781799733139
-0.005715496424594197
-0.014785535870406099
-0.020550154992159498
-0.022808502526768054
-0.020199193511416812
-0.010668043220127306
0.006860899422675611
0.030225923581486364
0.05222975985464986
0.06047573822197438
0.03966358714843809
-0.023690258887647798
-0.13533648579394558
-0.08845738812728841
-0.062435508954102534
-0.026771318058765446
0.05029517608549675
0.19110387263601322
0.1999242570578556
0.06031596610649079
-0.059525707253615896
-0.19482806013329682
-0.1702979384757102
-0.19011440130053586
-0.03644647102661061
0.12245767261699486
0.31781031379936475
0.1657112806209046
0.05902462359614408
-0.03053170020076002
-0.1409085937864035
-0.303831091581973
-0.13132406695363713
-0.010380010016601859
0.09210700754524279
0.21649753833892396
0.19529063182895837
0.041984252760361176
-0.05201199458683295
-0.1120940505503811
-0.16996937382857977
-0.05275032476349635
0.024241169658091116
0.05913780676141014
0.06042918954421703
0.04150936741936215
0.015477273894308337
-0.008098000695353278
-0.024014384448937262
-0.030500149846791332
-0.027648806653172313
-0.016317360558685438
0.001907154544650643
0.023752123695082585
0.043014219651337574
0.0500444799658681
0.032841109210424
-0.020007717128414353
-0.11524319765208883
-0.051284410594626274
-0.016787078928865447
0.00752788782097647
0.044090755793478764
0.112370127643072
0.02365584999068071
-0.0214090953016811
-0.03184533844963186
-0.022542771413846224
-0.009158295541294595
-0.003313409417472031
-0.0092798369789881
-0.02279954611992857
-0.03223795303046392
-0.021885250431430123
0.02323076522036426
0.11220659819962638
0.04441598359083001
0.008476560890311019
-0.015302398928959801
-0.049667325450098464
-0.11420290205944164
-0.02038811433749508
0.030400373380190335
0.04554397230940762
0.03746756592233229
0.019274197174759297
0.0013081929570218863
-0.010518749523350057
-0.014644281658205444
-0.012591434765640468
-0.007287760129485707
-0.0016058275639426697
0.0025230506131152185
0.004367495785232635
0.004182494199835393
0.0027660131155558937
0.001009339704900095
-0.0004161259470386761
-0.001188111526921839
-0.001306113566054071
-0.0009735799817769559
-0.0004596654276004481
8.784535824338672e-06
0.0003024133299500427
0.00039388072095144003
0.0003289211865550507
0.00018524644574455807
3.657034721193804e-05
-6.890762785401008e-05
-0.0001141610057729695
-0.00010719650056948713
-6.936331521596152e-05
-2.3795578565904785e-05
1.2457071701834751e-05
3.1511404496701335e-05
3.374226253501719e-05
2.4632703328408626e-05
1.118808074065228e-05
-8.0755124651124e-07
-8.146481811751721e-06
-1.0251215722975608e-05
-8.388250858236856e-06
-4.595537103850565e-06
-7.633702974469742e-07
1.9008296674359992e-06
2.9977745841737587e-06
2.7630601307853527e-06
1.7592460018944377e-06
5.791858039926181e-07
-3.5037102909380875e-07
-8.398467017891545e-07
-9.061173348461424e-07
-6.873118354661916e-07
-3.50928206476164e-07
-2.8387387554483473e-08
2.1100563805340735e-07
3.51488031131017e-07
4.033740912296889e-07
3.7536622372702136e-07
2.6143419102524903e-07
4.8685902891879926e-08
-2.5749893573669777e-07
-6.039570497286345e-07
-8.741338573669649e-07
-9.037811193261565e-07
-5.365865480610589e-07
2.8792752368772164e-07
1.4422051711740165e-06
2.559397098312939e-06
3.072960818743608e-06
2.380073258772208e-06
1.1926392169621453e-07
-3.5093063847962553e-06
-7.514809442084071e-06
-1.0144184402666424e-05
-9.303488832543768e-06
-3.392346388204016e-06
7.620280086162101e-06
2.12693469806585e-05
3.235939414950438e-05
3.394003022692611e-05
1.9712668643320308e-05
-1.2486917947036332e-05
-5.7222141924816567e-05
-9.97229823655067e-05
-0.00011774747187658817
-8.82060492539401e-05
1.951309333610161e-06
0.00014347629496742981
0.00029643696425301616
0.0003920865779968114
0.0003500173090328228
0.00011101693309525091
-0.0003214491724477152
-0.0008465665591178612
-0.0012593482169377089
-0.001291180295535176
-0.0007052388938189297
0.0005684173573758534
0.0023016630790375415
0.0039080093299387764
0.00452414375267128
0.00327556037196709
-0.000297685503984701
-0.005772025533961489
-0.011534750477540571
-0.014888673728981158
-0.012757501896070647
-0.00300135916924335
0.013934963114839266
0.03362929871097303
0.04732672163973403
0.043315754070067186
0.01024786309073696
-0.05823530875327748
-0.15915125281319484
-0.07822390945131652
0.007994774181267964
0.12584169751030694
0.09609437468640958
0.12672390828076288
0.00996343725655772
-0.07501594520285997
-0.15499356466476163
-0.054177600335203815
0.012385413891317152
0.041409330615628334
0.03989949000935298
0.021052461333868608
-0.0006053738349632356
-0.013413166549692218
-0.01141225103493818
0.004319949606287415
0.02578565921601508
0.03961566583184466
0.03004089129202539
-0.016982369493408832
-0.1093133238238045
-0.04521500141023566
-0.012455887804147225
0.00931293605367941
0.0434078100847431
0.10986771890285911
0.020281522196569285
-0.024573551240637283
-0.033689542014642034
-0.022080068649040732
-0.005814408232598905
0.002642311190503411
-0.0022912685744380795
-0.0179735726542743
-0.03434669485234214
-0.036846098207312765
-0.01104036123472846
0.05191526678429282
0.15058193418779375
0.07122884788140052
-0.01001902634973981
-0.12089020458871103
-0.08446716227889528
-0.1116562917145186
0.002457483763759026
0.07713728973027037
0.14036287284164972
0.021554528529262845
-0.0547031495925513
-0.07248181112639022
-0.025946972382602435
0.08074214578605841
0.0344959348179972
0.015396484047169073
9.832947211693822e-05
-0.03371948697326539
-0.1028511407514098
-0.015411806318430454
0.029863185753218124
0.04169540720836393
0.032611060603831656
0.015031567504347887
-0.0016002462869252596
-0.012051998871599622
-0.015019838435205312
-0.011921876427705787
-0.0054566972538066414
0.0015605702660170385
0.0068726713750318314
0.009027565650513134
0.007411272309778223
0.0022742264278533945
-0.0051689711191122215
-0.012664120610789245
-0.01709917563604546
-0.015186918756117851
-0.004735519712514275
0.013710529328185164
0.03543228802545353
0.051117846606057046
0.048224321796872714
0.014392389550817663
-0.05771490350433839
-0.16581698182482515
-0.09596606331751623
-0.024943408927097923
0.07267994363603573
0.2149938885184661
0.2047374256927871
0.026906923621996384
-0.1461019857971867
-0.14343259148213613
-0.18340480510343224
-0.0652413672508262
0.031573565278844945
0.14015344428315027
0.09437764069071665
0.11712918024981964
0.012918703521253143
-0.03287262957570629
-0.04853750158998055
-0.06688509979011782
-0.11581338349716642
-0.011678044841383834
0.04282684814348757
0.05636448218578386
0.0438582374706743
0.020884988358791066
-0.0005393634307920026
-0.013879776175988614
-0.0178288888244327
-0.014654595784655536
-0.008102541432395692
-0.0016232299947707284
0.0026652281459324362
0.004224231633015039
0.00374279980226357
0.002481450733945075
0.0015946241848485668
0.001638216446887455
0.00237547863370273
0.00291026094406529
0.0021050961755123493
-0.0008252359389709548
-0.005720589390393971
-0.01111283492211003
-0.01433397913758613
-0.012261190921596695
-0.0026802469686352296
0.014031222931289843
0.03349823186258595
0.04699970267459099
0.04285959198240461
0.009775544251849842
-0.05856133984865593
-0.1591425761951101
-0.07772744723742123
0.009004918750844047
0.12717267029692647
0.09729342865604529
0.12714159803946293
0.008953204676749394
-0.07778033661323362
-0.15917170516656867
-0.05854292468323562
0.009854544164036973
0.042990930999011134
0.04714658582239064
0.03359689495750478
0.014006075894947708
-0.0028870712432879073
-0.012651742676145898
-0.014821490582544844
-0.011513014275230405
-0.005785690951735207
-0.0003290728751910275
0.0032434079677581256
0.004502254284608401
0.003899900005690836
0.002304623823069786
0.0005763599304226601
-0.0006986348499571469
-0.0012899494932042555
-0.0012638681608514008
-0.0008535234035767111
-0.0003251031797298682
0.00011650556971522592
0.0003676958979320096
0.00041956407498575007
0.0003245814975925099
0.0001575938917706897
-1.3848036071143927e-05
-0.00014377931143330267
-0.0002086604806855159
-0.00020133300185370062
-0.0001252826447431097
6.296031529077678e-06
0.00016661636141595423
0.00031092168287324897
0.00037831821756400234
0.000305611883352772
5.432200425741783e-05
-0.00035539492323724065
-0.000818061342525644
-0.0011423085663774136
-0.0010929496511605907
-0.0004801793993879621
0.0007207964790515275
0.002261445517921741
0.0035834315987889696
0.003914184080830665
0.0025244313485366177
-0.0008851057371483986
-0.005783863658791128
-0.010589339648954895
-0.012839247429254227
-0.009910686055022605
-0.000267539323081301
0.015037266035511762
0.031135074933809744
0.039052775508790674
0.026896526967086234
-0.017414905935932777
-0.10248822678542127
-0.030114038676240393
0.006383418364021991
0.021338674353228115
0.03375104644198773
0.06321953294603137
-0.07387320750592051
0.03298584477164207
-0.012772383943696867
-0.014740209571260857
0.01751805153665015
0.07031575908216887
-0.07164973727791617
-0.022400544268606503
0.0080945188640379
0.015947686018114582
0.0042143591375444775
-0.01751182426699144
-0.03471364576044243
-0.030702052518820605
0.009694927384989066
0.0960949595191981
0.029237624872331766
-0.0004316391140809849
-0.011577028318983893
-0.028440892531446126
-0.07605953647934442
0.024391761164942363
0.05907867587327446
0.023437885657337818
-0.07731014170951162
-0.028917595814631932
-0.010240264082938813
0.0031794394146606084
0.034518036414657595
0.10116513328835132
0.011690469736830822
-0.03471304202559749
-0.046259696778667564
-0.03505158326352347
-0.013474643077718935
0.008314570260426974
0.02341399829222975
0.028076843249341524
0.021236923996215993
0.004319012113235457
-0.018450642989459223
-0.03957610337378834
-0.048396895438422544
-0.03248668694220329
0.0194335923657239
0.11369638666960503
0.04842290857440358
0.012408599070381623
-0.012929165299805763
-0.04894787977401615
-0.11414783095672067
-0.01961715861279871
0.032835149507082925
0.04948124789596223
0.04136200643156476
0.02051280743174185
-0.0028296834592798554
-0.021421579245785978
-0.030880633543121302
-0.029043794427533028
-0.015655316111481823
0.007190576801468433
0.03407546790771631
0.05555925207311539
0.058803811045480554
0.03025056553791828
-0.03979073164251965
-0.1519664915478366
-0.0943724646666921
-0.04296660368665158
0.033142969848356046
0.16275998986198978
0.1632175920896781
0.03438825401968529
-0.04131109554152937
-0.09290223995415765
-0.15139736223107733
-0.04076165569728658
0.027467145859734837
0.05461043267481201
0.05121911673716767
0.03160203151372155
0.008809822055561788
-0.00846429662648027
-0.01670704618186227
-0.016627463435840067
-0.011313122582551039
-0.004363618177731856
0.0014302044414844744
0.0046622353296198946
0.005242839117190468
0.003947152732735402
0.0018617932061110484
-6.222151320243927e-05
-0.0012535091642618807
-0.0015636745400459918
-0.001172535889946666
-0.00043433786883145966
0.0002715748363492243
0.0006516591259102689
0.0005633101062039093
4.0797802552285915e-05
-0.0007114277036407483
-0.0013593647483952
-0.0015213925689067666
-0.0008943338415088239
0.0005923521392776807
0.002639010114954633
0.004525654322952641
0.005225393830696222
0.0037255986837517224
-0.0004745916094365858
-0.006828500458316748
-0.013408364119351535
-0.017059163926679922
-0.014256931246646887
-0.002677534715445264
0.016848269848292446
0.038670070595748916
0.05183114134945428
0.041535314558680425
-0.007206544809025205
-0.10443716948221451
-0.05023506988883205
-0.031838099953953494
-0.024439394346516215
0.004054833790030175
0.08544870042955191
0.04306155800003545
0.08544928409089105
0.004055592294536563
-0.024439126523011404
-0.031838967963232344
-0.05023735807707476
-0.10444049981676003
-0.00720974884143307
0.041534016369216914
0.05183357945816292
0.03867724320260433
0.016859377816436802
-0.002665717429222283
-0.01424985646946705
-0.0170631006574252
-0.013427777784525476
-0.006862806761086702
-0.0005155187702712392
0.0036943893361768457
0.005224933354236337
0.004574022856294342
0.0027407136795311276
0.0007282244741827216
-0.0007714240252851332
-0.0014795444339923958
-0.0014662539012997302
-0.0010007075771238608
-0.0003941703689147585
0.00011246294253548852
0.0003979223208535044
0.00045443839472548823
0.0003484802655414373
0.00017276499843441119
7.707585396856323e-06
-9.913533596058383e-05
-0.00013582651940373782
-0.0001166883796004833
-6.8192493756993e-05
-1.6243044745533146e-05
2.169244172561499e-05
3.893148541036829e-05
3.7699499719078135e-05
2.5164330088927388e-05
9.38597402698966e-06
-3.524384540090909e-06
-1.0594274878569097e-05
-1.1764104423444986e-05
-8.835954621947845e-06
-4.227925897141404e-06
6.127096740958306e-09
2.6832660208176034e-06
3.54048521274188e-06
2.978867923502995e-06
1.6946242877002156e-06
3.536066892307438e-07
-6.051706783552932e-07
-1.0231187100626191e-06
-9.68536245603132e-07
-6.319856245230345e-07
-2.2196787518295881e-07
1.066813881902054e-07
2.8136443293105444e-07
3.041564665414797e-07
2.2373408595219243e-07
1.030818070706957e-07
-5.402869018565183e-09
-7.236018430478566e-08
-9.216246073658965e-08
-7.595317431025697e-08
-4.20127971822068e-08
-7.437307411568278e-09
1.675790862002912e-08
2.684004180152812e-08
2.484856136445294e-08
1.5839567127538518e-08
5.201275067665785e-09
-3.1485307132693074e-09
-7.444944169521903e-09
-7.836691239649897e-09
-5.637918293569146e-09
-2.4907076042550374e-09
2.6827900269429204e-10
1.914758678168145e-09
2.3412394852441905e-09
1.8675791294070094e-09
9.862587170813707e-10
1.4388191381448136e-10
-3.875441172492127e-10
-5.42043070797301e-10
-4.170267809987351e-10
-1.9193628669343518e-10
-4.131878037987236e-11
-6.617787322520899e-11
-2.573784697465271e-10
-4.972297608975991e-10
-5.997138564836628e-10
-3.836517997584702e-10
2.3588285166281485e-10
1.1641292710933227e-09
2.0874819994294767e-09
2.516333745781964e-09
1.932770732497405e-09
3.1002188564547627e-11
-3.012094294978143e-09
-6.349340226421098e-09
-8.496697630047342e-09
-7.698193400164615e-09
-2.634540318576136e-09
6.6738300250036635e-09
1.810070372409412e-08
2.724123692748471e-08
2.826130127831403e-08
1.5943563518053897e-08
-1.1383353977467346e-08
-4.896338934695757e-08
-8.422671086615035e-08
-9.844939818178053e-08
-7.240912427342256e-08
4.430984351105595e-09
1.2368836576409692e-07
2.512108175705127e-07
3.2894996309749764e-07
2.896985637424906e-07
8.48954252095645e-08
-2.806200247019031e-07
-7.19997358528237e-07
-1.0595749583101415e-06
-1.0740757913879495e-06
-5.676689186156718e-07
5.124299782807661e-07
1.9669168267845545e-06
3.2962999867563647e-06
3.77282079471079e-06
2.6666132214997325e-06
-3.9582784825113817e-07
-5.04073347171016e-06
-9.897519837777947e-06
-1.2695654974471243e-05
-1.0861260895472067e-05
-2.609496510031834e-06
1.1717858741084433e-05
2.8586484453739562e-05
4.115824915830661e-05
4.074353514683028e-05
2.0008984319630882e-05
-2.2621271892057716e-05
-7.884717417307035e-05
-0.0001288508796271467
-0.00014437812633359538
-9.776579723203478e-05
2.408185796870542e-05
0.00020478364772864272
0.0003894443614081759
0.0004893522709055674
0.0004060680764724075
7.428934334806048e-05
-0.0004867353050096866
-0.0011336152481471423
-0.0015974183537869192
-0.001543308191337669
-0.0006972319400523436
0.0009838992847561552
0.003157232858234709
0.005039509694638757
0.005538441597208159
0.0036132062175006155
-0.0011805730292475422
-0.008123232326822534
-0.015008911800482824
-0.018373963376110917
-0.014491805466852697
-0.0011070951299801035
0.02048154554405272
0.043753052001075085
0.05667269278423107
0.043574975640607694
-0.010625788578785805
-0.11476714682094545
-0.06619169078558819
-0.04820175706809752
-0.031869028308945016
0.01766376324064875
0.1320246310912716
0.13053002806186553
0.0143552873898037
-0.03393205487824898
-0.04538849368961083
-0.05617981094439019
-0.09849851566690579
0.006339407068043313
0.051026786240914716
0.04153405350766389
-0.006402928268959675
-0.07210275504621864
0.06512031383382355
0.021674843426044817
0.006699311667587725
0.020924606616861262
0.05766667303428629
-0.09433042397038997
-0.04709039586936617
-0.009913700543894328
0.012654644896620102
0.020936509372270477
0.018694767068791005
0.011054693981543068
0.002644557990254774
-0.0035204676417741666
-0.006305283067632262
-0.006076428026713965
-0.004016274646437207
-0.001446131446390084
0.0006398680380157415
0.0017652791205800893
0.0019295873063974308
0.0014331688481139505
0.0006727502275356757
-1.7953821530020324e-05
-0.0004493295310218059
-0.000582167292711264
-0.00048470451399353125
-0.00027191341420614354
-5.249830662064572e-05
0.00010269419860369537
0.00016886172707297292
0.0001580697225796328
0.00010194930830511541
3.464854049986346e-05
-1.8739907459608885e-05
-4.667739152550375e-05
-4.979935022073225e-05
-3.624602292961887e-05
-1.6367859066298533e-05
1.3137561861843621e-06
1.2091949099340753e-05
1.5141160729898262e-05
1.234912149369977e-05
6.731722933884395e-06
1.0782561302720615e-06
-2.835138731721185e-06
-4.42722711192826e-06
-4.054081436210135e-06
-2.5538122782029333e-06
-8.081903595610375e-07
5.48346580170444e-07
1.2356917410606527e-06
1.2852816540397567e-06
9.158756920132825e-07
3.9654493589878733e-07
-5.5708551028522966e-08
-3.244955395426565e-07
-3.933815568996206e-07
-3.143020675707446e-07
-1.6625805245935005e-07
-2.0741385134580923e-08
7.780034373518531e-08
1.1589139646654589e-07
1.0385520503606422e-07
6.385475139131693e-08
1.863338016729978e-08
-1.5790297690117516e-08
-3.264768027020348e-08
-3.313362695502287e-08
-2.3109200552984774e-08
-9.560323763642734e-09
1.9937260988382425e-09
8.682725797829527e-09
1.0207619775977633e-08
7.989483117088641e-09
4.094657037963226e-09
3.5343007143194357e-10
-2.123999324415967e-09
-3.029249652345793e-09
-2.657441283162668e-09
-1.593527614799707e-09
-4.234473399280594e-10
4.4894795951378287e-10
8.609514460617583e-10
8.531740355180124e-10
5.822101603115876e-10
2.2921140800397565e-10
-6.562002825335488e-11
-2.3171082542433623e-10
-2.645511003198469e-10
-2.0283816803528145e-10
-1.0054141128168618e-10
-4.464421250283329e-12
5.771783174264381e-11
7.90635569735495e-11
6.791428049479522e-11
3.968078103611517e-11
9.441360503036692e-12
-1.2637845242227138e-11
-2.2668880393091443e-11
-2.194860979099385e-11
-1.465015479254536e-11
-5.465286672684988e-12
2.0490566525928924e-12
6.1631381095325086e-12
6.842762141886931e-12
5.1372760545844254e-12
2.4544682948853455e-12
-1.0014136696055471e-14
-1.567583841188786e-12
-2.065269329267005e-12
-1.7368367000718284e-12
-9.880421022925722e-13
-2.071092529187756e-13
