0
-9.278822159161308e-11
-8.211370792728815e-11
-2.47883128512203e-11
7.801456781627928e-11
2.020283182088308e-10
2.9844811816152816e-10
3.037401255420459e-10
1.624029460718588e-10
-1.41017972916481e-10
-5.510696254000773e-10
-9.275627672551148e-10
-1.0654762256764106e-09
-7.583646584379093e-10
1.0072800105894463e-10
1.4088119597413241e-09
2.7818477526070834e-09
3.5808780425066403e-09
3.0789553614936776e-09
7.683230485677059e-10
-3.2621277527613054e-09
-8.02435241274526e-09
-1.1596182902730347e-08
-1.1526413522937003e-08
-5.735730476456843e-09
6.242706305258725e-09
2.209726602484797e-08
3.626435075617766e-08
4.078269673039305e-08
2.7825152572983174e-08
-6.3661129625535736e-09
-5.7265722828863636e-08
-1.0948745023310968e-07
-1.3806286151711336e-07
-1.1518441149645009e-07
-2.2261606926725444e-08
1.355673924837789e-07
3.1819510842508694e-07
4.5001317358324107e-07
4.365677150037765e-07
2.0016945139224486e-07
-2.720889057553407e-07
-8.84370225526335e-07
-1.416204634091415e-06
-1.5588004332289394e-06
-1.0159576277359889e-06
3.4265063149091227e-07
2.3209726529777837e-06
4.303755875847302e-06
5.316437513652957e-06
4.2968722989074895e-06
5.679416990450719e-07
-5.60526810780071e-06
-1.2599220751819989e-05
-1.7443551709470778e-05
-1.650317783064506e-05
-6.883909827321284e-06
1.1711200645509127e-05
3.532800128118966e-05
5.524244953019014e-05
5.949139220165341e-05
3.688815101687965e-05
-1.701378352656688e-05
-9.381722974900233e-05
-0.00016896474039818513
-0.0002044610949767532
-0.00015979846182091468
-1.0461256869077856e-05
0.00023070923831140618
0.0004981593217149637
0.0006753315140005807
0.0006224997345399869
0.00023217796937158896
-0.000499198793579221
-0.0014091997056782807
-0.002153090318243002
-0.0022678793735826162
-0.0013317685089676435
0.0008042534952652648
0.003785024040261005
0.006634329075716099
0.00787681297636797
0.00597745101448146
6.650583202078598e-05
-0.00924182922108774
-0.019287576742748752
-0.025490082870272386
-0.022507371535806057
-0.006480562116438369
0.022070003889842878
0.05566771685327663
0.07894501688674804
0.07056188303405297
0.008414463141395106
-0.12280644404033966
-0.12417128303315972
-0.17850957538161638
-0.05260379892074434
0.0938704661581288
0.2952276049158797
0.16759905648257803
0.10321809324129003
-0.12573849862899714
-0.15487780889431674
-0.21187691800978536
-0.10385762246843275
-0.012973113363204414
0.09816516572881415
0.07348699379363394
0.14784100326735264
0.13434198582209744
0.018945756631643777
-0.03614788713414575
-0.08173042019440682
-0.16737663670830386
-0.12869276845696945
0.019915420813356913
0.08521668205671608
0.08897707949331694
0.05880877050799999
0.019648788166304353
-0.011625208587632904
-0.027684835752254746
-0.02908485753809848
-0.020947298832388925
-0.009525469515053892
0.00029081958253550263
0.006104485792064125
0.00789858273582713
0.007132305184092432
0.005587226604816022
0.00442200474978627
0.003719790042142529
0.002616993889560114
-7.599578404803081e-05
-0.004996584805379892
-0.011430828932207492
-0.016969053239719905
-0.017933873070149386
-0.010709929934966979
0.006217001601817319
0.030100181272821432
0.052575155048996396
0.06011113252622213
0.03692004569814659
-0.029882771231718414
-0.1442466395818673
-0.09665822670196103
-0.06363395944295448
-0.012604832676826152
0.08859650959165204
0.2607063900086246
0.10477839526307786
0.0004375673921757698
-0.08814627064062067
-0.20073497449866815
-0.16860573834017253
-0.006145633930667215
0.09074592491846456
0.1399571732425181
0.16540002683766764
-0.009853381488669011
-0.16703703961053887
-0.09183702346062134
0.026743157424745943
-0.0034277891157654073
0.020752148591585237
0.09487383057592992
0.004723352264931555
-0.07414376095020592
0.025712863275215193
0.0681669045801565
0.019981629921456266
0.0584673498281558
-0.020786923407438002
-0.19806191946170548
-0.22826450385731417
-0.046854545161801216
0.016345145262014277
0.21808599031898304
0.38338734455294426
0.29540382501212054
-0.10107109438713065
-0.28215736701061095
-0.31940494341172787
-0.25615406535493823
-0.09500693081533572
0.19922531345434116
0.2833661957020711
0.21392847018363906
0.028224299916484598
-0.06518757623202523
-0.0851726611380598
-0.0685391687536426
-0.05721431403211496
-0.08667001034587543
0.02141786447546941
0.06132367646875589
0.04108099667392107
-0.022129962914884484
0.09304260896831938
0.008225942349892995
-0.056989161305150804
-0.08619606676644011
-0.06720276697605529
0.006080133574422573
0.13086179781108614
0.09310417825453615
0.06763006237911473
0.02223641265140988
-0.07440625207101244
-0.24339494180655308
-0.08843391764144065
0.005801670834205667
0.06858777348452347
0.13315689887857274
0.22583608041609857
-0.04131068427741678
-0.07170348782588395
-0.0795823346376894
-0.08220639174935118
-0.0925403803404396
0.08485368613626282
0.053897499611687175
0.02405121406987299
0.006270324091006633
0.009606837637970675
0.03934785051040626
-0.10329573082627166
-0.02051820406538718
0.08298701851758816
0.0006674482605068556
-0.07557096996058851
0.04481437135430838
-0.04881522023607545
0.03204959256742692
0.07590011328428894
0.07310284552591786
0.01920933515019254
-0.08077136947243779
-0.20880909983041754
-0.13353005739352264
-0.01521026787620485
0.18398451145143066
0.2875739427961325
0.09524958139894026
-0.01913815519787319
-0.10061573467577924
-0.19970845497524903
-0.15794791665391958
0.002309503520361126
0.0806221844336655
0.0940014904516653
0.06821092698638102
0.028704985429008824
-0.005789331352890594
-0.025815234737627132
-0.030280369906589673
-0.023498193530294913
-0.011752489220325147
-0.0005714212283326897
0.006732583157869145
0.009283695497655875
0.008018562520986258
0.004725543223614318
0.001171760527484483
-0.001441760908367383
-0.0026474870609993467
-0.002587882666045011
-0.0017466097497905542
-0.0006719263008800596
0.00021820741617555433
0.000718173306784995
0.0008195357421179399
0.0006392178665999674
0.000334783394626635
3.896265550962028e-05
-0.00017206371286415664
-0.00027825997726760955
-0.0002951547206953446
-0.0002483355389115629
-0.00015571795599912352
-2.414367295921836e-05
0.0001404329930253595
0.0003162467748406344
0.00045330261112390603
0.00047592601608743753
0.0003064565087158606
-9.230134656923991e-05
-0.0006690435904760291
-0.0012530423297486208
-0.001566499162164774
-0.0012990882964035724
-0.00024324950541969502
0.0015421829737595832
0.0036050518951214
0.00509402646627545
0.00494719229232603
0.0022949581102459458
-0.002997142811451329
-0.009832713052799707
-0.015709084948849185
-0.017138592834791914
-0.01081407057649174
0.004605768950204092
0.026576911568905556
0.04742453012580353
0.05467897850314325
0.03360415561765612
-0.02822743601565965
-0.13551141065157052
-0.08103038513914049
-0.0449161266736788
0.0014840054995962036
0.08788044905009547
0.2360947308592436
0.05342497069924781
-0.06890160154320588
-0.15167615398504986
-0.020136407491722734
-0.09632573891937854
0.005705441677020479
0.08077102120115752
0.1303494800814595
-0.04070858978174246
-0.026709180588054934
-0.02212726275172639
-0.021566588979880168
-0.01967141928460714
-0.011763645755351682
0.004631011582676847
0.027832403651938165
0.05055705141646704
0.06004978458883768
0.04057474006227325
-0.021764747985693184
-0.13306377034608285
-0.08673475777264239
-0.06219795862191468
-0.02869658612381067
0.04615417083616783
0.18564646442048252
0.19510364314112463
0.05881570303350747
-0.055150946533389596
-0.18345392557944162
-0.15359831497941756
-0.17335664453317245
-0.02797121068896584
0.11361808781886351
0.28615301788446823
0.11443839078011386
0.004393194482147401
-0.057961730608172314
-0.10004408520330915
-0.1522854381348098
-0.03828012204761224
0.03099043434294422
0.05761926635469221
0.052980541975840734
0.032065215783954375
0.008344658411399973
-0.009345687351732593
-0.017563564723250553
-0.017198822586994327
-0.01153113500654084
-0.004297785083834945
0.0016513113564553112
0.0049190507328427426
0.005462610047629292
0.0041079848260914
0.0019720162479273566
6.3594201533121894e-06
-0.0012392058443675181
-0.0016409658048566515
-0.0013835603832581202
-0.0007892637778366747
-0.00016701002583249756
0.00027898385971923684
0.000474385493110679
0.00045018442077866735
0.0002943433221940204
0.00010349591835362593
-5.02565276122976e-05
-0.000132660580645347
-0.00014394162935198703
-0.00010600657027233017
-4.775252321362264e-05
6.195595611973278e-06
4.109802650442187e-05
5.2527973779420835e-05
4.362636325590835e-05
2.1487580356292066e-05
-5.668741715004007e-06
-2.995728657398994e-05
-4.431781575086018e-05
-4.295861667418209e-05
-2.25753197161261e-05
1.548578321084592e-05
6.289167291038371e-05
0.00010340240290445513
0.00011519160386229539
7.753082120598228e-05
-1.8761799426330386e-05
-0.00016010320937369135
-0.00030338190529895475
-0.0003797370372961371
-0.0003132702101401892
-5.420487367027249e-05
0.0003814554052221925
0.0008815762221918309
0.0012372585414610492
0.0011895267085331013
0.0005278238796660069
-0.0007781445724022703
-0.0024588369912462303
-0.0039036143936812366
-0.0042635532109143925
-0.002731215076075292
0.001037937007512103
0.006488193260118878
0.011916991854642482
0.014651799487626556
0.011809598081746414
0.0016028794385677726
-0.015135795883842743
-0.03384067307320527
-0.04631287574643793
-0.04272081272509979
-0.015683797423428857
0.03424078111376195
0.09334024383464211
0.13217991626166292
0.10799001937036459
-0.02689364369591658
-0.11163665225674474
-0.16208558738789536
-0.15950434023497043
-0.04742050380179282
0.06122591825651869
0.06780039963146428
0.06668473668973302
0.12456374216476823
0.06556236589152137
0.06586541047315467
0.05908707547423748
-0.04891812665958737
-0.15945042474558271
-0.15981253513748697
-0.10712189928819574
-0.021120418758081464
0.11292433765403134
0.1334245149171333
0.08823172956469771
0.02170822781692102
-0.03366980235673314
-0.06035037234552159
-0.05457994650936756
-0.023183453846048828
0.01999877741289819
0.057278587440025536
0.07015858201048668
0.042916844802638306
-0.03302681586797563
-0.1548077808112978
-0.10578636385612122
-0.05729707099957371
0.024599913791098955
0.16868191646356867
0.18794091370873994
0.07312030054306076
-0.006431489598032512
-0.09429123071861537
-0.23376250424138068
-0.054771628088253276
0.03456114199823324
0.04927303857867589
0.022254852778899402
-0.00529185770509174
0.005352573029280514
0.08098624411714093
0.030362748381043348
0.04268658320958285
0.09116538038309721
-0.05913682982248006
-0.24126995400193077
-0.07736429312428335
0.026282110731677036
0.07847344224485145
0.09772436399117308
0.10508250768232184
-0.08174263331663624
-0.05115899664845065
0.0026295555149803617
0.08190527417735466
-0.01163575082865677
-0.07436626172993684
-0.09961923271980236
-0.07902229199319066
-0.006782993723965494
0.11397415337968662
0.2654874123351852
0.21392336934832146
-0.08499040836795423
-0.2735176617751284
-0.17678848100408395
-0.19147979217116393
-0.08385059395462782
0.20122054686939064
0.3234218860082093
0.1290950464714047
0.03919854724950544
-0.15288451536731218
-0.0743089919720186
-0.1607271409402135
-0.04453790516295477
0.05265614208992876
0.12207677344051601
-0.034623380227155755
-0.009926513633859034
0.004846040305447759
0.01588905765295328
0.02489264706549392
0.028948316567019045
0.022475555971398147
0.0008481993063313299
-0.03520587949162621
-0.07595680908202157
-0.10159670998132404
-0.08522630406826384
-0.00023810413426824195
0.16942878543980283
0.2196159584617836
0.12123476188984103
0.023859005868029352
-0.13205836257005663
-0.19778509537906847
-0.19981222425649472
-0.13050729518203727
0.050349568884537975
0.203591038084875
0.19273411402824783
0.06666543955363394
0.048727020963427674
-0.06506754153700753
-0.09962530565746508
-0.08977865284131702
-0.06917576079407284
-0.06267029021223551
0.11614860893517501
0.06286420315643335
-0.022240289974617834
0.06158053131358577
0.11347918194633526
-0.06812964205829772
-0.08239862366856943
-0.12231922508943541
0.027271868995675408
-0.011765795914313723
-0.01599709490413495
0.032212443595477105
0.1375137340534983
0.08731360986647058
0.05262791147863974
-0.005212372523894477
-0.12338834704344681
-0.12536062254095012
-0.2119407144534494
0.040704575829280595
0.07486862876096849
0.1388377510298947
0.07249094849729938
0.09590851515180424
0.004560263763367065
-0.027838247596578602
-0.04023427163237841
-0.07213060232729455
-0.1523639282530705
-0.09218913746495647
0.11544246838801302
0.09076519082851768
0.05873134831817609
0.04065796149639319
0.048813526322894304
-0.114924848461725
-0.05697812796480303
0.011764176766306275
0.07976972253731254
-0.06232215614722136
-0.02012193468129391
0.004949311231964363
0.01508409417182945
0.014744900919353985
0.009023771295437787
0.002243578547528646
-0.002839899840376753
-0.005165774193000049
-0.004992255009773288
-0.003289925748471357
-0.0011588291903108872
0.0005692056843401027
0.0014936104368450192
0.0016123577004778188
0.0011772467144570864
0.0005238895404557817
-6.175798682905415e-05
-0.0004132062840577979
-0.0004924970486465433
-0.0003589449509974844
-0.00012200838165349376
0.00010287171764941724
0.00022612205904278245
0.00020245538205597834
3.871731362182453e-05
-0.0002065245204796819
-0.00043245912459690533
-0.0005179708730629205
-0.0003585491765031223
8.50608081850984e-05
0.0007392036927733492
0.0013928509369483348
0.001722189592038745
0.0013822642075537103
0.00016139585092507896
-0.0018397475449394053
-0.00407767398936668
-0.005576996575060639
-0.005160902512942709
-0.0019179805894378745
0.004182016742394844
0.011730790536423494
0.0176744147231026
0.017735076844853953
0.007579486556564664
-0.015457062925272828
-0.05065737787637654
-0.09304514464013201
0.06593590698288992
0.036073178301384325
0.02513424281998893
0.036073187891241185
0.06593581656209772
-0.09304549092043504
-0.050658076037588415
-0.015458039153123613
0.007578539541529923
0.01773466805961564
0.017675099382769458
0.011732904478291178
0.004185372572985144
-0.0019143075124759305
-0.0051585428806157725
-0.00557788706991202
-0.004083274401433763
-0.0018500405003839028
0.00014875524411117117
0.0013721431636002518
0.001721041331649183
0.0014064530973936088
0.0007694174504660684
0.00012663974916691712
-0.0003194989575107722
-0.0005021623475168022
-0.0004611738166161177
-0.00029145369209766374
-9.31981492414641e-05
6.129709504120602e-05
0.0001399320901784117
0.00014604972012226573
0.00010437682263781996
4.5460594206740834e-05
-5.994105330605673e-06
-3.668249565960245e-05
-4.466171756098047e-05
-3.5783806099004054e-05
-1.9008081393969433e-05
-2.4662045845002893e-06
8.769519815696804e-06
1.314423743554823e-05
1.181356755561514e-05
7.287804725642078e-06
2.15163121852277e-06
-1.7691678680718812e-06
-3.6983172079174524e-06
-3.7656762985545686e-06
-2.633972449626986e-06
-1.0964636115832112e-06
2.1834039402459438e-07
9.8215104563069e-07
1.1590249880922282e-06
9.092462932710498e-07
4.6734179224606624e-07
4.174886016508991e-08
-2.4056095734987713e-07
-3.437800474418434e-07
-3.010605225115735e-07
-1.7904358811179187e-07
-4.5007849851366186e-08
5.417349084697642e-08
9.915920484841424e-08
9.43383466563197e-08
5.8321139621854285e-08
1.3672349098098888e-08
-2.0900307566179047e-08
-3.474996336850364e-08
-2.6275052973487242e-08
-1.7382747659239126e-09
2.7135265250755296e-08
4.632250168400295e-08
4.335959682330888e-08
1.176541122000727e-08
-4.466975121129385e-08
-1.0927082690016694e-07
-1.536682823847411e-07
-1.4465049663146247e-07
-5.6984869386431556e-08
1.1027195791241383e-07
3.197442640703772e-07
4.921411089194154e-07
5.209645662481877e-07
3.090076910971996e-07
-1.7857949137156594e-07
-8.611050186395669e-07
-1.5151330622784443e-06
-1.8017544727453889e-06
-1.3665360988423216e-06
-5.1127407138112586e-09
2.1490546937478625e-06
4.494403429754115e-06
5.986039570293752e-06
5.393348226740051e-06
1.7986456223164256e-06
-4.768953951467087e-06
-1.2798348663003884e-05
-1.918096187323621e-05
-1.981548069188904e-05
-1.105283822474508e-05
8.2429680518892e-06
3.467637879309897e-05
5.9363412631623396e-05
6.912420918438048e-05
5.048484863314581e-05
-3.853132225943679e-06
-8.783150083069263e-05
-0.0001772683182427307
-0.0002312557439347017
-0.000202612086551599
-5.7492582184593134e-05
0.00020018951122059963
0.0005087744126838585
0.0007457231664975473
0.000752668079108274
0.00039265927048760953
-0.00036991634082006626
-0.0013929663822392748
-0.002323563549336683
-0.0026494621640883458
-0.0018589685102472194
0.0003067961287952633
0.003580046782282758
0.00699351293823405
0.008952715641659522
0.007660298524603624
0.001887851581391887
-0.00808373979012587
-0.019722788210544934
-0.02819023466092504
-0.027406094216442953
-0.01239221250199215
0.017469399333369155
0.055240544763793815
0.08474187438851762
0.08183672617370347
0.01943883205718779
-0.12440712369787282
-0.15768302627226527
-0.06815030578084492
-0.02266144479986206
0.026930914714764408
0.13281500073157215
0.1387663486517779
0.07029980367665266
-0.06960791303502091
-0.09856465143240871
-0.048254153806950036
0.0437589108946494
-0.058643087763890024
0.014959232239841228
0.04414276640657474
0.018229708237546938
-0.06450836155484223
0.0014982378726305357
0.026910239445472793
0.024965143714027326
0.009047271997007713
-0.009221559817631191
-0.021171458853510197
-0.021709463441600102
-0.00971449045912432
0.011597920703102584
0.034498841824723014
0.047258068429534936
0.03591108685070163
-0.012527207662286474
-0.10596087712049834
-0.04355668519073304
-0.014137105866505899
0.0023349176421705578
0.030315464966997604
0.09258587633686492
0.004396473847570622
-0.03045860947230701
-0.020742631948446708
0.013928971327292322
0.047058693924766096
0.05088500628700355
0.0030010649210015163
-0.10705399530230357
-0.07291247619532895
-0.07024675619543123
-0.06091098565875027
-0.002380732061502599
0.13948201771233779
0.17806349852677603
0.09847763378325518
0.05841524304102529
-0.0016567922855958647
-0.1412764168883674
-0.20088288497775403
-0.18718927417980602
-0.06844418667053317
0.018035399841706205
0.14784724963456713
0.18654437419571424
0.16916492855743132
0.08901455323528684
0.09951522010000753
-0.07126394680324111
-0.29792835669423556
-0.23433472850392528
-0.09732528982170101
-0.06310302099818607
0.1229154119399173
0.32691436993399814
0.2055391868683784
-0.009670505070415664
-0.11773226408251826
-0.14362921548920568
-0.1275262863589765
0.08719205772412622
0.06343310206520567
-0.0237927508474255
0.01518676214918161
-0.015165805566629978
-0.09749452969724022
-0.005415836724186852
0.09088423545624201
0.018198104235502985
-0.005512714029134045
0.02528559933230081
0.10333919333273278
0.011681036165645246
-0.07057797400655694
-0.16146290895963888
-0.07082657519714408
0.0012256383797581555
0.061431928423499975
0.11740672294145951
0.17162522921611412
0.01847907813031561
-0.1540178231346288
-0.1587416502067146
-0.0030076097545206288
0.11581414297856285
0.011073001376917252
-0.0957184305011098
0.020382133915650334
-0.018055765112035674
0.0032995311486971454
0.08590240023223832
0.21654197519186696
-0.030179115244839363
-0.08487451607602517
-0.17369863371792663
-0.10953730425341901
-0.08786551312841578
0.11069889862939156
0.11204028028659084
0.1378406082932534
-0.0031011098035647272
0.0817949679060995
-0.028116057844440753
-0.15886997576427195
-0.13242900165473886
0.0407849660054072
-0.03520393621531109
0.05594180873284938
0.1372644590041975
0.032035677647906456
-0.041225134246678015
-0.0711270602564165
-0.05355321075484041
0.009237783490500777
0.10963292610385966
0.035764774529376125
-0.026776584558727445
-0.09235859132983462
0.02758978520674993
-0.07333134732560102
0.003895067551477547
0.06229725948805618
0.10649230299560226
-0.059528732465102034
-0.0334491839042486
-0.014378208819388899
-0.0019331850085306846
0.004568361603273651
0.006402346845451241
0.0052540335965823
0.0028125403365495353
0.0003989540126912979
-0.0012258138074273596
-0.0018492029258038644
-0.0016510332471061167
-0.0009947230446261904
-0.00024532322459394255
0.00034092509946097917
0.0006488951444850879
0.0006796541365953312
0.000500650739288399
0.0002000147819675864
-0.0001386445335240306
-0.00043978454191225886
-0.0006287027340406458
-0.0006294978424018738
-0.00038094228129057026
0.00012744717996464655
0.0008110781186365201
0.0014623374078731148
0.001768631368460025
0.0013977608278377966
0.0001483377757065946
-0.0018724749262104376
-0.004117939454133018
-0.005611569154640708
-0.005177089565619548
-0.0019058222792857752
0.004226343996498075
0.011800844125880682
0.017750484596530114
0.01778507816120535
0.007566247176386314
-0.015561499888856615
-0.05085318368348103
-0.09328855444373764
0.0657367983242445
0.03604146167901972
0.02538198583488622
0.036640020021467594
0.0667274101744502
-0.09228874975786977
-0.0503292050665688
-0.01596733252815316
0.005995590500141443
0.015234852848920238
0.014957951024143391
0.010011144831795925
0.004885528930380581
0.0022700404533612436
0.002474835733813638
0.003755583892838743
0.003360635320985063
-0.0010157757008745513
-0.009792837109916384
-0.02056494409012965
-0.028157689540480407
-0.02602926443323734
-0.009023987821730072
0.02305451564217799
0.062187367112139576
0.0907517150662429
0.08345114552729536
0.013167652457642589
-0.14022004930828028
-0.1807613707945055
-0.09081939843506931
-0.032011626866909455
0.04653858842860007
0.19496428992463619
0.24910293439934805
0.021726676681681288
-0.09824973577308112
-0.13887675089246415
-0.13418269328634258
-0.11400875171508985
0.10158705226615625
0.10237034462975314
0.08417845864720717
0.04449008735443124
-0.02008943719825374
-0.1135891992830153
-0.038631510496920075
0.0056173097321877965
0.024084001736242717
0.0246916744831796
0.016199677937386008
0.00600951959439256
-0.001266379429209758
-0.004157406677115557
-0.003723276382279873
-0.0023408683344021694
-0.00232209712522572
-0.004753687575288679
-0.008861827498646228
-0.012100440762355103
-0.011030818009106862
-0.0028754362600687867
0.012616033363172598
0.03160680843900803
0.04569241681930068
0.04317745731419523
0.012326243886007993
-0.05400985177591237
-0.15391285099215615
-0.07414206315782715
0.008207201838670122
0.11992866023798299
0.08359268578972841
0.11019008455413663
-0.00457653469501769
-0.07909516852149562
-0.14063347246273059
-0.018514109841387107
0.06183635433393898
0.08268714839968058
0.0358699633707531
-0.07640765502693511
-0.041381935318397615
-0.03663857275708931
-0.032907905126460406
0.0009630343768695811
0.09160796001488483
0.05500867421341285
0.09269764077469664
-0.008159989856697759
-0.07059618963469463
-0.12098598560111068
0.018002258328936975
-0.06778994893826741
0.017229752183686768
0.07632414700565197
0.11651403495821706
-0.05521477694508974
-0.034122648702178876
-0.018015983710646003
-0.006323783677010049
0.0010627492343723885
0.004544466124285164
0.0050152600826027524
0.0036734352401774023
0.0016923676042330412
-5.2744049613570774e-05
-0.0011068894836422944
-0.0014040978594166147
-0.0011378155844400674
-0.0006033492626328024
-6.874641965987274e-05
0.0002975137236500998
0.0004410872128655465
0.00039576604807173575
0.00024034711394728427
5.8407650948369424e-05
-8.75359701225936e-05
-0.00016517855933037158
-0.0001691591045371202
-0.00011231629480584829
-1.7484386779895086e-05
8.728086380583288e-05
0.0001707273049211083
0.0002007947759969017
0.00015075652854301455
1.0408168764890542e-05
-0.0002002064112970852
-0.0004210823259116012
-0.0005553791816821631
-0.0004927573706250674
-0.00015400447882180294
0.0004524866264802801
0.001183619369313234
0.001753020204282318
0.0017880492277831072
0.0009626801839092323
-0.0008150803101974369
-0.0032219788018950394
-0.005437526164608767
-0.006259335151141734
-0.004473499863077806
0.0005545870888585306
0.008232467438057204
0.01632252362794632
0.021093508137471743
0.018298238610647236
0.004975291046929317
-0.01833644075437154
-0.04582773752302134
-0.06623895647400517
-0.06531546787815977
-0.031288049978958433
0.037434715682865896
0.12463688604271908
0.19214875873394224
0.182701028713662
0.03176682473633142
-0.11277305677705379
-0.2681714096116668
-0.39949691103601953
-0.2155949736786547
0.016920330831503835
0.24317330986543334
0.3813920609302894
0.4887831847779886
0.1440675862582878
-0.1467011640747442
-0.32293300999855257
-0.3306785528607713
-0.2856690672105876
-0.04985040951883673
0.17307467636866808
0.2249704640868935
0.17086859790838793
0.07599947920583938
-0.01062013363108571
-0.06301468335463203
-0.0764513692365269
-0.060395851551579456
-0.0301099617316316
0.0001522793966870415
0.02095951211138334
0.028599808466202862
0.024036884380147432
0.011134736333020185
-0.004942398290355463
-0.018804161957716566
-0.025547380895890703
-0.021530168472074687
-0.005535801396788818
0.019732046802614665
0.046380896491387096
0.06119611759810739
0.047491657853735346
-0.01081797422985617
-0.12374883046540798
-0.09027991837442273
-0.09619661949031146
0.08370749987385111
0.07931229048460905
0.1168912885032325
0.011949889873838345
-0.034325619204764825
-0.03416390335545971
-0.008686266120348259
0.018496607849617146
0.027797246816854554
0.00883736529007066
-0.23692725511871635
-0.09730297115482801
0.04521618255739253
0.2046799823081325
0.1827351945683813
0.16387032644790042
-0.08189475807567745
-0.18887899909732264
-0.18186358153749344
-0.06418773626234565
-0.012796551892715937
0.01771361566768489
0.08346430572359782
0.03597216554998398
0.10795325156888436
0.30458503812307625
-0.19706531755488135
-0.040281834783113014
-0.07532441047192708
-0.14515802140923345
-0.2751132845915531
0.33050601473388264
0.08478512850797304
0.010210086133063878
-0.069858169731796
0.062626545593854
0.017597590108259054
-0.0027613232632479534
-0.0012687691439448288
0.01827558605073422
-0.14506722136700728
-0.08731411038834017
-0.0005003590260086847
0.12328925511289349
0.08632478847058161
0.08078243984010025
0.08800352562649656
-0.11755555979949735
-0.16093213088719896
-0.05883102751886602
-0.014681850265668721
-0.01852900259744655
0.1485764616361833
0.10796222307407896
0.07747413716658817
-0.13148078923531686
-0.11374769248362242
-0.06869932372576176
0.0008775685580570808
0.08823811886297774
0.18130385904677662
0.06253687762146531
-0.08816405562884151
-0.08755843147879183
-0.14229778746790378
-0.04448561649381159
0.028007296229151865
0.10611247130427105
0.020831121275620597
-0.005810583093044449
0.032721643165082956
0.12533792806254468
0.04627467101019742
-0.03736492600118125
-0.15537477514017817
-0.12476206541753923
-0.14430612841136944
0.004142512645644521
0.14779425921134784
0.3116931246685285
0.10916777707436814
-0.061653545906439976
-0.21400768422006936
-0.16399017730819015
-0.1222937054371477
0.10960502882620721
0.13762853704878658
0.1697641190312073
0.01090907575071357
-0.13926019811988347
-0.08496530097443408
-0.03129530586123177
0.018230006854879993
0.062270079717663414
0.10077734015061333
-0.06617421916383878
-0.03885602375588144
-0.01754565599169142
-0.0019976294237000368
0.008635311470748827
0.015291948136611345
0.01827653970931443
0.016884411422826835
0.009805343415151121
-0.0036280764607755254
-0.021716411768357122
-0.03892758748413066
-0.045560732331829265
-0.029191111460997263
0.02206886121283259
0.11533011908505314
0.04929701610382606
0.012957988346901992
-0.012466264559631202
-0.04875446700811031
-0.11479085306746217
-0.021742170554435274
0.028983758182263047
0.044529412029530126
0.03702367701025951
0.019329744682590452
0.001662390309310385
-0.010086057065399006
-0.01429686010374204
-0.012406308977051738
-0.007263055174256326
-0.0016903319878330402
0.0023957953801778675
0.004252871787535536
0.004111605181531521
0.002744901978689076
0.0010263080374918654
-0.00038035430822608616
-0.0011515966858361754
-0.0012805145996031813
-0.0009628702341037297
-0.000461716245449617
-7.010354298643858e-07
0.0002911810561286484
0.0003850453803923081
0.0003243572483134061
0.00018480826847765535
3.887967773974736e-05
-6.557911744714395e-05
-0.00011122433951598721
-0.00010542231772282667
-6.88773443654014e-05
-2.4276916972830864e-05
1.1511471706397755e-05
3.0563164726650335e-05
3.3083855092899735e-05
2.43601800766391e-05
1.1245440757200069e-05
-5.533590330002447e-07
-7.835677072962617e-06
-9.987312993543285e-06
-8.224595767521565e-06
-4.544308626462949e-06
-8.135266262806627e-07
1.7691477268980335e-06
2.8092051012188855e-06
2.5526832659921673e-06
1.5808130939063135e-06
5.056561513790249e-07
-2.42563328893878e-07
-5.047019961282971e-07
-3.718451846555418e-07
-9.114858831050458e-08
5.993137258925126e-08
-1.0538975089471943e-07
-5.959632410435147e-07
-1.2120664700179015e-06
-1.5881456053438308e-06
-1.3143525944178423e-06
-1.211663104913816e-07
1.9191180718410347e-06
4.251789041273665e-06
5.8542792246638765e-06
5.482518675880214e-06
2.160510849911613e-06
-4.185259703901362e-06
-1.217183885141453e-05
-1.8802606112291407e-05
-2.0012371342136003e-05
-1.205285740585584e-05
6.476190706373996e-06
3.2575594735622545e-05
5.7773177090278704e-05
6.912386904519093e-05
5.299381540375439e-05
1.3794503146049868e-06
-8.088105622802621e-05
-0.00017103964259227513
-0.00022925477866997303
-0.00020830501034501027
-7.257534679099065e-05
0.0001776611422456213
0.00048556556970083103
0.0007329530103241706
0.0007630130931532437
0.0004353286276103971
-0.0002951296546872414
-0.0012999929408454207
-0.0022394514837890418
-0.0026061851307732937
-0.001877521806874329
0.00023539608935523441
0.00350566505522213
0.00699101390417799
0.009053328584964507
0.0076979083567247485
0.0012224044035402744
-0.011008019886677812
-0.028025702981397817
-0.047426290048295835
-0.0665695375404897
0.11531300921797707
0.09497392551988829
0.06444296569603977
0.013049701322343933
-0.06776667918338267
-0.17855288604571548
-0.1077491913610602
-0.03211097389778
0.07745895111248122
0.24642682266318083
0.08734487524927038
-0.005146217983387929
-0.05284030429016239
-0.08679220420979412
-0.13760075441012257
-0.026984966783326063
0.03655179387864827
0.05720516832350944
0.04771243559032789
0.023809458541853172
-0.0005892061623029934
-0.016300629631491807
-0.01972886709374755
-0.012208937744129013
0.001423101243482559
0.014481520220991006
0.020071767600342398
0.01270479200110004
-0.01015564613373486
-0.04689278939629037
-0.09142468588616057
0.06569523470981489
0.03473018388722196
0.023512548049718137
0.034780765095112215
0.06525467414546589
-0.09312751112114011
-0.05033546957937574
-0.014980028975842727
0.008005811519436969
0.017996595331437177
0.017750728016873454
0.011667070507742258
0.00405055796646583
-0.002050730326209509
-0.0052534431410054825
-0.005616922026592753
-0.004074789065664977
-0.0018141331334645364
0.00019081679261325946
0.001404982859334422
0.0017378057617843526
0.0014078185132160692
0.0007606135433982752
0.00011414659945928854
-0.0003304307529622023
-0.0005086974027006327
-0.00046288908830145644
-0.000289584435371993
-8.964370473993952e-05
6.480945694763326e-05
0.00014232258173844554
0.00014698494637539863
0.00010409962114666644
4.450268363300103e-05
-7.084024549088962e-06
-3.7516078100469225e-05
-4.507317757508116e-05
-3.5799876356759215e-05
-1.876897078796702e-05
-2.1401987396878116e-06
9.048850205563204e-06
1.33069418129746e-05
1.1851763816375275e-05
7.235337960722114e-06
2.0581854760589796e-06
-1.8593936667867467e-06
-3.7583916677025006e-06
-3.787999475527584e-06
-2.625539180427232e-06
-1.0712957728705577e-06
2.4619149334401e-07
1.0030480241178588e-06
1.1691646824669768e-06
9.096979231866101e-07
4.618563443546826e-07
3.447107342530911e-08
-2.4670113031284614e-07
-3.4768202977357995e-07
-3.031604951452139e-07
-1.8045686957905056e-07
-4.654650460492607e-08
5.269815109982492e-08
9.9061467067601e-08
9.75074501723083e-08
6.611885980063635e-08
2.5640535976187815e-08
-7.96704684003186e-09
-2.6747548605580757e-08
-3.0290144242794485e-08
-2.308645438328923e-08
-1.1329466009365001e-08
-3.575561863608086e-10
6.6962842288345166e-09
9.071443795002325e-09
7.745585496724928e-09
4.491385866352123e-09
1.0317918472789097e-09
-1.4789740116185158e-09
-2.6064590125672e-09
-2.5071101343869826e-09
-1.6624753682700894e-09
-6.09647850947296e-10
2.466129742702022e-10
7.114945854998288e-10
7.837735078444189e-10
5.850990771329446e-10
2.7693367532158066e-10
-4.417122308920995e-12
-1.8106896332394983e-10
-2.363891861551027e-10
-1.9768793683211228e-10
-1.1156368550660067e-10
-2.228878956749145e-11
4.11414588567505e-11
6.843962791966977e-11
6.436335954360448e-11
4.1706348082839155e-11
1.4357615819674246e-11
-7.431705525712374e-12
-1.890888324815461e-11
-2.0282264828521807e-11
-1.4834310066510273e-11
-6.7690492410688535e-12
4.372865005857288e-13
4.8529504105306175e-12
6.125836832162535e-12
5.01317294134926e-12
2.7380299060117392e-12
4.3689481981666593e-13
-1.1629031008924039e-12
-1.8197657446152037e-12
-1.6748787824701206e-12
-1.0677617264740109e-12
