0
-1.786958894694274e-12
-4.0232625547146094e-12
-5.573518263364105e-12
-5.275527883477738e-12
-2.2033672611894363e-12
3.739160508576314e-12
1.1289518058218274e-11
1.765998399198e-11
1.902622938828253e-11
1.1810338579421822e-11
-5.412902043077816e-12
-2.996413744433507e-11
-5.3997460725949656e-11
-6.536819409895017e-11
-5.112287051155036e-11
-3.4134950703656717e-12
7.367144386068388e-11
1.5919355237560364e-10
2.159031507782582e-10
1.991290277944604e-10
7.448555148326597e-11
-1.5921138728889525e-10
-4.5008963108215764e-10
-6.879888114076136e-10
-7.249171283407595e-10
-4.2602590713314937e-10
2.563058073672163e-10
1.208373092515008e-09
2.11754249379661e-09
2.5108592790063723e-09
1.8950728257140267e-09
-1.2060726786684542e-11
-3.0202086260058502e-09
-6.285962887802888e-09
-8.349422219877813e-09
-7.495826514696762e-09
-2.452694341647697e-09
6.726362452244656e-09
1.79183540100231e-08
2.6776029934757063e-08
2.757925480851485e-08
1.5257131542649104e-08
-1.1736128842034963e-08
-4.86133318524695e-08
-8.293765747763222e-08
-9.631167501276939e-08
-6.998421346422597e-08
6.114036931237251e-09
1.2336896155166506e-07
2.47883777550286e-07
3.225091501499182e-07
2.815109383583169e-07
7.798230595929659e-08
-2.821117721316709e-07
-7.12185721759659e-07
-1.0409096449238462e-06
-1.0474556254682407e-06
-5.415956206466596e-07
5.247895308805848e-07
1.951511697354629e-06
3.244606611644028e-06
3.6892518080969023e-06
2.5738513893668366e-06
-4.574035725315498e-07
-5.022676032382327e-06
-9.76250670684147e-06
-1.2442338403226526e-05
-1.0545812984686971e-05
-2.3513128619902165e-06
1.1758302502701228e-05
2.82628739182974e-05
4.041875717894176e-05
3.971120655139808e-05
1.902259826039476e-05
-2.3048939673798323e-05
-7.818106369023751e-05
-0.00012678439962495212
-0.00014111685845882025
-9.422346263279753e-05
2.632267117704016e-05
0.00020386318198814497
0.00038398133485483774
0.00047940232073111563
0.0003939303723351293
6.467573011003338e-05
-0.0004876219994901743
-0.0011202726674187846
-0.0015681628491988663
-0.001503321048477265
-0.0006599905612960071
0.0009984479764395407
0.0031287475285328237
0.0049570502584010525
0.00541131745917882
0.003478141802906458
-0.001261624375266981
-0.008078976803604365
-0.014788429316842006
-0.01798362889966909
-0.014025405760465294
-0.0007503497455971309
0.020489143141689557
0.04320504075781787
0.055516557028358414
0.042027381009813757
-0.01202950217696288
-0.11525172276408854
-0.06498450602332378
-0.04491454500784083
-0.02691116512983319
0.02282618569201638
0.13498171768672307
0.12857389309071954
0.005650129653448347
-0.048929012771293474
-0.06281469304440157
-0.06870451300495925
-0.09698114378644408
0.029221777461275113
0.09569986285080338
0.09642662914847383
0.03214462657020856
-0.09022077720839589
-0.057152677948711504
-0.048314675723701454
-0.03810038707987974
0.00017312561705513935
0.08792418508869626
0.034574150318524295
0.03278686295592138
0.057770794172896496
0.07173578212240675
0.03322276730781808
-0.09047513943112812
-0.11103091347232469
-0.21113670941113977
-0.1448696372198528
-0.04844665957526633
0.1399592697865583
0.25655621171509974
0.29239721668580637
0.18605043663697352
0.03341118818722858
-0.08597783981040105
-0.27277124419319126
-0.372796805891301
-0.35504172920815663
-0.11142176671252932
0.11945107693074716
0.31036878030229526
0.3980745486228408
0.44549189192299327
0.22623151341463502
-0.1632945015155797
-0.4683685536391837
-0.42960533900188796
-0.1418280828932119
-0.23149498254675382
0.14163643201778245
0.2618196731810886
0.42360719406888675
0.09976893284761987
0.12144281329889677
-0.12454309045598262
-0.08296932840236451
-0.2090777062615021
-0.34800600078579064
-0.12272983823398873
0.06535565721680085
0.22453220285565142
0.356087434749112
0.44210035349596033
0.04537523918159573
-0.27641794290034466
-0.5479497374376214
-0.5562298668706442
-0.24537204224086723
0.26802703319560883
0.6634669030035404
0.7831814456798135
0.41411251414609973
-0.10335259771512935
-0.8412926027343652
-0.8398513723228618
-0.47461763657741307
-0.054024781319032676
0.1482518341528293
0.8371672277102975
1.0395622347007578
0.8723724019580672
-0.6471889159095026
-0.5495544344472645
-0.6373738680316362
-0.8159937212180819
-0.8570576030582149
0.5907213770977808
0.7481626779999696
0.831178054555797
0.5852344778397489
1.054222867525116
-1.4061995460532946
-0.8804906473341362
-0.6354688421320477
-0.2814976509309566
-0.5705589423269392
1.7696698615449933
0.7841278790595413
0.2476667625265019
-0.14716119593239088
-0.5661137718400377
-0.5847212307336482
-0.3363995758104073
-0.07695629069187698
0.4241172639814306
-0.13343326652853324
0.18575604322753073
0.31467029498056936
0.15232085904835846
-0.25428877642899567
0.2879762690774467
-0.06912143456884216
-0.19337444907692958
-0.14769188208208342
-0.1700183057243444
-0.06326157086924143
0.0021949996778004984
0.07482720811659001
0.2021269137069919
0.21150148801192348
0.09857311648642919
0.027033577171791588
-0.05982533161883576
-0.21997839376221298
-0.292834454399378
-0.08599223419034902
0.026513090204100878
0.09397910837231735
0.17096481733889424
0.29841013608017486
0.09103371180838146
-0.06459750502367924
-0.20134761247983154
-0.15647656991897155
-0.1568611668731732
-0.010231818208099423
0.09501346640131088
0.18272479692757257
0.07870778529003641
0.0018421775912431859
-0.04033931697553723
-0.051109541225919056
-0.04061334906008891
-0.02090353280797695
-0.0019191162991224657
0.010594651858623917
0.015202360219521956
0.013549951261575977
0.008629148096957442
0.0032510208811140752
-0.0008558820386700772
-0.0032334291266945857
-0.004326772907027106
-0.004850886545320644
-0.005196999665602461
-0.005119885940665452
-0.0038307763564580477
-0.00047886853924148206
0.00514168299835372
0.011946380775142453
0.017327473066193682
0.017642043970701023
0.009545215731479482
-0.008031360906415378
-0.031850257583792625
-0.053203548517827354
-0.05857961415344969
-0.03273618453055807
0.0361275250685787
0.15057397650490956
0.0999172655892843
0.06043938659371056
0.0009912712258324406
-0.10713790070603971
-0.2794845165930904
-0.11132775345592424
0.022114103738131295
0.1574690285797262
0.12986371573942018
0.1597545840900652
0.04519787770706833
-0.03752477268026691
-0.12538092720562394
-0.055518516577696374
-0.05236657117749894
-0.11917867758756322
-0.03658177461997855
0.03153912436178709
0.1267083059408821
0.08269845101784565
0.1148045699299716
0.014984543582743676
-0.04575483480326053
-0.10879832902846942
-0.016137353607109113
0.0010583910616083205
-0.06945222284862602
-0.017893646842953668
-0.014820532158148617
-0.018228328051464154
0.01620230007745648
0.12415673412831447
0.12389040558111641
0.012166132533689401
-0.03373327081840659
-0.04855178315042639
-0.06868897691570093
-0.12235977485013354
-0.023380551022382658
0.029722021417410184
0.04950472661708199
0.05227583202843331
0.05051774586822141
0.047766406552232014
0.037632196872712145
0.007227395105116485
-0.0561999887422382
-0.15783913097199154
-0.09008930012633956
-0.03203998572190816
0.04552586083483497
0.17115625315748542
0.16327224139853774
0.024149599037098936
-0.060208790461230885
-0.11458896123895917
-0.16629921486936847
-0.03794470846596192
0.05595104940448578
0.10803972054066814
0.11487469768666661
0.0742425594368703
-0.014674614528696284
-0.14812171917741807
-0.11358441563263591
-0.08773110275235982
-0.039005155313781584
0.06474081183750108
0.24580911223569815
0.10752217938120778
0.030568941406178447
-0.022954167025792886
-0.09876423393997963
-0.2366573858762675
-0.05878382728706002
0.03602735644633531
0.07043442596120288
0.08076570623857103
0.106675164263735
-0.01812764015843473
-0.07178886539901574
-0.04641032515702609
0.05276699470138764
0.009868192751609477
0.0017704280860759277
0.002008134315456311
-0.015120458399427373
-0.07077677043309413
0.021227215676437174
0.055845642634459125
0.03685157532053621
-0.024110454065741097
-0.10922950339142662
0.0028151448330592755
-0.06710557066742846
0.09636723105391479
0.09815267100259767
0.12996791752145767
-0.028411724009081353
-0.0033892867876564323
-0.21885249777491722
-0.08776731931529055
-0.0074889292648394
0.039275458401963066
0.07838950144340512
0.13576419925734007
0.0298150614813592
-0.03248226926386554
-0.05514363427613255
-0.04941855608329335
-0.028850372288866888
-0.005176807743618305
0.013811191393052752
0.02441631588978246
0.02592692868567538
0.019261042469922978
0.006161289016267629
-0.010767794013467669
-0.027464760945374093
-0.03796240199782613
-0.03488012714694158
-0.01133852857314405
0.035885102545661275
0.10292527599897254
-0.0233866695130958
0.03488468656529611
0.050467713057290135
-0.002560719507128442
-0.1407879729350225
0.03577874162750159
-0.052189220912562485
-0.1643050443232778
-0.047270074505650746
0.15328823491110596
0.07858647652191099
0.1442132034379809
0.13378212937979184
0.0015114967333189405
-0.11634066254678466
-0.08433200539174324
-0.15021848398153806
-0.13237463990603687
-0.01613668257432826
0.03994961001303154
0.09019969645897549
0.18486887170799743
0.15581497911353961
0.009280106547632325
-0.07235804578844496
-0.12138519831271072
-0.1722832603008612
-0.050979311102076715
0.030525028770293706
0.07316486591615527
0.08521580158158525
0.07541593984446908
0.04806365287172774
0.0019605229022469075
-0.06690067628410168
-0.16078491491314711
-0.07660984521198226
-0.005701828788184136
0.06237016273866257
0.13343979620696958
0.20309915284233268
0.0550977237133956
-0.13462355919053143
-0.189596922218277
-0.12413197695406586
-0.13888137323763874
-0.023457467411601013
0.23462631940326803
0.23898729251222753
0.17762140718119884
0.22574930964078913
-0.040104322013695896
-0.4205670527030737
-0.4731163356566809
-0.30373474472342815
-0.178449821013895
0.2447538309243645
0.6725023306977592
0.9369448203093852
0.17761317784050476
-0.5465218675990717
-0.6186342119691375
-0.6152068304093492
-0.4667181533044999
0.3586305409114329
1.0475931431088767
0.6225507994569224
-0.07397039973067268
-0.5814411732195983
-0.8133227722564834
-0.6520872998161161
0.03944784604601665
0.7872925541907033
1.0668946554477012
0.875284760562126
-0.26756379648335776
-1.0845166552751282
-0.8886710939746262
-0.7379503851676148
-0.019379803925513826
1.530143280864311
-0.021343715616354807
0.5528799457119008
0.412606404989388
-0.34430339529872095
-1.2506747909278284
0.5727396850774064
-0.34585872429572734
-0.21059456723826003
0.03907114411691578
0.30752896227119564
0.3129864666238331
0.1586484641802496
-0.08591132746552677
0.011203554226544045
0.05357170691294307
0.033904215716045884
-0.44772670215028837
-0.37259364772180265
-0.3053792909042466
-0.01195081290738429
0.31190453389215045
1.2134181493070368
1.574449709846881
-0.965105852367908
-1.1529438707259623
-0.8585112707838798
-0.8266943357303248
-0.8771759027311444
1.6439288344947511
1.377673359015214
0.6655002633014185
0.09719260864247722
-0.4875881148806173
-0.7491485320990048
-0.5722446570457473
-0.19364915706729133
0.04580850174780963
0.3166474851347842
0.28804671064557863
0.09854624662162456
-0.07792506533028096
-0.06275800374465373
-0.09711304749553437
-0.060237052761528236
0.1177179571605198
0.2488950149886295
0.08864217472830555
-0.05446015265580461
-0.10021484026545546
-0.17380245656438792
-0.18380704852244242
-0.00655903786066172
0.12043899260926312
0.19667411678634147
0.051666912357184215
-0.06332705196739863
-0.08283431582599676
-0.13413661035516206
-0.14526434301038355
0.14498254408398115
0.17602254295412825
0.15672458146159812
0.06287580977838528
0.04334597075643475
-0.16581265740749748
-0.22341700818338286
-0.16730122193008656
-0.005960245014553924
0.07978776974110008
0.12655016832947805
0.17410094307810112
0.05267304933448364
-0.02400247627944401
-0.05851895002184823
-0.06394833107723347
-0.05554460861641098
-0.04342236617897947
-0.028647942656947076
-0.0036415660140905184
0.043759784544813586
0.12442960429431399
0.0426793648745049
-0.006337230509701854
-0.03567558028311306
-0.06281094579319729
-0.10485062399578013
0.025260568132969397
0.1203879548538844
-0.021162668880434866
0.002997459225002246
-0.0019779210349079963
-0.029069886308649928
-0.07010294466153263
0.08337502690258729
0.03898456399661835
0.0025419668592318685
-0.022310932210890803
-0.03379603438642973
-0.03147733518075845
-0.016202414971310378
0.009145042278087774
0.03838642594787962
0.06120200706411817
0.06384969807861278
0.03223274534066213
-0.04287979521703531
-0.1599807843079269
-0.10282680388035335
-0.04085452142882262
0.06481199931799433
0.05087962821804704
0.1401537834218074
0.13266102015168638
0.0030012241800306703
-0.09475273717089594
-0.015871973561961163
-0.010808277628721961
-0.11210976256278918
-0.12600351167888688
-0.031001621301055923
0.015874514125101755
0.06681620221579214
0.16847411780353047
0.14932799453870818
0.013205506028884588
-0.05916515297887782
-0.10163637038770808
-0.15070448799517513
-0.03459286812146791
0.033196890936475994
0.054626201042559185
0.043170980687755274
0.017495049431741024
-0.004905355239668196
-0.012514692654832555
-0.002407311235570724
0.019415315757456437
0.03981091470088819
0.0421947157203719
0.011723533731233072
-0.05899446474655731
-0.16533937127759535
-0.08935197337699427
-0.0032007235084917764
0.12268669142636174
0.1092148270383815
0.1599052625915576
0.05772718600231583
-0.030605395017558216
-0.14389660360022208
-0.11301939619545212
-0.14975304657897656
-0.04217365719594891
0.04157084209682487
0.14241224395788185
0.09635868982183918
0.12230782467361093
0.01578153034954314
-0.04963599466009584
-0.11412996667508009
-0.019816280566255375
0.0009998828726637465
-0.06564670103359306
-0.011828602519936232
-0.009571605178954959
-0.017438158972857352
0.009696673147732156
0.1099157453840209
0.10517641438217923
-0.0037565924215290794
-0.03702374467626216
-0.030320091749252702
-0.02627896336411944
-0.06507906223705055
0.023471875944555423
0.024922536231875368
-0.05830927889038216
-0.00873807418556772
0.0016451087756036145
0.004966991671311024
0.030452533595018476
0.09834770978498172
0.016322098597920033
-0.020648194222806147
-0.02692297327755662
-0.020468756987567893
-0.016538427911284702
-0.022569440901106876
-0.03566405977391857
-0.043372042834804315
-0.027770243262226317
0.02800131646949762
0.13248970874532523
0.08038538536583192
0.05105404165415226
0.012398862537727741
-0.07063514603738372
-0.2255882025645683
-0.0638144586016527
0.023076207297991296
0.060366790337787135
0.08231826657426201
0.12242106111296615
0.005310721851758202
-0.05738151324077318
-0.066901924373941
-0.03425874946893837
0.02401063717539515
0.08981475815893727
-0.05324702493115956
-0.017323910683275025
-0.008494367773365069
-0.026058031370699047
-0.06332777840179352
0.0900795539176504
0.045049120859232676
0.009934929877096751
-0.011254639261340476
-0.01897083517800272
-0.016836416659717707
-0.00973848478261017
-0.0020944560648366436
0.003222054029119817
0.00518190863371839
0.004289583999405844
0.0019424866846602896
-0.00027117236358911457
-0.0011521777095970642
-0.0002566726453504676
0.0019802297579964013
0.004367675227171492
0.005323362041355045
0.003447166325066895
-0.0017911365761099818
-0.009441044245645713
-0.01681782549746067
-0.01990642833542621
-0.014608616607737246
0.0012581762936226108
0.025700703059145496
0.05090856447226608
0.06328878860595104
0.04598677694123162
-0.016073478616347642
-0.12977400060772618
-0.08827373617449952
-0.06901068353557828
-0.03705119696020452
0.04629388280691782
0.21187598673661281
0.07198123676358904
0.014419232241452681
0.0038388744833385132
-0.009827633863838885
-0.07820115151358192
-0.04029516131037587
-0.11128750302211374
-0.07743811371746319
-0.09889820325880978
0.07989858746298723
0.11489086478017375
0.2466497394146108
0.0894282780630103
0.02881231577157246
-0.17136955116307478
-0.15586569207203624
-0.16392911467680388
-0.019686341753742183
0.07010389180851358
0.11140664181581061
0.11472022741942756
0.08769830048632331
0.03195219994531403
-0.054932449600745746
-0.1737524804109886
-0.11786413263303469
-0.070921017104036
-0.010400918236386014
0.08359780616845136
0.21761096793540732
0.17707012087514318
0.12616981005914338
0.017412875260539598
-0.1911105809789507
-0.31668917903270377
-0.33944696813384506
-0.20361464493539022
-0.03544969597402885
0.4262873960085481
0.5982221302204928
0.6330533742240849
0.225012890846183
-0.35684744123308293
-0.8170152489408133
-0.7835021665621934
-0.582116616432594
-0.05000634294975684
0.6120976469632298
0.9664349389664686
0.8718975656235168
0.4526935973608257
-0.08241910339080222
-0.5740395559274083
-0.8213832913526978
-0.8995749659527941
-0.716322337662306
-0.22673302208252882
0.49474234617220386
0.9469782559364305
1.2958704731792787
1.1082871707294062
0.5539993588672572
-0.720080075715311
-1.6669964229590457
-1.9137044903884894
-1.0825768172796582
0.005301152813959756
2.4439040661929963
-0.29286273161321036
1.5195710155156241
2.185927490001605
1.4111999729849016
-3.788981992115291
-0.32398491308776006
-1.8731179102461286
-2.2063654883167976
-1.4221862594564658
2.9000066240904174
3.0821453973480173
3.147336095634757
0.32092478230479565
-1.1218052278396078
-1.8771784459543628
-2.173192202732235
-2.358704492554018
0.0037655022046510283
0.909840302151752
1.1684009516833285
1.3974356825076992
1.232042774573221
0.8043561177859212
0.7263770355157629
-1.8283226626763833
-1.5795739655696441
-0.9865093393589632
-0.5371069118178762
-0.5124333034408438
1.9753320545406612
1.5004821448998495
0.6402457049237047
-0.27274514160711266
-0.5477502365134679
-0.895947235740058
-0.9836407247994429
-0.610327921688605
0.06965467305256319
0.6837182557863825
0.9577449450501532
1.2467250949720086
1.1116417154783578
-0.8402827133456592
-1.0590328746547835
-0.9295144960181168
-1.0658829364424727
-0.6588920072437585
1.1078523185788363
0.7824703971452049
0.5399576967450199
0.4841511115780603
-0.015327844266135225
-0.13944580861544206
-0.19409606377601737
-0.3579305930183327
-0.42318819816450975
-0.14698573591068984
-0.024265527526126825
0.11477590567429138
0.2878952400344254
0.3348825081765533
0.09369169004649483
-0.01331260617709399
-0.1805654448075045
-0.2112133711023543
-0.10628526891417539
-0.05757744794383202
-0.04783765890504132
0.14214117193240697
0.3233154142002073
0.09053298046464298
0.021695399843383922
-0.1145307366452205
-0.1450603030957806
-0.2784514238820364
-0.09682810548391452
0.042450446568709777
0.19554792785322092
0.21561140248809815
0.13739701357824885
-0.03128777254981594
-0.10897149612404983
-0.1323560476956074
-0.14488326148037825
0.01341745444143614
0.1120948679181927
0.13243734309700697
0.06756264808308433
-0.0774653335589563
-0.08488232468383379
-0.1241396095187245
-0.1547153461656354
0.06675127809208858
0.17578558792719168
0.18914694336303614
0.09822335002473781
0.07036674122819034
-0.14124622093540465
-0.18233865627905882
-0.2825645205796893
-0.04680007574674292
0.14381755973677843
0.12179082398171648
0.1186114167690859
0.15164730946799074
0.017498944046132413
-0.10619359086112713
-0.05181175270172663
-0.049406736968396224
-0.11542947838348444
-0.046243309675553214
-0.018363709835083473
0.004735135932339449
0.061411502194732924
0.1798791038741711
0.16958801780211136
0.01923413122789168
-0.09762329486298531
-0.21146360053078345
-0.14486205583763237
-0.10480102009796075
0.1176698972335121
0.14082751588705425
0.18231273949976443
0.050655654411106234
-0.05809341662165265
-0.15788393723643704
-0.06643062225787363
0.0013979101044386327
0.037876923018735485
0.043535802450109885
0.02582390290053161
-0.0033144494590035276
-0.029931820538430083
-0.040307088165024596
-0.0230653183800587
0.028686712677910203
0.11554746958489485
0.03114935392978882
-0.036594293782917585
-0.10232904850521829
0.020738108967605536
-0.07594932105349392
0.004894488079025919
0.06535965471740032
0.10990905594113319
-0.05706925220261989
-0.03260452621703711
-0.015137531916054974
-0.00375185744557656
0.0025640231413473274
0.005178135020926859
0.005604980306206263
0.0050816035610802565
0.004222096445996996
0.002950942931429036
0.0007744703772187243
-0.002693671861136337
-0.007153766500936497
-0.011255206784150967
-0.012704100924950158
-0.008996202198119224
0.001277998853162879
0.016881356357395925
0.032710192029869106
0.03959348997166229
0.0256321822521871
-0.02089897344839571
-0.10779065765917291
-0.03560791886688526
0.0037289059959184226
0.025786853643839768
0.05033514907506086
0.09730479073603601
-0.016475802524418832
-0.07891683300138566
-0.08293475879746653
-0.026421886547878484
0.087129799847821
0.047383841220327474
0.036380460550512535
0.029585312003279237
-0.0005629518983446347
-0.07911470790359543
-0.022624304878547136
-0.03471381761014756
-0.1048902895068522
-0.011390425168184441
0.07249708951675501
0.17058883975399258
0.09735712994408448
0.05556768746237306
-0.16101092132769756
-0.16137175839881493
-0.15096197902147726
0.07124068632134944
0.11087090243910634
0.17302443630565775
0.05716664615220316
-0.04482446017795143
-0.1464998009848452
-0.06202669165235734
-0.0014387095455283766
0.03183914261940728
0.040578068558798565
0.03132515704285537
0.01145019068667373
-0.013166268014297437
-0.03935863857267592
-0.06701376738493785
0.10107455528783389
0.05970924386733555
0.0024397931142376454
-0.07637025404945176
0.021098367947489628
-0.10171502963062103
-0.03526898872087079
0.03426023429741551
0.12128568509864762
0.03666705249586428
-0.015136493374278207
-0.03653473728469677
-0.03504653114962079
-0.020426303301826015
-0.001970070665372873
0.01319177893457513
0.02070099077881446
0.018867186016057767
0.008378549945137807
-0.007854403056202022
-0.02479363984234368
-0.03572999564169411
-0.03363255207128876
-0.013668362834000634
0.02342610637322446
0.06819004324963088
0.1011353738288718
0.09492164992894846
0.020758411942645286
-0.14192254552532466
-0.19546732604722364
-0.1178444264307977
-0.06397654473670482
0.024278144469487936
0.20183414614010425
0.30308326656600604
0.12990893725268576
-0.15038950887164107
-0.19660883006869165
-0.0781577205786799
-0.05828541424110017
0.019109392018559927
0.13690989873497034
0.10686682653772718
-0.03209135968624826
-0.21829319140777503
-0.17488524700010394
-0.02162238286698441
0.10919245252237701
0.2554613006050454
0.21209778274192892
0.12755553782058277
-0.08685386823906091
-0.13630674554032382
-0.3162985505341535
-0.08895773414519803
-0.06883118526645574
0.1785290209032348
0.12636066844728094
0.06929350437545032
-0.09609092453286722
-0.08903745342382959
-0.059054882578823305
0.003678931392220661
0.2631699727473575
0.24010504107608352
0.22455399951276192
-0.1006626697077461
-0.2298119759898745
-0.6059332102384593
-0.4053929458710357
-0.14399064018944424
0.2940829241014616
0.6130495848936637
0.8645994013519518
0.42701747414030317
-0.3849618465484439
-0.6823475517088322
-0.7523780555027848
-0.6198059593380013
-0.036778523903211034
0.6944201131247071
0.8772360386668773
0.5770166177906506
0.19867441464300742
-0.3040306788148377
-0.7933918326993687
-0.905484553501025
-0.423022640387008
0.12173207926167273
0.8142681710334436
1.5112970644772727
-0.19577654952525078
0.011569367881047635
-0.39594474871446106
-1.1507975524794334
-1.1468071824758421
0.9806764045943946
0.646598229567154
0.6906817068905747
0.7547227934110989
-0.12094152139266376
-1.2798405623970928
-0.8247911269807011
-0.8087061386965168
-0.05794682814922066
0.7717165253197654
1.926951662530285
1.7097751786902875
-0.7186123242135481
-1.0742266733818355
-1.0473101181558766
-1.2011982202660743
-1.3149256574686674
1.4075251045617923
1.266943159778402
0.7680537739286324
0.3281932471461699
-0.17397034136860032
-0.6002830278604367
-0.5160795268297252
-0.13485982536468685
1.135846991559354
-1.2645980740859444
-0.22715200538087604
0.23034172814078155
0.34878060408441874
-0.5981590027087711
1.6692326288274382
0.22080724232289597
-0.2813997212682963
-0.7657643446200385
-1.5322500771587895
-0.6517099897961983
0.6040240796800309
1.5070074582668045
1.418707561764149
1.1701348051149234
-0.3006105220650342
-1.6574220076779087
-2.0552234712245796
-1.2580305958525848
-0.027211725459681056
1.0082897576011869
2.024709934097256
1.4697768594203633
0.37541950936111795
-0.6517322859437044
-0.9644457317746121
-1.1654007534725352
-0.7983280177228314
-0.07660215188013639
0.7346482749667915
0.8903863422215238
0.5149739458307047
-0.044954532211338015
-0.247657587437721
-0.3618801617643668
-0.4607257170835905
-0.2171998367062947
0.08920532290007657
0.3537480187240135
0.42252021062225303
0.27470121261161423
0.02082785579890569
-0.07941666773272027
-0.3844220603602552
-0.43345796485127264
-0.11723793840015351
0.13499856862400625
0.14989291907604435
0.1907076412603864
0.13302716513531623
0.04374322592197789
-0.03153596428813053
-0.07155130898432951
-0.07507030786989852
-0.052898980103281486
-0.019837807862977223
0.011066822960563813
0.031246565310312974
0.036902201707750736
0.02810445400352458
0.007881708172676714
-0.01810600339950421
-0.04145767077343064
-0.051200146937712805
-0.03504811859473399
0.017895239671050174
0.11352010628626233
0.04954540750071516
0.014430612169772972
-0.010678546202080768
-0.047324952890608375
-0.11403378131905904
-0.021646655402066235
0.02863090447816212
0.04400289865622987
0.036551480017663715
0.019039183096587392
0.0015773902688222983
-0.010014458252369495
-0.014148488936620428
-0.012255641773401313
-0.007157967139006853
-0.0016469333982845223
0.0023865389402754882
0.004213126671192782
0.004064981344125524
0.0027085960658620335
0.0010080968490183686
-0.0003811343501838272
-0.0011408584788371971
-0.0012658031669229356
-0.0009505502168296815
-0.0004554681378832934
-1.237526453972239e-06
0.000285576452484238
0.00037758551231647987
0.00031871228787059387
0.00018408128281823362
4.463872556674849e-05
-5.411673268790233e-05
-9.761413506176047e-05
-9.565109473189984e-05
-6.99136704528047e-05
-4.1450968139193615e-05
-2.218016358942783e-05
-1.2211719835419318e-05
-2.7454663324584736e-06
1.719240116811927e-05
5.280379187478585e-05
9.737780911008927e-05
0.00013078716943280721
0.00012454243980303535
5.3507502719836254e-05
-8.827523905908381e-05
-0.0002731473724734967
-0.0004344080592790977
-0.00047735678910252216
-0.0003105191291363388
0.00010687158390366858
0.0007151855353287921
0.001325666760149143
0.0016388908213780938
0.0013286149284634453
0.00018760515267455036
-0.001700478945046991
-0.003832819808510397
-0.0052916884139933605
-0.004957037701917471
-0.0019459742444914896
0.003800858610918165
0.01098030606879422
0.016711699743880155
0.016912881397927737
0.007385529873502778
-0.014562117140274538
-0.04848228219031225
-0.08991797344003094
0.06902915055806771
0.03759435504492225
0.02343328573608751
0.030140132646983283
0.05627479852057784
-0.10378188242482533
-0.05773095145910111
-0.013187021281085419
0.02349676777392463
0.04714261632502526
0.053084784176484955
0.037045987508062685
-0.0036942814998711182
-0.06803055609281414
-0.14886213867223105
-0.032687398578954675
0.09792612825108606
0.05935797311358777
0.06135676777555367
0.10338154125805553
-0.025388481200955205
-0.14229716238378962
-0.06534685790093157
-0.007753040718140294
0.02499357108882791
0.03490753783111069
0.02894682823063055
0.015626863522997823
0.0021779211112135646
-0.007011507118099584
-0.010596471154579262
-0.009515105693644384
-0.005828946973181664
-0.0016558402406918775
0.0015148893535264938
0.0030564921100968588
0.0030828291033982015
0.002140088226545706
0.0008770533542320478
-0.00019532076363650046
-0.0008128883249136047
-0.000950190288814233
-0.0007408139473321777
-0.00037736505388842226
-2.9750737219804844e-05
0.00019945893541545396
0.00028228287677952254
0.00024666068142095916
0.00014720350364562834
3.8370128236065525e-05
-4.2458218524659365e-05
-8.036204360634273e-05
-7.928635276418472e-05
-5.3882195726857055e-05
-2.1006129815800394e-05
6.3461043443071475e-06
2.1674066521240284e-05
2.4614150666277514e-05
1.879914599680347e-05
9.257719845206287e-06
3.336991732574894e-07
-5.416930048019443e-06
-7.366439804168858e-06
-6.302927430651751e-06
-3.664589277105676e-06
-8.524985297931636e-07
1.1926510102694878e-06
2.11479760839072e-06
2.0388279911893414e-06
1.3550007836623422e-06
4.997931683668467e-07
-1.971780528422577e-07
-5.766936644854413e-07
-6.370002033255576e-07
-4.765256701717653e-07
-2.2639441731835324e-07
2.4688516864308464e-09
1.465096705495056e-07
1.9196445420147684e-07
1.6086607456187262e-07
9.102680227456995e-08
1.8452320701397045e-08
-3.322226990285579e-08
-5.555924080068844e-08
-5.23679275824636e-08
-3.4019011088336234e-08
-1.1800948523850732e-08
5.937117451050426e-09
1.530933694673709e-08
1.6465665102098614e-08
1.2062907642599089e-08
5.515592500508776e-09
-3.4704856619091e-10
-3.9483496116194025e-09
-4.995836099284955e-09
-4.100792193142348e-09
-2.2557313405758416e-09
-3.8489468049335437e-10
9.188770140262561e-10
1.4572956260533297e-09
1.3435530738947226e-09
8.526306664517611e-10
2.761339901226696e-10
-1.7474256097739957e-10
-4.05539641884182e-10
-4.2511552116453695e-10
-3.0493929665165567e-10
-1.3381048940190045e-10
1.6195691262619456e-11
1.0606103508120179e-10
1.2985064501737343e-10
1.0441337112602763e-10
5.576032532529182e-11
7.589013653129597e-12
-2.5256449444668562e-11
-3.8162605192889606e-11
-3.442792098870341e-11
-2.132850105460591e-11
-6.388380902877275e-12
5.057713306998881e-12
1.0723819288882973e-11
1.0965866947191758e-11
7.700425890612841e-12
3.2339079982895706e-12
-5.998042422977588e-13
-2.837667091197283e-12
-3.3679517292617555e-12
-2.6524291921828417e-12
-1.3717542011267927e-12
-1.3283227131983011e-13
6.933435975797449e-13
1.0007364326829486e-12
8.840222351099707e-13
5.353535125437264e-13
1.4864191448422103e-13
-1.415544026128057e-13
-2.8019118568969354e-13
-2.7969990708182826e-13
-1.9133009979685646e-13
-7.49120855085239e-14
2.295102796526502e-14
7.855753510369795e-14
9.008712893641028e-14
7.013233007859422e-14
3.647854697383686e-14
4.650988214442006e-15
-1.6096407523310084e-14
-2.3363390097927826e-14
-1.9834762847652755e-14
-1.0575649938226997e-14
-5.778626855740981e-16
6.769748849431825e-15
1.0149319772697492e-14
9.964321542396333e-15
7.581569268856408e-15
4.551215345348661e-15
2.056039944955229e-15
6.775517299007591e-16
4.3548240329098973e-16
9.879527477828797e-16
1.8708848994652707e-15
2.687592418246122e-15
3.207726924999842e-15
3.378017051229743e-15
3.2738462861614277e-15
3.028496554572965e-15
2.7703236830130847e-15
2.584541962496431e-15
2.5024963837717655e-15
2.51167257847486e-15
2.575706957745811e-15
2.6544846949992782e-15
2.7180262303438877e-15
2.7521133674194773e-15
2.756934330228781e-15
2.7417341507869476e-15
2.7186056194228613e-15
2.697672574900576e-15
2.6846561542596702e-15
2.6807077387363463e-15
2.6837282179251466e-15
2.69021632512518e-15
2.696875378710444e-15
2.7015661349099063e-15
2.7035487762471774e-15
2.703199650402709e-15
2.7014839912992357e-15
2.699438659612144e-15
2.6978225175863184e-15
2.696981894581034e-15
2.6968941001176503e-15
2.69731002601745e-15
2.6979149790875052e-15
2.698450897270987e-15
2.6987760215220696e-15
2.6988663862875084e-15
2.698780031593681e-15
2.6986087872261873e-15
2.698437228205945e-15
2.698318966546305e-15
2.6982713051791126e-15
2.6982831773788222e-15
2.698329016722817e-15
2.6983820545266467e-15
2.6984231085428804e-15
2.6984437782683393e-15
2.698445104717634e-15
2.6984337783051857e-15
2.698417977798933e-15
2.6984042733585507e-15
2.6983961685724427e-15
2.6983941341826858e-15
2.6983965751425145e-15
2.6984010866764576e-15
2.6984055015322618e-15
2.6984084785520445e-15
2.698409617486919e-15
2.698409238245378e-15
2.6984080166518443e-15
2.6984066429933692e-15
2.6984056014590645e-15
2.6984050948494393e-15
2.698405084681173e-15
2.698405391801373e-15
2.69840580391445e-15
2.6984061539532754e-15
2.6984063555642752e-15
2.698406400391707e-15
2.6984063320376382e-15
2.698406213383675e-15
2.698406099902321e-15
2.698406025080375e-15
2.6984059980514145e-15
2.6984060096916563e-15
2.698406042170066e-15
2.698406077706159e-15
2.69840610409563e-15
2.6984061164679344e-15
2.6984061161117325e-15
2.6984061078113858e-15
2.698406097071871e-15
2.6984060881382704e-15
2.6984060831352937e-15
2.698406082183427e-15
