0
3.5496059824783358e-16
6.890612848594891e-16
8.747275824244914e-16
7.343037906377318e-16
1.477205523155349e-16
-8.5490785160091e-16
-2.0209531373146517e-15
-2.8706188776985984e-15
-2.801537610633977e-15
-1.3144846206046015e-15
1.680727655164599e-15
5.583385688709742e-15
8.996897173894625e-15
9.955104794968787e-15
6.560651676011827e-15
-2.040032203944303e-15
-1.4630228698745935e-14
-2.7320893246223627e-14
-3.3916146767754164e-14
-2.7627761045290174e-14
-4.0767051466072134e-15
3.5150414485025165e-14
7.982062214878282e-14
1.1107895157525769e-13
1.0573605093859347e-13
4.51805119581892e-14
-7.279190407256827e-14
-2.2336874698492477e-13
-3.5126758779020827e-13
-3.8029450047534265e-13
-2.387561548084217e-13
1.0259610125863095e-13
5.915157589295198e-13
1.0727068756519377e-12
1.3045436981262464e-12
1.0280397977413607e-12
8.440469131140347e-14
-1.4485444440943482e-12
-3.157398093417812e-12
-4.302102052515398e-12
-3.991075104820459e-12
-1.5326457353149928e-12
3.1080455866380747e-12
8.910632953231216e-12
1.3689894629749341e-11
1.4496552253810598e-11
8.627247528730994e-12
-4.900453255916121e-12
-2.3865019779092682e-11
-4.207608882535949e-11
-5.01215559705045e-11
-3.8136036001914034e-11
-3.9960871865780275e-13
5.943714238104599e-11
1.247132742783838e-10
1.664166889135198e-10
1.5031283767296108e-10
5.07848669924497e-11
-1.3153994582244527e-10
-3.548664194435144e-10
-5.329337782266566e-10
-5.517173462957608e-10
-3.095069852981197e-10
2.2582053184358612e-10
9.605802012516805e-10
1.6484254914373417e-09
1.9231429809900306e-09
1.4095546374135726e-09
-9.679085809324973e-11
-2.4297656487832155e-09
-4.919437938505759e-09
-6.429803330812892e-09
-5.648105791260241e-09
-1.6291959350418927e-09
5.525311608476649e-09
1.4109541483397855e-08
2.0722881835765015e-08
2.096219104327854e-08
1.1009847869663107e-08
-1.0145000108949898e-08
-3.8579134147388875e-08
-6.450481114199488e-08
-7.368939247591094e-08
-5.188949604116525e-08
8.135837878639664e-09
9.899224494467335e-08
1.9379932036066618e-07
2.481274769136117e-07
2.1170757663276228e-07
4.981503405296411e-08
-2.3059472673821552e-07
-5.601216641606044e-07
-8.048779498817002e-07
-7.950396531023681e-07
-3.876806824526291e-07
4.471782564483774e-07
1.5462374883897734e-06
2.521210358207004e-06
2.8195886467216684e-06
1.9016095373558145e-06
-4.863414721613695e-07
-4.020655300602741e-06
-7.62494133053433e-06
-9.563554784678517e-06
-7.914302843058083e-06
-1.4074582314621821e-06
9.569784989541757e-06
2.220240013588582e-05
3.1225637016816825e-05
3.009769436522666e-05
1.3482402183994311e-05
-1.942122860492886e-05
-6.185190805718569e-05
-9.842879025374338e-05
-0.00010772842370830147
-6.933540759579739e-05
2.551121139164983e-05
0.0001628353810248219
0.00029961373288075967
0.00036811717222924497
0.000294947336294242
3.391585997882831e-05
-0.00039540154046485286
-0.0008791402601197834
-0.0012105246825223892
-0.0011378143868910893
-0.00046219637685801073
0.000833672121857715
0.0024721003092379695
0.003846552766041854
0.004130697350723616
0.0025596545906966355
-0.0011551432858578456
-0.0064047157979131835
-0.011460200276521651
-0.013678232454326391
-0.010289824124402781
0.0002592176421565575
0.016722066065799575
0.033796218804710364
0.04191002591269029
0.0286100205758057
-0.01839476357825693
-0.10723395587863759
-0.038305366882418077
-0.0026509222519404585
0.01686217522009092
0.041865060451859705
0.09364157396976512
-0.011237983694540264
-0.06363905108585238
-0.06273833834878216
-0.015643026328299295
0.06360886127113517
0.1556998592202959
0.0390262658321837
-0.10549320452147347
-0.08858416007316089
-0.10802435900180896
-0.14801099992684633
0.01597425306584002
0.2076946667642563
0.2395767382387268
0.10587374475873157
-0.016582806359732912
-0.159483783353988
-0.14936003095014683
-0.1949463630207342
-0.0812225647028399
0.026902509135344817
0.17221916017827682
0.18868198364036065
0.08699452907229062
0.047826773775466
0.025322931675541324
-0.04006203488578721
-0.2033992831717722
-0.09747284660460825
-0.12095912745412621
-0.03646727164440757
0.020724888804523493
0.12570753836946405
0.14372931377589415
0.11268902846322804
0.033402009960305644
0.07030248217203491
-0.037866999015081136
-0.16068044635839884
-0.15714903644260556
-0.06092681107637302
-0.0738625845909477
0.03058452457551302
0.09572900250307288
0.1660078625964211
0.07251756301881389
0.024279376752568728
0.007633297847943145
-0.006570044769635247
-0.05063226295130604
-0.14653136035492195
-0.09559871387637012
-0.07484734100391079
-0.04159217802029186
0.05459551653618093
0.25616914583919564
0.18339144430850707
0.026801506707199975
-0.05070929675294159
-0.10296825832356502
-0.18489568370906456
-0.13787638141417025
0.01902732694621557
0.0898532876391679
0.09558297289333076
0.06446830079712731
0.022780408612304147
-0.011229035149669239
-0.029238748763067566
-0.03135206684844278
-0.022742460625134894
-0.010073242736746283
0.0011699123055087745
0.007970537318464569
0.009816698417179115
0.007938448722537579
0.004281563501860415
0.0006355590202537635
-0.0018685636957090157
-0.0028701477746108507
-0.00260899282447124
-0.0016303539502482518
-0.0005028807731850857
0.0003672299760208268
0.0008032103281686425
0.0008285753509783431
0.0005862349735641142
0.0002500844127654039
-4.059805272822725e-05
-0.00021186633009184528
-0.00025416963433738036
-0.00020168007342745713
-0.00010557881462973621
-1.18495363962619e-05
5.115170379950857e-05
7.506470382557375e-05
6.678835070258652e-05
4.0725303297895744e-05
1.1535032177700593e-05
-1.0531694317479727e-05
-2.1210116210603347e-05
-2.135291487503316e-05
-1.4784888493733689e-05
-6.018740247804506e-06
1.4047375541528547e-06
5.6638270347918025e-06
6.5925931781110365e-06
5.124521741862612e-06
2.5976601164910804e-06
1.8880041951508305e-07
-1.394251324637914e-06
-1.9611466539318297e-06
-1.7083080563825716e-06
-1.0156334896676948e-06
-2.6065113988722715e-07
2.9833311690673106e-07
5.589963086957645e-07
5.49618795746364e-07
3.723001995957812e-07
1.4401120060858834e-07
-4.5342449792610555e-08
-1.5101492414353444e-07
-1.7078771460374402e-07
-1.3004278522831456e-07
-6.371124921219479e-08
-1.8739298314644218e-09
3.78372798351265e-08
5.116547921757993e-08
4.364405392213796e-08
2.527563344200566e-08
5.771637689142666e-09
-8.369040053679305e-09
-1.470671647611152e-08
-1.413088301738692e-08
-9.360163138925867e-09
-3.4228073445831607e-09
1.4013061306664484e-09
4.0167470741064254e-09
4.419114407572515e-09
3.2957158781162783e-09
1.5572102524194025e-09
-2.838734846161599e-11
-1.0228045653153916e-09
-1.3330745133214774e-09
-1.113707908850594e-09
-6.276237857454274e-10
-1.2435050115969005e-10
2.3286566049421177e-10
3.862767622130441e-10
3.628950347918628e-10
2.349406537136477e-10
8.071852722522674e-11
-4.203385260463159e-11
-1.0659681501714158e-10
-1.1420873929280352e-10
-8.341198225705089e-11
-3.7915806051250804e-11
2.6943957755725805e-12
2.7549802744866768e-11
3.468608901700407e-11
2.8385658797677163e-11
1.5548058775703626e-11
2.5772832431114325e-12
-6.433225969438322e-12
-1.0128482235168641e-11
-9.308718889285497e-12
-5.888209770587262e-12
-1.889001673724119e-12
1.2294329267916104e-12
2.8188644659055617e-12
2.946497122173851e-12
2.110966105737539e-12
9.277941442893e-13
-1.0627542624683669e-13
-7.252675139635038e-13
-8.923837532936748e-13
-7.266452280890349e-13
-4.0681328666238157e-13
-9.112643025330344e-14
1.2714402389286916e-13
2.2634886544942773e-13
2.3572359661288784e-13
2.0285125638749384e-13
1.64077642355578e-13
1.2806531579420983e-13
7.662839065146227e-14
-1.8976853978948947e-14
-1.7314632721440377e-13
-3.6272134668704155e-13
-5.169946667529386e-13
-5.303993605649779e-13
-3.012412272067241e-13
2.1021167179432677e-13
9.230131163623608e-13
1.604819662562593e-12
1.899777210309491e-12
1.4342240062501042e-12
-7.625227681790836e-15
-2.284504807980501e-12
-4.7600793487861735e-12
-6.3294240323433405e-12
-5.692129254841687e-12
-1.880292778685024e-12
5.071056029721553e-12
1.3558897682062516e-11
2.029213029354086e-11
2.0933816304517293e-11
1.1631650411636614e-11
-8.802111850494845e-12
-3.675863958839394e-11
-6.282693272666394e-11
-7.306401246701916e-11
-5.3235830754612974e-11
4.336825588125924e-12
9.318921755154179e-11
1.8768899933172651e-10
2.44542845477305e-10
2.138812360315134e-10
6.001806506235509e-11
-2.127300834246732e-10
-5.389524221074336e-10
-7.889186358556703e-10
-7.9517933318472e-10
-4.1319488237299364e-10
3.941352504164055e-10
1.4758276884979452e-09
2.458052809406925e-09
2.799018019231549e-09
1.958482235049115e-09
-3.3510278635784304e-10
-3.79481080646015e-09
-7.392487754743336e-09
-9.435213433986757e-09
-8.013752993040205e-09
-1.8179073903336023e-09
8.870097371437368e-09
2.1390403578391473e-08
3.063629766727884e-08
3.015066200119547e-08
1.4524345306169314e-08
-1.732983553010457e-08
-5.9132707262757455e-08
-9.60575712737508e-08
-1.0707582580151071e-07
-7.172047241592366e-08
1.9501397207324437e-08
1.5406061871949851e-07
2.9079826511778236e-07
3.635919244415704e-07
2.9945246506972044e-07
5.050877075259053e-08
-3.678212146371432e-07
-8.476938025233582e-07
-1.1883401541610693e-06
-1.1410722350127734e-06
-5.040270849225796e-07
7.511726616406679e-07
2.36473746779996e-06
3.7494789715130287e-06
4.090154826084251e-06
2.6128655824342296e-06
-1.009556664797962e-06
-6.237017032992242e-06
-1.1424940317457461e-05
-1.3993673268148372e-05
-1.1157036779030039e-05
-1.175531847479863e-06
1.5178878580677858e-05
3.354547839842759e-05
4.604081843744265e-05
4.309912504870735e-05
1.7210018736960862e-05
-3.218721969598325e-05
-9.43935321138879e-05
-0.00014618729532178364
-0.0001559999845751086
-9.462914835122909e-05
4.899630183747455e-05
0.00025183524445086466
0.00044828828992352575
0.0005378221214455854
0.0004142345641898572
1.4699560683414815e-05
-0.0006240952005021013
-0.0013262612759557847
-0.001782567468732631
-0.0016253660846797127
-0.0005757036336882025
0.0013680688960047674
0.0037691844325743458
0.005714401703063867
0.005989414028450656
0.0035053520330822047
-0.002088256351924145
-0.009799167240914035
-0.017003346747133437
-0.019805714629462318
-0.014269718262199848
0.0015472981771792265
0.025217769843036787
0.04808056044827642
0.05492243486630129
0.026008543627689167
-0.05843661481082927
-0.012191503507991355
-0.0371973594989173
-0.11996967372259132
-0.031892853486245536
0.0660314799648209
0.014869009021365573
0.04812717613023041
0.18375564446542159
0.02035628952096412
-0.06115421368478276
-0.09116817788222058
-0.10290761734202555
-0.12523778409503966
0.020645974917510385
0.12015239659099104
0.16170252570521795
0.13390638516483816
0.02641567454995484
-0.16487558536475444
-0.23061799734523875
-0.14319235650207957
-0.0584518399170544
0.07458095058697432
0.2986594039126157
0.233699534165853
0.0690752505153159
-0.033159551525915355
-0.12466309365795201
-0.25185641934314074
-0.23906491520487433
-0.08050315088959122
0.05560625647099689
0.2124254544813678
0.2254679362201868
0.3071801945886981
0.041781098426504105
-0.2073362207584878
-0.28089857033902477
-0.20529018891981954
-0.1807373654548658
0.01849481925570238
0.23194457869228707
0.29419195757587757
0.21777426196740246
-0.014677142904712939
-0.045596017994593084
-0.12688757907649445
-0.2998520593984241
-0.17846031762670472
0.0576994919933218
0.05834592109359447
0.08744883453228997
0.20375428430753298
0.04344583567361162
0.010162769490172347
0.07485522028409086
-0.015072048909218197
-0.12034122550131342
-0.0926530574082856
-0.16080377582818955
-0.12422144667049338
0.0441214159219926
0.18656546369712418
0.1455131695812195
0.14971284919866282
0.0069155733912478565
-0.09511144510688671
-0.1807532209000144
-0.07595505128556732
0.0006389270076880504
0.04193206338055467
0.05164238168829718
0.04024325944170291
0.019961628605171512
0.000785127211682874
-0.011564157897341448
-0.015706120217091273
-0.013368882075341983
-0.0076773937720464435
-0.0016540617851557014
0.002689386720033914
0.004607989340164103
0.004389585370159875
0.0028846860781352747
0.0010338025224856762
-0.000459420507484072
-0.0012609495930140224
-0.0013749579863713318
-0.0010184063915057683
-0.0004752842733310415
1.654379522300263e-05
0.00032256397927824497
0.0004155999856961843
0.00034486695530502615
0.00019257028658671587
3.61567126772599e-05
-7.408727809379044e-05
-0.00012074075890497948
-0.00011261018405255887
-7.23508942881915e-05
-2.431638879071316e-05
1.365940827012476e-05
3.342884134173601e-05
3.551378168006953e-05
2.5758914008127152e-05
1.1554351967391145e-05
-1.0363636576266465e-06
-8.679832641457382e-06
-1.0809559770673391e-05
-8.786425811023247e-06
-4.766480091271571e-06
-7.365951526190092e-07
2.042958391935533e-06
3.164643480225005e-06
2.8875610336944405e-06
1.8118254467754666e-06
5.661926791120281e-07
-3.985207343059077e-07
-8.846634638335926e-07
-9.164043231998552e-07
-6.507298864847476e-07
-2.797132816406013e-07
4.226501240382346e-08
2.3281386675218127e-07
2.8078425057082124e-07
2.2358132274287317e-07
1.1766848433362688e-07
1.3961305080990794e-08
-5.601173934314151e-08
-8.282051810616251e-08
-7.395793437556106e-08
-4.528827418123331e-08
-1.3025835505247453e-08
1.1449646868992063e-08
2.336594375951325e-08
2.3619753195074976e-08
1.6415110177213494e-08
6.737805374789113e-09
-1.4864193865667663e-09
-6.2267021728415035e-09
-7.284419323188e-09
-5.68221130496073e-09
-2.8965745417934008e-09
-2.307686953535451e-10
1.5279496082061714e-09
2.1643054630421287e-09
1.8920671620375847e-09
1.1298168984180756e-09
2.952060215311919e-10
-3.249373835303415e-10
-6.160024574713333e-10
-6.080854332795942e-10
-4.1345956612157193e-10
-1.6138505257404474e-10
4.843622155847026e-11
1.6609463699841492e-10
1.8874915824393454e-10
1.442267757013473e-10
7.108216823739343e-11
2.6355127683483413e-12
-4.149516245687196e-11
-5.64791090971057e-11
-4.8348414603785265e-11
-2.8127546595841595e-11
-6.562137071987937e-12
9.129372520803106e-12
1.6211224440609774e-11
1.5637108324896497e-11
1.03977869931556e-11
3.8403641914446705e-12
-1.5062966044213305e-12
-4.419628507535073e-12
-4.884838805102825e-12
-3.655957145326528e-12
-1.7383561738072123e-12
1.70539920428677e-14
1.1224329454636042e-12
1.4717952595756263e-12
1.2338308879692054e-12
6.984417774562609e-13
1.4184116151799257e-13
-2.5454438742167053e-13
-4.25849414260634e-13
-4.01221939917912e-13
-2.6025815533793446e-13
-8.970792592844832e-14
4.617313239527159e-14
1.174201659871475e-13
1.25201226328044e-13
9.017763134393348e-14
3.908759099433985e-14
-5.686558519923192e-15
-3.1505750662975635e-14
-3.606927715261605e-14
-2.4807876804264886e-14
-6.970302334340941e-15
8.116500267028348e-15
1.382287929615738e-14
7.819305525688506e-15
-7.422689807870112e-15
-2.5169772598180434e-14
-3.606711052986068e-14
-3.094426083088988e-14
-4.564619272475173e-15
4.0490019161206007e-14
9.129267849511259e-14
1.252934776546198e-13
1.1585028760354593e-13
4.2761844170880634e-14
-9.43325624388174e-14
-2.645079950917613e-13
-4.027774178117818e-13
-4.223784207897285e-13
-2.448426154973225e-13
1.5660450117698207e-13
7.139246108346321e-13
1.2428177707414677e-12
1.4660858270701985e-12
1.0963111715911817e-12
-2.8453542334626624e-14
-1.7920732576940452e-12
-3.696175083433653e-12
-4.883901666199884e-12
-4.354110466718279e-12
-1.3710017236681464e-12
4.019260327470557e-12
1.0557428245562802e-11
1.5687644216025458e-11
1.606442178158786e-11
8.743037035350165e-12
-7.13664427982603e-12
-2.8716318353686916e-11
-4.866957283224311e-11
-5.6219049879380906e-11
-4.044469117102666e-11
4.417484103514342e-12
7.314203650631625e-11
1.4571069974947566e-10
1.885915370079316e-10
1.634203453727066e-10
4.310244635320837e-11
-1.6829337512721419e-10
-4.1945180316601347e-10
-6.096767753117991e-10
-6.098542458786989e-10
-3.095872937170226e-10
3.1753423715974804e-10
1.1521698033670365e-09
1.903443162396945e-09
2.1527269200983615e-09
1.485799113337311e-09
-3.004635083466999e-10
-2.975454357971833e-09
-5.736733954757539e-09
-7.2735773835840346e-09
-6.117899118234087e-09
-1.2764157041110466e-09
7.00425597329962e-09
1.6639459455865084e-08
2.3667000775243735e-08
2.311000984607119e-08
1.0840684484849857e-08
-1.3892627117852464e-08
-4.6135376183926934e-08
-7.435645079768542e-08
-8.231367971989856e-08
-5.43238294714186e-08
1.6683983782899573e-08
1.2068475742868847e-07
2.2557512644392246e-07
2.8017952868360794e-07
2.2840037262342518e-07
3.400706801624446e-08
-2.899774468511918e-07
-6.591063751081408e-07
-9.176693810782485e-07
-8.740659526792705e-07
-3.7439790163695806e-07
5.998031693588538e-07
1.8438666501405774e-06
2.9013315819552386e-06
3.1427521232805812e-06
1.975494295729856e-06
-8.428362996905032e-07
-4.88164813074549e-06
-8.858945274062008e-06
-1.0778937121507932e-05
-8.501292156017388e-06
-7.120365612278731e-07
1.1949252079265663e-05
2.607073946927272e-05
3.554064711132905e-05
3.299212008058033e-05
1.270526581677847e-05
-2.5618028412163414e-05
-7.356021465797023e-05
-0.00011307758337409278
-0.00011980525701374749
-7.13957489099559e-05
4.029662024761293e-05
0.00019695781672777752
0.00034748084658715926
0.0004141170189736071
0.00031532655079375636
3.760227749765023e-06
-0.0004905626845316683
-0.0010301408609735417
-0.0013753597027793183
-0.0012432799784702965
-0.00042185753096065596
0.0010845641380356889
0.002932110292865896
0.004410351972018921
0.004580665458460643
0.0026079447725020862
-0.0017655165670916067
-0.007755324790905365
-0.013315193957901995
-0.015416318669068953
-0.010986686994627117
0.001551416355922848
0.02052155163389436
0.03968754501975228
0.048208243950751274
0.032456673310301366
-0.020299899895610492
-0.11725643943514957
-0.05615912253668466
-0.023991174530904248
0.0006559677570980699
0.04190107009793587
0.11940055474558973
0.042253531213305856
0.006278952325828617
-0.004238958851354989
-0.010852312422407513
-0.03316897892920364
-0.08155587676521542
-0.15287890269930074
-0.03111688038505396
0.10679704302730092
0.08158971273364148
0.10217580277427618
0.16006090614687096
0.030400499904915383
-0.11996956614432751
-0.12007812228236087
-0.18262721715675295
-0.09713385903678201
-0.031740314497816224
0.056205808622016726
0.20419597234916884
0.22906603978307388
0.11817656563373259
0.031409798148904704
-0.08583699309030399
-0.28285746043223114
-0.18423625660964868
-0.1783537766724535
-0.01865412945952095
0.16216714601284699
0.22983747312278455
0.22603264367374384
0.15390635905512495
-0.023199929598357885
-0.16961605679100533
-0.15640997672267867
-0.23923382521564013
-0.04245731332208847
0.04570797990414497
0.06658779647816493
0.07624528300642891
0.1279270686010454
0.05722429699700319
0.07388400765282883
-0.03816470896397115
-0.11352299187682505
0.006280070551983952
-0.11514387099854242
-0.0999785028275209
0.047758291567972434
0.14084590838844185
0.0037061069967670806
0.06593706820412279
-0.043352463708326315
-0.09959311048934164
-0.0856357966720123
0.005697667991824898
0.1692792141896144
0.18674078063300478
0.028833352310477317
-0.13794127160970532
-0.14180010631438517
-0.19690332877431255
-0.09945943899150234
0.16909228246349017
0.2330300258638074
0.11162132499158037
0.011673606634672798
-0.07362886733124911
-0.15996144055994851
-0.06424338988060889
0.00204329597569341
0.03606206204542534
0.042939574534623264
0.03249157397296613
0.01527806670096841
-0.00045395504205110676
-0.010207178344501631
-0.013110601365032549
-0.010788015094839941
-0.005904658450430285
-0.0009425048705185503
0.0025089452051503245
0.003919937439755222
0.0035950572349588987
0.0022705488562796273
0.0007252717895373682
-0.0004784161984570626
-0.001090854592028636
-0.001138279830059713
-0.000813414049249901
-0.00035427004744957753
4.6682621329122095e-05
0.00028580250215165087
0.0003479704496729249
0.0002787943152488966
0.00014808581325425095
1.920331296143214e-05
-6.833416293681705e-05
-0.00010241428455066294
-9.204269267526639e-05
-5.677887431280859e-05
-1.6760938956028952e-05
1.3786487296357238e-05
2.8816078038296575e-05
2.934031400745849e-05
2.052297239920279e-05
8.544319006322307e-06
-1.699373231716347e-06
-7.65104629571338e-06
-9.03111022357516e-06
-7.0882009748199615e-06
-3.6485661340521733e-06
-3.344603359209227e-07
1.8667961382326146e-06
2.6775020915221093e-06
2.3555541208078636e-06
1.4173236238023954e-06
3.817113342657049e-07
-3.9258801325911737e-07
-7.600983494676642e-07
-7.556184533492569e-07
-5.171628515863434e-07
-2.0501824851121807e-07
5.641764046184761e-08
2.0424581814621468e-07
2.3409341468549566e-07
1.79982883117924e-07
8.962182300814864e-08
4.500517506915852e-09
-5.076241008417117e-08
-6.990040127579297e-08
-6.021303278535008e-08
-3.5307508192633195e-08
-8.539040101582808e-09
1.1061097355295734e-08
2.0013733980644378e-08
1.9437624625460475e-08
1.3011953549135954e-08
4.888725060407801e-09
-1.7755851915876484e-09
-5.4386803222331414e-09
-6.060544254362727e-09
-4.564190283278443e-09
-2.194158791959337e-09
-1.0353569193943723e-11
1.3746532146959838e-09
1.8223489965685894e-09
1.5373688471577841e-09
8.776602519246912e-10
1.8656030434409115e-10
-3.0889967747374803e-10
-5.260736745526577e-10
-4.994449729769455e-10
-3.2685635116059413e-10
-1.1573073663908815e-10
5.394440448740284e-11
1.444832081325729e-10
1.5671708420815615e-10
1.1558956278290151e-10
5.352282347387876e-11
-2.4389803498000925e-12
-3.708763579514571e-11
-4.744629868974868e-11
-3.920564651706667e-11
-2.176614052751413e-11
-3.944265119960303e-12
8.562207433844741e-12
1.3805555029824832e-11
1.2818221925176139e-11
8.196392248742338e-12
2.7161412154294784e-12
-1.5982894960348103e-12
-3.829609905107615e-12
-4.047022149381487e-12
-2.9223948527140273e-12
-1.2994598185824738e-12
1.3240824505575345e-13
9.965371928666752e-13
1.2317093520611508e-12
9.955766423037825e-13
5.352738765888298e-13
7.753222665217221e-14
-2.3469013587932984e-13
-3.564214185066436e-13
-3.1929561587848245e-13
-1.9413497558327825e-13
-5.4765721637473017e-14
4.641439235136461e-14
8.801066152181572e-14
7.673716060314838e-14
3.705330717537848e-14
-1.5708128432325751e-15
-1.5986887422647593e-14
2.8754917762659117e-15
4.685928403402034e-14
9.250603341267905e-14
1.0817180212546597e-13
6.572905183308172e-14
-4.520405790696261e-14
-2.0460076314614468e-13
-3.568235498367915e-13
-4.190372818998523e-13
-3.0681145642851987e-13
2.550193486062448e-14
5.405226810787991e-13
1.0888840821002276e-12
1.4184345382584326e-12
1.239110171625147e-12
3.4385697504428065e-13
-1.2413447508119226e-12
-3.1352705605319594e-12
-4.5833330518006375e-12
-4.612854902452354e-12
-2.38585371996123e-12
2.3098498463247297e-12
8.592902913061372e-12
1.4288113466093608e-11
1.6247482492117062e-11
1.1336961894844284e-11
-2.010940109662249e-12
-2.211541240257915e-11
-4.299028099890809e-11
-5.479515502587984e-11
-4.6447852600602355e-11
-1.0365129824111299e-11
5.176926981798948e-11
1.2445555504674799e-10
1.7799721293034164e-10
1.7489578430825372e-10
8.38023058858898e-11
-1.0146398498915278e-10
-3.442612544997264e-10
-5.583272841551212e-10
-6.214898768821692e-10
-4.150323076310357e-10
1.1579521934385078e-10
8.976654721740196e-10
1.6909713293612544e-09
2.1113945927260594e-09
1.7353102986963977e-09
2.857420585565632e-10
-2.1460194841332207e-09
-4.931652768774003e-09
-6.903744396769689e-09
-6.618206401400019e-09
-2.905358971268246e-09
4.394354739307781e-09
1.3765429372180653e-08
2.1791908371478228e-08
2.373774967801398e-08
1.5114616175491764e-08
-5.96241326497189e-09
-3.6334816511343283e-08
-6.642983541640623e-08
-8.125508642261482e-08
-6.464136547749951e-08
-6.528067299954511e-09
8.853314248358751e-08
1.9514005727571323e-07
2.6745630578718613e-07
2.499397397364794e-07
9.908109643550255e-08
-1.881695733093546e-07
-5.494159943380408e-07
-8.495786867413036e-07
-9.052770433374268e-07
-5.471672082313266e-07
2.8845477785787823e-07
1.466941819183156e-06
2.6065232392278557e-06
3.123010233261184e-06
2.4002051427167603e-06
7.499610911551329e-08
-3.636795851824937e-06
-7.710746838998048e-06
-1.0349346879057564e-05
-9.419122856074409e-06
-3.3070499100456973e-06
7.982436079877152e-06
2.1890800691825494e-05
3.308382678099832e-05
3.446932407335576e-05
1.967191093784839e-05
-1.3409020378679889e-05
-5.9082874119290115e-05
-0.00010215003038299116
-0.0001198731830616797
-8.88076414745021e-05
4.055182326545187e-06
0.00014881926272469867
0.0003042659788019133
0.0003999861459639887
0.00035413479196998155
0.00010712665434689052
-0.0003360807088580882
-0.0008709687612150569
-0.001287176859532473
-0.0013107280021498976
-0.000702095187413473
0.000605831268944809
0.0023747487763161666
0.004001415301224448
0.00460367026105231
0.003294223682798304
-0.0003836015479169075
-0.005978911787217623
-0.011826621244583871
-0.015162642362350614
-0.012852834052860551
-0.0027413980099232752
0.014668597694046182
0.034804826224294295
0.048679483287260385
0.044302785158137535
0.010047766045370244
-0.0607177315741021
-0.16539036606066926
-0.09048268371343998
-0.014279304092108248
0.08620942364840087
0.22634450161664882
0.2070361945946784
0.013826368485561564
-0.17675133631234416
-0.18585752406411915
-0.22132182399958578
-0.07247568414345473
0.08619665984941836
0.28386348340926987
0.13957932982754234
0.0521775038128258
-0.001729153704928695
-0.06090577283152799
-0.1667422927135257
-0.14960124675010303
-0.01924962152482649
0.03752305194741915
0.05187261681708013
0.06283843488786392
0.10596772544992233
0.004158065336992875
-0.03703100329412478
-0.02905762150912483
0.004025437799411899
0.032493006901733255
0.028773312207283977
-0.025202098839264404
-0.13250967634124544
-0.07913599878255616
-0.036537640150334345
0.031009410815530263
0.15596109354486842
0.15728447009388058
0.03422371907990579
-0.03345541272161405
-0.07877093459005338
-0.13694874265752627
-0.03484795623073391
0.016134005453189708
0.021876210498927347
0.0022344208713572108
-0.01583759958006773
-0.006692466036352601
0.04613905902771037
0.14456076661969255
0.07472753043307073
0.01102244995976814
-0.07542027283995306
-0.20625850927631195
-0.18755661176310096
-0.0072103920899837855
0.1603223098543154
0.1438307615123979
0.1641825442988714
0.02703555854918866
-0.07777653413640062
-0.17065940080510703
-0.07364186823889345
-0.002724480122832987
0.036007143715273145
0.04593435185924555
0.03644749176670201
0.018557248337743998
0.0013309391675289882
-0.009954826824012478
-0.013925694112918694
-0.012035311672273044
-0.007042334891329974
-0.0016589497892597585
0.002281140869101792
0.004071847158142067
0.003939713445925089
0.0026296886354297247
0.0009816274741451772
-0.0003669911407129056
-0.0011058447574378764
-0.0012285614720225118
-0.0009231701494000703
-0.00044211626047934056
9.614610319616597e-08
0.0002798513286748659
0.0003695873110634709
0.0003111141309670872
0.00017709972346318292
3.707815522011445e-05
-6.308130873552124e-05
-0.00010678585936804428
-0.0001011408738321325
-6.603073468589142e-05
-2.322508254426068e-05
1.1101919246424473e-05
2.9360107988742538e-05
3.175755969562209e-05
2.337171538860088e-05
1.0777776623533865e-05
-5.516792809917811e-07
-7.548237190343843e-06
-9.621498747288958e-06
-7.933104387946033e-06
-4.391048660427313e-06
-7.806123004616583e-07
1.7472655197525313e-06
2.8019101509077106e-06
2.595518058169746e-06
1.655577406938243e-06
5.445894645431465e-07
-3.281925144685331e-07
-7.780967817795867e-07
-8.201383545241813e-07
-5.909997492955306e-07
-2.6172615401868134e-07
2.8230875957469764e-08
2.0289483401130445e-07
2.501437409405671e-07
2.0203879470591164e-07
1.0860010879266198e-07
1.5613559219035658e-08
-4.809134166784197e-08
-7.340380372827066e-08
-6.653081274385256e-08
-4.1436009953993225e-08
-1.2636755924280723e-08
9.526110296129937e-09
2.0578932721352058e-08
2.1155449092113047e-08
1.4923427790036452e-08
6.326682878464471e-09
-1.0856313006426572e-09
-5.437162655184253e-09
-6.495100139853333e-09
-5.1391612758438105e-09
-2.6786853320054263e-09
-2.8656473162054217e-10
1.3163809189402302e-09
1.9201458565160385e-09
1.7034211756212503e-09
1.035121136049093e-09
2.894847509388831e-10
-2.725770043367752e-10
-5.43218859584363e-10
-5.450750445626919e-10
-3.7628130343706223e-10
-1.521449035034019e-10
3.711752949806357e-11
1.4529702406358482e-10
1.6843908797856124e-10
1.3055838821440784e-10
6.587838154066329e-11
4.410280262243916e-12
-3.5858210936832185e-11
-5.015614959666867e-11
-4.35630522928642e-11
-2.5807281065196776e-11
-6.5251528053981935e-12
7.71010413441116e-12
1.4313095658006755e-11
1.4027876552604277e-11
9.47315791948025e-12
3.6372380958434005e-12
-1.1895596105288908e-12
-3.8727286641412134e-12
-4.362860549985356e-12
-3.3125371927799463e-12
-1.6150255057403587e-12
-3.73398525341842e-14
9.72564820630894e-13
1.3082985514998555e-12
1.1127678819561086e-12
6.420570388177604e-13
1.4400860390314044e-13
-2.1603325228880648e-13
-3.764828102836278e-13
-3.6061033693296063e-13
-2.3812151405912096e-13
-8.636751242780939e-14
3.658295658045132e-14
1.0296923861130432e-13
1.128642388230589e-13
8.392950154438314e-14
3.944826796616354e-14
-9.994601485608915e-16
-2.628240542110218e-14
-3.408614074001186e-14
-2.8396699260987264e-14
-1.5943713531799447e-14
-3.094327761942047e-15
5.999111321138746e-15
9.880452296981629e-15
9.253596052957934e-15
5.969698217203035e-15
2.028589723671678e-15
-1.0994238651962762e-15
-2.73756679569069e-15
-2.9221962518336053e-15
-2.1295591997630818e-15
-9.657320527070764e-16
7.005064546820986e-17
7.018313387429984e-16
8.809790476871891e-16
7.178655093011867e-16
3.8905294059312484e-16
5.792826574601625e-17
-1.7140629672539932e-16
-2.6482197338769963e-16
-2.4310712111498014e-16
-1.5531595861181979e-16
-5.3091262368867317e-17
2.638983767164e-17
6.669595930761883e-17
6.964608142400017e-17
4.8039690600249335e-17
1.7632862062839952e-17
-8.860724492419952e-18
-2.461687881960977e-17
-2.8665874712281655e-17
-2.4044717698744383e-17
-1.5378612560110964e-17
-6.855423200075751e-18
-1.0804088054238041e-18
1.154932724446158e-18
4.53549736752668e-19
-1.8873037731361703e-18
-4.535576388945687e-18
-6.552566431471448e-18
-7.541170850314326e-18
-7.570803860161947e-18
-6.984418134245579e-18
-6.191103398361305e-18
-5.514232305246283e-18
-5.122105195778741e-18
-5.032421828691202e-18
-5.162071898486249e-18
-5.3900745624180595e-18
-5.609211714808585e-18
-5.754406792241912e-18
-5.807540342832564e-18
-5.785854605406831e-18
-5.723589964921518e-18
-5.655065172360912e-18
-5.603947106983604e-18
-5.579782862396725e-18
-5.5802083701577785e-18
-5.59606008402516e-18
-5.616729590506996e-18
-5.634002224929655e-18
-5.6437394811433265e-18
-5.645672487800754e-18
-5.642064682513759e-18
-5.636075995755327e-18
-5.6304482573454025e-18
-5.626803776525092e-18
-5.6255506212693504e-18
-5.626201316056076e-18
-5.627853747483042e-18
-5.62962474651454e-18
-5.63091852545479e-18
-5.631506915644086e-18
-5.631465504022775e-18
-5.631038505557874e-18
-5.630500680289925e-18
-5.6300604381633035e-18
-5.629819219336262e-18
-5.629779148419631e-18
-5.629878846717113e-18
-5.630035893960704e-18
-5.6301802567936365e-18
-5.6302715777152315e-18
-5.630300860782434e-18
-5.6302817588895026e-18
-5.630237998409982e-18
-5.630192281113518e-18
-5.630159581475587e-18
-5.63014531519164e-18
-5.6301471609949975e-18
-5.630158625972728e-18
-5.630172602304407e-18
-5.630183809492466e-18
-5.630189769850459e-18
-5.630190551744741e-18
-5.630187813209678e-18
-5.630183701107088e-18
-5.630180002152918e-18
-5.630177718041504e-18
-5.6301770413998555e-18
-5.630177592860714e-18
-5.6301787494301885e-18
-5.630179928227662e-18
-5.630180753510705e-18
-5.630181097767269e-18
-5.6301810303117934e-18
-5.6301807233844656e-18
-5.630180360641732e-18
-5.6301800756948115e-18
-5.6301799288259955e-18
-5.630179915121975e-18
-5.6301799899497465e-18
-5.630180097461821e-18
-5.630180192129531e-18
-5.630180249150319e-18
-5.630180264569912e-18
-5.630180248858595e-18
-5.630180218348731e-18
-5.6301801879890004e-18
-5.6301801671912e-18
-5.630180158928885e-18
-5.6301801611746576e-18
-5.630180169369016e-18
-5.630180178772066e-18
-5.630180186007793e-18
-5.630180189615888e-18
-5.630180189803543e-18
-5.630180187768438e-18
-5.630180184961504e-18
-5.630180182541476e-18
-5.630180181120886e-18
-5.630180180775654e-18
-5.630180181218495e-18
-5.6301801820218924e-18
-5.630180182802907e-18
-5.630180183326219e-18
-5.630180183523291e-18
-5.630180183452486e-18
-5.6301801832342645e-18
-5.630180182990812e-18
-5.630180182807311e-18
-5.630180182718964e-18
-5.630180182718373e-18
-5.630180182773493e-18
-5.630180182846675e-18
-5.630180182908467e-18
-5.630180182943783e-18
-5.630180182951334e-18
-5.6301801829389625e-18
-5.6301801829178435e-18
-5.6301801828977745e-18
-5.630180182884628e-18
-5.630180182879961e-18
-5.630180182882115e-18
-5.630180182887913e-18
-5.6301801828942085e-18
-5.630180182898856e-18
-5.630180182901012e-18
-5.630180182900918e-18
-5.630180182899431e-18
-5.630180182897525e-18
-5.6301801828959495e-18
-5.630180182895073e-18
-5.630180182894913e-18
-5.630180182895256e-18
-5.630180182895811e-18
-5.6301801828963255e-18
-5.630180182896655e-18
-5.630180182896765e-18
-5.6301801828967014e-18
-5.630180182896547e-18
-5.630180182896385e-18
-5.630180182896267e-18
-5.6301801828962145e-18
-5.63018018289622e-18
-5.63018018289626e-18
-5.630180182896309e-18
-5.63018018289635e-18
-5.630180182896372e-18
-5.630180182896375e-18
-5.6301801828963655e-18
-5.630180182896351e-18
-5.630180182896338e-18
-5.630180182896329e-18
-5.630180182896327e-18
-5.6301801828963286e-18
-5.6301801828963324e-18
-5.630180182896337e-18
-5.63018018289634e-18
-5.630180182896341e-18
-5.630180182896341e-18
-5.63018018289634e-18
-5.6301801828963386e-18
-5.630180182896338e-18
-5.630180182896337e-18
-5.630180182896337e-18
-5.630180182896337e-18
-5.630180182896338e-18
-5.630180182896338e-18
-5.630180182896338e-18
-5.630180182896338e-18
-5.630180182896338e-18
-5.630180182896338e-18
-5.630180182896338e-18
-5.630180182896338e-18
-5.630180182896338e-18
-5.630180182896338e-18
-5.630180182896338e-18
-5.630180182896338e-18
-5.630180182896338e-18
-5.630180182896338e-18
-5.630180182896338e-18
-5.630180182896338e-18
-5.630180182896338e-18
-5.630180182896338e-18
-5.630180182896338e-18
-5.630180182896338e-18
-5.630180182896338e-18
-5.630180182896338e-18
-5.630180182896338e-18
-5.630180182896338e-18
-5.630180182896338e-18
-5.630180182896338e-18
-5.630180182896338e-18
-5.630180182896338e-18
-5.630180182896338e-18
-5.630180182896338e-18
