0
-0.004200855375107063
-0.15554764573222374
-0.13225662404398703
-0.15103841065700352
-0.013719960577460898
0.09169439793179723
0.18476810536861235
0.08463600241896
0.004142387165885029
-0.05161014468367305
-0.0825930152256866
-0.08941739587381138
-0.07009496807398652
-0.02006335683601294
0.06429134968945427
0.1803743520699067
0.11543915998760243
0.04688694831120523
-0.05203603002377124
-0.2027380242368421
-0.21194071117872318
-0.06706959726142973
0.06079983646369089
0.20706590062906374
0.20082146431889886
0.05466158633431457
-0.038733949242880455
-0.10234189656124901
-0.16538419081231134
-0.05313218083266467
0.02009122327184606
0.05278558571645164
0.053547095531137213
0.03588959373276455
0.013048837135521862
-0.005536493894692126
-0.015486880212305605
-0.016838912737345293
-0.01233890983504653
-0.005559324742746497
0.0005305942448520004
0.004272199432544229
0.005352969689674034
0.004408312922061902
0.0024740622999626528
0.0005155008125904164
-0.0008483246265554471
-0.0014108308983093237
-0.0012910222019396082
-0.0007768909249164627
-0.00017357764550921857
0.00029807881200545025
0.0005394491840311301
0.0005599772211665696
0.00043450980800469177
0.00025587847507025014
9.927697960524343e-05
5.239431970993503e-06
-2.0267770400527404e-05
5.0768373184506625e-06
5.432628413733376e-05
0.00010330894557030764
0.0001373571552076439
0.00015245543110932875
0.00015238322436192506
0.00014415926300029915
0.00013390124691622262
0.00012447118672991513
0.00011535898041555525
0.00010443327409571029
9.060240671728923e-05
7.613908976379102e-05
6.746159038000307e-05
7.356010641358356e-05
0.00010201276106593483
0.00015356607180207495
0.00021732080036540878
0.00026925582568310054
0.000276637926512611
0.00020940044179800085
5.6790689584861344e-05
-0.0001559399345888404
-0.00035902202372601276
-0.000446744779183357
-0.0003087672341178005
0.00011812151769500589
0.0007914733231499235
0.0015228288758020016
0.001986004660408636
0.0017981938646431947
0.0006762037057758929
-0.0013655560295029459
-0.0038487782652720636
-0.005797400692278732
-0.0059307897846543325
-0.0031229358632803633
0.002939312865125345
0.011098473354773986
0.01837701733410506
0.02026064137153125
0.011802497791942184
-0.010567882027771515
-0.04705262143145622
-0.09316064967246677
0.060106934507761736
0.02423015161586741
0.009807524583140086
0.023011574329389856
0.06308483455902007
-0.07835549790069193
-0.016096624108760695
0.031363418032390955
0.045331896318506905
0.010719939203344008
-0.08034799231481846
-0.025804895884946548
-0.012734028735916895
-0.01905001055705052
-0.017848639166713275
0.016365490386564863
0.10108735375094205
0.040757536878772885
0.025009871479372756
0.031178512342430912
0.030710358707112317
-0.2022499027627774
-0.08281029809846964
-0.010638012220451628
0.02963937640285902
0.06318517313783759
0.11698805678543427
0.012108085288878263
-0.04148568108158469
-0.04652232879513379
-0.016944419033136714
0.025505811397800154
0.055623784242945125
0.049496167549096755
-0.010662962197642033
-0.13235784984436144
-0.11081221883996797
-0.13081825208169598
0.026842417694653332
0.1758570787109049
0.31564275325344326
0.22856896622013917
0.08694136180660847
-0.3306217818387958
-0.4192139528812499
-0.33365810476795904
-0.1896151616158488
0.11651327287677202
0.47337093604357133
0.5178402002731994
0.2101129439996045
0.031730118525711094
-0.1905399488908212
-0.24143492730895522
-0.2674433455212819
-0.13503294747066652
-0.20842909708227528
-0.15290836161666208
0.036853287297227595
0.1898233905327244
0.30415120554498176
0.2985981032641341
0.18219854509702255
0.050000686142690494
-0.09392535096952387
-0.09174675935666954
0.02422785325405175
-0.11347823612928704
-0.565895600783449
-0.46968017825283787
-0.24925620065570334
0.3415876361723895
1.358625592288942
-0.5957010389863816
0.3816091060250681
0.27659622915130117
-0.22901191409965613
-0.9218215750928684
1.3911057587260727
-0.8702486439327949
-0.6223416285479564
-0.3007750998817431
-0.06715636066475947
0.1616764140184977
1.8733596120201264
-0.07330372726752848
-0.05863337337488308
-0.4851320836131869
-0.9445938017495068
-1.1902046241646256
0.6675340962371151
0.7351907241699699
0.49202928055126804
0.5487304438716571
0.22991568997188075
-0.21024545733182912
-0.7447916649180975
-0.5198630490414793
-0.21024692671148232
-0.00014960571110298257
0.2060911626019232
0.3499933772689277
0.37536705237950335
0.18994336129059242
-0.1574160887142028
-0.2808226650499838
-0.24651949910875853
0.04579132732366959
0.2834425903410216
0.3607987774166326
-0.0008118296689031654
-0.4335397176599647
-0.30780277086553864
-0.3285169992583352
-0.14893381913018416
0.19739600377832106
0.6538428796974955
0.5005176066585976
0.13102802442340078
-0.14506413364354642
-0.2752551602111553
-0.42322484830208207
-0.5293369236315841
-0.08591383786708798
0.266524305694152
0.5254289266941242
0.505894220653103
0.22690862183566057
-0.28776030153590765
-0.5954848673161998
-0.41769804291567797
-0.23306718735242404
0.11025384969500669
0.3638569410204328
0.4396714811842245
0.3765398990649264
0.12569737293221614
-0.2390148942183089
-0.2896074116109824
-0.20188135562819448
-0.31636235707242516
-0.11328159405376756
0.19325541955445544
0.24357799354141058
0.11015144402049515
0.07348338063460375
0.003345349610150001
-0.051324060898336826
-0.06410138594137738
-0.02681699812120265
0.05759201446987667
-0.017427306757077928
-0.05592107400023405
-0.055814484736448185
-0.008611674366085896
-0.10269236985394561
0.07046877248782137
0.10905252882936835
0.19551566622753264
0.09611484626712075
-0.03296545411478252
-0.23387512280108433
-0.13364686307183932
-0.1343636022949323
-0.01122628736922286
0.08031930520133157
0.19089599174448235
0.16197305895220337
0.014484688255103562
-0.055221340865812985
-0.07175419282882836
-0.07183206712288641
-0.09395284272305694
0.030138372164038727
0.08046969181015698
0.05038336360345907
-0.05428027162320618
-0.01718894272032038
-0.01418940230748917
-0.01666106429845383
0.004441714818752423
0.0742675475728604
0.010275688721088486
0.019835863999265256
-0.100322870408615
0.036998403758662805
0.011626590461475978
-0.0013349384800741618
-0.028589728902564785
0.10454486912541985
-0.022403562581198532
-0.02158589858571529
-0.09400413928394843
-0.028390689011458387
-0.002775345166435135
0.011045144511772614
0.04106002026028294
0.10846046529464702
0.02300530452482138
-0.018138553579754014
-0.027749669479951795
-0.0230921107244936
-0.01949074483391625
-0.024912810598986423
-0.03709074840811498
-0.04403243355332884
-0.02796992159759859
0.028103711346226645
0.1331126803741859
0.08230298741187367
0.0558462798472858
0.02299257877295611
-0.04886589639096992
-0.18295728406793776
-0.18378379218127744
-0.033575033443066775
0.10345913345648589
0.07014898585242972
0.10253726436294446
0.2182456486739487
0.011179375057076935
-0.14575534921721323
-0.09132705016092077
-0.06387592014433383
-0.0909047123527667
0.01643307761342085
0.06302407150520295
0.06490896227088687
0.042359940394240216
0.01357817925507904
-0.009210947862350511
-0.020775506553381624
-0.021597661971036186
-0.015427345488377289
-0.006793462147589288
0.0007643970041144329
0.005459565342385789
0.0071391398278669894
0.006638699293107437
0.005019498696348852
0.003011131884180198
0.0008255291410777719
-0.0016604869018517075
-0.0044949953442033706
-0.0072369357550372115
-0.008775985452738243
-0.007561934838099436
-0.0022826588886682227
0.0071613928037444225
0.018736867906736412
0.027891225094563814
0.02814855577113877
0.012871839216481877
-0.022118567438242497
-0.07598049211127525
-0.14167649560975215
-0.007389078843249627
0.1392676766184754
0.10563404786875072
0.08965792956278709
0.07938809922363355
-0.14281260929200354
-0.19289607558762903
-0.07798589921361225
0.007076822871941623
0.07789397693168958
0.15448966271179235
0.05417065128472614
-0.013513190774802165
-0.0479757411368645
-0.05531601235676368
-0.04439040987033688
-0.023370327221912974
0.0018058887739216961
0.02685493362969447
0.04728461988376632
0.056681596477978276
0.046540749892137
0.008342791822007513
-0.06254204974281723
-0.16272720075487448
-0.07871847568116255
0.011320704476772532
0.131770291354961
0.10167957914141672
0.1281465716245743
0.0039609285208340485
-0.08940286965671486
-0.17488828575683113
-0.0723131825944755
0.00645530399641801
0.05788767907141999
0.08342632307423356
0.08485309163711655
0.06123875962470453
0.009277085468830309
-0.07305052308104315
-0.18141025233846744
-0.10166673092224221
-0.010711897201533694
0.11764401028673124
0.1035356439547552
0.15240670549963678
0.05079206407468593
-0.03126397118869548
-0.13167872932824448
-0.08474812278675732
-0.11076644027808016
-0.010509206852571642
0.033766957595364584
0.05161667060335421
0.07473376907111683
0.12784893502794037
0.023250993056799455
-0.03951980316857708
-0.06927908990907988
-0.07636462382472702
-0.06642304373879486
-0.037400372260447574
0.019141404780722196
0.11306656930799103
0.049216576632140824
0.022171737444073813
0.014357141042577007
-0.0017143769280941051
-0.057696755707532486
0.018224735518617963
0.008878404992772468
-0.08630150052323815
-0.04912356746973502
-0.04488939502432879
-0.02918570851567676
0.04184925855338912
0.2001894798234529
0.05679561549332684
-0.002237429231615823
-0.01272547223613266
-0.023345960644422025
-0.08310871013556952
-0.02881073818754645
-0.07572174319266779
-0.013769784824714509
-0.01008978377145266
-0.0172841501193125
0.014577803415037453
0.12513115616363255
0.13338501216537366
0.032895678994907966
-0.00586247888404277
-0.026381606449690034
-0.07294558959895969
-0.17751198511282718
-0.1508985935324134
0.01876123327805863
0.15984433760360528
0.10585503589091383
0.08337374580746544
0.10388431275622573
-0.03790400565167178
-0.1594298416080097
-0.08197407434306575
-0.02240759982755294
0.011885670701578772
0.023618578655608468
0.02238335231987736
0.019405796085532456
0.022309973134015608
0.03157782300468472
0.0397750609361669
0.033893950299579666
0.0003436471979025736
-0.06878638169262731
-0.17037337640916686
-0.0882872806298736
0.0034865556441864808
0.13282065877152366
0.11908653337032525
0.16460168727395375
0.051760923547767484
-0.052406270599046546
-0.1856194592626142
-0.17772118215149235
-0.04103635939523432
0.03262561796457613
0.06763106595538429
0.09519311628976279
0.1431159594142346
0.028541636763005324
-0.04402310672026379
-0.07950886297831875
-0.08614477985965316
-0.06957468702508751
-0.029911131719159944
0.03720402218704907
0.13641074844446352
0.06765148510493281
0.023067450473604003
-0.012543052705839948
-0.05780671744879277
-0.1291680271461415
-0.03611719995097037
0.020683791334129373
0.04774108477497089
0.054565036435632125
0.04908961911862572
0.03477049411640119
0.010576737482832931
-0.02620143395960149
-0.0756347515782559
-0.1314035632668124
0.020322470866779723
-0.0017461329067276939
0.020089067532457715
0.09543118432787409
0.2204333896151939
-0.02318232184097604
-0.06357752524556125
-0.12990268393896495
-0.04236810123108133
-0.20531138206086258
-0.0061827082924187475
0.17904879909712007
0.17630684950826847
0.0037232882517618145
0.0658417026667994
-0.046342940862133475
-0.15029530929853666
-0.06457384394030331
-0.0024360722316394655
0.03134375181432082
0.04000344925399703
0.031797169215677594
0.016248001420728842
0.0011444580636615007
-0.008972329138917063
-0.012840056331297001
-0.01152607671743025
-0.007152497291338138
-0.0018330423571922098
0.0029009931933107924
0.006182124871882519
0.007586869021385588
0.006879463674962877
0.003936234565367776
-0.0010681272029733457
-0.007303387977249635
-0.012994599687896435
-0.015503482124188988
-0.012016671804204439
-0.0008676462240768667
0.016795707311832872
0.03560625723378077
0.045619066316750445
0.03365498382933051
-0.013513404806307786
-0.10480714832769067
-0.04076598942017147
-0.011447769867573168
0.0025760146313176455
0.026166529041921845
0.0836732233845523
-0.007164392412711631
-0.03988444698874622
-0.02161878499091368
0.02717186226551065
0.07548090330756309
0.08704741734891959
0.028012568653890003
-0.12398978783503653
-0.17152346270966565
-0.09296443553962987
-0.04475793169713347
0.029026759240455616
0.18210389372414382
0.250997622407255
0.04500894550314189
-0.055160763162190374
-0.08976279027636681
-0.1064733168040917
-0.1460980877173994
-0.03236616047576538
0.03134708839740433
0.0582879730425987
0.06992954101924355
0.08652646735974363
0.12006436214202651
-0.028305451474944416
-0.16629402478677913
-0.10593752893476369
-0.059525817736752244
-0.03840186044265961
0.14506138279572917
0.2744195799867554
0.12848785969838114
-0.11430760833119497
-0.2667755744853381
-0.12262325142708302
-0.050187930518166134
0.005854261254780394
0.1142819971446295
0.1414635639525902
-0.06558035059986825
-0.09280173047067856
0.03357680249244755
0.24784421118485214
0.25486010106658874
0.1498802101984292
-0.15367196597546898
-0.49440257495040957
-0.44094412016220863
-0.28827557263822084
-0.07846030293535122
0.3567740660821612
0.7436524227317804
0.5221367061169259
0.22696922162799177
-0.09718778704915831
-0.4502787659564469
-0.6163641311255696
-0.5090443279714789
-0.14126071743684612
0.17143666742632574
0.37742317995757496
0.43891345872235926
0.28323310765719895
0.17090581305996078
-0.11157806426844796
-0.23570129267032497
-0.3004653086814204
-0.19989523181588265
-0.19963310793712993
0.0711259329075474
0.21252698063977876
0.23759273778109147
0.15515362322179096
0.1602373438437317
0.03621959566510103
-0.23217130469308928
-0.2406665819543215
-0.15045874309922125
-0.284356793408704
-0.1385319247814905
0.19126605079765668
0.37610234621305205
0.42440005958355903
0.46903040717540023
0.1792401919001586
-0.402819765908657
-0.8113821763359179
-0.5100681534289482
-0.26703773989752405
0.03712464148152033
0.5712890274851623
0.9002194923416676
0.3362634974458932
-0.08627979972714936
-0.4076646267524724
-0.5167982392217928
-0.5182338227363306
-0.10748235268665035
0.4373946830629366
0.6506009423212401
0.4706069963182204
0.04109425636691467
-0.4742329833610169
-0.6686473253665096
-0.47476745434608675
-0.16604887992535683
0.21679636495023463
0.6206570866210442
0.7323904743122451
0.3480371504333463
-0.02733817053397685
-0.3474066215797004
-0.5712845226669498
-0.6089703373127926
-0.2856139017705262
0.06284509634271014
0.3623011530667463
0.552806452928136
0.3388013415799148
0.15483327830701643
-0.04274127131867075
-0.15759382570537747
-0.3171292939807064
-0.231190273426227
-0.15891644808175626
-0.09300806692567419
0.035416961420856756
0.13435152850616106
0.11842695778393883
0.2762445605710638
0.24682873685132578
0.011586951618376553
-0.09658965577496743
-0.1708047450683839
-0.30208567095618805
-0.15495805892456108
0.046141096141308645
0.11684002397962959
0.10132799263933898
0.054806254745511186
0.026019981664318865
0.0445972000498571
0.11573104180439413
0.022676830179385862
-0.06426998013442825
-0.17531831109349863
-0.12946611741585443
-0.12772786418864593
0.046238314630946555
0.218694569495102
0.21518856210381532
0.05171335960181194
-0.06853467430273083
-0.1522114884794209
-0.20945676968575874
-0.0483768996135733
0.126432937792112
0.11100893963762905
0.09728113554764325
0.07007959872218944
0.0084337054356655
-0.1086475044776809
-0.09410318702772735
-0.14600343700077423
-0.04532130493936558
0.0401095956617469
0.14643755910041895
0.10272720961650743
0.12221979102439227
-0.0007591287381790781
-0.08728545842500247
-0.16548176951840055
-0.060924182057241795
0.010480985517694979
0.04501238780319588
0.04915703321005304
0.03494939734659141
0.014911871034209098
-0.001669451783903323
-0.010383968543482329
-0.011388890085903313
-0.00781896794608454
-0.003719386204901025
-0.002184320386193865
-0.004152069423275518
-0.008082257977103425
-0.010561085973617108
-0.007723815266698533
0.002793689922580245
0.019872734460786304
0.037585634962938534
0.04525766583508544
0.029409912574056982
-0.022519696634293842
-0.11762220249173333
-0.053800272107787206
-0.018653884888258723
0.008085340796907349
0.0490817767303294
0.12276680697731317
0.03804896956864818
-0.007576443746079336
-0.025780067761048846
-0.03189214750803097
-0.03819481183238902
-0.04840822764416715
-0.0553361336456969
-0.04270825206475935
0.008963612299859165
0.11403720894182777
0.07355345216105938
0.07029569204267852
0.06951883491433633
0.026103208164892516
-0.10326698407456665
-0.14627392878546217
-0.10398278007656198
-0.14689208413437896
-0.020278592319641284
0.14196520735466298
0.19897916177870353
0.1860863897722646
0.10530837580094773
-0.07347881294971004
-0.20151775167801333
-0.1347569976109577
-0.11821378258568718
0.023759215917166097
0.08917946576693565
0.09333363435213896
0.060245438681171194
0.01437848245822403
-0.02499671329888509
-0.046157567732630446
-0.044842524337945874
-0.023133513060500138
0.01158730076542187
0.04733404126505666
0.06843943759583075
0.057655400971936666
2.8480543586621094e-05
-0.11187374989045527
-0.0730227515637295
-0.0635905857261897
-0.051110446366999664
0.0024478930384922333
0.13022432265033046
0.1498185024031683
0.05625578836891277
0.021540907862727096
0.0016160849121103667
-0.051076076377187314
-0.1732846214063614
-0.17962175415472503
-0.05831557321065963
0.024026553909557404
0.10996122024962633
0.23550407675973567
0.21722501968043456
0.04738956070332711
-0.10075278666585881
-0.2597883295335805
-0.2529347611594735
-0.0836647155127372
0.06529933514402574
0.22358702990679552
0.21973922333621
0.06911423938851224
-0.03168486797336043
-0.10223324127546124
-0.16975152961371445
-0.05901790809553755
0.015037047666346923
0.04980605106900935
0.05281217690084107
0.03684948400465333
0.01487015889189645
-0.0036261071576963733
-0.014022142179196517
-0.016094268506644548
-0.012391299495333553
-0.006357095068898668
-0.0008548118943898212
0.0025922731931148544
0.003846534815699709
0.003699690449482755
0.003206404128366527
0.003080090708636047
0.0033458524881511877
0.003346074120423175
0.0020917449263843455
-0.0011467138003571698
-0.006206148504597199
-0.01161795410694553
-0.014688957025402941
-0.012265480383240424
-0.0021712089706583475
0.01498502892096142
0.034243858612072714
0.04576712084200713
0.03603954613041099
-0.008991857264844057
-0.0994321441273959
-0.03699494730844706
-0.012304755756025843
-0.005179228844047531
0.011933759271167587
0.06827976724421864
-0.01155601940112044
-0.013062691614588498
0.06493769009381699
0.009823731223572944
-0.0024123557141196433
-0.0023198285761283736
-0.02071419629815575
-0.08240278427528547
-0.001427064406053339
0.02103533066851045
-0.004285690595342544
-0.05833603325632956
0.08105984650635112
0.03367064471589411
0.01237107251496608
0.020845934889627996
0.05402957571502641
-0.09902359583138864
-0.05093158335852616
-0.011967793838142785
0.012416580494473372
0.021962677689500065
0.02023942523944795
0.012482944465257911
0.003590264434239477
-0.0031388375759452683
-0.0063635571039691915
-0.006358906739539146
-0.004316584187893878
-0.0016281672019909706
0.0006252780494716924
0.0018969484184342953
0.002148429422765749
0.0016745991776877232
0.0008889462325303708
0.00015082387657806498
-0.0003269246081849565
-0.0004907211804250732
-0.0004046678181910942
-0.00018752258228522267
4.429573907317097e-05
0.00021219126036779376
0.00028625499551621645
0.0002771567557665612
0.0002184550534798083
0.0001481480665738671
9.522074911163431e-05
7.330597705230032e-05
8.075494869250942e-05
0.00010498031703236328
0.00012875666445623626
0.00013668614188713798
0.00012065212853779146
8.34014631921638e-05
3.938375467594478e-05
1.192920368630098e-05
2.6213610404550488e-05
9.858625102895016e-05
0.00022470387002029537
0.00037097645718945266
0.0004750513606469679
0.0004602106181703859
0.0002647471045795708
-0.00011926643762549977
-0.0006112620153942552
-0.0010308233037634408
-0.001128773880926653
-0.0006700047745732897
0.0004427383554389049
0.0020413497933585464
0.0036218839497628302
0.004399066906004186
0.0035316551214510648
0.0005068382701933229
-0.004413726768992568
-0.009871626779766086
-0.013447549374570664
-0.012254228651647419
-0.004135871476384099
0.010729881830100513
0.028320541358242413
0.0400417359815172
0.03344331480984564
-0.005335190774676285
-0.08777120614611189
-0.018897068970497467
0.005637608579424195
0.00030540695787547803
-0.012073947475215622
-0.004208324040119643
0.050537510638401895
-0.02722963769948031
-0.027532243436969226
0.04604538863776999
0.17584255582562522
-0.06744427561050335
-0.11943730745957137
-0.014948503357381026
0.019036129491583956
-0.03155352757907775
0.03440217190635759
0.03273790685545176
-0.008681380294518686
-0.05432984618633414
-0.06679702327753065
-0.013803514437604095
0.12408072578896855
-0.05365924745585117
0.028038992720411524
0.12001356490926117
0.1552558409307621
0.06192428325746601
-0.01825903605426245
-0.3098915833081427
-0.18799237713052339
-0.1729023558455251
-0.14049474367289097
0.05227608451236113
0.3318339245232666
0.3721177733703575
0.16954964876782888
0.03756352057944011
0.023645319116365835
-0.05505415630011117
-0.3669629484247256
-0.424306465419336
-0.0557950498001794
-0.0012180268600425447
0.07119352289854161
0.13048789952853357
0.3420078835550191
0.23084193914382511
0.058574005752466955
-0.1825372116120085
-0.1595445185223873
-0.1790582602397361
-0.16526271526934305
0.15868821190170038
0.2840997561711505
0.1267115162940463
0.03613406284604289
-0.19418957408689647
-0.3190067160290887
-0.24044038520284364
-0.019130995999585152
0.10163183729552704
0.2632007473212659
0.3591095523032827
0.21281886397640237
-0.02723018374034685
-0.27397691425098
-0.27457368088494744
-0.17866869707123545
0.08914636326365105
0.24786735283766578
0.2695194516507607
-0.017884919292197262
-0.33216741163210284
-0.5451380449721025
-0.30094002979904694
0.15339995066369005
0.5296435316844041
0.8644066297341431
1.105438436892904
-0.6707823888577196
-0.8121603623703144
-0.8326412868834804
-0.9693928849684503
-0.7782844309164952
1.2263058965972582
1.5033937044944286
1.222121566549652
0.6386908175067958
-0.4673715435450532
-1.5063725349250252
-1.3754043663829767
-0.7839001259643024
-0.2428071377932948
0.4728173103776974
1.2069433167589771
1.0913168358572092
0.8449279738987541
0.3380959116571751
-0.3677401521079155
-0.719221918645155
-1.1437519704495513
-1.1376704119462202
-0.405107139817607
0.5362258229002472
0.890508264942239
0.8893941559941275
0.7049248275763027
0.2003235374700087
-0.26837132516855017
-0.807357196977786
-0.7197869449832431
-0.4483827493629963
-0.14808847214161264
0.3031550137787539
0.6632037244959197
0.672958911876981
0.2135939474957776
-0.11109609874403437
-0.3641690177034459
-0.4457766024165725
-0.45970005103020056
-0.09070893717076356
0.19994142656280134
0.3633329754709407
0.5464463183293944
0.4835375165598786
-0.09550653023912295
-0.6396987052493877
-0.5443849808091328
-0.32757959403096554
-0.22931981701814536
0.16093697325514253
0.6556577004413777
0.6153098911716604
0.3079281365597501
-0.10410610711445153
-0.3471796531853951
-0.3981507071155617
-0.4403173128686375
-0.2291073416642178
0.1235502810067584
0.5467434381287745
0.5989755195315485
0.25984980765671495
-0.2661741830667056
-0.5342321329421098
-0.4414456080330235
-0.4212014089949109
-0.05972259183685039
0.2641622336662182
0.726081834374952
0.6075753300341842
0.2700450652358937
-0.23799178000489152
-0.34190761861361196
-0.4835684937190027
-0.4648499749206241
-0.20950180422860168
0.2473592744443766
0.3435941549688635
0.3587022236434444
0.181092851890231
0.08588343305387952
-0.07151600728921234
-0.248328394713354
-0.4016755051113916
-0.27984189705725177
-0.024789709143402793
0.21272602993278064
0.4512223930484551
0.4605970962793728
0.35941090803397635
-0.1668735601462426
-0.6301100407422813
-0.4986098936026458
-0.3678824837366416
-0.15627037560504098
0.2709746736113285
0.6572696515226379
0.5064395556825181
0.24872294920242574
-0.16682374488374802
-0.2522076119054218
-0.3419216463696447
-0.3509606974422316
-0.14389735007294382
0.07615600182968336
0.15772095991180796
0.17628864836558927
0.20472091120939637
0.08863062278668557
0.0336180026329405
0.006768345277338581
-0.049526811380354245
-0.196517425447442
-0.07738595444326532
-0.10116111784814596
-0.03663576346257092
-0.017752256830156323
0.041129932909897964
0.024096115450708475
0.19210861183823394
0.16673472884533988
0.12388601832733678
-0.00013638205687130708
-0.09153020106941816
-0.23570038370445287
-0.2950140284042063
-0.09469791931265821
0.1789430921669372
0.16853814293995292
0.12880881224578922
0.10960748673336998
-0.055775186439465295
-0.15490210998603587
0.005855026299768976
0.006955214858324333
0.022316396784392446
0.025444814717787898
-0.005473461249801739
-0.0838025902635724
-0.012463770881058572
0.015782403054212996
0.015676935482443675
0.005000190438158195
-0.0006033683711545444
0.0076968368834480095
0.028788037281838482
0.0508459548987294
0.053435326498187226
0.012460721986984093
-0.09289618828078672
-0.07309597364670475
-0.12345845114249808
-0.023775129378953316
0.057024418714931885
0.15254245092024432
0.09000350547885705
0.08423677507186167
-0.06324152368228698
-0.16017911656320644
-0.01690959039262142
-0.040303234910913574
-0.0308919174089413
0.016008518799265542
0.10610365621085655
0.0409090181812804
0.013832733184691425
0.009224326078692818
0.004838397226356997
-0.02307847180459984
-0.09369801418786473
-0.016418939172202534
0.011821650911757289
0.005945912731285714
-0.010926375653643346
-0.01318494980602988
0.020902576588450995
0.10365642054139285
0.03473555199526924
0.001248270770131902
-0.018599717703321177
-0.04935038829154056
-0.11162111141964348
-0.017118880568782007
0.03312980935311647
0.04711201560720707
0.03783198989564398
0.01877780575853571
0.0004395905455212499
-0.011319424042861868
-0.015094263589996694
-0.01259181030020929
-0.0068951648724187575
-0.000981248977639933
0.0031668068560691117
0.004813344118028971
0.004256192222013576
0.0023883529439817286
0.00024931605063305886
-0.0013064269508210784
-0.001788082323834199
-0.0011206350958267673
0.0003847917013361368
0.0021132473088825952
0.0032803598180590468
0.003134434253366256
0.0012280571241357376
-0.002285190877840004
-0.006435885326059346
-0.009459774598101097
-0.009202218216961992
-0.0039657241424351525
0.006308440718213084
0.018839824860568743
0.02726233909199662
0.021807092204887756
-0.009337965802170351
-0.07767058522697178
0.008377666663060498
0.04585849545618045
0.038939554758003966
-0.0003146228459359988
-0.05204989613096167
-0.09003798339074393
-0.08514159115150466
-0.011232064230633974
0.1472293642775567
0.18830269736189262
0.0896433140908223
0.012098562524962036
-0.09004272149713072
-0.2550849345697313
-0.10126288229952513
-0.02030787033609795
0.020160507175318105
0.066260554666837
0.1632701019079734
0.14193036346602822
0.01013420136181344
-0.0476424814780242
-0.0636892337428035
-0.07615879745504937
-0.11794823375578746
-0.008887999837379142
0.0468718638458356
0.05843385962705945
0.0425010722603805
0.016980639292811715
-0.0040967651240939006
-0.013302791805331702
-0.01014534511512808
0.00042311310528304896
0.010592103660886223
0.01274000857132487
0.0024305534713442425
-0.019151083163332507
-0.0439474705478187
-0.05765837382451616
-0.04273879279913206
0.016391174565427474
0.12709570798776068
0.08337996489372967
0.06430324085450509
0.037560035088181225
-0.032000729224761285
-0.17128589386088264
-0.18921008025086747
-0.07237516569864283
0.011355677732796943
0.10197715347769552
0.23298223167362037
0.21923149141936105
0.05225571426793298
-0.09472849279173957
-0.25406719906648323
-0.24879004129185373
-0.08230056989444443
0.06283079206370151
0.2168090165572462
0.20942715421374364
0.057899514614926796
-0.03926448204943095
-0.10068603477151072
-0.15476100925454273
-0.030423155076391716
0.05032596739738072
0.07631164079753196
0.04775420882742304
-0.025173153810346575
-0.12471666861689937
-0.028618766514436653
0.08588456308060148
0.0373857739550726
0.03606081678667373
0.08134824845132545
-0.03750948381559959
-0.13829610472044537
-0.041374088779118585
0.034301489270407805
0.0736224954030866
0.06636618575464538
0.007787112402184288
-0.10051980746581227
-0.049739196854436195
-0.023990975709343294
-0.002489177079030182
0.03627171564706029
0.1094376300205026
0.025628844174518325
-0.01669935548010543
-0.027735140727016376
-0.022245079189631364
-0.014447568925476318
-0.013466256248407457
-0.020625375029528447
-0.029268405415708656
-0.027189638117883063
-0.0011674988564721704
0.057556203842634504
0.14859010982716253
0.06042259215711232
-0.027558053580309376
-0.13933870338197815
-0.09496629428289492
-0.10472436024615303
0.03276565163689307
0.1281036166041054
0.1961948598426689
0.051928069453647994
-0.09117849579567706
-0.21927789157322694
-0.11576130934977401
0.03881967479908897
0.06288910023667157
0.16719477852955103
0.148625979598009
-0.01208895355568074
-0.14722579070820643
-0.09458340516297627
-0.08880715342274317
0.04521656995998748
0.09521498823356712
0.06103540490423063
-0.04755489073812716
-0.013254334000126305
-0.013239513897272948
-0.02109945109424301
-0.009198989076376174
0.048327264653341
-0.027812865950145427
-0.0253224042192501
0.05716859192297837
0.008885751578405413
0.0074853190125051955
0.021736849069887026
0.016250312083472274
-0.042315910851366316
0.021408523072298284
-0.002709112511927827
-0.10682732072779813
-0.06524066534005331
-0.038864625439396144
0.01613131086792916
0.13724162035895063
0.145160460659144
0.03743038757482216
-0.011328921201744894
-0.04235711083483979
-0.10098901021557494
-0.023814909089388128
-0.028518629081019816
-0.10916019407807365
-0.03813114756462244
0.02566945340727698
0.12455346302307026
0.08915244869568413
0.12892643927987663
0.029230565968310862
-0.04400801790924148
-0.13356466801837918
-0.077804483986201
-0.09956756346445969
-0.0005083133927112486
0.03776891207488566
0.04680403847296583
0.06136499215642958
0.1098899312316935
0.008126750644550377
-0.04255897742896502
-0.052454427782445856
-0.03802583263980996
-0.015956027146536784
0.001432450153343895
0.00842270008381998
0.005793707436987351
-0.0010822602333235426
-0.005157990311962964
-0.0008793336434686545
0.013098184714450503
0.032311161210153254
0.04662552219295957
0.04251517754058751
0.00737220940809822
-0.06509289645470176
-0.17020864097785174
-0.09076532161533134
-0.00022808950266678217
0.1293390343990197
0.11706949245334429
0.16484787580207916
0.054473283371891966
-0.04777782022130112
-0.180467737629285
-0.17416552445746564
-0.04145387711708095
0.02647155172914536
0.05571693225037964
0.08022178869690376
0.1307801846323255
0.026477503314277593
-0.028892218650699783
-0.04494179973896142
-0.03879347052058633
-0.027697438445473368
-0.022688328662041114
-0.025046076226110346
-0.026316511388860545
-0.011678198321113435
0.034407836179962674
0.12202295292437315
0.051199731706626235
0.01070957191430813
-0.019106423945195204
-0.060392600367642546
-0.13097623168243935
-0.03938841768428308
0.016315021483865936
0.045540789801716185
0.05933844604784213
0.06430494927162882
0.05880389659583186
0.0331597326210201
-0.02602486385420304
-0.128900783144697
-0.07543723544880171
-0.051474503870131263
-0.029782323069935224
0.02371280072461385
0.1403953019135494
0.1394012904096525
0.021530247132087208
-0.031078798610917294
-0.04943872776501287
-0.06852127131543105
-0.11771791091094966
-0.014095430438427332
0.03972730053158622
0.05308941467334249
0.0417991835362393
0.021991558299680008
0.005380190618643688
-0.002980068234977104
-0.004311080584592009
-0.003723695148278316
-0.006797249682571237
-0.01617994636908366
-0.029178372163037904
-0.037098946712568
-0.026743879605799548
0.01610163273756896
0.10207448887165553
0.034031674730152915
0.004853034053275229
-0.0017626413202739832
