0
3.269325520982122e-05
3.269199826403757e-05
3.2680134619363866e-05
3.265735444219379e-05
3.2628547930705026e-05
3.2604413594511295e-05
3.2599557155539076e-05
3.262756144566571e-05
3.269369881924468e-05
3.278750918077757e-05
3.2878823311625106e-05
3.2921191032141026e-05
3.286532273361166e-05
3.268173211503e-05
3.238676203034392e-05
3.206113109019526e-05
3.1847519724371526e-05
3.191621919125709e-05
3.239723508127775e-05
3.329283511017843e-05
3.440228852418756e-05
3.530296331740683e-05
3.5429808722929244e-05
3.427115840124085e-05
3.165187503875702e-05
2.8014993135734285e-05
2.4562189529075532e-05
2.310191444349019e-05
2.5510344038486842e-05
3.284607664545008e-05
4.435388893391738e-05
5.6784126430027326e-05
6.454634938861011e-05
6.110574217815546e-05
4.1655447968434774e-05
6.488438166968118e-06
-3.618677459416193e-05
-6.969703321993469e-05
-7.220827676779804e-05
-2.44903195081538e-05
7.909458225719131e-05
0.00021992347578353224
0.00035020808270172347
0.00039961612892999796
0.00029684543411885676
4.197795833523458e-06
-0.0004443397721563243
-0.0009182355806864036
-0.0011986956750735954
-0.0010352312124703611
-0.0002506362352569073
0.0011293027915634027
0.0027710060931254578
0.0040194260590932255
0.004035283858200514
0.0021033415698359756
-0.0019408758912243175
-0.007307785948683817
-0.012087616403900317
-0.013544754103165432
-0.009003521580832332
0.002749740153035899
0.01990488768826359
0.03652184157472415
0.04258860901833662
0.025740737904028848
-0.025430046287823336
-0.11735017379127965
-0.04825590176273581
-0.0073689580173063275
0.022822101915267262
0.061846044371585786
0.12595920282710485
0.024471374333959562
-0.04086920419250053
-0.07350734499048586
-0.0783402784148429
-0.058916040663966655
-0.017353692955368285
0.042700235476264434
0.11147443482518482
0.16942195031320095
-0.012836066116004114
-0.06962483094021281
-0.031239068987862887
-0.11372026342669454
-0.1110076075277584
0.007630377733574458
0.09375405430040014
0.01046354454859113
0.02016990776974568
-0.027628800059727395
0.09388655799195035
-0.016778235143328966
0.010053772809648693
0.1201724344917384
0.04545899236936361
-0.08247342512143327
-0.11752088139752126
-0.0868020630021795
-0.18460335124674387
0.024961068554096758
-0.003369866122846112
0.18705159430790583
0.2375640987848261
0.16267099404601326
-0.051512008302809026
-0.038210302787241655
-0.23396157921866215
-0.2621814885571832
-0.12323953067272538
0.0045670263425745495
0.15327167992243654
0.34757847272087045
0.1889527665593412
0.04863156223621826
-0.1270310858546943
-0.2007489521193276
-0.22413568027436917
-0.02059175606094241
0.02328518461235578
0.15611690669500544
0.05195547412696027
-0.003942381261331539
-0.1303182474303645
-0.0640426480790878
0.027847859638459243
0.1394228715544584
0.22266072997703534
0.19248596915498925
-0.05852720248152173
-0.237537320843038
-0.22644929539969064
-0.2623399511119638
-0.13010476984748112
0.23001904402773146
0.3030166027283843
0.17521008629542
0.11453371219168645
-0.03917493359210506
-0.2730481308765454
-0.1930406092701599
-0.014640529832193305
0.04286803384990325
0.1572674727002091
0.10143390845138986
0.04206381145306883
-0.058169215359147895
-0.03447457075504704
-0.11139661026741911
0.10553066693044602
0.035533101680679004
-0.07582226026267529
-0.16019122162105656
-0.1359157715090715
-0.12351862452771208
0.134493408892049
0.4541315126806501
0.39775006369151106
0.07594141552342668
-0.23401019415492982
-0.4576667696185378
-0.49166137279541483
-0.18269739422177886
0.2752873868918801
0.5270111897045661
0.4338973500493871
0.056025164970814965
-0.35438941358425313
-0.3484887790588276
-0.2726798874501117
-0.06601910736003783
0.13190466763337302
0.3643244263444844
0.23915101682436782
0.1181869827117122
-0.08026711552201216
-0.06490692396527492
-0.14594477437049144
-0.20870748513804396
-0.2944928302809611
0.005596995282588837
0.1424332518361785
0.18982431178576897
0.2220848180442839
0.29660148069336095
0.04736641345944364
-0.309477683867948
-0.36262675954483464
-0.293467135349264
-0.07285586753883391
0.12979051471274125
0.5286395897516273
0.9038455101919233
-1.006038903620384
-0.29687556184386055
0.920268556709548
-0.8570528771964377
0.09857590307559702
0.1582469999612964
-0.05965835839513332
-0.8969262396177754
0.9273044762586979
-0.5063136506198361
1.2613703502294884
0.2572067928636344
-0.5184699404147141
-0.6713415419485
-0.3888018137797769
-0.22646261436958945
0.08487418937090124
0.41283981429794425
0.5890177767289932
0.3824944765217044
0.09518606841180596
-0.0157559322262002
-0.2941123310808054
-0.6341403286585523
-0.6424115937465344
-0.4284097523471405
-0.031393313331719484
0.5223694510906017
1.1513400399917253
1.6665155993691267
-0.6406666003959841
-0.5615090275064725
-0.697251096466731
-0.980224558826282
-1.4219667809316046
1.0905809616351632
0.950625732143778
0.7594789494755259
0.2581372482473437
0.08876875264208961
-0.20370413314820515
-0.5370444253957714
-0.6423180061927931
-0.22018182072786516
0.08222706763544346
0.26941894754007245
0.37715466426628236
0.44648778559092717
0.10517699808055633
-0.23629476482707298
-0.37518863002716224
-0.30155583644896733
-0.18828934457250587
0.0065992403990331764
0.32501444689908865
0.38747143230938547
0.17547787301914525
0.02654912857778986
0.04559477785229143
-0.2703378512390644
-0.402336192548796
-0.18536014025700784
0.001954018984132689
0.029980125510267488
0.1962378111059216
0.19690212180036737
0.30142361746201646
0.1384335934703059
-0.10312046091221545
-0.25926726833909514
-0.16941820926691342
-0.2569377755080558
-0.1195986723257747
0.06670803644548755
0.33319460503393605
0.29914961430012793
0.15723019070208455
-0.13050991420012473
-0.2245780926138267
-0.1921004316759701
-0.08985949664613319
0.04778323730526247
0.2137270088601073
0.22709277941111164
-0.07061765463320197
-0.22014868262910844
-0.35061861117251863
-0.18974721750527798
0.12039800741983536
0.6050207736286406
0.8432339105335692
-0.43145842012450697
-0.3129619684865899
-0.29188469392639355
-0.42482184583754007
-0.516770431009205
0.6763027701825501
0.4270470240301675
0.20870524515155806
0.07214472485397719
-0.1636241127869678
-0.10669426302435392
-0.17890246661510434
-0.20195101316302247
-0.1898223025080182
0.04938774933998729
0.30384016021498317
0.34648008544235137
0.329693177613182
-0.007796441838544198
-0.32128503785726603
-0.4341801795615765
-0.31701487880063906
-0.28221870166890634
0.20021931495043235
0.4696588022450164
0.4353585890996157
0.1447548100886007
-0.029572598147749783
-0.1808896613346634
-0.2420218661659602
-0.15154845947989062
-0.02273571203996769
0.07754165831888311
-0.06302528518156045
-0.0062310438651530286
-0.07698000974461486
0.016978371173716585
0.16320912011661573
0.22520311432350773
0.02994296706145703
-0.034554550563568924
-0.0115870268243071
-0.1610043662242528
-0.14227730365905342
-0.0004099343851278099
0.04189435528297463
-0.015100242033515196
0.04671946081264176
0.055071358606528974
0.038746731469876415
0.02107659355677934
0.016711701879688692
0.031876875170290815
-0.13283135786370062
-0.07880798847740282
-0.0068346118854457185
0.08330620429997314
-0.008849382167380277
0.11319342376140727
0.041604899578245404
-0.0348615311995624
-0.12792149274399683
-0.04615257267568401
0.007424239313743026
0.03538492800273089
0.043729447056903875
0.038795247062872934
0.024849318929452455
0.003420149974420424
-0.025515000578824255
-0.06128913844865277
-0.10058727298486207
0.06299120680992809
0.03738927165627011
0.029217794587532937
0.04098154779928235
0.06981731646292694
-0.09159635701320579
-0.05235334771530014
-0.020104894363703277
0.0012391792755497
0.012014490543904797
0.015560858624211726
0.016001614743859294
0.016048256201410833
0.015674715502728608
0.012125614463509076
0.0012576228976917062
-0.020252959602008198
-0.05268485592843861
-0.09203876695053068
0.06943358049227175
0.04088972321279301
0.02963365922779933
0.03839363721133234
0.06441130058276262
-0.09924096436995507
-0.060767180985040574
-0.026610104751501943
0.00025028394073078083
0.01994153627605417
0.033680358089634085
0.04130658423686114
0.03976909130336347
0.023533980731156288
-0.012959533475633334
-0.07166558999363853
-0.1477887494619749
-0.028969908384066188
0.10215585506449382
0.06259385577903859
0.06295879411034787
0.10345665555050537
-0.026294835912939227
-0.14353280963029058
-0.06639589032480865
-0.008346917185183904
0.024882981763544736
0.035147396929171536
0.02934382803050117
0.01600969600567558
0.002442609917457822
-0.006893914267647529
-0.010598427710450123
-0.009581905169039824
-0.0059057559624309435
-0.001704842996287772
0.0015089492523805562
0.003089839771626044
0.0031408249964409384
0.0022057833710814605
0.0009373226389882527
-0.0001470901869079838
-0.0007771266856964468
-0.0009232816767522094
-0.0007177098353338194
-0.00035368470199851503
-2.9019665777090984e-06
0.0002301283042462005
0.00031599414399836184
0.0002819725925303475
0.00018270499953609813
7.310925936069719e-05
-8.84606343381994e-06
-4.7756149039327464e-05
-4.729655999456186e-05
-2.2069519667298663e-05
1.096242299540786e-05
3.863262715974852e-05
5.428197274300098e-05
5.7445385717520786e-05
5.172202682086211e-05
4.2160345099771435e-05
3.315157554583656e-05
2.730181059644388e-05
2.52749701348766e-05
2.6299062060218804e-05
2.8934266459386132e-05
3.176717595054957e-05
3.3841828835874144e-05
3.478979306222731e-05
3.4729265462069114e-05
3.404948460920485e-05
3.3189807786097056e-05
3.248430672461083e-05
3.20962822227827e-05
3.203009263750129e-05
3.2188205034936224e-05
3.243905496135889e-05
3.267056574913143e-05
3.2817890021134735e-05
3.2866188204990546e-05
3.283676594831931e-05
3.2767050240086844e-05
3.269297373336646e-05
3.263843495653818e-05
3.261254653513717e-05
3.261262646404683e-05
3.2629762802973465e-05
3.265407257484908e-05
3.267791389251791e-05
3.269667017382359e-05
3.270781695622427e-05
3.270953271126743e-05
3.270006326858302e-05
3.267849569638739e-05
3.264675347741277e-05
3.26117731787293e-05
3.258627958382991e-05
3.258663485134011e-05
3.262707840771069e-05
3.271125010098027e-05
3.282382223050118e-05
3.292663054237713e-05
3.2963948064670595e-05
3.2879647272476064e-05
3.264466335522301e-05
3.228714007828839e-05
3.191189422953952e-05
3.1693360990642594e-05
3.1830085321347276e-05
3.246087049185384e-05
3.356166867071494e-05
3.486286975221385e-05
3.5839605443694244e-05
3.5822235367129056e-05
3.4242323756247094e-05
3.097152376814414e-05
2.6640281548962478e-05
2.276757838797693e-05
2.152808917553187e-05
2.5061050162688425e-05
3.439543357696072e-05
4.829841730513648e-05
6.257012494726794e-05
7.039123174366606e-05
6.41632459500295e-05
3.880093485096611e-05
-4.302806813977343e-06
-5.420330795244861e-05
-9.025375016309553e-05
-8.664897180442154e-05
-2.2148875260784103e-05
0.00010680394569169169
0.0002740667228036462
0.0004194399968462278
0.0004585655417171004
0.00031047458611934526
-6.0544556330846674e-05
-0.0006010790839345884
-0.001143177148502184
-0.0014206096920744782
-0.001142960935057722
-0.0001245552354272533
0.0015635659856468307
0.003480258911167965
0.004817937683905807
0.004589619174172621
0.0020137491404303206
-0.0029782608739141393
-0.009291914994651217
-0.014535702751743138
-0.015461533429361655
-0.00911427008930286
0.005428577249237886
0.025176544521679667
0.04194076640562269
0.04245458992831656
0.010433554609661217
-0.0695399001335959
-0.007229976334317619
-0.0025572161619597587
-0.04354201235734855
-0.10746309263130926
0.03442359869758077
0.00920134690167527
0.03334513940519596
0.10515631810183862
0.20152020111551408
0.08121830448977253
-0.10483383448872136
-0.19880595117695785
-0.2215997031960993
-0.16473858586298876
0.007537608303353367
0.14606471366173338
0.29903083875497893
0.2962023526116542
0.1422584564889469
-0.17733987815035746
-0.28031547646320326
-0.36894226269140934
-0.21826183444790556
0.022058558342825375
0.21155799281264834
0.3946155099062136
0.3782677895557945
0.12226930195871774
-0.25352895888027177
-0.24689630935356455
-0.3448935725137431
-0.20064648715480896
-0.02362873863117085
0.21429348092530418
0.36145465768039525
0.2662875047157539
-0.036737752735079406
-0.1304096823223629
-0.20846243030919173
-0.2653845553456408
-0.08917358789809354
0.13866323191156674
0.23609002381204644
0.21082632083763705
0.05373517414783358
-0.060743117233719855
-0.16715923891253007
-0.2984673303116504
-0.07769447938200147
0.08415800612444774
0.18369832524354954
0.21785880322369938
0.17931219092302667
0.058960753376179384
-0.14390489634917072
-0.40778882996316085
-0.2787827538399344
-0.07124138576614958
0.11722918026505483
0.179225772825489
0.3677465518500086
0.27371060110610085
0.01944548540272792
-0.12852157967408318
-0.13060699200998435
-0.1376962336596691
-0.2575260794143871
-0.13309450660605812
-0.1386206314714381
0.006315121614505421
0.20897413553718644
0.3707927464355489
0.36062921829405065
0.20322765930137712
-0.1130334129081467
-0.41263688789945757
-0.5041744702180418
-0.3598586500960517
-0.11389487207054887
0.317787411212453
0.6038569800344841
0.5645452509362772
0.1546229630129596
-0.12870888147525095
-0.4150417554625542
-0.6193188645490165
-0.40662165200320366
0.02280980020621781
0.32330731620874475
0.37412018190341817
0.4439271936717964
0.16426870639045602
-0.07853566472338344
-0.332057961216117
-0.25416224683459154
-0.28842655245935916
-0.048806646750819256
0.08142368877932296
0.3380504483514663
0.1584003633570437
0.1664455005986812
-0.03308238719257751
-0.04984046168072276
-0.29544257173667615
-0.16968317884801432
-0.05187119495033032
0.09884347909430276
0.13436067311527322
0.10353592680557859
0.03835090312930701
-0.05533627005588664
-0.0004130282981740553
-0.04463257997629793
0.14844235585778767
0.11205311537716642
-0.009382634800216293
-0.24678740562246007
-0.3978564811306445
-0.22792999957713098
0.11731588656483657
0.49004282344695677
0.5176796665695472
0.390519087431709
-0.13299148018855314
-0.5043597233756529
-0.9573299851066819
-0.4902043898994561
0.1293766899928521
0.7362981633776784
0.7295633865252173
0.8451729414545841
0.35943445048067424
-0.4710473847543502
-1.344255052024856
-0.8485443796092215
-0.22882530736318454
-0.20223413052888223
0.5772205308393202
1.0250575102824424
0.7350702050613875
0.3210686465679606
0.010450824605604864
-0.5096317005443184
-0.40976156254455715
-0.4255028093152787
-0.5810186255225438
-0.14835885230382675
0.15005597385905695
0.3008728036500104
0.33639847206467993
0.4683789944381856
0.23746331497315767
0.09011968970270581
-0.21469385691258772
-0.37609814355524035
-0.5123463388005238
-0.1267169635631383
0.11181730627854031
0.3712138248271023
0.44811427861021175
0.15820965612831348
-0.2674758721002916
-0.17946161231929256
-0.5055334683853328
-0.3538467836689609
-0.02929517304908454
0.5380587914913768
0.5620170332500627
0.7814113876162846
-0.13370174231623255
-0.14711527780473482
-0.6019744284127576
-0.9662112515880437
-0.6000195374312436
0.23950332571761032
0.5558001085090944
0.747469700627591
0.7449039625610698
0.17263578980528357
-0.25021874047376574
-0.674973193839679
-0.6707371455760966
-0.3760971113441164
0.12788639300001703
0.6183118928846413
0.5122750769572086
0.2444196932235764
-0.1470586899805116
-0.4216379823558399
-0.5300524496590617
-0.21023830242608116
0.20648028630921586
0.5784830289370109
0.3336179040809712
0.05634459396008975
-0.11031442693955702
-0.24811821133483228
-0.4394249212425217
-0.14557628146004128
0.20423866561785034
0.21138872541531945
0.09713751164427778
0.08960082378432085
0.014140324833889448
-0.11026242305825715
-0.06948712598072798
-0.05046022013724865
-0.03814864612154244
-0.01534019628547983
0.034528017965641505
0.12278217083395157
0.05134612757064526
0.011116787865713624
-0.016043313082910272
-0.0522025601369573
-0.11700721524890553
-0.022440073307136547
0.029494965649331704
0.0456668672361492
0.03821785054541071
0.02019983143517864
0.0020671321220704386
-0.010091692330229664
-0.01455067039537241
-0.012728716267714739
-0.00751930037993932
-0.0018156765494844837
0.002402114054710924
0.004351424151682485
0.004250109218485371
0.0028790036037183915
0.0011295412882155514
-0.0003165057946221265
-0.0011235084149223426
-0.0012793570984700857
-0.000979127435883737
-0.00048597113153067673
-2.168641195797539e-05
0.00028866649332961645
0.00041939157666179435
0.0004116727481133939
0.00032913484378772667
0.0002214037848938935
0.00010744166968966003
-1.911204310038714e-05
-0.0001686659222748278
-0.00033007398842146887
-0.00045424808621453896
-0.0004583888648482358
-0.0002558714808217474
0.0001931773712257994
0.0008272361161531484
0.0014509125337877843
0.0017533703292464144
0.001396901364095262
0.00017118893762479287
-0.0018258852851815014
-0.004055371669971836
-0.005546120388994137
-0.005124041343086161
-0.001878638791490602
0.004220848304105375
0.01176737853051348
0.0177083620045575
0.01776695556546253
0.007610303768528373
-0.015426339015448971
-0.050626105552233354
-0.09301308887117173
0.06596865061283858
0.03610633482104273
0.02516750949465766
0.036106338818047604
0.06596874489332846
-0.09301278338468258
-0.0506255193121184
-0.015425541929700885
0.00761105359560981
0.017767242004469812
0.01770774180232025
0.011765599464820189
0.004218093675124597
-0.0018815851835977716
-0.00512583548267695
-0.005545200213490665
-0.004050605277951004
-0.001817381833076874
0.00018141133148063157
0.0014048025302978058
0.001753706792974586
0.0014391246941689608
0.0008020934229740191
0.00015931763320639503
-0.0002868214903182485
-0.00046948702350770076
-0.0004285015858994486
-0.0002587846841378645
-6.053163847480068e-05
9.396271311494555e-05
0.00017259918678801404
0.0001787210047002046
0.00013705448704518663
7.814511950930982e-05
2.6694889395286692e-05
-3.9948125671862895e-06
-1.1983715770554173e-05
-3.1239102579155623e-06
1.3629282780627766e-05
3.0152672183201433e-05
4.138534720350057e-05
4.578287293162392e-05
4.450461957052983e-05
4.005224048316052e-05
3.4986440664824475e-05
3.1096596660432435e-05
2.912086412534509e-05
2.8907342599300833e-05
2.9807537768570666e-05
3.1092741452970784e-05
3.2246707564109506e-05
3.3073496757213624e-05
3.363603568436898e-05
3.4091842091759824e-05
3.4513409951095124e-05
3.4775285884156915e-05
3.456348785562887e-05
3.3520974056028555e-05
3.149137156186305e-05
2.8771673391690807e-05
2.624847055775003e-05
2.5291501508141763e-05
2.7331236365044907e-05
3.3159851746299046e-05
4.214922645133153e-05
5.172675702357634e-05
5.751556035792319e-05
5.4451477886264494e-05
3.888881265346102e-05
1.1227536292252756e-05
-2.1931713765306798e-05
-4.744094058671163e-05
-4.8285809245514054e-05
-9.729146046495868e-06
7.210211379897452e-05
0.00018200069878941346
0.0002820978591948585
0.00031737220498391787
0.00023280931290359358
5.176339390956507e-07
-0.00035078357230728925
-0.0007170589275774756
-0.0009265089712744171
-0.0007848935120592049
-0.00015820411742272015
0.0009263960499438472
0.002200537963612512
0.003147143659220749
0.003111320936736064
0.0015438075009473902
-0.0016660219779942708
-0.005879803793754661
-0.009589080918455084
-0.010654422991926456
-0.006999468600359419
0.002310752936413879
0.01590125664040056
0.029325849451463645
0.03528126187896727
0.025190878064863247
-0.007915682536334049
-0.06598222116361933
-0.1433507730696525
-0.026568708855305916
0.10259682292294156
0.06159563492500354
0.06110481257900865
0.10119726860942144
-0.028625954272199557
-0.1455699025460034
-0.06759953468377226
-0.008009514651867665
0.027405488975317378
0.04000702360218455
0.035731760830874405
0.021904386092523122
0.004852595411743615
-0.011020266623094554
-0.022871813337670147
-0.028505910884898112
-0.02581933730519009
-0.013290468569355231
0.008343132004800425
0.03372352341717384
0.05087026598321322
0.04076855543142321
-0.020528786820078346
0.042882696631297165
0.01344828055262583
-0.11286542973292177
-0.12144588562627545
0.02207826341884737
-0.032417561278733735
-0.02897304315172564
0.08180976934383638
0.13008409622021125
0.11766929559060794
0.015579264529414256
-0.030536153601492953
-0.08814175437198492
-0.02195525306532631
-0.07860155533821767
-0.07552481695205462
0.0033933115766850417
0.004747629457423279
-0.004024467311283771
0.051425205761941505
0.03710405012280835
-0.0028221692468688975
0.1448650534342754
0.05954277232297912
-0.10932030984086676
-0.0322978059759275
0.013476724835102061
-0.04160145045071703
-0.04766616652603121
-0.027544682273235144
0.02590287452826163
-0.05290892503135155
-0.009655059310503733
0.01926356562350102
0.09475490546179482
0.06401234767264248
-0.047421383865310786
-0.03912486595599023
0.06545137108314528
0.02434100754082402
-0.014445565907887209
0.09755129568834833
-0.07987569418933226
-0.1665038777328725
-0.15701030402960472
-0.02296539435187788
0.07802436684013296
0.18828750484659654
0.13582689503866044
0.12507305710934824
-0.06379772456696729
-0.06666027409855854
-0.12131804611031055
-0.05238526229695096
-0.06013592233569442
-0.11675041332800397
0.028896041642018068
0.039129966847093266
0.1713241657140648
0.062183676362788744
0.11686043702100204
-0.09429647909929877
-0.031027669043222326
-0.17247439798392836
-0.003651306225719996
0.19819308036644603
0.17603291790269804
-0.09586262656532463
-0.20289342936702523
-0.08551441367136699
-0.24266182429777713
-0.1459241944253522
0.13602805321444225
0.30755267645538426
0.41915310971050507
0.2530761422728194
-0.07218991168472047
-0.27864633602349037
-0.2941515078523082
-0.41831847803829475
-0.10035882975337643
0.2648703879462771
0.32376040764617886
0.1410609454826622
-0.023530526581820452
-0.1325629613971269
-0.1796728373789552
0.008619173509322559
0.1762114654594114
0.2453666680424171
0.1302948540217254
-0.04318954165324311
-0.31441114906356527
-0.26705542902756824
-0.21869818307005773
-0.026694879611915762
0.08846875102508736
0.30725232785477263
0.17188232367603837
0.15436629032653243
0.03973559877599177
-0.07215350126966738
-0.14793774464122803
0.009569177076124447
-0.003245793324255513
0.04367153278622276
0.042998093196440136
-0.030151191248484133
-0.31101834233611486
-0.45413947865192655
-0.26083748715240007
0.07612376013331396
0.51876681672781
0.9361412497913566
1.2808204357621422
-0.7970951950820537
-0.698949018504176
-0.8069938715136351
-0.8224894770472347
-0.7377492672560659
1.3477604281255728
0.9772569985549765
0.6776223893184817
0.11901199446609725
-0.49147395851260217
-0.7855529832223414
-0.5972591912124792
-0.3360888228323611
0.21609778590486348
0.6843743713372668
0.6691931915114457
0.322617515803257
-0.0530395569409989
-0.38082235290856
-0.5681715924266998
-0.4662776799493867
-0.04635297060000971
0.19797751601940508
0.22351955278409089
0.1956727930755872
0.24562839462506947
0.03866737815809936
-0.03924789512369012
0.12494345906395496
-0.005544189290367295
-0.18394263830819924
-0.14412896913112463
-0.17074145972317556
-0.2822963037074937
-0.03126944007332987
0.27949219492572674
0.16955764687555722
0.3517863771942914
0.11027873168159169
-0.10915049781823333
-0.2962210851121242
-0.2666081817352978
-0.25316688753921196
0.09639129135319768
0.3149042930230133
0.3094628046066887
0.3616901218494606
0.14139289840824862
-0.265366799580783
-0.5203384823275324
-0.40179978266365746
-0.19149997272985675
-0.08846894370681005
0.15068242642470484
0.3546430379822407
0.4793327990938704
0.3660002189251909
0.1285244278618029
-0.025355599420918615
-0.14415852126521847
-0.4678916533755797
-0.5666503018973552
-0.30007547658990896
-0.009074136566408311
0.25874401184131374
0.2989779984304442
0.29191618566997657
0.35325423408705464
0.3077133707693274
-0.10832851719300751
-0.21794442110878728
-0.3591559188369744
-0.44002616444581055
-0.30806587340382957
0.056850295141917175
0.3255626659612416
0.38693362370072004
0.3128846662876631
0.1342912783043462
-0.1647015696317241
-0.23429678217045616
-0.1356225777960446
-0.11620709704854304
-0.19306041261404974
0.051816993138538
0.06331162061879173
0.09627744784757575
0.19614931252331033
0.18388745920840102
0.05040437674020321
-0.03767503847599641
-0.12309289121602177
-0.2394844495312193
-0.19650789189395415
-0.1746966751134773
0.06731227695859777
0.1754052993830432
0.37929923520171865
0.8776376565448233
-0.763764541740753
-0.39921128391135735
-0.08222869160952076
-0.046895484692235374
-0.49960718228980455
0.9769636634519928
0.21224622223931353
-0.16406956458492886
-0.3285337048475676
-0.264807538354089
0.03707965519318184
0.1792770942744726
0.1525184717966844
0.3341969456293808
0.4925478313983715
-1.0017587069625833
-0.3607077904556492
0.031013383297866372
0.013609041684975036
-0.1636368540664334
1.1351777271004386
0.31471779377484815
-0.2548159250938453
-0.4232466214689958
-0.4348672081921974
-0.3046920342728911
-0.008433535251909574
0.3091837738541971
0.3121218911592634
0.24709485824393776
0.12501683599039465
-0.08338063839784579
-0.23749479079025498
-0.20775969796416172
-0.055492271748806755
-0.018571488049543453
0.09372601588114485
0.09735115007769593
0.02471122503652975
-0.08584163758521458
0.00045965256723923156
0.107732124988943
0.04561670112095368
0.009187037972029514
-0.017426047172306214
-0.05471609509636333
-0.12080834270491655
-0.02613860955375685
0.028496690685320455
0.050223999640845805
0.04991872234844945
0.03763121720626093
0.01951887201425899
-0.0027229070889195307
-0.030101763569629014
-0.06337423395881851
-0.1004875376501103
0.06421543445002233
0.03855271402007853
0.02952685121152489
0.04032646471925338
0.06878955483487767
-0.09195490480834177
-0.05101220167684518
-0.016605452884890983
0.006297167074986085
0.016778215217054252
0.01723256584785093
0.011763600436687305
0.004515970580245227
-0.0014869864500296327
-0.0047931632189029474
-0.005355416096733956
-0.004010229893316458
-0.001883807729527426
6.851130189470847e-05
0.0012980000140146576
0.001684072438146334
0.0014142632277359634
0.0008123465844421501
0.00018729735987406293
-0.00025752407720204225
-0.0004488959013103953
-0.0004188291180022807
-0.00025628735528787183
-5.921063377974315e-05
9.842960784563464e-05
0.00018009812702623053
0.0001840830141798611
0.00013196043101880735
5.522230703801191e-05
-1.533933281240235e-05
-5.6051876509540034e-05
-5.3520350155174024e-05
-6.294273848498766e-06
7.388403973521346e-05
0.00016176467479500886
0.00022119870663547337
0.00021300660413521398
0.00010900699106387537
-9.007009348685016e-05
-0.00033904450754582843
-0.0005444087470669988
-0.0005813098582186189
-0.00033563355235239646
0.0002346755579286383
0.0010380830187518158
0.001818145828513559
0.002185750485901129
0.0017362571923951132
0.0002430854934089552
-0.0021243487397061855
-0.004655087651139665
-0.006145781215386205
-0.005251798343484376
-0.0011790555538562163
0.005359661549643807
0.011127832165089047
0.009576782632419761
-0.009435532460844307
-0.0592461975861194
0.044759490343645965
0.08715222307005828
0.05556466796769562
-0.05498242011139103
-0.03711003061419944
-0.06704675193441383
-0.10370369958317327
-0.09267328014811027
0.024370432411170363
0.09636692767499255
0.1491489957370872
0.1759263068369717
0.13607702462976504
-0.036001351558423496
-0.2138116370661813
-0.2587678414331202
-0.2043649957345858
-0.05038347277199588
0.23097307229033
0.2801463545254484
0.13323192213415533
0.009923664354011078
-0.08968278437978214
-0.17998609745818542
-0.08043565721008267
-0.00658831639446746
0.03496987969136429
0.0470026048980755
0.038579191015932095
0.020768132709032248
0.0029590951218424256
-0.009163801566564477
-0.013885091700073831
-0.012463860607401832
-0.007617855509036546
-0.0021297340783890807
0.002045496133803512
0.004083024383097139
0.004126100721997942
0.0028825015126436814
0.0011957879801193772
-0.0002645047478840219
-0.0011407141511193019
-0.0013746928272816974
-0.0011077710963111307
-0.0005612895360627378
5.327815670514105e-05
0.0005754278333494567
0.0008961222393963932
0.0009420466954348618
0.0006696887934619423
8.400976619863887e-05
-0.0007226476717371968
-0.0015351837518399693
-0.0020189947620024725
-0.0017929440870245222
-0.0005802225730127198
0.0015937317000507686
0.004231087866090317
0.006324309841716089
0.006551028470061924
0.0037416930183888
-0.002452388583349523
-0.010905940493589067
-0.018717347613896075
-0.021620018926188124
-0.015339380407994162
0.0021856137155435882
0.02823930512393152
0.05337091441451103
0.06117431330702666
0.03067662176041865
-0.058583565863215226
-0.019828286713993063
-0.05268667933270844
-0.13959889416336094
-0.04686703776797497
0.06905421504667983
0.051256673984771677
0.13102016455555546
0.11913563389763529
0.0029848468780343585
-0.04948773450885307
-0.080226430482952
-0.12919505305868953
-0.0240569558828606
0.025613315480316975
0.02845583504403697
0.006543757701569379
-0.012395654034745683
-0.003574554387127738
0.047422998898012575
0.14007636596942685
0.05859351660914313
-0.02364013661895387
-0.13576678729030134
-0.09995372284432151
-0.12421313941183586
-0.0003934534459888322
0.09192226054457711
0.17744842963429378
0.07675953623356264
0.001003861344818539
-0.04835451240577026
-0.07541266414570902
-0.08393020048072558
-0.07281950993474696
-0.03533631168202121
0.037477084404869764
0.1505300775592944
0.09851989917030202
0.06307955232259398
0.01526415334853469
-0.07687107021714756
-0.23822282813791637
-0.07812521045540717
0.01300007647795723
0.060333114139515934
0.09609492201165808
0.1493141078087059
0.0379262992098553
-0.034105667822174016
-0.07428261677224202
-0.09554120518372496
-0.10973673557735364
0.07669409379850912
0.06377538729088345
0.056461306767296306
0.06234275731775359
0.09019656885847754
-0.25028712221336175
-0.1488232204452064
0.0030526846930230924
0.0061885281612161025
0.04563897530793946
0.283637026034445
0.2585106166786863
0.09344940849946225
-0.08419828341904236
-0.31720773947809794
-0.3948268389859071
-0.2412105984500774
-0.12322860253311221
0.12148827640893176
0.4431352352867239
0.5377764252745104
0.21916627976346634
0.014571973108679583
-0.21365176172365344
-0.42832220451044695
-0.3732881901459961
-0.13926716061123032
0.050778610630542016
0.23504312716379905
0.2908222573163291
0.10680709461584995
-0.04094041913184796
-0.10382365792887537
-0.06549742742576557
0.06115966088228681
0.041896917501924515
0.03147407004853988
-0.01502643718865703
-0.13161455758825985
-0.13366433503231753
-0.01517314602323683
0.047964550067685456
0.08965716002073776
0.14320436030566946
0.03242848812771124
-0.03285941318438731
-0.056246898173632626
-0.05020102666332548
-0.03004007510702954
-0.008728396163852922
0.006087350298965145
0.012507242888158193
0.012840348628176497
0.011088624758597647
0.010467119660781678
0.011751745662603464
0.012912674184764501
0.010130442216027163
-6.983366762225551e-05
-0.018180326939038836
-0.03947192597884974
-0.053178666662836785
-0.04393327094001533
0.004330881200227153
0.10276102519057072
0.051981294214587706
0.038700130635311365
0.03628176825257685
0.009789124589240238
-0.07552096395320623
-0.044528472990336805
-0.10430054829874467
-0.04050173274548156
-0.019670520817213218
0.0028556486310972067
0.07138954223132055
0.21807640213861654
0.05454689884333649
-0.030164184765455338
-0.06482524166005432
-0.08630947670408612
-0.12866125015140328
-0.01466258821499442
0.04778051660878237
0.06422912073461591
0.04891161068389336
0.018950405737076594
-0.010373348637076228
-0.02839814748721689
-0.03005513627558168
-0.01575765775089317
0.009106911329308449
0.03484543536527293
0.04855820769319904
0.03615642408417419
-0.014494603102330259
-0.10981166575776508
-0.04737648308549032
-0.014980023062652401
0.007270363946135803
0.042127327629315404
0.10921861127772868
0.02000066800690693
-0.024621415489717916
-0.03338368127651766
-0.021102715683877258
-0.003880397966097874
0.005472492639191795
0.0007743245473922562
-0.01596902167661969
-0.03502766444646366
-0.04149509423459056
-0.01970993035606291
0.041181851529195686
0.1419658637104792
0.07034475037902968
0.0018637408059995846
-0.09479126060994783
-0.04949190826297425
-0.08207146583270514
0.0037317000702625663
0.02200235082101622
0.001792172525371188
