0
5.7827758886117874e-05
6.350452313078407e-05
4.119996524303717e-05
-1.433499934911899e-05
-9.501961712342409e-05
-0.00017568860912429464
-0.00021657775557797234
-0.000174446902042822
-2.1872271257575467e-05
0.00023005767563147642
0.0005148520410784042
0.0007112262808192473
0.0006710666586930769
0.0002768470326471226
-0.0004827022109149049
-0.0014453670590952323
-0.0022546876021802497
-0.002422845062611175
-0.0014947239217410365
0.0007090442927890509
0.0038441034030820363
0.0069089897534237565
0.008358857355089186
0.006554011084328406
0.0005167613260045353
-0.009197702583085993
-0.019881141399009143
-0.02675911902603583
-0.024164973090825624
-0.007880196384581652
0.021782325860954473
0.05714420838696862
0.08195517141679666
0.07310272720480887
0.005748882066409047
-0.1390017501287028
-0.16634288545512307
-0.06316560832092434
0.0008405813264191905
0.06603456594011557
0.17192824458569256
0.14660953116080527
0.0004892149578660297
-0.07349793734216521
-0.09391825658157396
-0.0821086482438689
-0.054470262351421016
-0.01862405152334277
0.02566929180649921
0.08193484257567203
0.1512487903130149
0.02814959259157474
-0.09992165839881671
-0.049574817950097
-0.03648506539847245
-0.0708274597411901
0.04510786843074834
0.11666808356945647
-0.04530580164129081
-0.027314792700074756
-0.01586265589549294
0.0003123800097488956
0.02843060948009737
0.07046728689901789
-0.07706624663447131
-0.02210588337356169
0.025103596226529988
0.05494340887318199
0.06191394607506581
0.04846964757958867
-0.1715154764797839
-0.1712779768048692
-0.11384967507734774
0.03977574277538084
0.11808145651769723
0.3261001707994313
0.23783050130593988
-0.0012787145015229638
-0.2608300838232652
-0.20504561591297912
-0.2731002080364199
-0.06801227664291097
0.04166662039218081
0.3085030991446226
0.1869927137864538
0.11624932871730577
-0.08931180939066487
-0.03923282965866041
-0.15840431362610993
-0.07527236500436933
-0.011639439370924773
0.02286975773532031
0.03096581077990377
0.02369906777359617
0.014468304547577587
0.013183189706072724
0.022205714532738653
0.035042700119227096
0.03813331728230893
0.015428043203609828
-0.04529317128696082
-0.14619389218118253
-0.07553834189442969
-0.008171032312035417
0.08913587667536814
0.04887195481255136
0.09341705214286221
0.02827318164172618
0.040061304333851556
-0.10025438377969964
-0.030129565653231168
0.01353978636158668
0.002728621242719392
-0.07592037235621603
-0.018905856255939983
-0.00771226829168698
-0.014434106952078371
-0.010114147662073658
0.026054353228524743
0.09906706858750813
0.1945723767167493
0.08155633342333778
-0.07818759830561539
-0.1157778776341823
-0.24073741761376788
-0.23206073391358106
-0.03944475200931743
0.20428474026653334
0.16311282660115708
0.2772334445428741
0.14963457835503047
-0.05508244945627463
-0.19941404110482452
-0.15378025780938823
-0.17679379965242153
-0.10190345498307005
0.06573537826827218
0.14254471608899216
0.15400054825205542
0.12207453100943721
0.05768746500265443
-0.039474717850838816
-0.1748568447266609
-0.15046952091473176
-0.1586748101352713
0.018107707807270564
0.20121448452383234
0.20591610512398534
0.03283714235208502
0.06498668084561422
-0.12797944579028625
-0.18002554867053402
-0.11752256156729614
0.049370593203378436
0.5305185600244698
-0.44505277567598817
-0.23362593427027042
0.015418974939153165
0.14830512803048276
-0.20654371261227286
0.7501336986106988
0.1846798758754478
-0.16160711239157083
-0.3536032721411398
-0.4390315909030683
-0.2306536343776306
0.09794697213600136
0.4014620958747428
0.34269590510587766
0.1729867827269232
-0.07843537076724445
-0.20357848322266736
-0.4072337412164597
-0.2985243301890241
0.11094639130588062
0.4007861936393412
0.33205066823829793
0.24239867281035432
0.053089817639414214
-0.31120847860275475
-0.4960510357931371
-0.29517094151311474
-0.04317635155372273
0.17221013052591244
0.2815768022664016
0.19853427139653884
0.1893929537807499
0.05700320809404433
-0.057276134261868804
-0.05517174947743656
-0.05265238840732065
-0.1487919437724404
-0.2005327376217009
-0.2099665022859662
-0.1278326814289616
0.12720479031426277
0.23871424143222994
0.2612732570397922
0.3984524100003759
0.19833342592356087
-0.230764954793634
-0.38908614992879814
-0.34986285691648955
-0.33278565445584996
-0.0967085356586113
0.2457405647008557
0.39763910282146775
0.44358741983636824
0.22533951946601755
-0.06371349342028682
-0.2643981406383067
-0.42551349313035897
-0.3778762726843266
-0.12031845307488497
0.17654078411336271
0.3512370694060523
0.42662707641541786
0.19131734703584177
-0.003650990167450992
-0.230904814207544
-0.36131677792653094
-0.2375426858947654
-0.05705078191165163
0.02911782673000087
0.1019455029990267
0.2500044540635
0.14341827934515103
0.014278424706221168
0.048707347864738855
-0.008232788114261211
-0.03720577143446858
-0.12361547792471218
-0.1366989450345169
-0.11408051799842381
-0.05553412922414306
0.07300532382434584
0.12721914091543263
0.16840414660572478
0.048883474787115626
0.0027979108902256977
-0.15636862513341832
-0.032900160848382175
-0.04350924533940755
-0.012298595546993774
0.03260007113726912
0.06093404311368814
0.042057129788844475
0.14792956155020132
-0.041863306682157486
-0.13374251420733152
-0.11470794593712093
-0.15107498723253027
-0.19397098377038285
0.20819356482106974
0.2934676843668504
0.2724049246166385
0.12301883109404081
-0.0016589683725024855
-0.35516421444502655
-0.375448493064424
-0.26862515090821026
-0.006309046646160438
0.2616383200315823
0.38431487059997815
0.38716504529013035
0.059811381654154915
-0.2403354090840498
-0.37079679922606334
-0.1812858946618835
-0.09537041606407977
0.09680185476667451
0.23377956440983488
0.17010821799206585
-0.038362693714022546
-0.14649417648970528
-0.1275589795461839
0.022580694367809344
0.0837119766459982
0.2122235641655387
0.14645464241348521
0.017873019916372065
-0.232750601348025
-0.23818675615496138
-0.1927260438913182
-0.05076189694940848
0.062092411303149374
0.22830571526284021
0.3150806651484359
0.15656705469431326
-0.052235478015254924
-0.1484432961121761
-0.184887740597912
-0.2114249742575747
-0.0611064633023854
0.05448380989367985
0.1406583819955769
0.20949781834064085
0.06955508092468794
-0.0800943362059739
-0.04971366567313627
-0.053986601672448856
-0.10542976999890702
-0.009269280906834052
0.0383538897968047
0.04870518762813089
0.03657428960216689
0.016045901467491984
-0.0025441508940881614
-0.013787847011679507
-0.016694183067592787
-0.013180390285396493
-0.006358893645226753
0.000793841719086256
0.0061421311761220045
0.008538665588623852
0.007666736009035256
0.003849900903642011
-0.0020093757464828884
-0.008376056518466268
-0.01308504696836575
-0.013636013371693864
-0.007943521876405884
0.004505017489247708
0.021420735444484102
0.03700511219970996
0.0424234365132427
0.02787534931563689
-0.013927857180609581
-0.08391421157965774
-0.17421009943149174
-0.06900476568918266
0.05037454304608916
0.19733184582870994
0.17217259332394153
0.1588177878670117
-0.07108243972515677
-0.14708433627921771
-0.2860144592568694
-0.08124759144715554
-0.10046086843538123
0.10625804184813069
0.1904345884469391
0.18722416225616684
0.10227172775793317
0.10853276671355408
-0.045515794132446157
-0.21907501416777111
-0.25972806620433964
-0.18889208042392844
0.002429444702979495
0.14620333154324644
0.2817877677782141
0.23918090700222458
0.028241504311328068
-0.16211997533218714
-0.15561889960822953
-0.1759654582306107
-0.035934668571610644
0.06765812183318055
0.15224480410216656
0.0432005465733564
-0.033709771844849266
-0.05851290812048557
-0.020812448206198368
0.07868249798086988
0.028543423530586448
0.00885668283555139
-0.004772224186216275
-0.03605035542231918
-0.1029282681387059
-0.01415211705636884
0.03146512616032121
0.042961752239289615
0.03333535925753377
0.015406294131880603
-0.0012087827300436367
-0.011377835507191267
-0.014114765560367113
-0.011228377540283356
-0.005685383741868265
-0.000255607566476001
0.0032768298023646432
0.0043238955285912935
0.003286938884063356
0.0011492539026596099
-0.0009522915658519199
-0.0020748817689687895
-0.0017064619623899898
0.00010304373202737202
0.002714659800203377
0.005001147539589431
0.005614578796348935
0.0034363302302880695
-0.0018485779916137225
-0.009219680565845377
-0.016097942298188672
-0.018723242020018453
-0.013316670300339077
0.002053124063543034
0.02535812216446443
0.049074720588308536
0.060196878250358535
0.042517235427230904
-0.01886373219437691
-0.13196670069946634
-0.09350763633326642
-0.08811460959019002
-0.09273547868727747
0.11431527498901232
0.3427486702464824
0.18298376619014645
0.0066800933967868705
-0.023278251170650112
-0.3363302861720016
-0.338160349748323
-0.20276982187121007
0.12239353581705913
0.2990783875738496
0.3754474102186245
0.16769445198576163
0.05418583213354158
-0.21534088319822883
-0.2996186797149253
-0.2433382462802443
-0.06135171662086401
0.06482144314329862
0.1781221781107951
0.1295318861028836
0.16117991510477991
0.09522603521448532
-0.06828986951419273
-0.14530497843285445
-0.1572116888261717
-0.12130401342420633
-0.046635589541610775
0.06305253731174477
0.2010953982803072
0.14871662062296842
0.06990228031220984
-0.08625422979216005
0.024593321199795494
-0.042735619228925034
-0.1072074138539344
-0.15022536238939357
-0.11278186192420427
-0.10341467214359244
-0.016507152140200994
0.24284522593462643
0.3341118601394725
0.2646807236579426
-0.01247313098930365
-0.18528212709734265
-0.3577114782572704
-0.22230992340084102
-0.03935580466780745
0.17192614640920095
0.23022423763663577
0.18169237128573854
-0.1120321624249714
-0.1837424055599704
-0.1683702065616709
-0.01047839336473202
0.12707638383235678
0.2544680040890762
0.14965253005154194
-0.0399353448832998
-0.1877012928414038
-0.17275039968348166
-0.06418277416321187
0.09053304482732721
0.07091466937179654
0.0831715292634679
-0.04363512808657572
-0.06315444845987561
-0.11838449380411901
0.050447209579425785
0.09685652400262751
0.059050582412131854
-0.04723923287551548
-0.03231979196814773
0.06828916202128057
-0.001012315471601412
0.09305942257383998
0.08471756542705332
-0.07718265308718167
-0.21633320448634866
-0.12072518300281242
-0.14264159708010876
-0.008750887938839278
0.16119470553162124
0.23211297245855245
0.23499397222484014
0.15867784129192267
-0.044546769155607964
-0.24114358160793425
-0.2928141755536684
-0.23626536541007445
-0.07410030121895818
0.019847359984323916
0.283455105180754
0.34532460458018965
0.2097200939251551
0.6553088623834523
-0.7501831963642184
-0.6251438917492574
-0.35132468068759
-0.06631012439604657
-0.277820623951765
1.1044754901043476
1.1334895971862033
-0.597672785552767
-0.35443810645990925
-0.4376725541695857
-0.15123231831818057
-0.3746776485903387
0.8503995683831452
0.12056697681262639
-0.13701454919629796
-0.27409692176893974
-0.2308172563793653
0.05350951244555339
0.2273381400305267
0.31391436366365044
0.10338085755106582
-0.04557675760546384
-0.19381929636383427
-0.20343088736840254
-0.11952521630943756
0.04179918961659549
0.09641503399943521
0.08680767307172474
0.07161573278466841
-0.08637445145141341
-0.1314639487676348
-0.024680237695953795
0.04849351857769557
0.2733807166127285
0.2065492400382681
-0.016534594057358895
-0.2668821670337272
-0.20421100816638638
-0.26239465142148743
-0.043958987482393595
0.27433232043589034
0.3278763400795835
0.1493148766736623
-0.041001381094188445
-0.23613505198807774
-0.23718954249504648
-0.046469929265798744
0.13620181068304144
0.1125179241219587
0.08194931317210337
0.03860278772303632
-0.028868232298115776
-0.1339971967374923
-0.08749726769934546
0.10718511947893736
0.05614633490948651
-0.02515884154935559
-0.11400908862896346
0.01611194634316127
-0.009043766569676962
0.03045702413025238
0.14451919660954834
0.13146231377554124
-0.019537206981458256
-0.12222798489890432
-0.18565380953921468
-0.20895215532252806
0.018003790516043235
0.10728565340532893
0.261714901058001
0.26533959963875503
0.08126636075419268
-0.14040763702627979
-0.24663006873131
-0.2637560051805179
-0.1860491203022037
0.024141178074298924
0.22396211376250572
0.2701728984766175
0.19976628442023628
0.01863523014700994
-0.09793264799409966
-0.1942568934427359
-0.11806411211078179
-0.10561741484869128
0.026887590120311396
0.08394836395793584
0.08491323417978687
0.05512225457724542
0.017662449250527353
-0.011837963849523453
-0.026677864018007633
-0.027542919639012474
-0.019399810184383554
-0.008272887108479317
0.0011035579865930503
0.006367963436517973
0.007468773245158419
0.005868689708213063
0.0034978499876921216
0.0018502241813144872
0.0014600682073829378
0.001837609658087812
0.0018194574283840693
0.00020179641454649388
-0.0035389374377186966
-0.008678746475668702
-0.013087768963554009
-0.013689598829506199
-0.00760535938352065
0.006193138624133699
0.025195292647862563
0.04234762967347282
0.04649010126036298
0.024678018021630905
-0.03386221973719793
-0.13331027436807183
-0.06823322364357726
-0.023783519540026655
0.0201757532884455
0.08209227166225559
0.1715670585968625
0.08526157230315422
0.008223051663735262
-0.07919365946380028
-0.19124990583095566
-0.12784809830373228
-0.07090662066726561
0.011664625262885702
0.1553218906682875
0.18548649263674127
0.10672287731567186
0.09902612396287924
-0.07703556414450344
-0.2682025049884712
-0.11421007217636182
-0.03687851150704995
-0.03649406518348148
0.10397128879986574
0.2095235050073185
0.10319910019407703
-0.0002950367453587123
-0.09533596279487361
-0.18148150402300733
-0.058012493098156405
0.07977594719870211
0.04086133561597982
0.03588102870462056
0.07348588238023152
-0.042514342434283287
-0.11435361307252345
0.04995047220992697
0.037666647681994576
0.03284036203494944
0.018295525906195872
-0.021721625164562733
-0.09862820306865325
-0.017245504741247537
0.024833575394042413
0.03589985593374372
0.02735751689755133
0.010642935801478176
-0.005140878130493418
-0.014392510011204198
-0.015085884597575941
-0.008180826307471441
0.0031953464876717606
0.014581638966217763
0.02108295427953008
0.01851950343580145
0.004912884103284397
-0.017921865971794466
-0.043317543644993545
-0.060150587530833036
-0.055530373293483856
-0.02001822788841409
0.04547668719361798
0.12325245100474488
0.17585418084301016
0.14950878283295801
-0.014748836770241946
-0.16392579611583785
-0.3148699270356861
-0.2419686475297442
-0.07686557247889789
0.07760433785609291
0.3226529900759943
0.33610580013814195
0.15204841453849258
-0.045219152931434324
-0.1113005075903634
-0.3203533024297739
-0.14054507305900862
-0.014721276613004328
0.048413147121899786
0.0717936701523566
0.09908675811903316
-0.020065879489956785
-0.04440255117419737
0.04793870982902741
0.053413443472836525
0.14301499159514874
0.06854135203774894
-0.02552318301152453
-0.1870400295083909
-0.2425977198347744
-0.19040442699245697
-0.0033300461401188346
0.15801417640243703
0.3268226134875029
0.3140535016842871
0.10240868319843822
-0.14592879000102513
-0.2701354507317457
-0.28793062730926916
-0.17897159748754699
-0.08214166941840496
0.09093897441238258
0.23001141866134744
0.19635024591574546
0.19906983725535327
0.18584360675847997
0.05193214071748611
-0.1341699473539567
-0.2954392727252243
-0.3118378546633798
-0.1974581496188732
-0.09683591317179249
0.09808470721611788
0.31558212263509156
0.26665918414618633
0.2142298764964581
0.1583033973178034
-0.1591143107408503
-0.23227003582389072
-0.1611302587796114
-0.22214975657786518
-0.04878990153531742
0.17401577904239932
0.10216716675911043
0.015822297400619793
-0.0005115150114905571
-0.07664081429112675
0.02875178705672348
0.11935073096203562
0.1596272277782611
0.0815147259569203
-0.0007906079248254734
-0.17037991960261095
-0.2866092430835796
-0.1699310642829409
0.002106874394552637
0.08598447718164029
0.15339261400303028
0.2689707642141782
0.07201509551376335
-0.032362394812470156
-0.07095854755917243
-0.09141497871289896
-0.14722826211614476
-0.08404722571381627
0.06905807988922674
0.10220253926730895
0.022440402561870694
0.04922438642334289
0.009882599912621614
-0.06382189032089058
-0.13832474473389003
0.01892735397261895
0.03578572529830037
0.13125454577025467
0.11247622698231795
-0.025378367421388492
-0.09570726837343142
-0.11485025054459655
-0.09690674792896782
-0.05155663325503925
0.21420168710924914
0.09173530607180426
-0.033265222948986185
0.018139627988393903
0.0211410563155444
-0.04647340185664088
0.0034469178513807566
-0.023752906791665557
-0.10195974538380172
-0.18589988107073546
-0.018938162331139277
0.053609603404691016
0.2686853301684238
0.23231291752460592
0.11441575079039347
-0.14535128217334403
-0.22202209372853002
-0.1853393745350035
-0.08234030125569573
0.07217427985144174
0.09574113537792735
0.23107743577302403
-0.06431282490526434
-0.12830802760125187
-0.10273298052726315
0.05922975985871086
-0.013921103156718833
0.08194889866473137
0.1232528895280056
0.06014978295153078
0.02411180284303064
-0.05891848871372748
-0.05236932143663892
-0.19401235387862048
-0.08654110654639191
-0.09708955312329
0.033424090153558274
0.1733532171009446
0.18070751090018494
0.08695024851100591
0.08924512663225105
-0.04674506411149819
-0.17503904009300986
-0.15293065369422026
-0.025526038761667764
-0.015695748652914045
0.07867312555402946
0.08099441152935025
0.02842101022592209
-0.036872051682236846
-0.07576413498427696
-0.05896901338526453
0.027647380561065964
0.1798245975479166
0.17519360280101937
-0.021315590061623674
-0.046718070090828866
-0.12619700642764947
-0.2609664301066973
-0.22306281879746337
0.039410933644143206
0.18689458342992915
0.2676428659483706
0.29948704739707943
0.06162327078269509
-0.09983560378440935
-0.25448537090541934
-0.26529700811327916
-0.17006467521439156
0.026591891814500786
0.1486521055259596
0.2347676817694862
0.12155621668839132
0.030851766028950615
-0.03502412017084479
-0.0897805387535316
-0.15447112591019935
-0.047976390680715665
0.019595280164216133
0.048820724810300004
0.04867689582121125
0.03202177430450557
0.011057640321965127
-0.005696561698548106
-0.014414991919743736
-0.015289335539510155
-0.010933251033141
-0.004660525425202013
0.0008069533311814896
0.003974349772983589
0.004606058451011949
0.003369170408668897
0.001335729983248063
-0.0004649446298348274
-0.0013445752369753235
-0.0010871592843330017
5.844680445403678e-05
0.0014870249954030365
0.0024209444566801012
0.002154359921291834
0.00033353881404706666
-0.0027832850060930314
-0.006186096772164997
-0.008219031277722574
-0.007035624569549112
-0.001416373317326098
0.00819000449719815
0.01870720925505471
0.02396189873755261
0.015060740968408825
-0.018283540879864762
-0.08577161351256485
0.005501720841172798
0.05253251556348527
0.05725493060442097
0.027160512447647313
-0.023894858930994807
-0.074920878351894
-0.09809823512436028
-0.061478264297450784
0.06528664590996947
0.10302377680939062
0.05528839834130282
0.10375379580682251
0.008982489853793912
-0.0829553934677774
-0.02956881692412732
-0.07972688430342181
-0.0634591780438971
0.013674311017713414
-0.029448231190354245
0.04528801200000354
0.08659633001128587
-0.05594498441288661
0.05951641553728758
0.06125820856928525
-0.03836866853029305
-0.04187068740533953
0.037077178111094795
-0.021327355019080604
-0.037954141635225626
-0.030772534135792156
-0.012738582633471307
0.008185276474928857
0.02724350921896411
0.040301440456071196
0.04170408300240087
0.023614808811792058
-0.02279146280812105
-0.1047944339888147
-0.02548984021551033
0.01760047393375078
0.03195802258213725
0.02784700653116606
0.0154919129776656
0.0027753760197686324
-0.005876046355216312
-0.009348284218730284
-0.008810862439838247
-0.006354978940193852
-0.0038021034089309354
-0.002005559692993472
-0.0007506285398409132
0.0008299280703978715
0.003541257212171093
0.007402865060527624
0.011220545339109527
0.012704641363588813
0.009249705248994142
-0.000731629580919105
-0.016307665077954333
-0.03300604520079816
-0.043033731437242484
-0.037339314495816435
-0.009600130489450819
0.03860957260614658
0.09311650290994149
0.12513888025430872
0.09399556267574713
-0.04470348452238988
-0.1267623766140688
-0.16658494306557065
-0.14853865435010188
-0.026380292282191027
0.0680168800133085
0.20880318714485135
0.057984994525734294
0.05048502986247204
-0.013446669540374528
0.03305305974136514
-0.06733217218529068
0.018487365674210117
0.03075855336440312
-0.0674823268481267
-0.07899399681536895
-0.16790925571143323
-0.06436070565533054
-0.07862648053284199
0.0772305205978872
0.26507941375500893
0.30068694338095797
0.14485101899982028
-0.09012547410217363
-0.119423441677569
-0.2561466976765591
-0.18222000329329432
-0.12837869578176908
0.13147425307444818
0.07103293711856869
-0.00881615476896975
-0.005606726746405702
0.16002350503324578
0.1257477832147382
0.07885715120313318
-0.04062337779659581
0.07438142187374532
-0.07975448493771238
-0.19242876598523767
-0.11727644965273457
-0.05954271304713465
-0.17582345385304365
0.013561615007295557
0.20285270193516558
0.27609288317660574
0.28707486626125106
0.050525876221812406
-0.25304599007902673
-0.26198641389472427
-0.215051432032468
-0.1380244303097475
0.15970665509329426
0.27903803773209873
0.22051762055430568
-0.024240699823389757
-0.074591638724511
-0.15600503958355555
-0.09164313340684437
-0.09495837346779394
0.03334566542702477
0.1032756683488043
0.13028168547685992
0.12995762097129876
-0.084531801813341
-0.10148951905558172
-0.10773933307977927
-0.08660119605997021
-0.019255623719420044
0.10996815254389164
0.10618422096808447
0.15777589919515952
0.03476974781368037
-0.10663825714547652
-0.11442059539783866
-0.02915321058940911
-0.0744788606830526
-0.052534649122333084
0.05467359150551972
0.0789703491649957
0.05724300365708573
0.023156528386777044
0.0017195145188099016
0.007782596295680538
0.04819372078534056
-0.07366513896082887
-0.15282522970417445
0.020815752261829613
0.06301861277388587
-0.007607331300912673
0.025243917577242127
-0.030269287012359137
0.020874888325001256
-0.042393150304571074
0.14279802045505446
0.1271274032995029
0.05723477062973282
-0.11256091064239658
-0.20763749381896146
-0.22394063218363922
-0.1268459025077346
0.13982562835668133
0.2365522652430852
0.20837656189369289
0.06992638190183176
0.0006541392005436212
-0.04827140547926232
-0.13820005982618508
-0.1238286669588446
-0.03661523641358629
-0.07539747173320946
-0.006330024063462477
0.02846167487028397
0.09632783657296122
0.057784368134434945
0.15282760303750254
-0.006656829951016895
-0.03677805760573154
0.025533452554675977
-0.0658292904086703
-0.1536736246436764
-0.06786209469461797
-0.021200280838090835
-0.011721554674618254
0.17004645521756448
0.1321190757135505
0.07428362389330369
-0.013659856978140527
-0.1482086370397464
-0.1451460637882295
-0.012722870250825464
0.05197216612857584
0.062422984880024394
0.03894051248630963
0.0038448961393192493
-0.022620132250928113
-0.02479275291451809
0.007482268602659022
0.07916522086319534
-0.00874023962460018
-0.057330217192391876
-0.06791074185793537
-0.04095998314492799
0.023372020746670902
0.12339661006828566
0.05383770154485962
0.005166835655994231
-0.03478254514836551
-0.07739305348206472
-0.1296856810848085
0.007533684070227168
0.13884218307718132
0.07127827337434729
0.01109400699194278
-0.03813537275464735
-0.0755757667670195
-0.10223385439904649
0.07959985178625695
0.0659180592063603
0.050085789082282076
0.022655343938194704
-0.027222512908294715
-0.10899896600620507
-0.027758069331062077
0.017455699829995192
0.03320998051609289
0.02945004761727275
0.016547518697826065
0.002816879017111999
-0.006781890921770674
-0.010659855635788222
-0.009702487239890667
-0.00601007521342873
-0.0017628832034298854
0.0015011879174972609
0.0031319941926105338
0.0032379182002398796
0.0023618088542762105
0.0011374295479931247
4.550990000225718e-05
-0.0006845161006519705
-0.0010434919150152007
-0.0011362852030576567
-0.001064820546015467
-0.0008536121003830889
-0.0004462429206102983
0.00022888967181152953
0.0011538324204816153
0.002128410993242881
0.0027474345678187378
0.00249237708517835
0.0009460931234395591
-0.0019161380306706478
-0.005466873962715013
-0.008348519734686071
-0.008723184390854453
-0.00492171244309867
0.00358440607457059
0.015152945266042337
0.025305674308813385
0.02688297372338056
0.011294236589759392
-0.029267056870492993
-0.09929153716484754
0.0019028434825345468
0.08050916911841764
-0.0531258369589375
0.013023487061234903
0.09001020299477915
-0.014076840657148615
-0.09498823231488164
0.04788161971737597
0.012325842150403573
-0.005666469681401486
-0.010947877468068221
-0.008371216075073193
-0.002165112591082416
0.004377695702314124
0.008919618577865551
0.009965619280515417
0.006826357092110161
-0.00022111976636379044
-0.009635775748383714
-0.018434324535508067
-0.022496164347675714
-0.0176493101134777
-0.0015603248692949122
0.023985284937930274
0.05128049479969034
0.06649219198816657
0.051991144619954646
-0.008597250531452586
-0.1236417124194076
-0.08728626178143482
-0.07652734718597042
-0.05367609862881569
0.02551035110268344
0.20000252942393099
0.09173066119870078
0.09807866583651491
-0.008443261818110897
-0.07303571388522365
-0.1464220373907651
-0.07183860518988679
-0.07543851325486924
0.03723167493218529
0.07843975080406848
0.07111990326206533
0.04045976462737553
0.0070846071040956745
-0.016528749264265945
-0.026271890230762818
-0.02423191340487329
-0.015539621341552396
-0.005496269533331837
0.002261219302498705
0.006359749835004815
0.007291205579252136
0.006474649516997652
0.005262245105737397
0.004259106850087406
0.003151204466185653
0.001050052874532315
-0.0028011264438388673
-0.008241052550191438
-0.013675466798560368
-0.016173424219439517
-0.012390853095200256
-0.0002898642952703438
0.018715839341585945
0.03789009676060459
0.04444871522408234
0.020700793608481628
-0.052753523473004334
0.007646586905066704
-0.0067010674344543265
-0.09302489008712436
-0.03634115633064185
-0.012085686986908442
0.007959953603456351
0.04778302209019881
0.11960966532768665
0.01938956568994043
0.12740523765073575
0.014706918794580423
-0.1458841945042511
-0.16740659500705454
-0.039356128225093635
-0.12513843907545272
0.03184688933594392
0.0946696411699365
0.11569395933658307
0.12098582273966542
0.10124498978872837
0.012325990560728054
-0.014437656637016303
-0.05482015137718065
-0.17209735987396585
-0.2010162707650917
-0.14035801712476215
0.04333660423310443
0.2020318814161581
0.18735528558202963
0.23360636971894516
-0.051232399113431186
-0.08373526467391719
0.10582659119008496
-0.5116629667881372
-0.15172370096332877
0.18858037699746755
0.1262162661742499
-0.11891392438267111
0.46378285295449323
0.06788785720139674
-0.12972463420684566
-0.1607080740125169
-0.25296622761859316
-0.019890490919260907
0.14441996118729863
0.06278239248759304
-0.0325521790936062
0.0909703894283531
0.058404814256097885
-0.11753554125760945
-0.03804670630328545
0.08289101307316454
0.021507686699012058
-0.05143040730517902
0.034752198096621584
0.056647310506122366
0.002649926593220291
-0.12239421996630147
-0.09526610335692774
-0.07673716574777655
-0.019008835205950966
0.12273673253017588
0.177705144743748
0.15006409577932206
0.016538793081387417
-0.06748074243690586
-0.15508975284380974
-0.09269976873507478
-0.10778523299594706
-0.003513560624777491
0.0383813553175914
0.04792475316703502
0.053891510534890504
0.07169648977190758
0.09599262950999561
0.10049963689475183
0.045729286247209344
-0.10697893175245961
-0.1790010432664741
-0.16103864999816048
-0.208239641567499
-0.04709694355426878
0.20650296191653206
0.22304929171974713
0.2369741249778624
0.23413013066270125
-0.04587285618157047
-0.29289042020968514
-0.2008544168527884
-0.24269322388432218
-0.05379994032603743
0.1717748995010404
0.27358182229566097
0.110691914315058
-0.0526113695934164
-0.15751243376773552
-0.15739179645516455
-0.022584881522618873
0.05507678323912105
0.258334172305879
0.14376572807701887
0.0472824968117047
-0.1030554176265077
-0.1692260892979763
-0.18573776866535352
-0.14857990797853074
-0.015011081751066982
0.0851006145661141
0.22972778891284334
0.08310677008925095
0.07882330676442911
0.012370600987000347
0.04475244937207267
-0.0845045068670457
-0.03886366698805114
-0.06590517403086199
-0.1832043334719719
-0.17310465732033198
0.011485939039869898
0.031099941781510355
0.1377216241584175
0.3536998166220225
0.25918967897898265
-0.006252032769211361
-0.1268929189059426
-0.18361107363256057
-0.42548593985329053
-0.25058275376581973
-0.003435955563821381
0.20927160910305254
0.2902406036987604
0.3205773376551335
0.1372355172923684
-0.07393295442362648
-0.16860758010758384
-0.22300109346119415
-0.10982985617597028
-0.07932286274602544
0.04981510004715812
0.08874305740605515
0.06881420962707029
0.02826415573810003
-0.0005174274760681803
-0.0001880106617622218
0.02732273449663009
0.06190972321796808
0.07136677869313363
0.02144268978769643
-0.11207421321947522
-0.13237017924503547
-0.21559312859200233
-0.11314400208791113
0.0366872200830831
0.2902987487416066
0.2796168767254291
0.19973308730296224
0.00904468313062549
-0.15717946423257162
-0.36454522193446215
-0.2571648647138751
-0.043858717900217205
0.10214519340025606
0.23089553930409468
0.1966492447302976
0.03979270830770642
-0.02413843541168515
-0.0059787920688848615
-0.13639569111570815
-0.05498056876922123
0.0009223239352471933
0.004537458344021193
-0.056353218617812055
0.02026073153330779
0.04698286360419556
0.04163077824108836
0.02185444286526226
0.001205453679067938
-0.01261257287133412
-0.017427698937253648
-0.01493421719838219
-0.008587077071839784
-0.0018051995588415826
0.003110677108984628
0.0052933057228706035
0.005052493725553669
0.0033428034962022365
0.0012257834351817036
-0.0005018068001157907
-0.0014578682454299081
-0.0016376464679601368
-0.0012707281710888348
-0.0006581372188663385
-5.088792857473642e-05
0.000404271603371428
0.0006583261726177534
0.0007190460113780738
0.0006073595819817394
0.0003356502744868811
-8.240413824813747e-05
-0.0005981717798953415
-0.0010925949026361717
-0.0013673528570085675
-0.0011861648373539065
-0.0003722399319147456
0.0010595352868389993
0.002786841625901394
0.004151626468338487
0.00428596269639122
0.0024193831062602504
-0.0016799382899324584
-0.007272099963309795
-0.012441487904599124
-0.014359963469858504
-0.010167498364054015
0.0015876083664525852
0.01929976780595075
0.03707873786386965
0.04469265098335882
0.029239088483775412
-0.021465616514669834
-0.11461602559061601
-0.04882615962233656
-0.012892340085992677
0.012181357635177354
0.048348374318727044
0.11457600165770863
0.021991756806765565
-0.02816428801081111
-0.04330304781742426
-0.03585135558504426
-0.018886240027928644
-0.002617639769565727
0.007394249936768018
0.010207545894805114
0.008144556117862889
0.004836108251992993
0.0033415189084891068
0.004836122309195848
0.008144589991922602
0.01020760553812719
0.007394332768277198
-0.0026175525033723555
-0.018886184889762528
-0.03585137873141444
-0.0433031861715236
-0.028164543866427257
0.021991438403296166
0.11457573972201128
0.04834833046384691
0.012181680734180756
-0.012891595215248018
-0.0488251142922302
-0.11461501995738371
-0.021465169024141605
0.029238433204455808
0.04469057549121513
0.037075440358321006
0.01929616384674357
0.0015852960824190006
-0.010166629694384437
-0.014354495541131924
-0.012431445766813471
-0.007259777480261154
-0.0016700845874294214
0.0024204789868128218
0.0042726773483374265
0.004122159804551107
0.0027463231747051923
0.0010215184282536618
-0.0003875678655348724
-0.0011580807092547887
-0.0012844994698396033
-0.0009640142716112958
-0.0004606892504555953
1.3938764844897277e-06
0.0002933082839624495
0.0003865336248064793
0.00032497585863117823
0.0001846811538929145
3.832314811721022e-05
-6.621770801616895e-05
-0.00011168031471501253
-0.00010556588110156723
-6.871406230438224e-05
