0
2.5885662642518294e-05
2.319251766427212e-05
7.4993249152140835e-06
-2.1005639480401347e-05
-5.5710937760983944e-05
-8.311201261932082e-05
-8.546551858148054e-05
-4.707328550070099e-05
3.6794166635027934e-05
0.00015120012158685507
0.00025748759037899345
0.0002985617103455336
0.00021632447317234616
-2.027677622041557e-05
-0.0003842490822651098
-0.0007701652364888937
-0.0010005918339071026
-0.000871726691947775
-0.000238503485516163
0.000879887306875602
0.0022142443374656624
0.0032331517034061845
0.003253100334809792
0.0016877467457369864
-0.0016057190780584137
-0.0059975189179191065
-0.009946253719717689
-0.011230153898194806
-0.007653025739954191
0.001840141317753239
0.015935592044689948
0.03012528547644246
0.03688015364660701
0.027250104914073554
-0.006157785325955995
-0.06557875088751484
-0.14529483672534674
-0.0312669382090831
0.09586763727183639
0.05498942387642608
0.05797181452553481
0.1051104211517731
-0.015551164873796658
-0.12467889294583033
-0.04528730231300156
0.004028053317661334
0.014007895993519323
-0.013409592953569282
-0.06634111783030137
0.07334053568325857
0.024902720505962612
0.003539692804611252
0.016363749376907533
0.06056120885243198
-0.07594299361474578
-0.011607423283036105
0.03305379950246373
0.040329968495170065
-0.00011399116513676051
-0.08772715623586473
-0.00959572111318171
-0.14211042225868117
-0.056470764498171455
0.07248158787302882
0.25633897590579524
0.0858302594600579
0.1299694137950689
-0.0564566954173118
-0.11854102682006713
-0.2847917633932817
-0.15486916797442854
-0.09683700330959587
0.14421088949893882
0.22888836094026963
0.20405796944940807
0.088635820444352
0.06997803608585951
-0.08808724106847111
-0.22901527397866892
-0.18556804762224785
-0.16715165732431514
0.04262514212392144
0.0773318967636047
0.17154662721233924
0.14351095814229484
0.1833620366645464
0.05163716602976966
-0.1109153777662915
-0.16524220049001864
-0.15369193386990873
-0.08450255884970631
-0.12646044798367426
-0.015803098377428857
0.12638788160016298
0.17132733960463106
0.16110464917967413
0.09544045690982798
0.1310537666787347
-0.005689127233254235
-0.19626307296400716
-0.30435835063028865
-0.15539518120925275
-0.12821406415333367
0.03797847698861449
0.2236802510140499
0.3030918606301245
0.12104713270293248
0.08056782455349273
-0.05543884958420161
-0.15004694325506948
-0.27159553539326736
-0.07387956681110737
0.01649364257632645
0.002705466689127476
0.1113512309553475
0.18099776348542754
0.05046028909410276
-0.04945521684597226
-0.09930856703742616
-0.09047938295663957
-0.02302491143209617
0.09610701242235405
0.05400417769324061
0.03269488419752005
0.011198649493818534
-0.030862816394587284
-0.10885796533704985
-0.029523553320283735
0.010305051976344619
0.02190316989583284
0.020325876964307706
0.01899274869138844
0.024922824543164482
0.03607019315796276
0.041628662440539414
0.025441293216361745
-0.02820952068715615
-0.1280659036217702
-0.07091054799926237
-0.04037946554188285
-0.010752350028243355
0.04491291715375652
0.14476595957491736
0.08981244089011063
0.06060714950850371
0.020902120338980642
-0.0721720735220077
-0.05415817831065799
-0.13984541239849
-0.11487358301978665
-0.1357195020708035
0.06091161039214787
0.14127571201509792
0.15514835678229774
0.11998408327850925
0.21420035484231184
-0.017646317233582655
-0.24895035264534388
-0.14939195477625555
-0.16472292792400692
-0.10470709943058798
0.057194178071479085
0.1730972583305359
0.10331108511886637
0.09838143677970383
-0.014021897227588577
-0.03436074886095369
0.011607374018247909
0.08196643435142761
-0.06868537305705959
-0.07615100167997248
-0.15642175313806184
-0.10138151438556045
-0.0822658671379381
0.13963893529814303
0.1984460791096913
0.3107998053378857
0.07029060053626965
-0.1478814390874437
-0.17355926170516467
-0.22541034374117538
-0.2993483185495761
0.03268013074499618
0.21232840938741251
0.2769852275041219
0.24213577597246966
0.09175335474610676
-0.21909401265915976
-0.15067842576509832
-0.15981773493499624
-0.08302468921612557
0.07302822524808752
0.13190791327269458
-0.059857926784202
-0.04461644280293142
0.033144556820487406
0.014575593447713859
0.11738154550201074
0.13183594630157652
0.02330139214134595
-0.05878612266301516
-0.1676156877971485
-0.1453435922908344
-0.013448450822115985
0.02998456428604188
0.005801487671518712
0.14445081848774177
0.07548464860973293
0.01947804570060956
-0.01537681153141545
-0.03168823671227812
-0.037736292076406004
-0.04118622698727486
-0.04404314806737234
-0.040570575768256914
-0.018839835013376518
0.03462844299397744
0.12880094265770023
0.06303530195961558
0.025229849117008898
-0.005621181610950412
-0.053071257524024106
-0.13529553247578593
-0.058599309735300614
-0.014943391395334021
0.015423428717205303
0.05710401586298432
0.1309590744014326
0.04689398384620598
0.0005556936500182423
-0.025079332773586194
-0.05410919599518457
-0.11036578293597021
-0.010963773340945058
0.03730635680294577
0.03813139583886962
0.0030897935005334645
-0.05226989818824048
0.08767384755999978
0.035735402670601754
0.0006771961542183951
-0.012250063990783086
0.0004766269392939616
-0.15755048829575782
-0.08234845135228817
0.028333923936203164
0.17084647462508534
0.13151028387047944
0.08551155646319399
0.0009403792349555085
-0.15233613447170619
-0.19202894271696908
-0.11561514547452027
-0.09934263064446197
0.09465885908161036
0.30551318234760966
0.16023057087181664
0.0656872966306344
0.009532553934044442
-0.23055196467763925
-0.2737761197421614
-0.12569227235096558
0.02474901161478243
0.1992658687805949
0.21859134400239547
0.09094360261638794
0.006066578384634892
-0.06271474993710105
-0.14976727404562903
-0.08577181196865666
-0.08830866804737049
0.04234647843575034
0.12141618898439714
-0.0266575672602385
0.023827069773611115
0.09289733869852387
-0.009225952879564034
-0.08281097336878473
0.06378344633129605
0.018498347981066986
-0.029429228440820028
-0.08527858647364647
-0.14684532337600764
-0.0056789416712798415
0.14847185308988256
0.12174360762455107
0.11184419553975442
0.10822596232315666
-0.10235178529111856
-0.3268960687580663
-0.15827880361902388
0.02696340355339791
0.0628509711541942
0.1819014563465832
0.20175792012112417
0.11628243694192542
-0.10502404501782447
-0.10901925958217056
-0.1456411458340429
-0.05451179698340937
-0.056042195043172094
0.05064712856637484
0.08343735432510473
0.06908091503553165
0.03453469543347362
0.0005045016317292866
-0.021460797416888562
-0.028499033236558637
-0.02377403321525427
-0.01311052458379816
-0.002132512211251021
0.005451891682320783
0.008343219156734714
0.0072314791412161706
0.003924378891442666
0.00043529003272000386
-0.001707939501820108
-0.0018352545419257297
-0.00020351352295717732
0.002174757344836785
0.003880976614871634
0.003567565531240979
0.0004988515107134707
-0.004956539078271516
-0.011060541925104821
-0.014885057261830318
-0.013108599524334442
-0.00343763341541038
0.013615731086836214
0.03317618894497425
0.04544315207629735
0.03682405406227064
-0.006994328890427424
-0.09657556076281376
-0.03420313830585953
-0.010973813086464307
-0.006783985087837149
0.0065146142570540215
0.05955114173064267
-0.021135408998357617
-0.019151630166420193
0.06747799997129136
0.024708540629732045
0.024054274783450437
0.027381330164587697
-0.0057781591162373485
-0.10992897670492137
-0.10651347112867281
-0.00021818248255041836
0.019981403926060303
-0.024695336471023687
0.08907122026750945
0.17888466634401498
0.05193733086283851
-0.09480686001855416
-0.06977538021235179
-0.07958131762330313
-0.12272141669250432
0.013187410356385891
0.14984400593234964
0.11366038940824993
-0.06935630167346706
0.023010962662945045
0.008331549189496282
-0.09954614415261281
-0.08931284479676176
0.04781708490985273
0.1163516113182183
-0.0864731694986786
0.026373192673469898
0.030144770358195898
0.08894715096880834
-0.04109473569346823
-0.006333914290763157
-0.048698719219114374
0.0010276203141255402
-0.07199737260633032
-0.06513389825701592
0.039519598860815665
0.06969708211406878
0.05591911256818505
0.02495977183126433
-0.004383190686291988
-0.02247618169652994
-0.027424299239477475
-0.022202296697774352
-0.011640632709317247
-0.0002107730735454705
0.009018446265594119
0.014415823567670289
0.015304407960076661
0.011510537820100801
0.0033197452363364376
-0.008107859195864755
-0.020154248687912584
-0.02852067581763235
-0.027913192850254415
-0.01392503838645265
0.014109922106976602
0.050152562803278865
0.07974945538664673
0.08101978912670263
0.029170312045692814
-0.09593786672355151
-0.10127807714369665
-0.17450290223575887
-0.08338822771904277
0.017536494064160205
0.17440588792692385
0.21955345827673087
0.16064908417887888
-0.02206196802130733
-0.16912541425843228
-0.12849229518816593
-0.14067497693626366
-0.027836664375936692
0.010028817415250654
0.19189553696777029
0.14820785403207412
-0.08722297044692297
-0.08324659517835264
-0.014773412904005264
-0.06468833183251223
-0.02566905457778799
0.09766497246548192
0.08711801734807618
0.11140456288625168
-0.06990281076097399
-0.09895627314118134
-0.01045220812957985
-0.023430353013504834
-0.1365946939587534
0.07144345639712199
0.03706317476001769
0.0030762127806588956
0.00898170492767657
0.08244660705691587
0.03396678354977408
0.055879280743317744
-0.07412414545186599
0.013973266472817563
-0.10914318573292506
-0.06492114400176081
-0.06299650667336132
0.09857979890061701
0.02964501874687352
0.14284924583701997
0.04973041049337386
-0.04036551247694897
-0.11858242208095178
-0.17392020261576238
0.007726613290768586
0.04113683199733775
0.13633498068997213
0.09263252286354623
0.0953271655760716
-0.08278922377221529
-0.07515895173377242
-0.11263754050187567
-0.015376130118766899
0.011862507267964556
-0.020159216984700645
0.11107835684359407
0.03394399937740479
-0.02342457105380376
-0.03799996011661129
0.004874284168740111
-0.09044666405069178
0.06913111865615178
0.06556205916675863
0.07154654152957714
0.05497896839058905
-0.013948741347585317
-0.15428786538218034
-0.1672067108566644
-0.033343784258002405
0.08330740896465558
0.025291079111760182
0.028094386539151212
0.10708830015909117
0.04888522489031987
0.009878663083179763
0.12313395383035634
0.11299502003988861
-0.08512995019060157
-0.30429770395676875
-0.33093366789558637
-0.10111321912011632
0.4885943049192194
-0.4425213971367147
0.21057880541451296
0.5106296534608643
0.2603068118692332
-0.3992679681540545
0.42777428490124836
-0.17798109127601805
-0.5163617281775804
-0.4386610034372244
-0.13433370760829477
0.2618033100375566
0.4448116440596799
0.30745288440325946
0.11318257701021024
-0.11663482888255376
-0.19935518375818537
-0.1762453267215839
-0.09417465570984788
0.009028233192667297
0.11171086847784316
0.007867385975091306
-0.09881929093257859
-0.0034306275628296335
0.09194618515724094
0.17272101670096784
0.21150485411846615
-0.0253973940799939
-0.16546295057287944
-0.2153779090227482
-0.350731542454812
-0.11597412093905303
0.16287583839164613
0.3558068043373067
0.30467532728676827
0.20702232755163968
-0.18535875513672498
-0.15239008709676638
-0.18165568698159215
-0.1430545890985918
-0.07030877413791128
0.045899280803025376
0.052613047360130144
0.020036900771734024
0.022531962454597838
0.12029919679344037
0.1461531344979356
0.10044443787784472
-0.0448051730514186
-0.13412754698897847
-0.2133599012652754
-0.1164201743378682
-0.05874396852852445
0.16087493731517305
0.15196024649865356
0.12214281245325725
0.07008605800373588
-0.015337458284494681
-0.149656592616654
-0.14411110384862635
0.00205801863933461
-0.09534239771921725
-0.008633856311978135
0.09334496720557835
0.23473226497046593
0.024081356350503475
0.05120136683785599
-0.10929963316081898
-0.08926090277711256
-0.11651601905743271
-0.006585359734302351
0.04093444608300986
0.040825689863631616
0.016912169437578454
-0.004870435205572778
-0.0029362298474725815
0.03542516936259411
0.112369336742402
0.021100393009721347
-0.049503935165874584
-0.10859147772192544
-0.157762633531147
0.011163741632170628
0.013583926368529583
0.06541698630625369
0.17501395612152462
0.13730769720671174
-0.06688237131651306
-0.0656288508188712
-0.08665870288487333
-0.1478556826764925
-0.05139694818454115
0.016124594336365428
0.07770686865404845
0.1565598277733378
0.0671310432997443
0.009998252872160955
-0.027689100308257688
-0.06689187341983277
-0.12900285733318753
-0.028944764297259725
0.028530452597781267
0.04853304159327184
0.042623490886415254
0.024198406873409583
0.004536871487094268
-0.009397421257088312
-0.015238550390375454
-0.014108060803528612
-0.008909067862307081
-0.002740004898351012
0.002141104861923144
0.004693626801066918
0.00494804735548595
0.003586566452835905
0.0014943877086166066
-0.0005583411337436619
-0.002052620021009401
-0.0027132030919627785
-0.0024422655502917986
-0.0012758911038403284
0.0005957791730611336
0.002762271714908057
0.004549027876676321
0.00508554828328894
0.003549415666197728
-0.0004235947451657773
-0.006278905751257996
-0.01224898529439965
-0.015488607394656562
-0.012842772676553496
-0.0022588244399385808
0.015445956112346766
0.03506919944962911
0.046558341701637626
0.03628876345471203
-0.009719403776818443
-0.10126811171944329
-0.039565969251604965
-0.014680152496585714
-0.006114439359801029
0.013329935038905909
0.0713956757195451
-0.010415047316185857
-0.022512228636358583
0.029549748922542304
0.1250389173048688
0.03145225929147305
-0.08905060845903541
-0.07161777207994119
-0.14154392871470847
-0.11064187300780766
0.021381345484358008
0.2613922118365594
0.21639176481000832
0.09041537992672373
-0.1124717738191142
-0.17989974308890364
-0.2821262620710433
-0.16816253388595456
0.028652139030912863
0.17565336398206147
0.32129375290081486
0.27887252977570365
0.02087659810179882
-0.11279394222796159
-0.19523243670907692
-0.28888274560486893
-0.22680322404634393
-0.005680549112591052
0.20743475316838547
0.25826567198230943
0.1857222568483901
0.0073078184608812045
-0.08586902896529337
-0.12448771637659041
-0.15053477551397096
-0.005947524322396436
0.07577223423011996
0.07355036812303188
-0.020935017982801864
-0.005015210388950063
-0.06768229441212616
0.007314566312677588
0.038062636523554516
0.041164868120310755
0.02928679872683841
0.010350961718784319
-0.011377293020296145
-0.03287331989159766
-0.049832658342261034
-0.0554988485106296
-0.04195015185060616
-0.0040790616309107465
0.05471843183124568
0.11731755380090769
0.15093816260311302
0.11097304116752828
-0.04865832680399709
-0.160565638406599
-0.22901289074510733
-0.22109721359355702
-0.06882132161371243
0.1167007540233237
0.22244748468091127
0.30956817868181435
0.19698182313013282
0.05879565839464041
-0.1632927630915508
-0.337366381487361
-0.3174025853881725
-0.1276538223144488
0.038745111052957776
0.20720177049375474
0.4014709552292173
0.22541727815873042
0.055254866442315115
-0.1540990069265227
-0.25139649380764695
-0.2680597174811395
-0.20312878490228894
-0.020844213376987147
0.13781619316839722
0.33416602090236647
0.2098837966775869
0.17305530476719552
-0.002167084468939019
-0.16223641287830673
-0.35273725338515427
-0.1975958844365233
-0.08750596025909507
0.017698601102455216
0.17363700044981556
0.22891793498656102
0.20413970006667015
0.08017058668736608
5.545686339404134e-05
-0.11593882944939235
-0.1470291968219497
-0.1477843091380928
-0.13060194100291203
-0.0600712774215927
-0.060966194587508085
0.1622435180572704
0.0997227364774997
0.21164297853696287
0.11166308832066457
0.16339516882669144
-0.10898509330640108
-0.19906706207837477
-0.19203583433726693
-0.14196205186953983
-0.05910679971115724
0.0898633303589523
0.17019619525769789
0.06062700132049691
0.03402134127238167
-0.058176775232754094
0.00482548722642689
0.010792131480839422
0.11843309246325073
0.06691283161772854
-0.010315049941243068
-0.16954671105808528
-0.04226400984809704
-0.22620027094481557
-0.08550583447697821
0.03887191936146505
0.21078720873552484
0.0777594344360248
0.25390947913773726
0.1128799667927269
-0.006460666568618931
-0.1830249247844011
-0.29077329625786746
-0.17803111447462971
-0.055891976776166766
0.10092243528890764
0.14237167291255995
0.32625618892189434
0.10329282063972679
-0.0906029115674047
-0.2335791897714887
-0.11166472370088028
-0.11233850126025027
-0.022142788277602587
0.1704989037285415
0.26952063531696735
0.06669959170130671
-0.05799849589311232
-0.13043187021498434
-0.17330937196854387
-0.19884527365575613
-0.00701158956532667
0.2095377367286036
0.25648032142348715
0.12987276092695701
0.014031550280180024
-0.1130820233221522
-0.26955336982418565
-0.25987767268753453
-0.07172329752376431
0.11816448843056875
0.33099918948882356
0.37221885792661613
0.024406179630635422
-0.14865874259267006
-0.1879967722021406
-0.32193582612761074
-0.35359071181572505
0.14046339350994103
0.3995571764647877
0.2616619870410001
0.14828959233031297
0.0590723097898924
-0.22170669331413187
-0.3104933872867446
-0.20951400068842052
-0.09928519586771613
0.05730054825683302
0.300763676792136
0.25698619581272497
0.12350432395398823
0.06646939458812584
-0.17008286541529596
-0.2463068834606704
-0.20717057039473258
-0.06921503734666741
-0.01823894322651082
0.18192091478949182
0.17370887941305374
0.18982416001384914
0.04296645317013939
-0.07540893814066281
-0.18807866924119807
-0.1208336004707805
-0.09227428673260173
0.09147208985739225
0.03607170004843317
0.1541232058081827
0.05934274037376258
-0.037356871079466565
-0.12875531347798677
-0.010001360987796136
-0.07696167357024258
0.07419982610287745
0.04592689645174834
0.03763661104527656
0.04501954728977033
0.061303185954329785
-0.11957922124854925
-0.09919444683728891
-0.07225007846644314
-0.02751055808258315
0.04754774163354277
0.15984159470695725
0.10456723710403439
0.06308858947251428
0.006651523180771684
-0.09473430505871398
-0.26139023573132414
-0.09550516173723149
0.021056310877045997
0.12139313393636193
0.042671950543274245
0.21403974196734024
0.04796086337317748
-0.062085302196500256
-0.13734829093359666
-0.005364243441167438
-0.09095091946868215
-0.009793643867360041
0.03382482717826981
0.04536887257056837
0.03594996425478509
0.01771267460724271
0.0002918401557048243
-0.010889350979274905
-0.014547032407362824
-0.012299266261147542
-0.007033399829191101
-0.0015071458082745437
0.0024780208046903513
0.004287266108042194
0.004207905299212273
0.002995238533819712
0.0014337522791915487
5.684087388610114e-05
-0.0009302253907748075
-0.0015609194601592983
-0.0019363752864714934
-0.002068835066477686
-0.0018167744715139166
-0.0009482150880054487
0.0006835328693503171
0.0029201560640790404
0.005142380055323694
0.006294889234069622
0.005173414417050224
0.0009675596621783077
-0.006075293675861651
-0.01413246043309938
-0.01978100633225372
-0.01876994949517014
-0.007686239680292067
0.013753545858460066
0.040482314758534664
0.06094263500056301
0.05801498502985605
0.012468864451145608
-0.09163505895162853
-0.061361286494006906
-0.09168142713887892
-0.16697202834594455
-0.06821571314090903
0.2154290139316228
0.27469777964632636
0.27374956849971344
0.15437519772335415
-0.14761239816520716
-0.478011511019016
-0.44107691905964486
-0.1880219775943722
0.17635975355444533
0.3703321576724251
0.5042430136503622
0.2545146279787783
-0.14758874255427312
-0.510082571250112
-0.26298914193606626
-0.039480169383754635
0.336584501173281
0.05439701267136529
0.11396412052294226
-0.07793616465770269
-0.11132813507210075
-0.3765831173388988
0.1304428399170426
0.4013274911604823
0.20846555738872988
-0.09697334394409032
-0.1798641691324265
-0.10996307294263107
-0.14924317064909673
0.05747773917390046
0.08613943241104036
0.13181748240486077
0.004351267577357545
-0.07624531546919272
-0.08340167332715012
0.013084647255448814
0.044046615565608675
0.03766809442251412
0.016539256586118833
-0.004082092404833609
-0.016354614075283627
-0.01850371763534184
-0.012715240325105124
-0.003014581941803191
0.006371984229052723
0.012035972552775385
0.011931009861016155
0.005685550223078739
-0.00517332094681499
-0.017161364876772982
-0.02522675681573469
-0.023927088780438553
-0.009549877086056353
0.017085532464194458
0.04793311423119481
0.06631963398605549
0.04802318932178028
-0.03456370461583883
-0.005649895350407078
-0.07825928374728257
-0.047779137440770635
-0.08912363100222347
0.04105153543244629
-0.0029663786147036664
0.033070591989291055
-0.008761264021062564
0.09108745364838364
0.12379044657356601
0.052831853874051815
0.02196312864878071
-0.030744788715348453
-0.15603555998958754
-0.17857076094907245
-0.08891877887362938
-0.045748554761203666
0.01147458530502374
0.14245919158369716
0.18459208261409996
0.13686551410724304
0.155052003536816
0.16096847793061037
-0.13554274944637598
-0.40771735924294383
-0.2851511465764681
-0.1388491338394128
-0.08429271881218973
0.19750729994365748
0.4276218327247675
0.2962903215589525
0.04024679967993312
-0.16329046823985793
-0.18618303308502201
-0.12835552050258245
-0.0942251704101983
0.02688709271725147
0.1732686015562603
0.11643226170569065
-0.1383494909405365
-0.15516294753351215
-0.07417310090799888
-0.022517945329181572
0.07117661231521429
0.26143722346491716
0.1742109421056627
0.0030289560477462043
-0.08511528830170949
-0.13607324336289653
-0.19204888913409118
-0.07827157329360986
0.002737705252198809
0.06803464715992259
0.14432017143362358
0.05544278131411519
0.011871107345258718
0.005333031538459993
0.00974816300317981
-0.012244597819588003
0.10100708323048542
-0.07818838783447031
-0.1566986499925167
-0.11495677825514772
-0.10860759640373176
-0.0784934519386803
0.2327307376386446
0.26209089824682075
0.21243741803394414
0.04903625401035878
-0.09116101719203935
-0.28036257468064574
-0.17780342014925227
-0.2127653292645256
0.021320026815121813
0.16034825041256157
0.2542166281717365
0.14948221627532984
0.07683534348847541
-0.15271660787731117
-0.14336454819381603
-0.10559011966866537
-0.047795539945015036
0.027978432070579286
0.12541475514458156
0.04998704313639499
0.004465591706396588
-0.0138342221968218
-0.01310199734015445
-0.00473482249429479
0.0002555681621015716
-0.005025949885374261
-0.020476205907082
-0.03773906712991628
-0.04111695980427835
-0.010798697264673448
0.0720720593404453
0.01970133329489267
0.03303299701120257
0.09984825125783162
-0.0035151763289470415
-0.10706559630362363
-0.040153304780771865
-0.024828546089594183
-0.0717195308541939
0.020418769811538198
0.061731423896993494
0.06632934169793916
0.04747179117006369
0.01469511005028007
-0.026320503146186863
-0.07170341464137286
-0.11674474030958008
0.045553410418952466
0.02368794270404311
0.024902493329526612
0.05190686876458772
0.10087645621406119
-0.03795174040343158
0.023138228324645804
-0.12551037242784058
-0.08617293972805602
-0.05172156263091999
-0.007790325897058677
0.0611521578329695
0.16397595699873094
0.09659577919785446
0.040249062948932435
-0.03432328635421145
-0.1579833449749184
-0.15294346251846744
-0.025216776969999546
0.037330022731541256
0.060885865798601765
0.07760237725686336
0.11683360354385648
-0.0012222535868191254
-0.06787612312451302
-0.0846080987017221
-0.05981138631335975
-0.00570790906834361
0.06337878125188841
0.13165065073558907
-0.017358185980968974
0.0014299443178199475
-0.02158730507197803
-0.08653854724867145
-0.1815338084613729
0.11649043259583164
0.03696784045806866
0.008090517858879683
0.04884240041701359
0.16334917656443967
-0.06057655096412986
-0.04819946365316142
-0.031016389265685947
-0.038598023080506715
-0.09171288103372101
0.001334958780817927
0.0444507494223422
0.05021494560505836
0.03471960856051565
0.012702399019990806
-0.00561140736794465
-0.015481247227655972
-0.016807462599089624
-0.012300757996426175
-0.005531010761193556
0.0005323464684539318
0.004236337780031957
0.005278309934038342
0.004303103676090715
0.002351842705097217
0.0003895894482906139
-0.0009694618747770733
-0.0015258626624591806
-0.0014051348679686058
-0.0008985492541884374
-0.00030962205427706837
0.0001474798863678271
0.0003840946872380175
0.00041926854991738055
0.00033214042639594923
0.0002097381794140209
0.00010890032886027853
4.147205065215834e-05
-1.7202277730398086e-05
-0.00010333281396958888
-0.00023425013537711615
-0.00038491979493584263
-0.00048263381596414434
-0.0004268670489541791
-0.00013372856116426567
0.00040583415447347225
0.001075611856976471
0.0016199267779738336
0.0016919157856469121
0.0009750702005496124
-0.0006404722338137133
-0.002882349899250425
-0.0050077599729315934
-0.005896059835064502
-0.004380615095302208
0.00020559590133347922
0.007415884772159592
0.015269667008239252
0.02034313531423848
0.018615038370181445
0.007071250145369933
-0.014319701008603138
-0.04109131042467099
-0.06436959873374025
-0.07367722949776913
-0.06297977393905778
-0.03931980383021881
0.1682513499639488
0.3033490849004795
0.28512129771550304
0.022481122442003964
-0.16111027875415992
-0.49856720011646205
-0.35624969600940265
-0.22778039262546196
0.04965064720595316
0.2589974680247087
0.5577446424765607
0.4381225389870416
0.10702242294914834
-0.10740386898124424
-0.3253017036923727
-0.4722715890682445
-0.4393494438777825
0.14137244816186267
1.09990085886174
-1.0871203879813416
-0.1232663968162983
0.47664170969085706
0.3575247870605923
-0.49605381297496776
1.436300253436244
0.0278551131639994
-0.8593021310511002
-0.9300627787828879
-0.6214256289469742
0.10634719259056995
0.7470169193929455
0.8042801219494005
0.34696481745053
-0.016683620202555576
-0.3366077121904297
-0.49520217068996947
-0.37241884165999134
-0.017279275003771504
0.16431933355421927
0.20434236129634373
0.15589155616244402
0.07378794731156575
-0.0002790001927861752
-0.044542456170784096
-0.05614232598318612
-0.0449349677014349
-0.02548475834510523
-0.010068003713854459
-0.004401559964401819
-0.0066636825722681285
-0.009507683204617548
-0.004222743944028645
0.014134216817744275
0.04202778726582927
0.06463450451393897
0.05623052091722392
-0.015551911226084082
0.018001630598633907
-0.06376108603192004
-0.06210880457346939
-0.1539506826172545
-0.0930964953736962
-0.01873359308321101
0.13022565911178455
0.19880751163977792
0.20314530838351733
0.12624724918913183
-0.07526541967405163
-0.2552823560903807
-0.25892567485864904
-0.10725199626694724
0.0083200698279199
0.12034089109969061
0.27160548991403227
0.09948238665212204
0.024357715273015463
-0.15442602872302572
-0.05546283094302709
-0.10806562540807957
0.05540206822280381
0.005234301162413388
0.1175981015486347
-0.023967805252051024
-0.027799714042604635
-0.09380602055470834
-0.014098620594373605
0.02481851675804392
0.0383402755856669
0.039511185485811604
0.03574780170005448
0.02784041348052627
0.011753156151143675
-0.01728440942944197
-0.05985311803652171
-0.10866434400761156
-0.14821080831424102
0.041033412041651646
0.07443427911455813
0.15381270678796508
0.2611640843605872
0.15957514301667483
-0.19698340274552048
-0.24729264511732632
-0.20602978813001047
-0.25385278646677645
0.060356895306162776
0.204793455084567
0.2425962908013011
0.21059566995132906
0.10697719662624264
-0.10768761277960681
-0.0967817014200023
-0.12660827256933055
-0.24544452895781763
-0.06958646256892194
0.019492618688592377
0.06668530060258315
0.12709015346690247
0.24808167737780806
0.05568981029723721
-0.0506411493468044
-0.0942390285801507
-0.11104835977584175
-0.1377590032295312
-0.002610227710594338
0.07869856802277998
0.10214703335478519
0.07171511670672921
-0.004487687105114197
-0.11666520925968261
-0.05436624193311594
-0.0072178788773012295
0.03363713068568319
0.07344243694728249
0.11217526116576183
-0.05530735617200191
-0.03674751632819273
-0.03834062599294088
-0.06074596785369661
-0.09716085163168672
0.06543787510991689
0.042132259085819766
0.044593602835918636
0.07670534318097337
0.13349885137846879
0.004493797749203859
-0.11925726272396092
-0.23709352403125644
-0.1335770435250553
0.02033280040400833
0.0588707574872621
0.2084399253063426
0.27520272677721763
0.038804832899338365
-0.14461796153211864
-0.13101995198216027
-0.17314958379909093
-0.10730489002623138
0.053361801019814005
0.11771310960636926
0.10967066931851924
0.059270123336157124
-0.004662615813985427
-0.05839394511073825
-0.0840617246546015
-0.069088545414583
-0.006075473869532781
0.10600576750809614
0.05997407159036759
0.03960052157940196
0.02131352615212102
-0.02113117166360297
-0.11006796705230998
-0.057552606820307634
-0.06151273921638927
0.09411689461646774
0.03530891459198909
-0.008678212134565431
-0.012474170106721817
0.039373962367590755
-0.05139145779779083
0.10235450479946555
0.0755029476662435
0.0364390046567716
-0.04461686446226491
-0.18662552764244364
-0.19119163551698795
-0.04155699273870828
0.09155979011096119
0.2390346346762918
0.22185353155654758
0.044291489530340386
-0.10514243573649412
-0.24581153232649
-0.19444616784094945
0.042564840395984196
0.07059878577883787
0.10203863476672499
0.14846014634465535
0.013840340026536934
-0.10834174641120381
-0.03351285735637646
0.018724295367468783
0.03036901392240597
-0.00988236721704423
-0.10333203641382677
-0.04052864823382275
-0.003532407326779292
0.029053969610466027
0.07564285140634709
0.14606561520631908
0.03914353846740295
-0.05530318523909264
-0.15061024023898256
-0.05600191571168514
0.02899670820701594
-0.08378754099813074
0.026058431602157595
0.18157807818301128
0.0015500871797617965
-0.10501803059436658
0.058478598550571054
0.07676814558768193
-0.07415968822454526
-0.022190257535330115
0.006395638440694902
-0.008236849419278228
-0.07636646483827349
0.00202661294235581
0.03558871144704136
0.03811184907847375
0.02440150832157831
0.006783789677059031
-0.006863707705897402
-0.013366918501929727
-0.013207923311042346
-0.008875262062613411
-0.0032785933232493468
0.0013429022848769957
0.003882246276734546
0.004295661917542838
0.0032248104063332937
0.0015436665678975167
-4.3362768474855045e-07
-0.0009743947483213434
-0.0012804001565333194
-0.0010652012067522859
-0.0005868116659400642
-9.518647553834169e-05
0.00024203066332877546
0.0003631014213624601
0.00029689629441383006
0.0001272254903042635
-4.654810172343434e-05
-0.00014219822073959014
-0.00011656103975961854
2.3635794447261384e-05
0.00022181339602280514
0.00038346142145396345
0.0004015816684071454
0.00019512951054292727
-0.0002458417817472721
-0.0008225813557634987
-0.001318294964571231
-0.0014377502054957868
-0.0009057064436662985
0.00038871776321458963
0.0022449106389996797
0.00407100323294281
0.004949749551675642
0.0039024770918690602
0.0003365941645342057
-0.0054368171881694
-0.01182968467502283
-0.01601676049514597
-0.014612337361717177
-0.005028547808603679
0.012740759017776724
0.03450842599360793
0.05128753981315995
0.0504706030165976
0.019096223180004566
-0.051394421763023355
-0.16057913284982256
-0.09703222077001802
-0.04094982550394829
0.028060226602345414
0.11991287837195576
0.22374813161538423
0.10323555884333964
0.1011321602526094
-0.04624479902139909
-0.187793676313202
-0.33602520344240444
-0.05263535885502711
-0.047173991426518486
0.009310119880415345
0.058556720342608795
0.22391466350451755
0.18192021445684156
0.14426031550792814
0.055091569373019095
0.004529636833126976
-0.14540455986922157
-0.3296671712466966
-0.2526995666430184
0.027913271700382162
0.10311674210354752
0.20119879716596795
0.16975738162549311
0.05805295226439637
-0.09492633495127291
-0.06491155979684068
-0.040771821130056604
-0.019926974951844045
-0.0035444338419411046
0.006874671757929571
0.011114913806734203
0.010424735494664756
0.006896396043844298
0.0026527243920786672
-0.0007606156408089767
-0.0026206543557937517
-0.0029441261058899713
-0.002211243192092599
-0.0010482864476252878
1.885039021541658e-05
0.0006899343029218014
0.000899936641626524
0.0007522174059776884
0.00042406157517297727
8.404854786390647e-05
-0.0001574108582089734
-0.00026117922548581465
-0.00024543477464928975
-0.00015895730686954872
-5.467946983505195e-05
2.834464473775177e-05
7.20224447063626e-05
7.717045235193448e-05
5.632195861696003e-05
