0
-5.763906195694762e-06
-5.76390619568053e-06
-5.7639061956557565e-06
-5.763906195626535e-06
-5.763906195604682e-06
-5.763906195605246e-06
-5.7639061956409605e-06
-5.763906195714625e-06
-5.7639061958119655e-06
-5.763906195898753e-06
-5.763906195926091e-06
-5.763906195846001e-06
-5.763906195635598e-06
-5.763906195322935e-06
-5.763906195002743e-06
-5.763906194828449e-06
-5.763906194970631e-06
-5.763906195542913e-06
-5.7639061965129056e-06
-5.7639061976334234e-06
-5.7639061984396235e-06
-5.7639061983517565e-06
-5.763906196894179e-06
-5.763906193990192e-06
-5.7639061902313906e-06
-5.763906186974022e-06
-5.763906186114426e-06
-5.7639061894679665e-06
-5.763906197827394e-06
-5.763906209978598e-06
-5.763906222134107e-06
-5.76390622830596e-06
-5.763906221979454e-06
-5.763906199017974e-06
-5.763906161081905e-06
-5.7639061181751295e-06
-5.763906088557744e-06
-5.763906094539318e-06
-5.763906153834762e-06
-5.763906268167207e-06
-5.763906413136695e-06
-5.7639065350822745e-06
-5.763906560543122e-06
-5.763906420968931e-06
-5.763906089352991e-06
-5.763905617654777e-06
-5.763905157027785e-06
-5.763904940903585e-06
-5.763905217709172e-06
-5.763906137141369e-06
-5.76390761908741e-06
-5.763909259717392e-06
-5.763910342603637e-06
-5.763910010348054e-06
-5.763907605300152e-06
-5.763903109599043e-06
-5.763897525329335e-06
-5.763892972683312e-06
-5.76389229407537e-06
-5.763898072547812e-06
-5.763911208252301e-06
-5.763929498036599e-06
-5.763946919944915e-06
-5.763954384396978e-06
-5.763942433156722e-06
-5.763905686546442e-06
-5.763847861972996e-06
-5.763785222150906e-06
-5.763745842221722e-06
-5.763762630104565e-06
-5.763859913959765e-06
-5.7640364728642425e-06
-5.764251309025047e-06
-5.764420764520681e-06
-5.764434988208883e-06
-5.7641968690409974e-06
-5.7636772889253235e-06
-5.7629689378801e-06
-5.762311335883231e-06
-5.762058017663491e-06
-5.7625684819526664e-06
-5.764034485563785e-06
-5.766288179483639e-06
-5.768676101598676e-06
-5.770099349997189e-06
-5.769296595059827e-06
-5.765371407913323e-06
-5.758445836836909e-06
-5.750191415323408e-06
-5.743904768749605e-06
-5.7438262302101705e-06
-5.75359788327105e-06
-5.774121433359763e-06
-5.8015232302691575e-06
-5.826291510092572e-06
-5.834691432188334e-06
-5.813082657660853e-06
-5.754696412009451e-06
-5.6669597311605515e-06
-5.576074969375698e-06
-5.5250045718874654e-06
-5.562026464769515e-06
-5.720027071245161e-06
-5.991360569702499e-06
-6.308090724621282e-06
-6.540476693184358e-06
-6.525038399039317e-06
-6.125539236389582e-06
-5.315938940546874e-06
-4.257188084115559e-06
-3.3264439416142692e-06
-3.0566934923284857e-06
-3.964535986003537e-06
-6.286081345181092e-06
-9.697786127651633e-06
-1.315106152512297e-05
-1.4968198427333773e-05
-1.330401239749493e-05
-6.95797650267695e-06
3.6599581333680877e-06
1.5796623261355838e-05
2.4352371102824556e-05
2.303230726784442e-05
6.754774678528298e-06
-2.5140110671540054e-05
-6.599872624483336e-05
-0.00010088800081630579
-0.00010914910213398284
-7.12551812170809e-05
2.090819093405017e-05
0.00015341956424488572
0.00028439134476590554
0.0003483791988883372
0.0002749594456410303
2.0542795501264044e-05
-0.00039457044913168693
-0.0008591106776506501
-0.0011728647478862163
-0.0010936908728111396
-0.0004324426229415562
0.0008232129413516146
0.0024004041773178953
0.0037105745573408036
0.003957309511907995
0.0024097726311452005
-0.0011968169112745674
-0.0062576242306439335
-0.011090040521389524
-0.013140727769779134
-0.009755580464797336
0.0005219495291285096
0.01642256833229844
0.032750849667210265
0.04019360366610787
0.026666800093610252
-0.019758995974295545
-0.10704385847934215
-0.03580350166194854
0.002199964411768811
0.022951427284628116
0.04685433552503399
0.09451406007152718
-0.016829382195832524
-0.07529199169667887
-0.07487346998645462
-0.015405841667277504
0.0972831104274412
0.0510625969822261
0.027966795012170816
0.006395636183954072
-0.03485013165528245
-0.11175005575271832
-0.031232408983426236
0.01003711507602789
0.023584892043221076
0.024428997995080044
0.025381842217660582
0.0322627343722283
0.04158078938738571
0.041546626003657515
0.01637995250119086
-0.0471310215375721
-0.1528442701828676
-0.09085668622284938
-0.037735818042450874
0.03786640375350766
0.16573340379860302
0.16419397012456116
0.033808524835125954
-0.042727865451191116
-0.09449512822554924
-0.15273738257102742
-0.04166153433029277
0.027047215207832206
0.054676603527375724
0.0518038802630513
0.03273399980075
0.010406263627211604
-0.006722853491939985
-0.015432994190943326
-0.01663032480070527
-0.013313703321596673
-0.008562002750563198
-0.004211328374968779
-0.0005034541967808754
0.003377836066047343
0.0082333910872366
0.013731822849090903
0.01775321292685453
0.016571496642571976
0.005990860176252413
-0.016821114282093482
-0.05145585013573226
-0.09323861913772806
0.0661837355182009
0.036521138256066454
0.025567338954814146
0.036360025091671584
0.06603886656470778
-0.09309266247724163
-0.050787387150695175
-0.0156007981360556
0.007469990116323087
0.01767981554442569
0.017669530150682105
0.011758458095715598
0.004220853336817592
-0.0018854065095279854
-0.005144614530244112
-0.0055795731308230685
-0.0040961120835584985
-0.0018677287419857787
0.0001317159140896913
0.0013590302838399127
0.0017127046612494434
0.0014019413465082083
0.0007669363087168887
0.00012442075080178506
-0.00032265690528830157
-0.0005067273070255323
-0.0004670044392163299
-0.00029806706833626975
-0.00010004518472841779
5.4637445418691214e-05
0.00013367023305335896
0.0001401986254353318
9.882087401873937e-05
4.003737160274778e-05
-1.1429715932404821e-05
-4.222482502752325e-05
-5.0348969280498596e-05
-4.160951058152804e-05
-2.4936702212851845e-05
-8.44466059866212e-06
2.8057705877105705e-06
7.265993490702279e-06
6.08671897468675e-06
1.7519315635195433e-06
-3.2091018328652037e-06
-7.051687890377852e-06
-9.085270146188195e-06
-9.491372822529655e-06
-8.903726921047742e-06
-7.971027771456467e-06
-7.063554121150328e-06
-6.197488843016359e-06
-5.164801661175698e-06
-3.7893847682847304e-06
-2.1899124690044086e-06
-9.210132639100815e-07
-8.910176801913881e-07
-3.0197002807392686e-06
-7.69886641592959e-06
-1.423348784562707e-05
-2.053373094405967e-05
-2.334684200737391e-05
-1.9212886984811105e-05
-6.0789114852045445e-06
1.4851513699362896e-05
3.7811836189417676e-05
5.2666847448170246e-05
4.737901766058743e-05
1.2845577976101368e-05
-5.0904814549448215e-05
-0.00012942215401330986
-0.00019258518864984943
-0.00020035147428268548
-0.00011673533097995988
7.010020012774449e-05
0.0003279908114268856
0.000571080357938205
0.00067096580035885
0.0004952783434109991
-2.9387701359139502e-05
-0.0008470766144454219
-0.0017249555646208325
-0.002265365840171979
-0.0020060474691006927
-0.0006102682283919358
0.0018947557904092673
0.004920774134913303
0.007284101637814597
0.007445571909579036
0.004066069286553422
-0.003213104631206335
-0.013020392415432682
-0.02192600285657295
-0.02495239395338129
-0.01718031976106565
0.003661340483033472
0.03424646869233552
0.06344997565930591
0.07219590102437057
0.03632029430426218
-0.06754256516254778
-0.05437947028183344
-0.12399025764551994
-0.057703631312812885
-0.02048250712652443
0.03153174132297046
0.14005685209469831
0.1338026795840685
0.021444160241614368
-0.009082340704321939
0.015232411448526596
-0.1373470616629507
-0.09236692260979829
-0.06132545743047865
-0.03966886188334277
-0.011441699533562551
0.0408903920190762
0.12482715380704552
0.22882287700851026
0.12000833286853997
-0.04906771336593543
-0.125618727832237
-0.1381701369673063
-0.281084782184692
-0.10835644413292982
0.059848531047278525
0.11877769337718487
0.15396772416739007
0.2170686451090279
0.11004977053576837
-0.017489124459629513
-0.05727719648741542
-0.12102905091708784
-0.11489772951671089
-0.11641190982647691
0.04076907964028844
-0.02850873230804637
-0.06690959865654418
0.010854152165874046
0.09848186625115098
0.07787996109993921
0.2028785411058871
0.09072992593513936
-0.07675436132868248
-0.14353464099809227
-0.16510086002668098
-0.194964910728527
0.12379665347526396
0.1605723760967733
0.09478094516260199
0.11281440027041775
0.007648645191776928
-0.2180194872777842
-0.14698359788133744
0.05558393706017455
0.04084957395222494
0.07004086670892588
0.004617278669020526
-0.1049102220196012
-0.2296961649208055
0.028644346678093336
0.8333111477146138
-0.28489186775094866
0.5859378428304836
-0.6374155446778678
-0.4055473280828668
-0.7156152163846263
0.49216115014747286
-0.28322851166716784
0.8630871044435656
0.4059314834050701
-0.03421464122735036
-0.09499763055167142
-0.25565269555408726
-0.20843191451751913
-0.22980987850694884
-0.16169699270031984
-0.007987311126395391
0.2542744525184125
0.25512639846036234
0.21222971372936955
0.11997233044853249
-0.04857266114707378
-0.3281176912149255
-0.1421431373844419
-0.08650189611959075
-0.12231407390182596
0.019120152889088412
0.2211839781711345
0.16183814535617289
0.09521700579956775
0.040563667181736617
-0.018881042652991908
-0.12807025075612016
-0.14725590628927396
-0.13889939002898793
0.04161789589435622
0.14992627373399334
0.15252253080021522
0.02555379605482676
-0.0448106235198717
-0.059806616927867685
-0.2049839094755609
-0.049377446311753406
0.050975813159268316
0.14519358758872655
0.07771946703088835
0.08000736348769803
-0.03345972335623622
-0.0640077899259857
-0.023820389369185704
-0.12984221093418358
0.0007880877134342808
-0.047860324816063976
0.10770399498233524
0.04698856187079263
0.14299750146030732
-0.037050203573065765
0.0733150987647649
-0.1516491747754802
-0.1204050419027634
-0.01702910524513643
0.0007138562279200052
-0.0029857142383132823
0.04825245603571498
0.030096959194792498
0.004234730625222051
0.007273329678063367
0.04374982994543928
0.08448616003692878
0.07082386585796462
-0.07563309899857594
-0.03937482642792433
-0.09629939541788007
-0.1014348519161221
-0.08197335587771395
0.16309493060892089
0.057575492022652865
0.03941387688147773
-0.04825214857190891
0.03573540352308561
-0.07414347646772913
0.04744917893402382
0.015993107684738436
0.03779537928352218
-0.0881631839045516
0.0324009933028055
-0.008120891194363985
-0.016881100386771892
0.0009152508086329088
0.042527291275259456
-0.09269758325912587
-0.004400614286364935
0.10733654959633851
0.04072612031861788
-0.008102175842412462
-0.04422331041208155
-0.07224538049989215
-0.09500969350812286
0.08624418759209111
0.07008672480073953
0.05251314419861404
0.025584044863856882
-0.021774602676682162
-0.10090051766441364
-0.019682174406992627
0.020380994089535417
0.025225278805251456
0.007175172974936223
-0.01771721692413029
-0.03331445091552756
-0.027527988719602627
0.0035345526889024024
0.05220396965928442
0.0979360871815147
0.10952584096007528
0.051798330459706395
-0.10372217376174771
-0.1666783663657455
-0.11842905797631377
-0.10960209628398437
-0.06722645508502668
0.089111519226423
0.22600722045381777
0.17615614413651648
0.12607594759768312
0.016156616712972412
-0.046339054494435546
-0.16490294580829856
-0.2285625490162836
-0.0910725896399766
0.03990186661826913
0.001449736409744291
0.06351397829734458
0.1106556088253773
0.022617149816598976
0.0582385733368869
0.045784332318393475
-0.019100611357634845
0.03166884588539797
-0.05113353343194014
-0.12143400524987462
-0.026020717664314182
0.0038260691708783307
-0.04428490413202634
0.03453828604436853
0.057185336520396125
0.04562831993238529
0.020514665180316197
-0.0031344515220619626
-0.017491012438883586
-0.021106242830199913
-0.016687784834876256
-0.008562600834264602
-0.0006568690494221282
0.004611694820150661
0.0065432736515121945
0.0057441893688018235
0.003456303878155149
0.0009341603998016219
-0.0009526431278067221
-0.0018504501294816776
-0.001843088881559231
-0.0012654950684964908
-0.000507282162235327
0.00012872028947646342
0.0004889920997045309
0.000562378464378381
0.00043133418597635445
0.00021189052855059232
5.1755509022872645e-06
-0.00012866972478607774
-0.0001742915344325073
-0.00014963339091639662
-8.831057686514613e-05
-2.3516125768450555e-05
2.2188649689541706e-05
4.0261538585866186e-05
3.4208358894213456e-05
1.4732035456373642e-05
-5.667701697116353e-06
-1.7094603953796936e-05
-1.4974391905912776e-05
-1.0043181131089858e-06
1.752489190317575e-05
2.9894488171388278e-05
2.5450117370085224e-05
-1.9972745125572687e-06
-4.982778926559153e-05
-0.00010394424303332761
-0.00013976002167047686
-0.0001284252198088937
-4.838682183146345e-05
0.00010012106319361809
0.0002829152119353781
0.00042925873256167144
0.0004456070955622697
0.00024844416595702667
-0.00018883858511500656
-0.0007899131412162516
-0.001353469975432926
-0.0015799184944038887
-0.0011619582232228968
6.855004679157621e-05
0.0019771384618321717
0.0040176929716112175
0.005263229487873091
0.004642600288224959
0.0013861301557896379
-0.004418171054512121
-0.011368189024127525
-0.016675470560277048
-0.01673971595429923
-0.008471050472358483
0.008839740980428341
0.03167334801995376
0.05132224547019212
0.054715302413749396
0.027524252115549958
-0.0408089710338375
-0.15158905938942138
-0.09323155794715125
-0.04169997302925786
0.03409273856527537
0.1632116618729632
0.16321166156405492
0.034092737567691093
-0.0416999748387139
-0.09323156051784182
-0.15158906224876198
-0.04080897317177134
0.02752425208853367
0.054715305773299514
0.05132225262773397
0.03167335776306859
0.008839750090044503
-0.008471046815224769
-0.016739722718144823
-0.016675490486378723
-0.011368219965725481
-0.004418204184452937
0.0013861098789182736
0.004642610314676563
0.005263282471384097
0.004017787744246478
0.001977252582637454
6.863851101213135e-05
-0.0011619539023185568
-0.0015800492867290028
-0.0013537498507095436
-0.0007902907069594793
-0.00018918447459728067
0.0002483187984173113
0.00044589203125938726
0.00043005170333672977
0.0002841203073216858
0.00010138360053567318
-4.765570277314234e-05
-0.0001288942795832416
-0.00014189472009851483
-0.00010765934982917415
-5.420974936775368e-05
-5.273639442656719e-06
2.5535722540889172e-05
3.525126745425768e-05
2.85724785109131e-05
1.3592741910134916e-05
-1.961335844213488e-06
-1.2998034135640078e-05
-1.7681895262236505e-05
-1.6823305872017755e-05
-1.2679390811967118e-05
-7.750925082486473e-06
-3.939999634399835e-06
-2.18235760572513e-06
-2.4795640488397124e-06
-4.168182889956574e-06
-6.2665094457157195e-06
-7.795727629324258e-06
-8.03639749327514e-06
-6.7189852810722644e-06
-4.146301117286868e-06
-1.216845762037801e-06
7.112763989622561e-07
1.7346176908129042e-07
-3.8314183543870675e-06
-1.1166228401108534e-05
-2.0021237505622063e-05
-2.6857363797377487e-05
-2.7138670738784653e-05
-1.6964725126230686e-05
4.665628653195664e-06
3.369864995436628e-05
6.0099381235447245e-05
6.932547280420859e-05
4.687152978422207e-05
-1.4569111503327871e-05
-0.00010733209503894203
-0.00020387352639316943
-0.00025880632741646426
-0.00022090985198287166
-5.4984323881339846e-05
0.0002315047028166112
0.000567341607799808
0.000815653244412467
0.0008032498183522922
0.00038489225751893577
-0.00046891242836278967
-0.0015901953253617354
-0.002581681270027227
-0.0028794391192810726
-0.0019339640745266195
0.00051087252777915
0.004121786164335474
0.0077991113727527055
0.009775487486930606
0.008101866382905493
0.0015063447676187053
-0.009581341126994457
-0.022250183314802795
-0.031104759610824463
-0.029503493452506656
-0.01217562843258259
0.021219685359816505
0.0627034169021854
0.09436335291966935
0.09009677329502018
0.021468070986988802
-0.13315185744791647
-0.17885950535147846
-0.09777505952758471
-0.04930534181306437
0.021686406456417517
0.17071809414358835
0.23804114554820077
0.03688981289789343
-0.05034779564462176
-0.06708278351368271
-0.07092649298574193
-0.11978056388991076
-0.059836584015273635
0.08180076471564715
0.09929306040561636
0.006321850440605949
0.0324368621273061
0.018971747675511862
-0.18524893457341418
-0.12923536503853092
0.03287667022449723
0.13280450897175133
0.17957942191055312
0.1551269095190257
0.01713353871374535
-0.09017975420314196
-0.22022827243932086
-0.2086661306941456
-0.06428914212102695
0.03014187832566043
0.10747534625105351
0.2002930622633588
0.12580245405447796
0.07727692096412399
0.025227331126620227
-0.0721769023175502
-0.2533241571377032
-0.13791145012854727
-0.11799905915661806
0.04124918715899226
0.1915876820174977
0.18656213628190504
0.06711119465062722
0.05292119684122268
-0.058392071410079335
-0.28572256208598923
-0.05643042736277027
-2.7662881274560956e-05
0.054069203050048004
0.07532772539193293
0.23036681063556572
0.08420034095627853
0.006562380478767262
-0.21739544667811836
-0.17582294848309998
-0.22383289424006203
-0.08679998192207761
0.12539363385927108
0.29646065230587076
0.2811998163964863
0.09036136887548386
-0.11175065489506833
-0.19661597572383124
-0.0523200148869063
-0.16275842614232053
0.008642697804754369
0.02733231730268459
0.0879576243502805
0.008716018078969729
0.022787581246126846
-0.030416747546673045
0.08760634574838617
0.009812760970994535
-0.03833603608617613
-0.0385492060703014
0.021917586171149795
-0.048011832635705104
-0.042372212984370494
0.04141084104476674
0.0009944562475339984
0.027280161877255512
0.1033834931164875
0.005410641681283878
-0.09460626555677427
-0.024244951734466138
-0.006141549485133446
-0.05490570345069921
0.0235836907402134
0.030538319233382835
-0.028882040311909007
0.05107751269783515
0.07455729939788262
0.04408435130592897
-0.03678965794007869
0.04120499326930859
-0.10191987075310424
-0.23259260258973102
-0.10558865282596773
0.12809028329012875
0.10863616912595712
0.25419347415761595
0.15231054902751723
-0.03982349537942805
-0.18572372741629264
-0.15389885724066082
-0.2019318630112209
0.034103846160485916
0.14216575764547035
0.12968849823120754
0.015572889639894772
0.02271017287955059
-0.026537142975337758
-0.11163917248152776
-0.013222835175375026
0.0880206380588834
0.011887387011888219
-0.021464387190503403
0.007873006416144206
-0.08162081326538072
-0.07505784693435083
0.03541169917144909
0.046314160489964874
0.13921523131144542
0.0798746478181616
0.021940783804482257
-0.08463242978545556
-0.08237287302186676
-0.19581075190545336
-0.02546937578507819
0.05137093068226916
0.07335538164768353
0.08385674898606554
0.11981047218875257
0.004078681132512381
-0.05686013896898143
-0.07025026576055604
-0.05146387663036694
-0.018056231456798393
0.014585611091925656
0.03532156663853903
0.03753579651137174
0.018634737527993137
-0.020349640817691955
-0.07474943175066613
0.06386748259604687
0.00743300773955628
-0.02961504450594649
-0.03214491120046024
0.013044146429190004
-0.08612674326468048
0.06931667573048618
0.06635780631138456
0.07899043729646447
0.07068516677360913
0.0009206957301331082
-0.16516490405439305
-0.04657866598181778
-0.03914277359477612
-0.11392517484113941
-0.022652520053035228
0.09082319195938594
0.07593352214317631
0.16194223151083825
0.15001460415603557
0.013754667628194122
-0.09158855443416426
-0.21423429536726452
-0.19061467234352777
-0.03529983163680905
0.06053655304250864
0.1224078795590567
0.18118256900221996
0.06218322752576381
-0.021163769755702767
-0.06760324347899538
-0.08358614022907694
-0.07720768611475756
-0.053855684464145966
-0.01564703977507133
0.035191272913492874
0.09072452823341375
0.1324692057571421
0.13044424378337596
0.04809983545834909
-0.14721213362545033
-0.27134005240423453
-0.11306448456557357
-0.031314576629800965
0.03793241484274298
0.16677693092119011
0.21746848973629831
0.027422156432689238
0.0018045535045330351
-0.08474494566001119
-0.07893341849414993
-0.03584984141342946
-0.006125671838641013
-0.026054360737691164
0.0879972612633332
-0.05924383952456274
-0.044740095499943115
-0.033280676980174416
0.013704984858713302
-0.07223820604601237
0.12331790112059415
0.19048614576187547
0.09354463778868753
-0.02302722947237218
-0.02128505521139441
-0.1524589720339667
-0.2407093905628946
-0.07351201171591602
-0.002398866874748193
0.0455818870297515
0.14901947212907288
0.17179593742098165
0.14763118043098608
0.07424899893707229
-0.08137847833969099
-0.16911179463498696
-0.2385325745282087
-0.12513853387002163
-0.0447200431900777
0.20293084586171872
0.22406598593056135
0.2206307998558638
-0.01477391899587575
-0.09596995526770216
-0.23408101339847753
-0.22740096166907575
-0.05610573632095966
0.11471903397712323
0.12441748484224696
0.20292200675870287
0.15971144985360713
-0.019749814662856847
-0.16876732632067915
-0.1278458400397557
-0.1317444858460354
-0.0001433006081057413
0.06526512458250812
0.07745798786104495
0.05704925092758054
0.024801078255031212
-0.003782330253521388
-0.020697840783192402
-0.024824085400128874
-0.019561998070516996
-0.010029749708145647
-0.0008023158264814709
0.005326285127471957
0.00756166039098202
0.006621416122142994
0.00395545672751403
0.0010252318529627492
-0.0011555453834197964
-0.002172697453921899
-0.002122713834854275
-0.001399973020525352
-0.0004714105900239994
0.0002885092611160323
0.00067656819556487
0.0006642203342449791
0.0003548537663721573
-7.545420738262397e-05
-0.0004345342133320068
-0.0005616518631256722
-0.0003673733090317328
0.00013313284054233005
0.0007993545527622139
0.001371932258602212
0.0015242689937005833
0.0009687737399473621
-0.0003946730932465062
-0.002331436906233709
-0.004197810815488504
-0.00502058785246209
-0.0037854245814404486
7.93012741868626e-05
0.006136447758959795
0.012504652909766403
0.015814578462026517
0.011761989220999356
-0.0037258375637536536
-0.032984504847989767
-0.07531419578507727
0.07350909695195904
0.02060859690714007
-0.02553087777094734
-0.056979195599755436
0.13186532057277434
-0.05697791351059092
-0.025528913441361042
0.020610201551755015
0.0735091723163809
-0.07531650177170941
-0.032989234335869914
-0.0037318434830781763
0.011757091494040906
0.015813923611629657
0.012511024246073123
0.006150731595403534
9.898359179059142e-05
-0.0037669662016214674
-0.005013191887887343
-0.004211549160093011
-0.00237179417288965
-0.00045719139869527246
0.0009020598730777593
0.001483813894168626
0.0013929182662005461
0.0009070993998907582
0.00032488983723354765
-0.00013734818657000353
-0.00038451135443400854
-0.0004282734940677463
-0.00034234022378674164
-0.0002121885440792057
-9.773559351308217e-05
-1.7903941877467555e-05
4.29842237910057e-05
0.00011366921270628722
0.00020960030618818483
0.00031293685191235705
0.0003683584983415917
0.0002999041733976812
4.738099118185859e-05
-0.0003875188398636786
-0.0009034195842880523
-0.0012923964549974966
-0.001283675331586731
-0.0006439855424235862
0.0006832170572569582
0.0024462299071536593
0.0040305228822332655
0.00455228848830684
0.003139581193466219
-0.0006289425919886023
-0.00625268543461568
-0.012019033580062247
-0.015144146518674613
-0.012529001321401303
-0.002123460729520735
0.015404324300586556
0.03530781851256304
0.04850824509150596
0.04313119957725757
0.008000521430569474
-0.06262409035386168
-0.16474193887127145
-0.08292924735878408
0.007043969909285176
0.13131947470283686
0.10899986016739693
0.14480156867780108
0.02668219082830733
-0.0701985145604747
-0.17461629210094712
-0.10917658888783259
-0.0831586209923407
0.10895727023169462
0.08323199894603142
0.05870597363304044
0.050003539112362286
0.06292610457888008
-0.10583774443220571
-0.0655827193119986
-0.02696739700917845
0.001960874243722797
0.017748163801147087
0.02136567680825012
0.0166247011341183
0.008189007711389355
-1.169906780755635e-05
-0.005588426998743977
-0.007744906416424018
-0.00685140810685407
-0.003882017687344389
2.5382810256911582e-05
0.003783723410797299
0.006397309735975085
0.006972875722782297
0.004848378062236199
-9.876661949930129e-05
-0.00704421276832094
-0.013932874253712752
-0.017617301406517957
-0.014664116069911259
-0.0028640716192250924
0.016857645713615164
0.03879859442702797
0.05199308970443648
0.041666067771147335
-0.0071380572047194755
-0.1044310717864664
-0.050271877880433816
-0.03189206842908455
-0.024488974219126845
0.0040216574781661895
0.08543403531271836
0.0430605703397865
0.0854544256942899
0.004060331100154839
-0.024438118780982645
-0.03184146115547177
-0.050240740414454546
-0.10444182527634176
-0.007207845645711082
0.041537170605717065
0.05183284920765804
0.038666002074916536
0.016832654358237508
-0.0027074575459148475
-0.014297764955713953
-0.01709965155482428
-0.013430657111359316
-0.006813379500726763
-0.000410294255405169
0.0038332114245771183
0.0053455376458376854
0.0046034068520996825
0.0026084475729368224
0.00040270740253429505
-0.0012448328987080157
-0.001956217712304407
-0.0017159766395705345
-0.0007714820521959818
0.0004762131079589295
0.001564350077165382
0.002050398111207393
0.0016065566542627582
0.00013891674670056832
-0.0020888253497290715
-0.0043858200864247965
-0.005700269963642146
-0.0048882308105006895
-0.0011873144827370917
0.005209742695335311
0.012704883972752356
0.018265682107393263
0.01808296848715534
0.008995656608918533
-0.00957164827046997
-0.033819766606796545
-0.054918872347009685
-0.06050400830903988
-0.038911868048832406
0.014189844555365667
0.08839508622224639
0.15313727248711262
0.1574222882545198
0.03699451898971712
-0.07109235545801061
-0.2096050954249666
-0.18359654964845257
-0.15045709155326323
-0.021902801932390203
0.12156874881276959
0.20744595305937155
0.14577041791846435
0.008460087740475065
0.018210375625511508
-0.05166099570627016
-0.06821539807672043
-0.12432212204527031
0.07766908109115589
0.041142420793274265
0.08785356179031696
-0.032524405288301805
-0.13652798621996665
-0.20601314582768848
0.006158779215148425
-0.03660269233870029
0.12764878724156015
0.3413566609270463
0.21514094058159217
-0.07392660365506264
-0.17225844439929822
-0.13146712609573474
-0.18881606923264516
-0.15366178385048754
-0.004510749424711471
0.10286776063085311
0.2199889072880639
0.3892693478688694
-0.16680620492402137
-0.04732683560753393
-0.06627302176526345
-0.24220610803031695
-0.39030137655007885
0.2789466586299103
0.15383565077915434
0.2122871281974256
0.2159656981717205
0.11341919229529406
-0.1460212594584289
-0.19103891817383184
-0.2074688356092064
-0.3269045814114155
-0.23200030576229125
0.019155729925036714
0.1537642404634864
0.4407237345555527
0.6573474316883293
0.4805092024069708
0.1101829379774748
-0.47765238942569144
-1.0641960697016348
-0.9309229538244845
-0.4354611481429559
0.5688942314518485
1.8780018099129963
-0.12980963836542336
0.25626450475327894
0.06395486186174502
-0.543132894152847
-1.4266701353332811
0.7649394515345573
0.0187530382626474
-0.042385212917235245
0.023475176922200736
0.25359254524187425
0.25944439474379044
0.21590851955092982
0.06482716259448783
-0.2678544736280125
-0.44765195584689127
-0.3097027805284196
-0.0489091317106422
0.17360970673199763
0.4108118029525835
0.3057680099670503
0.07387758937555765
-0.10189314519851388
-0.26240326189902896
-0.2559154703656108
-0.12188902893010635
0.11868438439420462
0.2645055410738698
0.12930679227847094
-0.06416239001482106
-0.08820712918133315
-0.11200957037649868
-0.10324272065385391
-0.03177124711454749
0.12390553590494607
0.16914709285945662
0.08792243220805959
0.04307564645530237
-0.01653483130078168
-0.14349749946036794
-0.17778928767855634
-0.13596318572681784
-0.007240597541305983
0.6425745223078916
-0.5386101025263632
-0.10135003028009934
0.1932659105037061
0.16324179392388652
-0.4010957759311581
0.8624389484915843
0.09608851795245389
-0.36085136245462485
-0.5501586179912293
-0.2761455486671721
-0.09958013119381534
0.25150873508690696
0.45783188570006106
0.38193262901670566
0.04997691326548683
-0.1506405147551008
-0.258446233565813
-0.317142155739349
-0.156951225260857
0.01415999719074371
0.20699389445899471
0.23877111798316006
0.11886105098275719
0.03949146637801194
-0.024780647814848962
-0.10935146532273382
-0.24757873394780444
-0.05989127155008165
0.051564524245699316
0.10101000157820754
-0.08878621615862677
0.10313623625587111
0.08684342502143423
0.05689135756576035
-0.005713967886135966
0.6755700350154928
-0.7126431148891483
-0.3583051034426868
-0.2149355655913795
-0.005901385370438365
-0.2441564558656212
0.937737981701295
0.3585756685494189
0.17318942192642112
-0.12097548100886157
-0.45632842590264666
-0.3566170146204298
-0.10162613193879012
-0.10706424798716004
0.07505697985668834
0.13771089782520848
0.18934660893804628
0.12325917020428971
0.19460936543491292
0.010720388920802768
-0.06400503473365081
-0.09144921651139097
-0.13742657401971545
-0.25076419107676795
-0.04993836667273444
0.07947264258618518
0.17709548237030795
0.0938040598573442
0.07695704238828024
-0.04066324084406952
-0.04623134803291642
-0.1471727800586073
0.0316097159274295
0.05166045114780964
0.06528479565916506
0.02067943830553914
0.06863035760221715
-0.029167113592244925
-0.09133919678663656
-0.10988716218676464
-0.04772245829610686
-0.04263938749724772
-0.017976593576188592
0.10188833262606466
0.17482040599141982
0.0273669561529335
0.048126748880603525
-0.010089874976778584
-0.019911856101024136
-0.06352885264220175
-0.015054545465112281
-0.12504194358681617
-0.010414109478514996
-0.05184264021770319
0.0009972247271256324
0.017549488373048417
0.07054208161039818
0.019697484885525685
0.09860829933242077
0.10777263029381647
0.015508762315964587
-0.03332130375573283
-0.10286527480352747
-0.04984446270576053
-0.10946503540894424
-0.08729853315338726
0.0410084114135169
0.12258032523529584
0.01512868311982939
-0.02677237639580268
0.036350295293819494
0.020982923259307396
0.11813120166801273
0.09674944098158093
-0.08732883551783013
-0.07881454586203276
-0.11014903650981232
-0.19261450528194435
-0.11474398213934445
0.1509616706416385
0.23526093507301296
0.15840375689030814
0.12119825652445443
-0.09527997150029782
-0.12143362471036262
-0.18621144376416648
-0.10519165770441725
-0.07458687603600501
0.1267538672355813
0.12877457145325208
0.15914406744102072
0.03442926431715875
-0.04324677369339418
-0.08360667051763343
-0.10185218150364558
-0.11196541764692841
0.07736261521538473
0.06296369519758772
0.04437708880628594
0.019987810039854535
-0.01594256778989763
-0.07435152973181912
0.029460734440101364
0.0781639050374461
0.05591357513391654
-0.04715270793421309
-0.030039574059004027
-0.07703668523859364
-0.15680706684634246
-0.025982719100473003
0.16257087950889704
0.04865079122812017
0.05420645674463116
0.17710088164085797
-0.008488629915490613
-0.1449270537545308
-0.07951114296434914
-0.05226364348469676
-0.08707198743782123
0.011352005949066343
0.05440950217514919
0.0621695682182404
0.05446752696892144
0.04360398366055066
0.030845044682243746
0.007496329325327099
-0.04018572993002525
-0.1241970754064476
-0.0486681115327676
-0.006721817522623809
0.018572355885440914
0.04966357720726635
0.10825334753604186
0.009604582684150247
-0.040810912717896684
-0.04777761443181735
-0.024578343731009217
0.009768677776901932
0.033323384823502035
0.023786593274798783
-0.039027334152034084
0.029364876733600276
0.020644891167564274
-0.06419786804420828
-0.013730626858639485
-0.006476070381083836
-0.013179773310361437
-0.0008010877671552405
0.06247127346256266
0.002260611847508646
0.03423248019558868
-0.037683487961003743
-0.020856042150474607
0.0683924672476945
0.00846688206686028
-0.023134023984605828
-0.045577253372089725
-0.07167141648127387
-0.10718820230247804
0.04693764808736919
0.1902603910284132
0.11844015732667844
0.021439740299994906
-0.11419148988041926
-0.09974341200236718
-0.13831474218522322
-0.021584618589315294
0.06878023087604615
0.15564436695675699
0.05941666068932997
-0.007344966525981825
-0.041770156469621615
-0.04893452883013553
-0.0380708132464368
-0.018719368131748956
0.0017307143213756257
0.018647716665547025
0.02936693593750243
0.03199018200937231
0.02479594979395355
0.006874665674507505
-0.020077681751424162
-0.049591422209359644
-0.06914384483550767
-0.06101861967272784
-0.005902261045413603
0.11138757482998031
0.09597554179637001
0.13948131905053107
0.02124704241225071
-0.0853690299976985
-0.20369505275866903
-0.14539187065417647
-0.10712944449254012
0.12563374742648736
0.16907423627898166
0.22998721577344422
0.09871815158018186
-0.05026648058216602
-0.2501423931949345
-0.1295336402666891
-0.10186778076958462
0.03926752811201112
0.1174476499320551
0.16544424920416315
0.01584561446585177
-0.10618174950212599
0.013681231622622036
-0.021062206497553266
-0.015601201282242131
0.019139776714951647
0.06959174653437784
-0.0775307156911852
-0.03271682725347048
-0.001981948589400931
0.013543937132807977
0.016690871142724568
0.012429015236982241
0.005873947892217264
0.0007496707115651312
-0.0013561391731917438
-0.0009175537925745252
