0
-7.147053518788779e-07
-1.5430581359195866e-06
-2.0912562745329813e-06
-1.9265271671228724e-06
-7.162472998530028e-07
1.5500051063903783e-06
4.368298172507617e-06
6.670146487054695e-06
7.021396079837659e-06
4.116756631750556e-06
-2.502130842427629e-06
-1.1729220890110049e-05
-2.0531114117598597e-05
-2.4323275843685405e-05
-1.8329051284247624e-05
1.778252749533546e-07
2.9339570335929066e-05
6.096918176557515e-05
8.091147578962227e-05
7.255490973771167e-05
2.3592306062290045e-05
-6.541558581327462e-05
-0.00017384758383725331
-0.00025954109615339575
-0.0002670677983360556
-0.00014735083167521988
0.00011446090782242295
0.000471805264911645
0.0008040028310993277
0.0009327038640717733
0.0006763021148568671
-6.245886388781052e-05
-0.0011995831148105334
-0.002405956201537014
-0.003127110988425158
-0.002725324140872142
-0.0007448403844550306
0.0027593052677728175
0.006954421113276163
0.010193229588762735
0.010358908003938115
0.005643375507256802
-0.004375885080546144
-0.017725858727182565
-0.029650837426394034
-0.033442148462136154
-0.022864564323554683
0.003939027285624756
0.03987589249405529
0.0651358729728679
0.04601538484091479
0.13782640314053193
0.09236451150739661
-0.13129552430548444
-0.555981760407051
-0.18028597703966695
0.21920265525634264
0.477780855728147
0.4303686943819731
0.3049693459069224
-0.8738950213999825
-0.6751033380939787
-0.25350361216344897
0.4467001376059281
0.8780747096596488
1.0755365771951484
-0.3462825773930842
-1.3798249649123264
-1.2053301144312694
-0.38349737420318913
1.1280025948470873
2.3403029741838637
0.004062881791057028
-0.5913914471162309
-0.7841779659915982
-1.0874455371182132
-1.1463027532394183
1.474138870887776
1.0662427324755108
0.1379251148448551
-0.42678764127073665
-0.5904525084813151
0.032862839482346154
0.383907571834377
0.3706052297323123
0.08565429543947954
-0.17040212097679713
-0.6641418281754468
-0.4104286991298207
0.03134007780326037
0.34220745998549745
0.41475479802215776
0.32201912878436195
0.09681993205162744
-0.07109195778120181
-0.22073526307799948
-0.39613458766955706
-0.223962598722445
-0.10193994543496954
0.19797237373365675
0.31432158810015404
0.27678953152056907
0.0919271953440554
-0.059817708383086796
-0.2152385248895757
-0.21247523641749028
-0.07550724647363764
-0.005559725875150608
0.01744813442794856
0.024236156241595152
0.03998100374875839
0.067602514716198
0.07550549287431653
0.19394016014445042
0.12264153178739874
-0.04987448416316479
-0.0179965840702233
-0.02747147262513289
-0.24869413546394695
-0.36356836509411355
-0.5733075034978052
-0.030585568002560636
0.10754205121721887
0.8184264317618485
1.7640149250588193
-0.5273766698000374
-0.43711602088903223
-0.39663384575846866
-0.8142555666740199
-1.2158641540523225
0.9804120128699049
0.6506003481231439
0.32351491504169455
-0.06852196913561452
-0.22934737879070066
0.27929617363478904
-0.1661752110673772
-0.041370868387425805
0.14481964908321704
-0.12674703477784335
-0.16255070407990163
-0.037608912809316
0.01603300619304111
0.011966665912177888
0.0037302276935137885
0.07284702758640402
-0.08668489539773437
0.015166947782838764
0.04937843760144135
0.0561878877896264
0.03876833849857547
0.16381099727242368
-0.030413251550291173
-0.01956192964353973
-0.07525534311930847
-0.24814927730171468
-0.1569659958822697
0.012903900984676009
0.10059179173439244
0.15378382481066086
0.21140392926445892
0.09121877564226681
-0.013420257503054344
-0.12713696548939052
-0.07953390134103751
-0.09105592501625036
-0.16327664898666583
-0.07747639227152876
-0.0025957634067160598
0.08953710648903364
0.20669890793162343
0.32315847819919524
0.17717935313781347
-0.11768310180319262
-0.24934102794461077
-0.2789289589924047
-0.21709961950669338
-0.013033670216198051
0.24036595301714075
0.08728351669736963
0.08194033867692031
-0.039374481028809985
-0.18201858296226286
-0.1096562006599017
0.34779351027420086
0.4970482930838869
0.19781303658771354
-0.3068356319655533
-0.3508512049326566
-0.4073104256537235
-0.4655410376810713
-0.033072098081783054
0.4361968759140406
0.29588654573582235
0.25813596038337244
0.3577212256486176
0.14048300949357145
-0.120892447094935
-0.18925721764278286
-0.41575089187274256
-0.49809740083230564
-0.2578056368405432
0.15684193991290074
0.4444475129144251
0.511964874359925
0.23931762975038495
0.05999204313605343
-0.23750864197192156
-0.4918091542856273
-0.3452390706226154
-0.026393432571791765
0.25463938795768787
0.2993211036626393
0.30903897669691527
0.07731526439989857
-0.20916701945884758
-0.3617839049818791
-0.17951233987134507
-0.044086371488702564
0.0749927882989711
0.20664301757751352
0.16114461655886891
0.11707514106704153
0.018018028700500694
-0.018658438168885284
0.11743801431149176
-0.045285587509799816
-0.3363118702462567
-0.32730016495197584
-0.33148286059412096
-0.021478317290898167
0.33742905157775044
0.648684522009491
0.5552993029346768
0.4336536177404374
-0.3842991244124113
-0.9674054386099111
-0.7383199691656703
-0.2446270516522458
0.2376645688651459
0.6686067895342163
0.5912539279645601
0.08191784125197495
-0.0789740358574519
-0.2081844151512831
-0.09626309546246135
0.23142100142837263
-0.04100665734385138
-0.2791422442799126
-0.36866311936358215
-0.3033348905887841
0.005653185211281648
0.5009247051718202
0.33924760300722767
0.2535186610152745
-0.0723227497810306
-0.2102584222953428
-0.17922727349407053
-0.02728709820184354
-0.012654175370905284
0.01103043073400836
0.0030601947748908876
-0.06218943908285014
0.001952349975443036
-0.011505213122892816
0.08983795397166701
0.09243724153514868
0.17573184171494752
0.11715201364513521
-0.09698536230024916
-0.25776797321832706
-0.3228948483332104
-0.21525924211082542
-0.03491946745489825
0.31684335957777265
0.5087226400540728
0.3568681081099259
0.01854343991378408
-0.19433421813019042
-0.38662497322407857
-0.44791534744857814
-0.23008750418344556
0.0566336904273116
0.22836116699360415
0.3004962068278471
0.46159964843221407
0.2607838852250931
0.016182340666118494
-0.15617615245359584
-0.3023647106848583
-0.794632344633937
-0.7156300315205136
0.1265407508505498
0.5529522925337073
1.1519966433245703
0.6238320496502259
-0.44754761926195397
-0.5853364464004276
-0.18042231636832523
-0.23780492408079645
0.2745256933277698
0.46427344110214
-0.062213145815488244
-0.593683029197373
-0.9271530382498085
-0.40464023939494154
0.6267042303004422
1.1420501337867632
0.7762390201181875
0.3962230058541745
-0.07605774478457382
-0.3935497977012778
-1.0882272550791852
-0.9813013595955016
-0.32977033617803375
0.17336871369471252
0.5476323339064898
0.8432149200611757
0.8595560714627154
0.29275948401993895
-0.2725116825918416
-0.5289948036259406
-0.78881654721501
-0.527122687154332
-0.14955781999128498
0.40613377642955467
0.4389334398595282
0.4396294535766286
0.2514348982777432
0.05077559850216823
-0.24657108485978602
-0.15854179126466605
-0.20008187499951685
-0.24940405841849303
-0.1274583422642256
0.004137880839722092
0.027250126334794688
0.23916446756349682
0.3213457801808504
0.11463151047787067
0.008029779464214312
-0.05647054466542854
-0.1659599802058575
-0.21218085147024884
-0.06829069620061866
0.027149082409074803
0.07625641569267162
0.11874460655075138
0.02255954403647518
-0.12867454997457597
-0.249442104324052
0.1335614959534787
0.0682452797576433
0.36771572936674723
0.208807867698927
0.14172012387082375
-0.4899754771009272
-0.32496748324769814
-0.3651294340926054
0.02946928680622998
0.12833004565767794
0.40568075448034063
0.5134875301118765
0.2638254462065967
-0.5723547783598433
-0.2510368060659366
-0.03380650510382098
-0.3701328111612776
-0.29081240045023665
0.7862712209743178
0.4433786993318203
-0.14783074416462477
-0.02730788249876085
-0.03617198085883133
-0.39983886179771316
-0.3131849251831199
0.0647104735846437
0.20296363242901833
0.18079024399275126
0.06561067169146277
0.09498147431570435
0.06766531805599545
-0.05454406337644998
-0.13600979277211478
-0.05148097332266034
-0.07016117012158352
-0.04362848593355067
0.00025027520384787554
0.057405822928859415
0.1433623335806701
0.08728624130289528
-0.07353122056125402
-0.09806553116358553
-0.14596289853297176
-0.18402552098285235
0.004001913080234494
0.20566153376942053
0.3704629824308943
0.4093078355452205
0.007682785026685844
-0.5473127802276446
-0.5327682087577149
0.040286415049773386
0.24323880601420372
0.22860907081753318
0.013971371849782655
0.0566266376900101
-0.5770525389934158
-0.44657159384805983
0.2239724179552109
0.9075448170265874
0.34602700230500977
0.1446836733307711
-0.002894884453246748
-0.06174388823030934
-0.7871601780196517
-0.4597298509123942
-0.24191411441100547
0.03254850609637076
0.03626598069732957
0.7038045030401666
0.7832021920799743
0.4015591592054462
-0.34424393292564814
-0.9732169186153641
-0.5962287723067712
-0.3012003800951019
0.23943756429200333
0.5394660421196877
1.061473522748644
0.3908197663712264
-0.36422978938257705
-0.744281287100116
-0.4946769093839875
-0.32482716981573206
0.11300589301721455
0.42042270149275734
0.43166644999200116
0.18750624039532338
-0.08356002908066525
-0.1708450642100929
-0.07533768907587042
-0.19837098210393073
-0.1324165102057484
-0.05904162354871608
0.04472121033953994
0.19430507780527828
0.3855391783283121
0.18910622122336407
-0.04413263352581443
-0.3674940081003599
-0.4185879212040743
-0.20428377273414272
0.10211367823144805
0.3500338496616937
0.39249432483593394
0.06763884562008711
-0.21152249768363587
-0.25695820832562094
-0.09824824806979342
0.22661490761031322
-0.12156101361815787
0.02129087670842181
0.22549313673467875
0.070796543347435
-0.2495006632390191
0.07570928645057631
-0.322614244806879
-0.19654938890188398
0.10992068209086987
0.4483817942613675
0.6556305230033195
-0.047730870446095794
-0.4467682198618935
-0.5143357117312881
-0.5969163730297302
-0.21552988323814204
0.9141773885515418
0.6494974747776461
-0.009317725239525608
0.06787040004672275
-0.2489611897655774
-0.32138589315354804
-0.10622394029805403
0.07676552384430134
-0.23496683691784248
-0.042004822335002016
0.3074081610823308
-0.30268373274381544
0.21924937550501702
0.348882328839016
0.1297187806663207
-0.43258711017302026
0.2350653648345538
-0.11359335008684948
-0.12795449259891412
-0.045680596423594844
0.11768927726982288
-0.02675841146482787
-0.0427000910037095
-0.07502297697860083
-0.0602616390555267
0.06037210358870701
0.12762634750470284
0.15376822303732293
0.11849483618051697
-0.026710284951882435
-0.14635901343508692
-0.10440124024570958
-0.14863023425515595
-0.10107237342550181
0.04283318865766864
0.10667110649779792
0.12048164854722315
0.10818928228435769
0.0797206040860886
0.030493390311867687
-0.05191505014065019
-0.17687909621040254
-0.14038907337713122
-0.12024021735704064
-0.08003025074810746
0.017923201415695426
0.19429864278474632
0.23563074850189872
0.28595770953562294
0.25339286173365866
0.03346882146884023
-0.2551383921294483
-0.6332542078812958
-0.6368128740550583
-0.3186776469966241
0.11778924442180175
0.660087087389594
0.8213625855814479
0.5927640619259439
0.23350855275552096
-0.09392906966159796
-0.6526054232682946
-0.84676268088665
-0.7530569350786477
-0.29156833706837176
0.15280520527393102
0.665911422018314
1.1196740235012554
0.6968009416280395
-0.3504530489308193
-0.4975814044145233
-0.30890321969161344
-0.38190466962268393
-0.29574921265784493
0.22202800057496397
0.30658780872094654
0.3489625061273745
-0.620354908109295
0.049985882904454465
0.4156549984725487
0.5244944672036641
-0.9893915900416401
0.29510528973073624
0.19119263167207523
-0.09005099052405348
-0.5359273751784004
0.46843639413475163
0.13744044501480385
-0.11952530007964056
-0.10234971630683407
-0.02273595690591253
0.09513472387880322
0.015641624842014742
0.09494094805707481
0.0871443430299811
-0.046487120214493506
-0.12678412758146648
-0.1473262483836101
-0.07014068108911192
-0.029160110249460584
0.058159909124986725
0.07341246513590692
0.07837716881613299
0.09973736811433055
0.12159536473654504
0.08812682480999438
-0.08383522016781578
-0.08527695132540634
-0.19384771229228367
-0.25731983054903673
-0.08679466047054825
0.13841240769354896
0.25666555942110564
0.3069226193616406
0.11605055939965049
-0.10453351486375795
-0.3529759962975984
-0.22681753054324238
-0.11547249914052678
0.1998073887403409
0.13846979153992545
0.31025326103046824
0.10809398634692857
-0.091311832663334
-0.31927661916819466
-0.2035126886281006
-0.15923411725677547
0.012828906789001405
0.921853767561341
-0.41950084846619173
0.20242513106766638
0.2064079737618067
-0.5755310482825989
-1.0926082042120826
0.720524348317998
0.3271457775448569
0.1645968417671119
0.6246169817921385
0.048963788173594466
-0.2554546019661334
-0.586948331427899
-0.41704175818648376
-0.1697262933461502
0.17958410882171266
0.2862961095445718
0.609647845889403
0.5897987461759086
-0.5606343853218971
-0.44856850354231437
-0.2833152680878494
-0.26240288986968946
-0.16971737343734547
0.812737485975602
0.48658192338647527
0.023588472166533713
-0.23425725703194833
-0.360243365776753
-0.2210086916942744
-0.05735905307426488
0.1247384600360625
0.15123418740565547
0.06836381573705812
-0.072411848989847
-0.02835681860326404
0.02432137070690953
0.0851767768286074
0.12986969678455407
0.11660426842768708
-0.0018965342162689926
-0.26345626128339555
-0.4833804263699727
-0.24888520363429906
0.8756760247594387
-0.46534147507020246
0.36492806891865887
0.5860245012109067
0.20251317826983625
-0.9809723961023252
0.26199319572956153
-0.6030153328378021
-0.4695133428979621
-0.009651821141748751
0.6881874710756201
0.6760948474131524
0.5152347959015366
0.07159764952690337
-0.2561009596806975
-0.8849350181373411
-0.591423400355731
-0.07083651085048807
0.27476360086562285
0.31934718602414075
0.37742978267566457
0.1657352913199347
-0.025153857817587905
-0.14322605308226913
-0.17283306309117777
-0.12371107067298014
-0.017971264519659153
0.12026368307865201
0.07107086823155637
0.0216938133871919
-0.032165679188129966
-0.08598881445976524
-0.12745802762322375
0.06027795976369495
0.09295672559637663
-0.021565370470046034
0.11111443882551261
0.0698834647629296
0.020874197931118374
-0.07519947500838937
-0.05303842775306947
-0.13321469102997058
-0.1164057640686367
0.01637934009517555
0.09750020028084087
0.16262435220247295
0.04079483596661222
0.14840471525191845
-0.11096745881936902
-0.14159653216548607
-0.14857351532821989
0.06742311027491299
-0.0892742827926246
-0.013860550376302709
0.09111604873305625
0.20807238752070562
0.1008252593558359
0.1183137704115549
0.006430207859792954
-0.27461959328422403
-0.3331527734803024
-0.13605357888918962
-0.011277761843305764
0.1365208842664613
0.4020350237616311
0.255419615754545
-0.07323800084899511
-0.19666912592139058
-0.16150765198581277
-0.032925233819237745
0.12123896302462989
0.042937560400543376
-0.10845137913849474
-0.15346197306890325
-0.09481112380326356
0.07589189273960627
0.36904238794735106
0.18941777735422333
-0.0658704689079273
-0.20225624721533553
-0.21793720808800765
-0.2948898370400603
0.20420161136291726
0.3314648366311678
0.1444613497703377
-0.103314445959327
-0.16872559342532586
-0.22222474950711488
-0.05060006843008495
0.13874728367758798
0.3128498989744253
0.21121412983999394
-0.04907739352302759
-0.15987487478293694
-0.20313860289204244
-0.2331302533428493
-0.06616783646173471
0.11845003099834367
0.1672588652015234
0.135974602886546
0.07368263170554575
0.012932341719971352
-0.03220246108765272
-0.061218129536324856
-0.07873683967953997
-0.08658241993285631
-0.07986185409908021
-0.04898236070157487
0.012593812882467071
0.09730004999800508
0.17337884173986248
0.1807631543909009
0.2370465792162836
0.0549126775874176
-0.2318835833906248
-0.4415670115773884
-0.5271019446175795
-0.3785563385742529
0.1509054239847209
0.6011393714378468
0.8587691463504832
0.7287177814428369
0.3393652448401626
-0.6159783077506441
-1.4157881191536485
-1.0529189887814367
-0.4120841502939638
0.30219113599861763
1.2944333739248255
1.292282484172273
0.682560726679585
-0.10262224312363634
-0.9435468025679108
-1.1522253771201032
-0.3857791002732209
0.015059184075298727
0.24563532903045404
0.4170142689629004
0.3105841046695342
0.12666491672568547
0.04241429070280402
-0.013181048319820332
-0.1668561413032989
-0.195807487601637
0.08381325627800902
-0.17111533835356213
-0.02151292083998717
0.2598200795200299
0.19263011450942144
-0.10526624912018552
-0.10983615488453324
-0.08096211195931775
-0.05379882342236969
-0.03448486135908219
-0.0017921812772478693
0.08579940473549945
0.07976039888478487
0.030768948515694488
-0.01993183665102279
-0.04576229548569736
-0.03664401538913733
0.00174856033368166
0.05055288998395937
0.08185770221863474
0.06456368871534586
-0.028169958253175843
-0.21104479735012668
-0.0806186906699209
-0.013780198325983994
0.02791507189148477
0.08895197269172768
0.2085902922452385
0.011331716547417795
-0.09817183497188944
-0.13524917158746763
-0.13195335506637462
0.06740004505931717
0.21098188893487416
0.2456121146286326
0.12639269517851526
-0.16966061182679787
-0.4290835194163354
-0.3931251356863675
-0.16171485528688412
0.18667107412119027
0.5633919307046735
0.4371214299848481
0.2133380328788603
-0.16557301074434186
-0.3997654831289717
-0.3997068656003034
-0.055137502495946775
-0.015989678944940775
0.11031416636015881
0.1476424319901041
0.1328257920848193
0.09793596746449139
0.05908559554513057
0.0144465827087928
-0.04925380389786075
-0.14529096201880837
-0.2756550316144755
-0.024919564584121787
0.03772874262046264
0.1487280244546033
0.13651043586767136
0.2096114072494097
-0.04862932390922049
-0.07672116313695868
-0.12446809711508439
-0.03923399441907288
-0.0537059554827826
0.02134137560206395
-0.0022236310841003784
-0.09535870847476634
-0.021999087294157126
0.04844695346113556
0.12938430440351642
0.20988350547057788
0.25570443862883335
0.020272438776929094
-0.33623039347208644
-0.4258181643287951
-0.21855818474395072
-0.0429688068904369
0.19681446610644043
0.3919938649161869
0.19825501050522748
0.013948546709343033
-0.02546165033468931
-0.03520937757941832
0.045133456849134404
0.0858063293612188
-0.1985328927701588
-0.22127444308191835
-0.31067298077930283
-0.3167053101213381
-0.03971081710771519
0.323672445193306
0.5285576013052713
0.6395435135826811
0.21295435744410726
-0.0887980601944982
-0.45451295418138193
-0.6678670914979448
-0.6576680659071643
-0.07226499921455336
0.3144071491793931
0.771078964214041
0.5682028914066655
0.14686085366331142
-0.2901043667168485
-0.3643959094307132
-0.49650358433268255
-0.2827755614334378
0.11303023040376393
0.3503634599921619
0.29015068592085735
0.17133560776241913
-0.004197583553972222
-0.07311748113691059
-0.09945824069263538
-0.15605720404356102
-0.10542680165939865
0.014204723545825982
-0.005430087563174342
0.05461089619133225
0.031438716767337296
-0.03177738140694472
0.10224094181198173
0.05574618426701513
0.03146750710811166
0.013507159375442028
-0.026950983856338147
-0.12304989283058555
-0.10356844039751684
0.013174236417698026
0.021287704603727652
0.12543140598989583
-0.06308258378589644
0.07015280990216255
0.1412483472336597
0.16948717760047172
-0.41914673605297725
-0.18894315311385512
-0.09565137625182506
-0.09455917092994884
0.04550137900042579
0.7278661337244908
1.1221692127423302
-0.8257292415017896
-0.56787931857377
-0.5228065497046331
-0.4554493203831123
-0.6822967246792709
1.29623322602673
0.9484339073845609
0.4707183928658344
-0.02564878790768756
-0.49244044939757065
-0.6959035535384733
-0.5624838625415434
-0.14070947691612712
0.2075270483944852
0.3861771971898166
0.32586973015678433
0.14242401554175738
0.10700752253229394
0.03536157420314705
-0.103898049641885
-0.1676798127663647
-0.21244448369778351
-0.2731606559809549
-0.1541865326689683
0.1654177641867251
0.3152029163226806
0.31300415379927643
0.1502946883851892
-0.010075792462085733
-0.22277222355257686
-0.340559046192567
-0.19516139234274482
0.013561043860113904
0.11624537372919132
0.16211282011329117
0.20231015921661652
0.07536747132902831
-0.0003321597049499045
-0.22584578542399053
-0.015078740703484072
-0.18657778908407485
0.04242380693306276
0.058029724537836294
0.2487581332077469
0.004418086089515617
0.11744752497747733
-0.21256823742940126
-0.17321227154741536
-0.13627908078632484
-0.0611939594368619
0.09403205955145122
0.1567415014334247
0.12383342351043669
0.15253745587151013
0.1626539729012227
0.051948009274586884
-0.07770087447895505
-0.2898084824605164
-0.3876999928329251
-0.3033572464821124
-0.1069675457317297
0.1630954314731726
0.6579524250587837
0.8774826642792781
-0.35447166786556894
-0.49101708262597354
-0.24178063934318106
-0.14188514342693148
-0.12211710557332987
0.7131407704879391
0.30010404830282905
-0.37521624865335557
-0.6720645034907666
-0.498100007344559
0.07393316549062653
0.7756957024467981
0.7076378579155032
0.31298571105542805
-0.22660997374709246
-0.5722287675322282
-0.7960557803927266
-0.15337044904587172
0.3288707180655967
0.4442304655486605
0.3878648976826153
0.13938652726468911
-0.14255991336039553
-0.31184276635862296
-0.2178362341645088
-0.08864636267912405
0.07808809986467512
0.113988223192093
0.07008489368693936
0.00257599311895469
-0.041570722281431494
-0.03635208139971096
0.015617661132741807
0.08037166129236163
0.09569267031456986
0.18097898378455918
0.0539724584531125
-0.1475237045372062
-0.2434838470934821
-0.19572789584436281
-0.30492846480294844
-0.0244134578829495
0.21056378107707474
0.34520158794575845
0.27034995993826744
0.40199951572184583
0.08239824493573367
-0.39723098804481255
-0.5604405622898245
-0.30922369593115323
-0.1008334262265221
0.2552211243478249
0.3820951806879041
0.31177224110004464
0.0637378989062531
-0.1661912474015335
-0.4057838161845544
-0.09952320430274024
0.09894220778542183
0.13148117485329286
0.13805308306884273
0.26078094233667154
0.05287205729332389
-0.30720881564077535
-0.1998869029049351
-0.15337142086246036
-0.24360411648846242
0.0918273798019639
0.42808601392967344
0.32268377126865405
-0.11108110411374204
-0.22050757587316255
-0.21830430614101176
0.02147226163133793
0.17307927558373665
0.2734423378642625
0.34267698885269543
0.01192199170499964
-0.44408340312531736
-0.677558033538256
-0.2525649099068615
-0.0533261205883805
0.282835493185211
0.5168923100504588
0.5600138605756159
0.24280814761447309
-0.087519824135762
-0.34206703980896314
-0.4475178307833586
-0.301943081077039
-0.1444113225742489
0.05270870876129829
0.16866861430646538
0.30399985637074156
0.146418166470136
0.14416831402802405
0.09425023922513076
-0.05245879867685828
-0.17243773862726355
-0.14415029129301735
-0.22462692303932763
-0.23548936811190185
0.037481813214364355
0.23197574823956574
0.38954016241189543
0.13711290210765628
0.07722200084606155
-0.21007491933773134
-0.35628006552213004
-0.3914627080565251
0.06379306450466753
0.3986012621086941
0.6073848147480627
0.2881713581158882
-0.35066040548733174
-0.6763814458213919
-0.6197368941085969
-0.2763610648935169
0.47205499267508844
1.3219861418811867
-0.08724139485290953
-0.1916210741094362
0.5051108232831334
-1.1388011292661533
-0.2638496490202356
0.024933129218126914
0.6770501600371628
-0.5014326911814297
0.5417346493561336
-0.7114728290643086
0.632589093125252
-0.1378721428971862
-0.1543603543714081
0.022064180198285318
0.1963947502121331
0.14135063364170686
0.005482132745157147
-0.07295459992170379
-0.14919306470291158
-0.2571681324235949
-0.2020995900219272
0.036232278896692505
0.29023970308898395
0.3864779853331543
0.13043787896686806
-0.09951389327620594
-0.34753868306975716
-0.2690227116826402
-0.11917479009812944
0.2536279341120137
0.40972269838094544
0.3196743083332355
-0.02948344704853136
-0.42214377611404735
-0.6012551363182232
-0.2638333000486465
0.1276357380083068
0.5176295576141929
0.4223109029300824
0.29977768469200167
-0.06303790783538368
-0.34339716281634425
-0.46113336821039463
-0.15313390562066181
0.04592412344441717
0.012026115298456054
0.23203382958318158
0.6033272285532485
0.6415895880901036
-0.29825256990366206
-0.7910088800048247
-0.5127030827579045
-0.8322905678974718
-0.43738942641703515
0.8050905317649795
1.769113650371597
0.5983540761772747
-0.12855697112290154
-0.5832738743441588
-0.8319753813972289
-0.9630084344912386
0.17559676223151538
1.0131381451548382
0.8680761398376861
-0.25434520658963283
-0.8687713982135856
-0.8207575130211985
-0.5106642332603508
0.46298346272406404
1.0462600116937506
1.2781308995723808
0.8687566745877233
-0.9768960197960206
-1.4952173487394183
-0.6854402676468182
-0.2497716203938078
-0.17552634443327442
1.2384108407414203
0.7282365877076861
0.6115510576225934
-0.6445112998655174
-0.42551660281288134
-0.35005621912593926
-0.04405445533272705
-0.3230825302414801
0.6113105226548731
0.16358950087511062
-0.06828325492265662
-0.10260715654271949
0.02300358864157692
0.05556047684091901
0.13613967561546986
0.013065052309028866
-0.1432616203910736
-0.1270532507221143
-0.08951787733593435
-0.14081110588107287
-0.1634659157473215
0.1639631776526968
0.1378033935284882
0.4022859821032491
0.13307932441906795
0.03753569875890268
-0.22703523540335743
-0.021428416209078528
-0.28729516299658703
0.0861808613113537
0.0843346972147919
-0.22645457671976651
-0.30926316837007256
-0.18356967242312341
-0.06551551461999768
0.38583371771299474
0.8284783830952068
1.4185336675620503
-1.1765477750216653
-0.5328518138452317
-0.4078849964562337
-0.2852441451730304
-1.1471973112374507
1.3155192602515262
0.26185164518479226
0.042993319523988285
-0.050212426629983306
0.5814014534478618
0.8437942934373202
-0.621526137905913
-0.5861939857242874
-0.37721452865277383
-0.6332910246856638
-0.6921456479028183
0.9855759054464313
0.7645742853005807
0.37536222667045954
0.06944632495065063
-0.19602896724499666
-0.14249029108584815
-0.13220016285436792
-0.1225425729747877
-0.22565987684176994
-0.2832729175959965
-0.06188270202975983
0.1317153849759028
0.2201420023414271
0.3202282862432368
0.3141462403142909
0.03567503254689315
-0.12524292779680393
-0.20333952287069387
-0.4333404519058143
-0.23066188217857966
-0.18580258941822125
0.32537454403931215
0.32070942116579665
0.5910140801293249
0.2913412433219907
-0.04880002625087642
-0.6984461660527213
-0.6929286543736584
-0.4124533659929447
0.016067802838120062
0.6924360798824609
0.90304294568924
0.2858079500984579
-0.1835994154269547
-0.37900009067396195
-0.5922833056883451
-0.4990916942405452
0.26355360664546235
0.5009825710193978
0.24931100861268435
-0.04196228356359698
-0.12439400175456096
-0.15853175509579634
-0.11691128279294344
0.014538885233351407
0.2347813751532209
0.1263321547455386
0.056503121641167324
-0.21730746446802263
-0.13921447065434212
-0.14640025682933755
0.13624889791984024
0.09744932471306
0.33857113680252876
0.07352886919210565
-0.268762008232239
-0.44104612121007974
-0.1782395740499412
-0.006393672934174701
0.3394735045535781
0.4942261582884557
0.24746848636012306
-0.05749271564923447
-0.30850363294387045
-0.3987307563080534
-0.20048168171325798
0.05142753959523082
0.1619538567415144
0.16549315549584379
0.10918383912594092
0.036933946370951584
-0.020941597818804298
-0.0509437178042684
-0.053759043969884235
-0.03850662395973797
-0.016648692185534
0.0025025931679624517
0.013916546157121566
0.016841017566554404
0.013461305611108658
0.0071351844466872195
0.0009115704805321178
-0.003309243930677497
-0.004947800400409728
-0.004441910598701472
-0.0027369667644892583
-0.0008049380753849718
0.0006683851066631448
0.0013921034540738135
0.001415883029242262
0.0009893936074806147
0.0004110058684185121
-8.313030291507417e-05
-0.0003698693048081965
-0.00043596589207362695
-0.0003418422117489275
-0.00017569091063865362
-1.5775122709768725e-05
9.032936551368979e-05
0.00012929923191359294
0.00011363858369375244
6.829444864918641e-05
1.8307854227011517e-05
-1.9029125980999436e-05
-3.6719592141160925e-05
-3.646261306839011e-05
-2.492972276997667e-05
-9.858374069671129e-06
2.752265683154625e-06
9.873602143557446e-06
1.1301030193080975e-05
8.680593283249163e-06
4.316033904979111e-06
2.088809098883064e-07
-2.4546865995177173e-06
-3.374273661906309e-06
-2.9036260695540714e-06
-1.7000829343566847e-06
-4.0810363137148107e-07
5.369607519180898e-07
9.678235642103772e-07
9.389771426919278e-07
6.28249901286214e-07
2.3605836468880513e-07
-8.538352383579315e-08
-2.618256321835411e-07
-2.9150163034234723e-07
-2.1905928823739603e-07
-1.0459207034031688e-07
7.721350703085449e-10
6.75212798473547e-08
8.90231015341458e-08
7.519037329496991e-08
4.3313500080068085e-08
9.959413886376763e-09
-1.3928712260599493e-08
-2.4378434689244974e-08
-2.306666929103907e-08
-1.472199600297198e-08
-4.529409835570786e-09
3.6541156244214244e-09
8.014599648037784e-09
8.596387538604945e-09
6.605831579644691e-09
3.608359711063691e-09
9.08460835994715e-10
-7.612551181046721e-10
-1.258474592404584e-09
-8.587644168141894e-10
-1.617182747407128e-11
8.439079064871788e-10
1.4468577607790458e-09
1.6990965087720556e-09
1.6507722957941083e-09
1.4273389529137688e-09
1.1627794535970437e-09
9.54694201363147e-10
8.472286551759423e-10
8.369395831826227e-10
8.913462297672276e-10
9.69722994959641e-10
1.0388267208816015e-09
1.0805147407734834e-09
1.0918563980292015e-09
1.0804601180418632e-09
1.058230312223908e-09
1.036077531597034e-09
1.020881286636327e-09
1.0148252862426076e-09
1.0164410876783226e-09
1.0224072878751305e-09
1.0292657415960753e-09
1.0345501189200843e-09
1.0371907141724356e-09
1.0373350813774802e-09
1.0358549709051224e-09
1.0338085263720365e-09
1.0320418736164727e-09
1.0310031431076257e-09
1.0307488997594907e-09
1.0310703113945438e-09
1.031655737969305e-09
1.032225666184683e-09
1.0326080699147411e-09
1.0327525764467411e-09
1.0327014953911492e-09
1.0325425868501355e-09
1.0323650033894932e-09
1.0322309786096596e-09
1.032166307422438e-09
1.0321656850600586e-09
1.0322057829421697e-09
1.0322591425660185e-09
1.0323042545242997e-09
1.0323300808119008e-09
1.0323356510160338e-09
1.0323266674794441e-09
1.0323112765210674e-09
1.0322966306295317e-09
1.032287023131121e-09
1.0322835994811642e-09
1.0322851561729011e-09
1.0322893787040651e-09
1.032293971322941e-09
1.0322973660156252e-09
1.0322989441826616e-09
1.032298880850945e-09
1.0322977986277239e-09
1.0322964091769704e-09
1.0322952585974229e-09
1.0322946179408382e-09
1.0322944997052645e-09
1.0322947488945817e-09
1.0322951528643316e-09
1.032295528801652e-09
1.0322957697749759e-09
1.0322958502097496e-09
1.0322958039839522e-09
1.032295692029474e-09
1.0322955733961556e-09
1.0322954875297531e-09
1.0322954491715718e-09
1.0322954528347387e-09
1.0322954819441747e-09
1.0322955180773915e-09
1.0322955473875734e-09
1.032295563240898e-09
1.0322955656360784e-09
1.0322955587688903e-09
1.032295548182406e-09
1.0322955385437134e-09
1.032295532510315e-09
1.032295530639494e-09
1.0322955319858669e-09
1.0322955349480503e-09
1.0322955380089343e-09
1.0322955401778066e-09
1.0322955411059556e-09
1.032295540959628e-09
1.0322955401790648e-09
1.0322955392405984e-09
1.0322955384948649e-09
1.03229553810363e-09
1.0322955380587076e-09
1.0322955382469239e-09
1.032295538523961e-09
1.032295538770792e-09
1.0322955389215108e-09
1.0322955389643807e-09
1.0322955389256163e-09
1.0322955388472895e-09
