0
8.447845277013384e-06
8.44783600202764e-06
8.447827103774058e-06
8.447823186143358e-06
8.447829070724188e-06
8.447847546993837e-06
8.447876818111883e-06
8.447908724395397e-06
8.447929071370353e-06
8.447921122290773e-06
8.447872370702786e-06
8.447783159248705e-06
8.447673968820257e-06
8.447587014061053e-06
8.447578054153866e-06
8.447696775335984e-06
8.44795877967811e-06
8.448318112589079e-06
8.448654180692536e-06
8.448787859805476e-06
8.448535797549224e-06
8.447798318611828e-06
8.446657115345614e-06
8.44544025968116e-06
8.444703529565082e-06
8.445088678953701e-06
8.44705707275282e-06
8.450557614275934e-06
8.454754478043039e-06
8.457983539098168e-06
8.458091713830489e-06
8.453214232580674e-06
8.442860978919869e-06
8.428955919419245e-06
8.416290145991053e-06
8.411824905730523e-06
8.422520595124497e-06
8.451906054404012e-06
8.496347708298666e-06
8.542682971075992e-06
8.569176078843262e-06
8.55125373706346e-06
8.47196830316864e-06
8.334776062553164e-06
8.173676979511999e-06
8.05418738488571e-06
8.059345394309604e-06
8.258958378327629e-06
8.667521066503237e-06
9.20496710577614e-06
9.681241054584265e-06
9.826120138192318e-06
9.375853417394966e-06
8.206899576046718e-06
6.478192374137425e-06
4.7167724452685e-06
3.771712578244647e-06
4.582596410750913e-06
7.769009562755418e-06
1.313945963213575e-05
1.9314972361565694e-05
2.371942434049471e-05
2.3154241716737333e-05
1.5013426923868014e-05
-1.0882079563280902e-06
-2.183618672308556e-05
-3.970240439701385e-05
-4.4209395571677136e-05
-2.5381922482570413e-05
2.104553549869519e-05
8.821255851731343e-05
0.00015505588863594857
0.00018844602756088475
0.00015251044969299502
2.4720113610448706e-05
-0.00018526283034636244
-0.0004216619538050184
-0.0005833080509308078
-0.0005471498500924012
-0.00021619503321767758
0.00041756446040928875
0.0012175560927187071
0.0018860119347266489
0.002017149176686698
0.0012344483868786563
-0.0006068114027744919
-0.0032136969220834424
-0.005745964948102242
-0.006912479088357571
-0.005345779312871733
-0.00023162438438557482
0.007968818109280101
0.01700639939491843
0.022915542629669165
0.020974085687208755
0.007594539661395526
-0.01724395754348628
-0.04790707804991471
-0.07258901633601755
-0.07553852287855832
-0.04253165019210541
0.0311972155805735
0.13299494744687854
0.22860053087211055
0.26578583313551235
0.18824278760094884
-0.041704385658344924
-0.418363245039097
-0.8777439923291713
-0.9059542872171138
-0.37963902580523456
0.5653593013031423
1.4582921416930497
2.246324547765445
1.3131362233748742
-0.016903319867503687
-1.303492030384155
-2.5972042258216566
-4.106359868899841
-2.797753343387667
0.434508029518537
7.264896349472314
3.598374983509899
1.9307368671220368
0.30747503571574847
-2.1025624071669013
-7.693986182186491
-2.301470396023498
1.412135982726718
3.1991531943959473
3.1304596755599934
1.443578775916952
-1.5817216067477702
-5.683751541766003
1.3712132557831844
5.597975493307162
-0.3923867275866301
-1.9604273593437394
2.2167875812674924
-3.999253188098247
-6.800281719169801
2.087979526680032
6.232520140352151
3.2829939547140734
1.0223464551056678
-0.4390932683905779
-2.7102569587420366
-3.2653171696967283
-0.9863897017338948
0.20965468838492138
0.617773463966393
1.0749719248080012
1.0206280088643738
0.543417359309372
0.05994055547471063
-0.1518648865576574
-0.3638254399591967
-0.3681288572525305
-0.22868143725608972
-0.03258026496576975
-0.05431481783172205
0.06257159969862486
0.10792882308645901
0.09669967303900304
0.056009092308865464
0.012854888095173315
-0.014389937117810829
-0.019621930346277253
-0.008366822726517113
0.005801553131649637
0.006329372341086638
-0.02102277743973607
-0.08371116392445796
0.020380912627225696
0.10356035726015632
-0.013184950114034553
-0.10340407923316794
0.06020032323869145
-0.10026005339396603
-0.17528272246991508
0.02395687955290223
0.259025460990656
0.26293388314698046
0.3486589756248394
0.23024449975050268
-0.1457289355495306
-0.7674861176036067
-0.9393718555232096
-0.6931975422672584
-0.038219510978250305
0.7570487476696945
0.8758251594675384
1.293433374263966
1.5830559751649216
1.0076927230108579
-0.30826102089456525
-1.7682412492940103
-3.9242237525283623
-5.611936635836268
-0.6632192650594373
6.200819900242763
3.573234019923913
2.8002221334833486
3.1961393164038108
-1.0883007256341681
-5.962075695488267
-0.7534518181372606
1.2307008941073192
-0.5741829058657305
-5.861958411458774
-1.544852557489965
1.5566703873842043
4.489123980715199
3.1248201931762325
5.447675147506829
5.079254973563404
-5.125375720154117
-13.492787327397277
-3.7277987416489275
5.325972612599318
-0.7325809109032336
3.7040956054162533
8.345365815546902
1.5794273813643511
-5.3682640273608
-4.095615403977524
-1.7926456892560654
-0.038677525131865544
1.0894207222713586
1.3853973355364488
1.0007635160275266
0.5122392121156597
0.01895261417482482
-0.3070774782322857
-0.41878731869166247
-0.3577685215962291
-0.20609666621399772
-0.044603422309081854
0.07241246177361108
0.12455170390538677
0.11923554939046416
0.07911365601164616
0.02933296717985264
-0.011272804224214797
-0.033735424865379116
-0.03805186597939195
-0.029752648972361156
-0.01597627680501449
-0.002526246157916304
0.007443070046695683
0.013224869615063136
0.0154459738846948
0.014807666414883432
0.011329633791214735
0.004436408118048331
-0.0061677899759379085
-0.019264662315109565
-0.03121219380167074
-0.03608426546474497
-0.02733518753191316
-0.0009127331065658988
0.04101999662639152
0.0873390287747112
0.11815511271287674
0.10955237476251097
0.04312390341538098
-0.08168733064543254
-0.23700843643970637
-0.364137521871003
-0.3855829246328245
-0.23456915311944546
0.10141285501719934
0.5348077208191357
1.0491502182946704
1.108861362353946
0.9232712120847874
-0.03572638775975868
-1.286626902553948
-2.8096591576516934
-3.596276165709126
-2.125065148265284
5.628111363948372
2.6968644895666443
1.4466005437362859
1.415504284652752
0.5333111892929231
-5.289152622223656
-0.2614550187273416
2.4097067408257713
1.9964593903734313
-1.56642981625993
-7.620276514732829
-3.0760742404682917
2.116879662013579
4.760451626928494
4.96490014138028
6.829390101184581
-0.22502063267083275
-5.835735711679997
-6.6778757174168355
-3.011325051571298
0.6344618820595361
2.3469663728193226
2.505637190560549
1.7396941826904797
0.6805805458906647
-0.21017781073570033
-0.7076198211140358
-0.7985969944282078
-0.6040692552683776
-0.29029947960775576
0.0003560194180771348
0.18525830771350046
0.24529312091687389
0.20738740185911694
0.11908434098471674
0.026072943674908054
-0.04136874334612902
-0.07204485775361191
-0.07012800867734817
-0.04799021660016433
-0.019185071031814917
0.006165144360860797
0.022929671623585637
0.030108543749264784
0.02884805377594814
0.020659799761215247
0.006720641788292689
-0.011564356250107162
-0.03124918984758627
-0.046775581514477214
-0.050227391243492854
-0.033611123706956264
0.006974714451329755
0.06652516236747678
0.1279223507489001
0.16299999135384155
0.13985316386814733
0.036313291023568936
-0.1436899363186502
-0.35761109834154786
-0.5245414423566349
-0.54631466383947
-0.35231783322053833
0.23883450625051372
1.0597576248962794
1.7660095189582987
1.8699108921476009
0.8546844760633333
-0.8414514230364123
-3.219486655961103
-4.77202341475187
-4.279123685482368
1.203236289332315
7.187732351148406
4.142570820049716
2.3745226568032187
0.9342779683512258
-3.2181670792033743
-6.451511853086354
-0.8318844428460647
4.049157652139616
2.110527411346727
-0.3334119952138161
-6.225928121610772
-3.556995071079458
-2.2953192511339435
3.1630630343123634
10.529468094026397
9.70647641348423
1.984929736927481
-5.383381191645567
-12.54352619912202
-11.379067573877148
-1.122578310103434
5.395559824347484
7.4961227351547235
10.015923782087619
2.3705539105608637
-3.078424606335461
-5.705338978873157
-3.8599444436415786
-1.4495739291586491
0.17302281496363178
0.9365753068703407
1.4020882576412925
1.402740097604784
0.8532527818916676
0.19383582284906428
-0.29646348843592474
-0.5136241282044373
-0.4891029765963711
-0.32588179202017326
-0.13680837741017518
-0.0024259813531521744
0.045813637451701486
0.22023894385226375
0.1581590772582189
0.09958809857832748
0.06979447658724677
0.07140368420203827
-0.11325777558824308
-0.11227324126733113
-0.1514445082721656
-0.04384378042628876
0.014822007430813945
0.04408565142378095
0.07149737660274938
0.12355663044282393
0.0181972043598325
-0.038884727510519426
-0.05356490293669635
-0.03946020509141782
-0.012919644951101865
0.011402916260849438
0.02348110366705446
0.019282559116100842
0.0009283426466394701
-0.02403816698120754
-0.04425666203902064
-0.04723904804890115
-0.02321415569491325
0.03040265817615796
0.1053387971550017
0.1817440716644934
0.23249324773271124
0.033092586453683924
-0.22530047473199347
-0.5260682989762958
-0.6293835242053537
-0.49392936910810614
0.08155627943341306
0.8082473953204486
1.4720623967229391
1.7423834889960932
1.246521249194616
-0.4908824603120731
-2.8780692769378513
-4.322342374519489
-4.209203069541553
1.7555530817776916
5.455258890548506
3.4129849583339205
2.3151518603016936
1.519621821117986
-3.4134910256351043
-4.616492580417193
0.05934733531990418
1.7716837156427045
0.0928481044641207
-4.73330600941293
0.12348188099994892
3.0785052402333792
1.661064368587839
-0.957837435937566
4.832220107091907
1.7953754826880446
-8.715499800728711
-1.6434100887505299
3.7029845687562783
1.743390977845454
-2.32297446290441
3.918185548472913
-1.4570402788382477
-1.8487677269644525
-1.2741505566045532
0.061191311111199485
0.7418323420896477
0.8744552172595377
0.5976369866981416
0.20102919039162157
-0.12331887854688978
-0.29092396728593456
-0.303955264146605
-0.21477219842324566
-0.08930261637168055
0.019283722430160015
0.08274878059551934
0.09750114531844827
0.07665052816118466
0.03974336878900867
0.004244514563691938
-0.01921821869668245
-0.027738931171332012
-0.024274717586184873
-0.014600481245739275
-0.004431230078582839
0.0024695396046517074
0.004952693986878592
0.004102830152395711
0.0022154457329569385
0.0015700472929137872
0.0033720684174494485
0.007139122800185041
0.010709372524919878
0.010941203929679783
0.005022617122298808
-0.007901273980537611
-0.025312906787285178
-0.04082435807000034
-0.04527718949945261
-0.029769150958668344
0.009778688594466924
0.06785367675345061
0.1265846540712266
0.15747168736769143
0.1293464146555248
0.022233138297659747
-0.15633855410349912
-0.35928769936843774
-0.5008409618425231
-0.47781574617138295
-0.21352061410673626
0.2828436721732282
0.859438454314013
1.3943687299025826
1.6250187648178878
1.0502248493214255
-0.7031014828426886
-2.490051778650439
-4.504553201941177
-4.260625802384146
0.2531216420552962
7.463023901495368
4.039719752604851
2.608697773706065
0.8603854326970508
-3.106557627963723
-7.8752878265266855
-1.764315139042488
2.2286739572732124
3.531193489864728
1.971793442067424
-2.2990944794503325
3.123991233364472
0.27356478449049876
-4.7946165659010775
-2.4215227725181347
2.1737845647180793
-3.272328971387553
1.8998730284993677
5.839695105672837
3.6381505401805074
-0.05691531346182908
-2.036964072244727
-4.991351811721375
-3.1426059755563216
-1.184438416366212
1.5975061148249123
2.419691184757349
1.9758177751939257
0.9892778309901763
0.024970087413120533
-0.5989112902538699
-0.802781483610836
-0.6743424300089701
-0.37601099338274174
-0.06543465034495413
0.15244562895278824
0.23937201924039833
0.2123788823535033
0.11991082125694083
0.01700875117677205
-0.053238512920207016
-0.06954168463557757
-0.03447758738449878
0.028970537509828385
0.08439585407947964
0.09128524240553346
0.015831906840609696
-0.1582157349513625
-0.22137277062225463
-0.1363693791709912
-0.04477931311316042
0.1180358118897762
0.4038340983741954
0.23514025327087676
-0.0016764504745611984
-0.15080880211363767
-0.27127861957445915
-0.21780980715020015
-0.02597819185176551
0.0934396090202298
0.15062037240353351
0.16701733684756578
-0.03498252519195138
-0.0390764285257997
-0.037363992967995176
-0.02894286469422601
-0.016797135151638283
-0.004774870851372941
0.004346908775404572
0.009501238514382932
0.01099374000340742
0.009734096609173758
0.006554579828331417
0.0019409499978049016
-0.0037606366807585107
-0.009842101869554833
-0.014780157428831292
-0.01620518845074192
-0.01154319366623593
0.0006864421656088124
0.019291971914475438
0.03925933220382519
0.05189913297209942
0.046977214928483536
0.0168988095744587
-0.03798440986122755
-0.10500038086400044
-0.15855827962407557
-0.16605594232650575
-0.10157053878068338
0.03423300093382426
0.19321074430674473
0.46638634285164837
0.6878962171253932
0.46344397420915034
-0.17698102714946035
-0.7138957823742206
-1.6840103695086281
-1.4652569629689134
-0.3218538211082305
1.091984573671433
2.2007139665331374
3.2024401662626727
1.6450920510754445
-1.889578610577383
-4.217083504947055
-2.3661232533319003
-1.0640911204872623
0.8531496244250348
2.9121088812659437
3.013645900071088
0.6695038623382094
-0.8718298001483227
-1.5920803741656029
-2.192953530070185
1.4372653040493772
2.532660689624768
-4.090961537690362
-1.4338952951652582
1.8317855413327302
0.6568422160463466
-0.9136664098308781
4.550756113280479
0.6192811167721287
-1.762076093349453
-2.1573758984356846
-1.4957754881809457
-0.1511417393968039
0.9135135643348835
1.1308836701437968
0.2672897125540919
-0.052185123321246064
-0.2052575256517919
-0.009990465289104248
0.06043435131435718
0.07964112965653178
-0.11961901666770193
-0.1283236525123622
-0.14449975321386235
-0.1617234329149914
0.034350872423077015
0.2616948529591059
0.1333153282211001
0.04951800299859601
-0.0046850630179187495
-0.05561566329823337
-0.13218553180849796
-0.05605418867656962
-0.034499272293227176
-0.058474759157929886
0.09371108116970232
0.04860958366669122
0.028483853363242696
0.04377287592600516
0.08943369963815576
-0.05383447763500202
-0.013889976692172033
-0.018629967351438043
-0.08710017331032166
-0.02276920311273345
-0.010909774495164334
-0.02097870089974669
-0.01369064227644557
0.04856529099511737
-0.00995974123109452
0.01110740905835889
0.08135856924601673
0.13845632244521852
0.09419117471797274
0.047866650435935555
-0.0949878193755778
-0.20308292673909603
-0.30535874886699615
-0.18878250928046378
-0.4115085410752784
0.0703766692431474
0.6712322622491512
1.3544150602741791
1.0379257410754015
0.03688868421960841
-2.0648767058324853
-1.9432498941107985
-1.303007259379347
-0.31913275104637945
0.8493723138631383
3.9115729949108577
5.527528351549968
-4.31681151430017
-2.821856070399171
-0.6107231801751553
-0.1639160859426251
-1.9197270310612444
1.130169590140121
1.560949695886722
1.588480646416481
-0.6569356065974373
-2.4209994830032646
2.834656157000729
0.8411247557897321
-1.2277974507308171
-1.0744740110489064
0.01690349306368174
0.2639469704548925
-0.3602397831804007
-0.31075489901346703
0.110708935637819
0.31133516237122916
0.34896162902657507
0.27478387647771263
0.09012493171041783
-0.07512155413340588
-0.16212976744868407
-0.16677166026275628
-0.11611346586571761
-0.04613955550400992
0.013846567921376417
0.048358750774083324
0.05563211514818641
0.043158999321538195
0.021936538649128333
0.0017263952877733042
-0.011557466305077275
-0.01630043419199477
-0.014133673562584301
-0.008257251838512867
-0.001888242345877826
0.002735742012146152
0.004700167452019689
0.0042437172936142875
0.002315357890757629
8.337896419864256e-05
-0.0014591266362023176
-0.001738553825131002
-0.0007029662381621494
0.0011901267082124823
0.0030851861651645033
0.003943656817304917
0.0028668745823835946
-0.0005045020371338902
-0.005612600044837299
-0.010794024508857447
-0.013477669314642815
-0.010906060695486292
-0.001346363888414251
0.014505636889931551
0.032499598059587013
0.045106787335108874
0.043204438706236616
0.0196821695062172
-0.02586213047575386
-0.08306833934682503
-0.12989825603566127
-0.13740147170663175
-0.08164108162115408
0.037986149030894326
0.17775326794649154
0.2322895963854
0.22837138005576035
-0.06417043983428186
0.09785590164210667
0.07822612642053081
0.31869998527315246
-0.20340583989156022
-0.3303371765926702
-0.9070412282508832
-2.007557342168107
-0.013251828352141483
2.6645753479867462
0.8470094957794697
-0.9207611863658912
2.7928191330972534
3.75854954857413
-6.979901940386789
-3.1335505563502286
0.9788990161632519
1.0965809386278078
1.3872960954181563
3.957980804821286
-3.843269443289056
-0.9001696291363287
0.8247540204800514
-3.1489329290554497
1.1373996398371358
6.245246078737301
0.9403278570049064
-3.5397701732876015
-2.95529250731269
-0.9180892497923837
0.40698404958421236
0.9145147474339658
0.8909579330729952
0.7053253321027108
0.302754806880385
-0.06758011968015751
-0.2788644798464215
-0.31334104101632526
-0.22513369004244613
-0.09671925206477214
-0.002482053117104733
0.01362933091136425
-0.05486428283690821
0.017349056253537255
0.07347343673312977
0.15770333319711613
0.10050687467011725
0.11030680922900679
-0.02636290627878658
-0.13707631601604783
-0.25170684379043257
0.008440248323164999
0.036348310417174005
0.03820993734332281
0.02678082955199742
0.012153221989112638
-0.006794485716877616
0.15239694196429793
0.055754867744960954
0.05889493902127296
-0.08154896945049889
-0.19354704213443216
-0.07627078336597734
0.10829029610673188
0.23607803828587434
0.21333072916742785
-0.6396652950525018
-0.8149780001025855
-0.45585716005940913
-0.006293701514598633
0.9406861835796271
2.220518528998596
1.9308596114359189
0.7424648526741366
-1.1203739650098903
-3.277166497907341
-5.046500582270477
-3.0433815411924456
1.0360272616653285
6.072346592953835
4.93421099804587
4.393603933428853
0.06544848453187999
-4.201549244258886
-7.766560179334439
-3.6265276289994692
0.015355788248496337
4.173492885863323
5.338873307429475
4.295141528297211
0.21804911486706854
-6.082486003990075
-2.413726875466502
-1.647212799389264
-1.465910817898952
0.9387404096944574
5.242644431578344
-0.2862517175426493
-0.8240983153508598
1.2782483957361743
0.8949171242743024
-0.15538909478481192
-0.5019229618589643
-1.1733140327180425
-2.1645650499038696
-1.2748909774868118
0.346412081697945
1.1410744300075157
1.4000732798142836
0.8919653030261298
0.3152111020836062
-0.1903610992338746
-0.46464120981953305
-0.495219162425057
-0.35812523325139073
-0.15703368728728265
0.021417628915017105
0.12931626871347063
0.15849263144053383
0.12847854721771002
0.07013437470721293
0.01174178071665525
-0.028937914514022584
-0.0463052615089399
-0.04404488171359584
-0.030309431673464768
-0.013260418939687928
0.001641579247095026
0.01224423608225481
0.018685920318773558
0.021684821870685846
0.021125155845302855
0.015666578958279023
0.003626436647904646
-0.01517957134117325
-0.03746622910216392
-0.05551180749852292
-0.05826917324779985
-0.03508409817398832
0.018472414929617438
0.09443914207230183
0.1688514082051454
0.20385683334919363
0.15761701078149828
0.001248957141522124
-0.2620220441974468
-0.5843839471177658
-0.6784237350626269
-0.44777784073882493
-0.043273831170794155
0.6685653641332985
1.4510598026688526
1.8905636750075487
1.4656250524416017
0.0990827868510283
-1.6346649401680553
-3.5122263158823697
-5.161096141709859
-2.9344071902757656
1.6133601098857207
8.106999680570658
4.725699683454631
3.3415424742827313
0.3420987500444733
-3.252550947118843
-8.687702882664547
-4.969344834462659
1.2672926143966001
4.224654440949542
4.772400929055131
0.9525561661644476
-2.7163873600454838
-2.465797290320745
0.5728702054952833
-0.529373837000044
1.844469603897793
5.057207206713369
0.5011658116826764
-4.425201985630471
-3.2824982636903024
-1.1719406357493112
0.5898959184121776
1.4681349665179337
1.4002290467170029
0.8385273950722835
0.20597763381811438
-0.19566147346100773
-0.4148912030106802
-0.42948907498905037
-0.2988898292905617
-0.11288152791656972
0.04781197732683631
0.13289175980401374
0.1272874389694538
0.044968125308915634
-0.0821888176475607
-0.016123824511221886
0.07736278714172175
0.02130780699845783
0.023716646306377515
0.07759213299723286
-0.035315018176691595
-0.13818330289122607
-0.05224450992996659
0.008414548274580609
0.03892610570981315
0.04258640367893978
0.027885549796956698
0.005185645487288455
-0.015859205156458733
-0.027841224717379758
-0.026421551809647437
-0.01095489842869235
0.014818494412807963
0.04225195983129452
0.058126627877550435
0.04660251268616993
-0.006924195458279183
-0.11071652666265923
-0.06202257416216145
-0.044978710003774534
-0.0327121220425125
0.006141127476333556
0.09797508834060842
0.05459362909072497
0.06669273773321929
0.10316300316948576
0.11747275414794998
0.06030601209484352
-0.10484604558938822
-0.38896465863295643
-0.5751127922240495
-0.43289849054017226
0.048786891774629505
0.6184886548827068
1.1261845642730255
1.3178156740523006
0.6789850839540924
-0.4701686926792887
-1.651537214133002
-2.922183150017606
-2.2366057941396704
0.4867211103533093
3.6003895516497133
3.718048778972865
-1.660771223261434
0.5756672724278828
0.401296742964336
-2.5989616542013554
1.36641017866678
-1.1190366267795293
-1.7526431027510045
-0.876885815436374
-0.14868786594173425
-2.7030257518788936
6.2292751112385245
3.31617220663377
-0.1936219826278275
-1.0514904476666218
-2.0576004353444257
-2.0376561395058768
-1.031663811273403
-0.16310960501344476
0.7826894012427662
1.084603138774121
0.9582053580117428
0.4245553349415024
0.013906734927613483
-0.27814620795509254
-0.38556188718263223
-0.3348526234154174
-0.1972116183362234
-0.04697589262549138
0.06411720856032388
0.11537479118825755
0.11242485811882971
0.07584943777955011
0.029262879234834414
-0.009198117367241583
-0.030554466163177425
-0.03445390204754171
-0.02613643952362641
-0.01275634401832345
-0.00043873231801054883
0.007282718845386948
0.009661315172395253
0.007991987037333746
0.004479884258826295
0.0011927843443749254
-0.000622068685145296
-0.0007704255631886138
5.302912267062272e-05
0.000698377272156385
0.00011404653170911765
-0.0021304370129268803
-0.00550009383437436
-0.008465993538975439
-0.008891528262311117
-0.004839608590273529
0.004348976694695821
0.017047403099278092
0.028901944796042276
0.033472444981680775
0.024248910241730107
-0.0021538034397998694
-0.04250988272564934
-0.08475499446673006
-0.10886809658361875
-0.09230022418753231
-0.02006164548095512
0.10251905220056816
0.23861428833168125
0.31594970939439004
0.2351424307083681
0.09206251867279557
-0.389716782584644
-0.42656257269455583
-0.5566656416482327
-0.6492659484357386
-0.3471433328365762
0.263973959112172
0.9798135985323538
2.0281562599889034
3.48025722182383
-1.05648958966147
-2.2775431580260497
-4.207455166911032
-3.497062811520809
-2.664138942700291
4.306454234949946
8.267744450897228
4.048451905017632
-2.4466060071086644
-1.3150171528064016
-2.762284451663114
-6.761880322493656
-1.0113760098897013
3.9226998780819096
1.0617745133611338
-0.05872150419285075
1.1091830018610969
3.0910666160011018
1.0831557126961204
-0.8033367986932104
-1.364254830331118
-1.2477682634623077
-3.1026058159209273
-0.8043714504201248
0.9955582856215099
1.5989268894336348
1.3091016055194904
0.6615130355609992
0.09115035704634486
-0.3340181163731532
-0.514136858023212
-0.4737178019163863
-0.30074829746389503
-0.09233799315129618
0.0794907570791481
0.17926174971717276
0.20232831511701538
0.16125444815829895
0.07297891301421214
-0.04802003679908239
-0.1897995466731476
-0.13914215473370098
-0.07824205512423706
0.014737387408629676
0.16061093590507752
0.17191676166009232
0.04726241086096445
-0.02958943425989226
-0.08514153322118981
-0.14802619745906428
-0.04076621059300382
0.025428054066390766
0.05141711169759904
0.047090787350220806
0.026469305122146673
0.0030075223667101404
-0.01358242643585577
-0.018650046082926724
-0.012437069029363278
0.0009536990316615094
0.014947088754905646
0.022017572915852997
0.015317026228120962
-0.009657399584671201
-0.05368396252136967
-0.11334359935796491
0.017955039338124507
0.14747927611840655
0.08025805839227543
0.017457972731256058
-0.0427320911161348
-0.10201153108408911
-0.15849625845738272
-0.005103298796062132
0.1690369648447463
0.17492606332472693
0.02006606926414637
-0.0931329506797541
-0.16684074105933433
-0.20725692383280023
-0.026607152006196004
0.1515147238370097
0.28584113955996915
0.315124917524288
0.16475786773421436
-0.03623892800401837
-0.33231405321776836
-0.9228133110660439
-0.7603218912170712
-0.17443802742293524
0.6818782100008182
1.7814941300285863
2.59689635705018
-1.2753613143599707
-1.03464353471048
-1.166955830293058
-2.3558626050671907
-3.4628590456298403
3.1998825312001933
5.724993118265667
0.6545521357510565
-3.5158052854470254
0.46405909137314333
0.08364407873567367
-2.8021586373087852
4.753438716285485
2.691555980572251
-6.790484065992208
-5.4437691694207695
-1.4764822175555257
2.2162552615572055
5.350996469188637
9.80951998394582
4.800486532248529
-0.877287466908994
-10.30977362262839
-11.467490383156214
-3.993434677422845
-0.7923484713238221
2.3283241827836263
10.710827850667975
10.873927326128879
2.8155775646546393
-0.4104180558283194
-3.0314517587754266
-10.584262507146072
-9.926047570006315
-1.5172051420618629
3.0521917086198855
5.101156665846241
5.635470139715964
6.514698123609494
-0.17313608739988676
-3.6212893899713694
-3.9235057863159155
-2.526181180349892
0.33546848736347107
0.9056256710327698
0.6370314409354872
-0.6071785092409937
-0.44316128181188746
-0.110714987553889
0.7603475928444251
1.194678152145964
1.3612924765439476
0.9379562498243614
-0.4385763601223893
-1.6519729256690034
-1.7566506074443908
-1.0521401609910355
-0.22465653193809973
1.029581481096643
1.7187960182511242
1.2509261350360357
0.3554530031179291
-0.9408312772588293
-1.0856486001340928
-0.9462562810948079
-0.1607528214967007
0.48170946532393016
0.8290352964827348
0.536948146900717
0.04260457821329746
-0.24496705499394703
-0.5361306760425669
-0.442827358907825
-0.16431749725189002
0.3153599404163844
0.6188947641787836
0.9644981668463204
-0.8382890134351998
-0.582292152085457
-0.4520786390708166
-0.22042652487443112
-0.05931475541667822
1.6377897052410497
0.4354931740416597
-0.14686773069267509
-0.6146071942378604
-0.8605848499351315
-0.5297074049709017
0.39725278074292153
0.3934291323240689
0.355631170663194
0.16883900823438172
0.07984894396394993
-0.11203995194795723
-0.0473209951038498
-0.18731432881530724
-0.19209011455382446
-0.10281604531249308
0.06670181802982253
0.12837524563809902
0.11075905811098616
0.047133981935709966
-0.03498937162961905
-0.12057489051099014
-0.009650241801294764
0.08352429128986313
0.134240946051463
0.11424832807511755
0.0017610527986571434
-0.20695561778961166
-0.2881067430694965
-0.18785063574011204
-0.030326399724890037
0.264092731089557
0.3555536513293857
0.2649666681244533
-0.034335371928474766
-0.21004996703528264
-0.15209466107184802
-0.14866164517558206
-0.06515908094547737
0.06832832696216978
0.05920855314536915
-0.054423275034426934
-0.01645174843109836
0.032187496895374666
0.13927877049451207
0.13094140517944958
0.007507434906672224
-0.053388006929572206
-0.08775733196550091
-0.13346479700342193
-0.01957567585456419
0.0401620920215326
0.048628004201253495
0.022233780488248582
-0.014786707475239795
-0.036962949507539554
-0.02386323114091126
0.034741348566174245
0.1356819264181688
0.062220141270775575
-0.012331949813611671
-0.11756064141512593
-0.07739156474131934
-0.10293921716169879
0.010677781287916965
0.08262683742268184
0.14086269685479522
0.015289323858200456
-0.0680286744268257
-0.0905133018593063
-0.042986436263788924
0.0731674459827577
0.04521854728810379
0.0493691234618592
0.05325675473940675
0.0213510485516831
-0.07728300558764223
-0.06068634992994881
-0.1278376245949378
-0.057179937821483756
-0.011198301028235911
0.05362156347815567
0.17425918575521324
0.17022533221020075
0.03826018044361894
-0.045195532849605355
-0.11465012837604766
-0.20305539090859473
-0.13111315671315468
0.09761574493767695
0.09455763458922135
0.0788150429989148
0.0684836330168049
0.0742620704222618
-0.10265657143852001
-0.06857436409726791
-0.032961974443588914
-0.004135168190025781
0.013388673660708625
0.01937959622553181
0.016754798875615606
0.00975261555836902
0.0022694086974306645
-0.00315003584554237
-0.005568549686148849
-0.005338922653339574
-0.0035118938548657605
-0.0012492974123975219
0.0005795960635481371
0.0015614299725334425
0.0016997693385655264
0.001260480435822318
0.0005922290184394308
-1.279451268684922e-05
-0.0003892946977500475
-0.0005038016457860501
-0.00041666936362410743
-0.0002288029052659008
-3.53705425382875e-05
0.00010161691910852855
0.00016026124708546922
0.00015068019908068782
0.00010001287863788222
3.784117391168848e-05
-1.3520264952700954e-05
-4.2668060314735376e-05
-4.796184020955645e-05
-3.401515157124288e-05
-8.153118899767639e-06
2.1776955224449476e-05
4.8072765193363116e-05
6.313326419095443e-05
5.9913524780818864e-05
3.377723921144363e-05
-1.4266229754690256e-05
-7.414240614048081e-05
-0.00012528750066271072
-0.0001396100337991458
-9.024671720624404e-05
3.474926993700318e-05
0.0002177555144809422
0.0004027936278229685
0.0005005132859739397
0.00041260089189312153
7.490593778545231e-05
-0.0004911149063355839
-0.0011392036917280228
-0.001597829845793159
-0.0015311785307206625
-0.0006672128156336542
0.001031411101772316
0.0032130152577709036
0.005084966782443991
0.005549328668559069
0.0035682826694197907
-0.0012873549540599577
-0.008270947990627336
-0.01514433142240356
-0.01841903534768775
-0.01436770890274877
-0.0007726289983074367
0.020987830348650947
0.044285564449178375
0.056988415349713224
0.04339664971803758
-0.011492971930559068
-0.11629184356760935
-0.06800090032458067
-0.0495669205600756
-0.0318597061550659
0.019836937686645968
0.13653681092379463
0.13649676490148296
0.019651886049483792
-0.032339961569168955
-0.05046060500829338
-0.06925056529472907
-0.1175610416516989
-0.012173224529264497
0.04402107396531683
0.05942200835681844
0.0484280504725964
0.02582137361066389
0.0027858711176077075
-0.014571165864760953
-0.02445512664666048
-0.027390406041892846
-0.024229363112642965
-0.015142672380419355
-7.033681526027142e-06
0.020065811075161026
0.04089585160226466
0.05423922929220228
0.04865058217087214
0.012606505664675517
-0.06073506184736935
-0.1688894559972043
-0.09792256286763931
-0.024828647343358164
0.07535668795780552
0.21993165230582232
0.2105000114709635
0.030689312929887157
-0.148475032678235
-0.15726622361233766
-0.21484900655560144
-0.12135425936531008
0.14204167382788405
0.20531727377303674
0.09792644908269588
0.03851666286903995
0.030042226932139104
-0.1386755107921194
-0.08673956267660646
-0.03361115470804534
0.006730849892689586
0.02827232894493448
0.03219806710326183
0.02415120046448413
0.011068728710471834
-0.0012470211050929765
-0.009320838286396951
-0.012057326913339788
-0.010100792716151502
-0.005017214260261551
