0
0.00010442869915007873
0.0001044286920360854
0.00010442868293452917
0.00010442867517718191
0.00010442867336722817
0.00010442868184869809
0.00010442870241522796
0.00010442873194579542
0.00010442876109019674
0.0001044287752613899
0.00010442875878463515
0.00010442870199096259
0.00010442860946815416
0.0001044285060748606
0.0001044284364556399
0.00010442845452364836
0.00010442860227102344
0.00010442888215505401
0.00010442923293993156
0.00010442952290543953
0.00010442957384977357
0.00010442922193132721
0.00010442840674796537
0.00010442726114378706
0.00010442615790720426
0.00010442566532504429
0.00010442638059364643
0.00010442865228945419
0.0001044322642774131
0.00010443621445026047
0.00010443875238285969
0.00010443780762714485
0.00010443182431593595
0.00010442082660171323
0.00010440732384621244
0.00010439651645310136
0.0001043952949771615
0.00010440982534773496
0.00010444208958981227
0.00010448648057774919
0.00010452816035207846
0.00010454501467789133
0.00010451432797239533
0.00010442362892265784
0.00010428278267067648
0.00010413209385997647
0.00010404011179311455
0.00010408624214498526
0.00010432791575478165
0.000104759530772014
0.00010527862722493905
0.00010568016173084618
0.00010569801406998082
0.00010510068525460308
0.00010382547974109197
0.00010210738170296034
0.0001005360330271959
9.997100123949295e-05
0.00010127484197719126
0.00010488975007025793
0.00011037564739151674
0.00011611496304330071
0.00011942634908685722
0.00011726864949857964
0.0001075307947234642
9.061202725628625e-05
7.068221069403082e-05
5.581542833342521e-05
5.627705179654864e-05
8.073665659864695e-05
0.00013106921938555263
0.00019748724427675433
0.00025659485604779403
0.00027501880743671127
0.00022006394851262166
7.621913236173953e-05
-0.00013722505701528866
-0.0003554835679939807
-0.0004737976022882708
-0.00037585742946101195
1.5590025670187904e-05
0.0006780186091579005
0.0014423508248529743
0.0019913028011766727
0.0019298790933398391
0.0009351948444158439
-0.001042122318752206
-0.003594250224424897
-0.005791105169002213
-0.006335172148709744
-0.003988569769479519
0.0017777847252664074
0.010099106469375542
0.018303336830920086
0.02211445525562911
0.016703438191358225
-0.0014788481117009654
-0.032586485213838175
-0.07190318153343453
-0.11008982815209614
0.06414388009174901
0.05926920829495699
0.07571047136382254
0.10263359656241676
0.11892694057980581
-0.10093904464103301
-0.17766408320714924
-0.11793015383135179
-0.10934533337447999
0.07776791611695849
0.08186597706795208
0.13796136036836568
0.06619355741164616
0.06526674437563512
-0.08714635344939209
-0.02744565761907964
0.0049940513544604395
-0.020252383891160512
-0.11508405789132019
-0.06812352226462907
-0.04627469110959955
-0.002669041318691181
0.11070942622621002
0.12910032374984012
0.06392064182891893
0.09818002726604513
-0.009973164039995229
-0.11649329009889484
-0.07673487077175417
-0.13136129168701408
-0.09715741721638588
0.03470883814539201
0.09304680795505656
0.11622664809091095
0.14103538737769458
-0.0054113626799661765
-0.10876829386644976
-0.16613220711373536
0.017352161761898417
0.03147275484217752
0.062463181098647194
0.09375895537652243
0.1075394467303366
-0.1119600676798008
-0.17391580053057526
-0.07724069781552864
-0.010218854556895803
0.045419292157882936
0.1071833274474922
0.1844125511058177
0.07436183442581806
-0.03594516280413662
-0.16242062479333325
-0.11420109146594702
-0.08594958227206981
-0.055936597202351265
0.0086931651815782
0.1409823556086454
0.16140010066995936
0.06803906714063253
0.0336863508618714
0.011300809652136118
-0.05351051311476606
-0.206822197747014
-0.07247527219232557
-0.04444050959414964
-0.08805250663846581
0.050125993258873076
0.22683053539373446
0.0859003565788499
0.046564556567555974
0.09990767816244214
0.014394318437332972
-0.2517250183634789
-0.1356097157608598
-0.05791179387647679
-0.017840687050427396
0.003544644792924698
0.23378188009361103
0.09732188850224507
0.006193871338008104
-0.04400415777520651
-0.07237643905099742
-0.1071104559193962
0.021303404830932383
0.08590058192203215
0.0673753058681744
-0.04316189862696516
-0.04240773531082554
-0.1143803552283966
-0.03210731150831277
0.03795305553293801
0.12940067354167736
0.0692567048724411
0.07363205062889268
-0.05273268582149864
-0.1133165947802332
-0.1151049290162243
-0.06507947228050846
0.03014539697809361
0.16159073829479417
0.11420225208483335
0.06519174461022464
-0.013409075119851692
-0.14806859628926464
-0.15541540127385226
-0.03587949606838802
0.02775197298763044
0.06612517572887845
0.11514242935243782
0.006881994852370864
-0.03748226607785041
-0.011111884732645318
0.07894829511917427
0.015447371095662691
-0.02322514264601352
-0.056438304838278615
-0.0958342310562485
-0.14296239673604316
0.008667786481982815
0.16747704517965453
0.13607584576357937
0.10565984422679359
0.055871970916829806
-0.03881670323712434
-0.1982425371328436
-0.22570063816617666
-0.10227304329285077
0.010198270053302844
0.15760267469933772
0.17753434797463927
0.28511871358355645
0.06667016831328872
-0.1159526541296043
-0.31203183036242316
-0.16543953313045842
-0.10184233249982659
0.07554714058092005
0.18127225585911477
0.23773953541516055
0.0657138630371229
-0.12039878888596668
-0.1113717081150942
-0.09835297166622171
-0.06829199610233647
-0.002691207530352443
0.11945463531933265
0.1159775332030471
-0.0041714511463894
-0.04419710929461279
-0.01925622018592247
0.04672044588621236
-0.07415873359106566
-0.008695824977336168
0.021587997527101676
0.003087153539468712
-0.06908232972583087
0.007986149015842154
0.042708893405388144
0.04609747609669904
0.02919880254819504
0.001774384767309904
-0.027506133545735684
-0.049912065507425114
-0.055673573193054875
-0.034307014932909476
0.023277154441327212
0.1214610153874791
0.056932292546773795
0.01780235621237796
-0.01416514471110215
-0.05867983194353243
-0.13124575221331777
-0.03907051391245108
0.019627356738147764
0.052604020781902856
0.06828015860556752
0.07062221540575105
0.05664261387887209
0.017850308257740533
-0.05468570919033551
-0.1636622011362877
-0.10029062043738096
-0.04331426603016587
0.036466138967830374
0.16738930916142244
0.16725030207760566
0.0368274182255554
-0.0405628954467885
-0.09334008471306063
-0.15230967532790976
-0.04156694211097093
0.027032888909727534
0.05447741674976853
0.05110778727142318
0.03122484546343502
0.008074416250058024
-0.009326513550408998
-0.017148718504518944
-0.015960402427325934
-0.00903111392108278
-0.0005274764736329891
0.0058957918216587454
0.007945850169591243
0.0050544145836937966
-0.0016041659420697094
-0.009361720351854008
-0.014606696952052892
-0.013725803295981645
-0.00444761006278263
0.012623000491189688
0.03278003122219781
0.04700813790211989
0.043441739668584244
0.010694113871077725
-0.057561092900187044
-0.15830730756060313
-0.07728751456809732
0.008859375674343271
0.12635260863851358
0.0959019510492629
0.12555500806012854
0.007828307996207678
-0.07763476706491572
-0.15708406510504758
-0.05438149655711665
0.015300820550865478
0.04785954486219555
0.048789569657057066
0.02942788218998895
0.002814657649751876
-0.019532103232042287
-0.029557051267918542
-0.023637975843822167
-0.0030836779185460547
0.025627907418717583
0.05115293908268505
0.05875799700666187
0.03349893839794973
-0.0350415128331701
-0.14765523252809973
-0.09214658832485519
-0.043849489949662424
0.029037927072156872
0.15645755680327178
0.156933222492453
0.031212779427200348
-0.03826009387713315
-0.0818637844072061
-0.1336075004867814
-0.02177312523196933
0.037532728117497964
0.042499344548479354
0.0037835107807344327
-0.05985386574533241
0.07308875868691929
0.02172273225243483
-0.0011730476295158869
0.00878123314418306
0.04762474337600691
-0.09506381307974356
-0.03322854725917175
0.01871887724663248
0.0483860605891786
0.047210864050060426
0.01192164970132531
-0.05418016527923103
-0.1405842668059394
-0.03056640384002697
0.09547463074507026
0.0547862955459731
0.056913519807370326
0.10050155538129472
-0.0262284439412057
-0.1413963903946081
-0.06345452544533466
-0.00574485900582377
0.026360099097176362
0.035149432254008135
0.027947748083367335
0.01368495281093958
-8.997091042389023e-07
-0.008416525212264742
-0.0101588262389866
-0.006507201291637952
-0.0003440308963211337
0.005005173318372316
0.006794257842388626
0.0036597858905896645
-0.0038428342462537104
-0.013077135972337409
-0.019722281775566366
-0.01891149594361629
-0.007133121015367031
0.015416642567734682
0.04275067142697446
0.06229848131945345
0.05637948783089438
0.00635201533136096
-0.10120474552114049
-0.06810389169141101
-0.08048508114552172
-0.10926666549452974
0.08411529481795957
0.13796505164987316
0.0797023528652437
0.11816603916029128
0.04168990237941176
-0.17750323456579978
-0.1746357080925081
0.01688629814155542
-0.028123718719173595
0.07538405451051747
0.12117114330912088
0.10892273216936904
-0.15765153223250553
-0.07105156460780615
-0.019387759473225095
0.013557429500346342
0.046779506095664135
0.09942391057201744
-0.011772796546539982
-0.07406507145088502
-0.07930375830622101
-0.02434898469571678
0.08796974592718
0.04748491614297753
0.03600869633073392
0.028639098827675173
-0.0023683969214502126
-0.08177318962563199
-0.025193979252750173
-0.03466890445377958
-0.09763063598955722
0.009985545309305007
0.11710551886328216
0.049242006971555945
0.021206530866418626
0.03317232250154299
0.07128744185322847
-0.08745846974517096
-0.06772253047068472
-0.08809580801316896
0.04430831456260763
-0.06467084434185856
0.0011016263005518942
0.06244908104880267
0.13841950705551812
0.041332891257358305
-0.024860804000016896
-0.06254337499593335
-0.07604943569522472
-0.06734128715024099
-0.03397302212305744
0.029645108640318663
0.12834018843148326
0.061639189421124424
0.020992269599219814
-0.009678926428584294
-0.05015404872036274
-0.11838828361428208
-0.025585485313372437
0.026211059696665123
0.04332919634282658
0.037224729227750636
0.02038772003247078
0.002966145828851963
-0.00899981081855997
-0.01365391007962102
-0.012212259731126156
-0.007382736975542502
-0.0019414911132737442
0.0021691611429147293
0.004142901106117823
0.004142959852355713
0.0028931323677807434
0.0012435463622645633
-0.0001438114451443778
-0.0009352253802032367
-0.0011105168078572954
-0.0008538785341403896
-0.00041821524822012424
-1.5076057607039814e-05
0.00024350304067075962
0.0003493182486710827
0.00036312351390118476
0.0003624438452925602
0.00039360515176640673
0.00044443979235247316
0.0004466926701958314
0.00030857443155569314
-3.1303471265189356e-05
-0.000546405715591992
-0.0010857452461339183
-0.0013840163778102528
-0.0011355581994648852
-0.00012908824877933637
0.0015896724207604968
0.003591486768119061
0.005055524294275398
0.004951154833800882
0.002429114316367114
-0.0026501512794149975
-0.009233154181555498
-0.01490284700883311
-0.016294930684710822
-0.010254688609755447
0.004370000587616581
0.02474876042748709
0.04266059348654734
0.0445189888683141
0.013434540661653704
-0.06672590074386005
-0.006156671338336646
-0.004304899080693236
-0.04703484761274058
-0.10695596778784107
0.052612449403704915
0.07050210252570224
-0.021133987459806547
-0.005157242163545933
0.11493142426773913
0.1137742420574437
-0.05180086438267392
-0.03385421268610874
-0.0814320315433563
-0.028787871019535803
-0.08699931916470946
-0.04134462495210186
-0.05525322596009984
0.12012007956747263
0.13327488328971518
0.020261329297999946
-0.0035509714227422817
0.05410126736126735
-0.03423820512142982
-0.10811231654639375
-0.009669703759928601
0.025226829558278506
-0.026470811514981284
0.028393705736333416
-0.0005510896386466537
-0.08968979806366832
-0.006192077086712041
0.08558250221513519
0.017137429334102054
0.009879439055918433
0.07165968382118725
-0.0032835364217423274
-0.0310211048703753
-0.032243540519638715
-0.02582707107826962
-0.023468947903661722
-0.026830115124897365
-0.027893434177967556
-0.012405343374615196
0.03455332979228096
0.12253494131171412
0.051280318167876815
0.009617440196229628
-0.021662710265404447
-0.06390845944004078
-0.13395406265798532
-0.039361835510299224
0.022556189675288503
0.061701875692525165
0.0896997154276874
0.11455572974119316
-0.06216265443221417
-0.04462223268101541
-0.039251738438153196
-0.05047427060145091
-0.0777394623462481
0.08489343132632592
0.04664801151023541
0.01654041254865797
9.75863486045104e-05
-0.0024802030796267764
0.003742075415873809
0.010175573079573577
0.0075533787080808885
-0.010852444593768412
-0.04649088572467927
-0.09417897316859483
0.057134368530457724
0.021355593844584835
0.010733060362164523
0.031279297734396166
0.0796718557377186
-0.05728466897511029
-0.0003285098970689581
0.026943691343084546
0.004001448642847131
-0.08082929803891845
-0.02610728053372869
-0.01577672647315511
-0.021155591175314837
-0.006288500471126071
0.06439186567761018
0.017850006222507216
0.06569605483433112
0.0006346991392700427
-0.0029215088877951943
0.01587619124328004
0.0121880178059725
-0.055085012830354205
-0.014236732867896514
-0.07402949930256977
-0.020981778986744484
-0.02162030771517945
-0.029581838571884095
0.0037242226922852774
0.11721954740174405
0.13003019499312302
0.03612465836374134
0.0056894322346274645
-0.00673505316333705
-0.049517245366008426
-0.16032529473474147
-0.15584407258499103
-0.028203182227906264
0.05058728979808019
0.11776909704971708
0.20664161664300004
0.13610307734699453
-0.0932053163033798
-0.09519117744688561
-0.08933580116975316
-0.09074382631130473
-0.10340853906724023
0.0809322298599149
0.07848106994952664
0.10590568751729784
-0.02698496743909958
0.07843646318983864
0.009640348983685185
-0.05306060997873572
-0.13025967269947392
-0.037370126876658534
0.019086364034547054
0.041759125177221766
0.039801686801604876
0.024824009379811135
0.007176304283130111
-0.00631909273643296
-0.012907459584634226
-0.013095192722847333
-0.009190309160824767
-0.0038609620396768195
0.0008487542228703234
0.0039012172296338334
0.005145426785817176
0.004929199985401451
0.0036967084808096165
0.0017555057567924443
-0.000718146813653497
-0.00348679225276229
-0.006013762694445058
-0.007357660468441773
-0.006345127999645012
-0.00206546443261404
0.005424151743474492
0.014459972981441497
0.0215892671445057
0.022219096145488428
0.01227256887445954
-0.009355406598205697
-0.03823508772594845
-0.06282633510919693
-0.065064790148982
-0.02383316191248583
0.07896968855936272
0.05133306147057875
0.08555972824914022
0.15684829830091276
0.027630609519481184
-0.14272544087832817
-0.18560024729625565
-0.11265384567950319
-0.11158631134562352
0.04969369374508601
0.21175677066156143
0.20955208328986677
0.061116378527477526
-0.03662569864295687
-0.1039700721198478
-0.1689639663480372
-0.056838954670221285
0.017490067188784007
0.051760746446237536
0.053947659712204894
0.03721239205826985
0.01469216813059833
-0.004108836842651394
-0.014674678453497639
-0.01688564331076923
-0.013311901305457743
-0.007303323415687766
-0.001550034075052806
0.0025782693260976517
0.004949063181461113
0.006104043873189774
0.006571186405574133
0.00637595975293662
0.004960223222787135
0.0015536081073278096
-0.0041363169486026575
-0.011207511687371767
-0.017209824735206776
-0.018530510956268065
-0.011733392044115457
0.004247590280352463
0.025565169666844204
0.041434016383878586
0.0336345277413723
-0.02166653011503583
0.0504326600887688
0.029908787910080545
-0.09110470902405567
-0.10230672907874509
0.027659650466560215
-0.05068159636794329
-0.07485473073402354
0.017907664060136226
0.0767825206753642
0.12453574047027262
0.14953655261172855
0.10578084584535874
-0.07786602656443023
-0.08091259003312075
-0.1714786048332769
-0.1894857148849083
-0.13810475777499617
0.21391614413743626
0.12019408356210254
0.03935779312001441
0.01809272538785147
0.07922211196379482
0.017203729440967395
0.0012450859618283673
-0.01541184455053924
-0.08267799411453516
-0.040600548139547686
-0.109443014591258
-0.0853391590916404
0.05754103977775336
0.15933822941450534
0.06415552568155591
0.010520047408986925
0.025341549355776982
-0.0778147421663649
-0.09716066217921625
-0.03978197814514047
0.08087132260853962
0.046483930485251505
0.03497376965126003
0.022308217168593176
-0.014320449990822905
-0.09233288774805896
-0.019851317792366457
0.006492147200604552
0.0010581488720629033
-0.014051709274250417
-0.014258047334842719
0.021435364793570045
0.10502113410942872
0.036188947677992904
0.0022949055751839767
-0.018146424199079032
-0.04942430229759283
-0.11201595341386655
-0.017601582667855588
0.03273980350880144
0.04690830275262891
0.03782408046510166
0.018915156116640526
0.0006410816672460417
-0.011140244745295218
-0.015010645773497195
-0.012649648028342963
-0.007100340631714622
-0.0012889051120167912
0.002855630343573856
0.004638826529457862
0.004363019657038813
0.0028653507014427065
0.0010588929174749052
-0.0003809620498300806
-0.0011404538252619972
-0.0012328478365085196
-0.0008743935597038173
-0.0003424432254890984
0.0001334293829497866
0.00042545087625022804
0.0005100985350538383
0.0004371477054943029
0.00028723226314505414
0.00013536916519739663
2.963022443429477e-05
-1.3951263283374515e-05
-4.613157773700346e-06
3.529748968141103e-05
8.210744160056728e-05
0.00011868630959829392
0.00013738533641364872
0.00013894024699483942
0.00012916253806540345
0.00011526317149527037
0.00010309004304477002
9.580506034221057e-05
9.388463832362994e-05
9.595741773835808e-05
9.991050521513447e-05
0.00010382066355159729
0.00010648437241326232
0.00010752879237286573
0.00010722294881113002
0.00010615811093069339
0.00010494507136722344
0.0001040165153558855
0.00010355751044118505
0.00010353873809573783
0.00010380437166884117
0.00010416712861471138
0.00010447822247035743
0.00010465962013056268
0.00010470238958564291
0.00010464410699684397
0.00010454005884922287
0.00010443949790846693
0.00010437250091040346
0.00010434763248381402
0.00010435717504441161
0.00010438551515871108
0.00010441691204788308
0.0001044404527310218
0.00010445168190659108
0.00010445161957323865
0.00010444443210264162
0.00010443497751778422
0.0001044270366207735
0.0001044225296637639
0.00010442160087347932
0.00010442322574379303
0.00010442595973477202
0.00010442854298137099
0.0001044302253294947
0.0001044308130566506
0.00010443052492179157
0.00010442977245710425
0.00010442896083603711
0.00010442836485745283
0.00010442809113371963
0.00010442810661825701
0.00010442830021575877
0.00010442854611262285
0.00010442874844166465
0.00010442886019728627
0.00010442887994549662
0.00010442883549822502
0.00010442876442851445
0.00010442869867740064
0.0001044286565831354
0.00010442864213877714
0.00010442864909916494
0.00010442866689448134
0.00010442868581239919
0.00010442870000800617
0.00010442870805373984
0.00010442871160226803
0.00010442871317256436
0.00010442871411468664
0.00010442871356994017
0.00010442870883399424
0.00010442869704013664
0.00010442867758264786
0.00010442865428746946
0.00010442863613935542
0.00010442863554747024
0.00010442866379457081
0.00010442872445450548
0.00010442880693755056
0.00010442888343214471
0.00010442891267926415
0.00010442885262088765
0.00010442868078172308
0.000104428416792128
0.0001044281371843537
0.0001044279706938567
0.00010442806508386648
0.00010442852533241465
0.00010442933703533023
0.00010443030419802112
0.00010443104042412435
0.00010443104883184505
0.00010442990280834722
0.00010442749704812975
0.0001044242859517061
0.00010442138456060054
0.0001044204024990057
0.00010442293778919326
0.00010442978257946567
0.00010444006500259636
0.00010445071300117361
0.00010445669123594993
0.00010445234304524918
0.00010443381751846107
0.0001044020154105038
0.00010436490324745218
0.00010433768846794468
0.00010433952776644663
0.00010438637859064833
0.00010448127807432537
0.00010460534693093105
0.00010471437254497531
0.00010474589351614917
0.00010463938963063932
0.00010436723406501856
0.00010396740073836655
0.00010356282676789713
0.00010335014206082242
0.00010354554004409673
0.00010428958882400833
0.00010553406134681644
0.00010695612001800904
0.00010795802456018953
0.00010780214742130134
0.0001058932953434961
0.00010215470487328157
9.736678554566816e-05
9.328004945074024e-05
9.231550420283619e-05
9.676071219564622e-05
0.00010756498212377852
0.00012309476866109167
0.0001384395459994306
0.00014592974576050957
0.00013731502960142466
0.00010749311283545415
5.885149241406434e-05
4.438140789843285e-06
-3.2281122841869785e-05
-2.294022522689087e-05
5.459199563599913e-05
0.00020168600688613773
0.0003862256587387002
0.0005389982849879667
0.0005662709576345596
0.0003817499717884296
-4.657585386146106e-05
-0.0006491534333943385
-0.0012301896859396573
-0.0014908581615609184
-0.0011167321281881498
7.638797308218437e-05
0.0019762655616665293
0.004057784994938982
0.005402646012954466
0.004924637968997925
0.0018089203856887213
-0.003926970018003784
-0.010956651171349644
-0.016538387301961187
-0.017049716426714382
-0.009280664137348127
0.007693686180789937
0.03061454130477611
0.05097740238245133
0.05572340475770266
0.030229333862064438
-0.03669741419486564
-0.14721904956944978
-0.0905368443787048
-0.04289710905761857
0.027441159332726946
0.15135669949744027
0.14915367234836788
0.023688229797261644
-0.04102569137035359
-0.07540712589160106
-0.11609206761739843
0.002966649779542204
0.05740186982834317
0.036086090837855724
-0.0583249155491794
-0.011200903662446922
0.0005898334958034695
0.004079677479961283
0.02514952840425639
0.08397149719818593
-0.008069652567592917
-0.049389107097243236
-0.04729000006401637
-0.015906469778002134
0.02613692147207984
0.05801058142984708
0.059225621265110884
0.012951380136713462
-0.08989380141744922
-0.04671350738312564
-0.04111118369727305
-0.044133309023900946
-0.019493761504392422
0.0679788564897768
0.042709361475132115
0.11036432781051847
0.054207918437649875
0.037580944769987176
0.012539479533040902
-0.06728766104214273
-0.23322196554102748
-0.09178355833008094
-0.022306963352073203
0.016698228320256157
0.07416635131975334
0.19043941068309428
0.18406673498779602
0.04613737135308758
-0.05572191668348529
-0.16510840204612126
-0.12093216506544915
-0.14371572352618833
-0.02894451845989865
0.05051503107324331
0.13427536441554916
0.06051390706962272
0.0531951118381311
0.1145323478212128
0.02481347895751714
-0.05065890500201156
-0.14996960596026157
-0.10233982377691377
-0.11950804130912702
0.006301911398661646
0.09743265868347996
0.18123593468995092
0.0800276562554539
0.004579875906618472
-0.04671556249513342
-0.08353358744206556
-0.11673013699492013
0.047942835077899336
0.013193446573723651
-0.010140925251135278
-0.006490391078217847
0.039285671153535796
-0.06361539308108623
0.08352774248411632
0.06665036568925098
0.059857286058386965
0.03012492803839916
-0.054873476053927527
-0.2178569001477011
-0.06498420932415565
0.016315101194173065
0.05360753647480278
0.08113892061075322
0.1300944053616194
0.02093021094879039
-0.039887637620618845
-0.05837350986549978
-0.04820709763932048
-0.02496855506035863
-0.001515804460848542
0.014402194992572878
0.020294931011186502
0.01757526502187534
0.00966388727836743
0.0003360599514628564
-0.007299170947859349
-0.011193045524315933
-0.010382422159432449
-0.004953627877997033
0.0038771904588749046
0.013611617824639592
0.020489054550057846
0.01999156555557926
0.008011118804726353
-0.017474100106269024
-0.05478718697117659
-0.0978687035205046
0.06272448602369139
0.037046322088609245
0.032096068863696946
0.048824373487518787
0.08129267192228282
-0.08135417709376551
-0.05062502154938118
-0.033703906452689295
-0.0297507730887338
-0.02903472163466917
-0.015410254542336913
0.028517507994976963
0.11514891809082278
0.04670565957889494
0.01308046613654582
-0.006283643492197344
-0.036958745033875716
-0.10231996722694857
-0.016920223672305106
0.017498268085201142
0.012319596769023031
-0.011139972793376855
-0.02732742780361453
-0.013297158849705837
0.044768537548199296
0.14699173416046982
0.07885427418036592
0.014977090240406336
-0.07276732904975658
-0.20521446150433378
-0.18781225441266106
-0.008165521553468787
0.15926001942693194
0.14305851799469269
0.16384685030435356
0.027080257404495205
-0.07750944878064649
-0.17032718545478787
-0.07333303823615055
-0.0024414765949458887
0.036317976055973714
0.04632357914365558
0.0369009559981162
0.018960664884322187
0.0014838389889450178
-0.010266497046478272
-0.014810449147297027
-0.013368040021886001
-0.008386307295263611
-0.002303216822126155
0.0031241126316749576
0.006916240625946259
0.008610648100171604
0.00794959465507322
0.004772707553095233
-0.0007823255333673705
-0.007864940680076931
-0.014550179039971287
-0.017879100821466997
-0.014585009708687424
-0.0025595606794018007
0.017244235041862118
0.03915101187269204
0.05224843819891257
0.041814778003271
-0.007068875448770563
-0.10439958449846186
-0.05023996873200121
-0.03183578885198533
-0.024400678328482805
0.004137075537791829
0.0855654010836841
0.0431962354564141
0.08558590385060644
0.004183403042457307
-0.02432418069149849
-0.03173544177119175
-0.050140776109570184
-0.10434586492025859
-0.007113291977001328
0.04163411188302194
0.051937328483164756
0.03878351588508563
0.01696667231360871
-0.002558670019639535
-0.014143781983556317
-0.016958154978172983
-0.01332370755499104
-0.0067591786849209995
-0.0004119208084786358
0.0037982272888165665
0.005329107370665318
0.004678488934064388
0.00284535290461828
0.0008329076110251569
-0.0006667924469465637
-0.0013750087516378761
-0.0013618122727003371
-0.0008963295108585708
-0.00028981674659024766
0.00021682450926831516
0.0005023098703104099
0.0005588552620285921
0.0004529194331653983
0.00027721506470475483
0.00011215789913487969
5.308340477403416e-06
-3.1391848470801754e-05
-1.2261467117013916e-05
3.622986686394706e-05
8.817830765650117e-05
0.0001261155442738291
0.00014335780826427906
0.0001421292148950234
0.0001295965744654544
0.00011381920329806456
0.00010090797232053138
9.383544123201936e-05
9.266177497278801e-05
9.558601514836421e-05
0.00010019166040992911
0.0001044265861931819
0.00010710905823623137
0.0001079759026360752
0.0001074259420374058
0.00010615089155539173
0.00010481074150660303
0.00010383933148776698
0.00010339369079803624
0.00010341043946866926
0.0001037117589454718
0.00010410799332542624
0.0001044635211432901
0.00010471608130448953
0.00010485896377453439
0.00010490616663762441
0.0001048621593729765
0.00010471198545429361
0.00010443687148826602
0.00010404840891057365
0.00010362397562273635
0.00010332066529692753
0.00010334759460921237
0.00010388882685119512
0.00010499036495367805
0.0001064497690020917
0.00010776661719542828
0.00010821422091420383
0.00010706707776454155
0.00010396120266505134
9.92857008432827e-05
9.442991228203326e-05
9.168015304195631e-05
9.361362390033837e-05
0.00010199662801306715
0.00011644272653060896
0.00013335306500558843
0.00014582502583286664
0.0001451362848143406
0.00012398723923664687
8.092438299324019e-05
2.4450067493203786e-05
-2.538881408933183e-05
-4.017949418510944e-05
7.71002428306817e-06
0.00013105996203430635
0.0003128795460122765
0.0004974996230264106
0.0005955561531405326
0.0005084712256532203
0.00017168398783702196
-0.0003937897176440234
-0.0010420420056363965
-0.0015016786304421113
-0.0014367015846565095
-0.0005745243290015612
0.0011230451974173683
0.0033052490551786716
0.005180064025634737
0.005649399628745902
0.0036741717609550025
-0.0011771971637811176
-0.00816107096443921
-0.015041772381854765
-0.01833129241132974
-0.01429931703772011
-0.0007212117611147795
0.021034394891519193
0.04434882213895248
0.05709418607981987
0.04356478429024278
-0.011261837509107227
-0.11602775238033232
-0.06776757429832712
-0.04944990448779831
-0.03193687594358545
0.01953820524854502
0.13608244199149708
0.13606765676527713
0.01952149396107774
-0.03188665929350091
-0.04926085474160961
-0.06741498474484835
-0.11557778520346285
-0.010886583656047735
0.04361992834634456
0.05659797228379863
0.04321241917566159
0.019440146520962
-0.002253020418407126
-0.014973133149451421
-0.01731114801567862
-0.0118413643006368
-0.003086247958518778
0.004367125216803552
0.0072428089025971575
0.004364871426669839
-0.003091229386180522
-0.011849394444825358
-0.01732143976467799
-0.014983022738156996
-0.0022579614089495216
0.019445413905669475
0.043231516330244406
0.056629930806420696
0.04365682810670901
-0.010859841126051798
-0.11558021684852281
-0.06746238754540379
-0.04935608850230885
-0.0320106705790362
0.019413037070790583
0.13603720055116147
0.13619027817455365
0.019811489122054188
-0.03153676123916386
-0.04904650848773472
-0.06755779882501028
-0.1162273955725737
-0.01201021494743118
0.042317889858818396
0.05567379649654887
0.04335412910650779
0.021202711313406494
0.0012026179740963626
-0.010547761685909922
-0.013536549396425176
-0.010953718426955094
-0.007189355887496522
-0.005581221815221445
-0.007006588145572274
-0.009610158179639372
-0.009686460750717055
-0.0034881543046901904
0.010511679643632227
0.029604116685101475
0.045914501524856266
0.047311266979956
0.02047171951444981
-0.04438003261212955
-0.14851938556429287
-0.08167893774988215
-0.022829651471053564
0.054668592798078224
0.17505227211234511
0.15243122257174896
-0.013297557528915142
-0.13514822193619175
-0.03320130492839863
-0.1271465460281297
-0.030560009222189384
0.05099514296576547
0.11798555000380385
-0.02729080214017851
0.01521368268209845
0.041181693605519924
0.04258430825202929
0.010898589779164893
-0.058148631385649845
-0.16009466501598446
-0.07969490655786586
0.006997871480874787
0.12635405078969292
0.09871955345160618
0.13122570529578545
0.015037714391071252
-0.07162691105459136
-0.1559126826881637
-0.061329859867787
-0.0009127449761225089
0.02514933409528829
0.027154083998827655
0.02027558985147948
0.017932932783353714
0.026257708565043645
0.0412211694476226
0.049277699228266275
0.0315893939447507
-0.02903982197012644
-0.14042218307779958
-0.09512880563683157
-0.06920207280058575
-0.026922287322577093
0.06906989885098463
0.2453405932069209
0.1074347224852518
0.0361162292466742
-0.007833069050714438
-0.07145812643351757
-0.19429236748519915
-0.19546635263108683
-0.06832357000810163
0.01491035968444425
0.08959820763751689
0.18111293534077555
0.2900959284180924
0.18710284294049068
0.020307321776367883
-0.26487788348659497
-0.3005716924338236
-0.2751463566125705
-0.12495691695180206
0.05623358164806764
0.19188119894865782
0.18891290349603676
0.3062012349767435
0.13521920898191694
-0.0009916622862170192
-0.030014583397666474
-0.09846272330327277
-0.33555386013014127
-0.22210479685742288
-0.17362838913193498
0.05795553856299629
0.16524977129921845
0.2556558805896436
0.22077062305645193
0.11422923795627113
-0.056301082366270204
-0.12250705171790979
-0.13848959399700145
-0.1604048384259341
-0.02943929598173687
0.03748503388663088
0.04816961664040267
0.028508838927200415
0.012043903013307565
0.02911819238566185
0.0983724623215557
0.022371720017441782
-0.011910703647741553
-0.0282585507862187
-0.053744475311928636
-0.11108928365570472
-0.01323531009831748
0.03840071566043114
0.05197839781679576
0.04092340522166587
0.01920833445838746
-0.0021411291696648463
-0.01658059349385687
-0.021815460346328322
-0.01856627940602402
-0.009193325668672828
0.003230761511451854
0.015259110054279223
0.023086977432222048
0.02271753296821062
0.010665393522252691
-0.014760849554701912
-0.05203325856289783
-0.09564171523898203
0.06322853134155502
0.034382251817198874
0.02536989929946367
0.03866631755715131
0.0705638187344039
-0.08764856277885824
-0.04664424892568635
-0.015399031646930614
0.001623518448225458
0.005462773408381979
0.0016770069520041131
-0.002106351624962983
0.0006979694491878224
0.012713059230684685
0.030685907556011714
0.045300489083044286
0.043193621274134925
0.011126921438843602
-0.05855347104188256
-0.16294721281528465
-0.0864058610158921
-0.002923725472863937
0.11673608527680335
0.09525373618953376
0.1399538989683052
0.03861332249941882
-0.03821284275036458
-0.12900824157937493
-0.07018580720618077
-0.08593936124797294
0.017751681746119075
0.05364112483073656
0.04899988910721726
0.038763785275149
0.05837845068904162
-0.06205318574177141
-0.10187749427338728
-0.05275802636309091
0.07901679367622942
0.07085916047122552
0.08399810522097179
0.06697984556760772
-0.036609446806811614
-0.07700162007325215
-0.08616960069680785
-0.06816516556870253
0.00516474585089364
-0.008445857119878851
-0.030935412068505093
0.021993232818534138
0.02468806107875491
0.026500123576348608
0.24119894960802823
0.043728251403672445
-0.024133733953606337
-0.03988957144153397
-0.08144674354416347
-0.20824451956022202
-0.04756327289641315
0.010263963860401657
0.006620584111751503
