0
-3.843420551834474e-05
-3.5440962421673646e-05
-3.149238976361292e-05
-2.797991420775223e-05
-2.6887672890538152e-05
-3.015872153033375e-05
-3.8713615750072336e-05
-5.1403253483208784e-05
-6.437388012361574e-05
-7.139642557350766e-05
-6.555759781695274e-05
-4.226973638280536e-05
-2.881563167404273e-06
4.2540834951368146e-05
7.511493474445525e-05
7.133010490757142e-05
1.1947786478434434e-05
-0.00010603774789027682
-0.0002584960963845723
-0.0003903020489031153
-0.00042451212253088414
-0.00028762008528074496
5.22220118010332e-05
0.0005453274842510481
0.0010376339964000285
0.0012860418061488039
0.001026532574127777
9.213474057865502e-05
-0.0014484644266874727
-0.003187978133016152
-0.004384666684288493
-0.004133643406404338
-0.0017178623687312683
0.0029300334035037056
0.008818495409370884
0.0137730478244018
0.014824553630156816
0.009216156823541434
-0.004108353392152683
-0.022990518282577244
-0.0412544103251883
-0.0494377379825116
-0.037618211311356245
-0.00022134183824455963
0.05829267865830555
0.11895374770103691
0.14760793711356557
0.10013440969778493
-0.06611098547354276
-0.17697384129256977
-0.22722209955688913
-0.1732784067847289
-0.13748359587413747
0.175375159208906
0.2533337692866969
0.35218651276337215
0.07886867405190888
-0.010715625309621755
-0.19885703403775412
-0.18320153837357678
-0.252109293096138
-0.06608888018229243
0.15016100814403352
0.20526983666961673
0.13231592580463308
-0.021131886527046773
-0.00036375952261079574
-0.14773750854711193
-0.20589875304607125
-0.1230214850758166
0.13823712861441598
0.1892758106610229
0.20577436116265044
0.12497498745142747
0.05374206114935323
-0.11274085232571618
-0.2661293196206868
-0.26140898084659187
-0.10247280352902977
0.05825947851155502
0.10608834896278442
0.14089033847216073
0.2521189483588409
0.0993887602102415
-0.09654271927865322
-0.15159841240545435
-0.10799251536048891
-0.020524391054738234
0.05610938390627833
0.0767819910285119
0.012047562680239484
0.051625469690117894
-0.19442465012384563
-0.09743917010117675
-0.015785615512660837
0.0954568700797225
0.0724593248097311
0.13162163353125078
0.06332529407325861
0.032992897896309256
-0.010299896696100975
-0.11989830659238704
-0.13643669129640412
-0.0762460898765857
-0.12714695434385903
-0.05320666165237997
0.19297467952025965
0.2547669136636148
0.15877367772159007
0.11019167398532549
-0.10159592298486154
-0.2896421910005242
-0.2545759805317302
-0.1757050698343613
-0.013166836376284085
0.2788017785313397
0.33280454392281683
0.15193063756408415
0.10385854476511062
-0.07119791596396519
-0.2412185910097474
-0.2590734651802026
-0.14426360282496856
-0.07704981059937933
-0.007892555950172467
0.12019309652716535
0.1431424477349497
0.25026654766752077
0.1704472893953096
0.17634603669271556
0.10838692977467242
0.014793481581812606
-0.40145222536859904
-0.7419208176669171
-0.29247316305772075
-0.03360942613271113
0.11739585044102442
0.44244005717807644
0.754851174615257
0.34834411511689617
-0.021970549794250237
-0.12176211484020104
-0.3902351818290429
-0.47976980440063594
-0.40133336184520385
-0.0905639076469366
0.19924974749766228
0.4812026517198086
0.4074499552151657
0.04433139066121235
0.05975180384078825
-0.2751865438498929
-0.47593278160814356
-0.23528816551151044
0.17610282058556304
0.09623207531526785
0.24848630083132245
0.11641911481653176
0.12463257205151952
0.03086506985347612
-0.2700088904612827
-0.3332489071406964
0.052201835110476505
0.08005370323639253
0.34262682837086655
0.44965021372393005
0.053681549804880144
-0.11769752061890103
-0.4292547256482726
-0.91740027234955
-0.49533965351341885
0.4073271238180026
-0.026449299940467897
0.9125173476432709
0.7828150140257073
0.3495451586218696
-0.20946392331620803
0.1517784075875271
-0.7629632053369295
-0.493344365690726
-0.44151787508941703
-0.4306252682550498
-0.11296366140859453
0.1758043292826061
0.5329766566672877
1.001043531561924
1.7030087252510626
-1.379472404167531
-0.781813504442772
-0.5018208294901053
-0.5412709591905376
-0.8664501818426161
2.205006817294894
1.200862665490296
-0.10625595471335218
-0.6828672935859984
-1.0061659803653633
-1.4449986978763967
-0.8765832151689718
0.44798658577758876
1.601265065144328
2.876310360343882
-0.07049775154913045
1.0030671056377616
-2.3718433397520524
-1.827746850537252
-2.4272399737094554
1.2038725801137031
0.05461082504243937
3.036779536339539
2.270837699522508
-2.2002609647640727
-1.6441253452295135
-0.8284946793546805
0.2029357514136026
0.7452761938332878
1.83740384723908
0.6744827525811118
-0.35518011365029806
-1.8098197497885151
-2.5335012202393608
0.5718001691672702
1.1200711291073153
1.168149733159556
1.128478223895118
0.30676642031676477
-0.5117437590965265
-1.0292003530400178
-0.9783373212595705
-0.4726273300479333
0.21402104253048104
1.233692813080562
-0.06897922908592018
0.6130395605536872
0.5424108795206414
-0.03756969141786155
-1.0518938734293042
-0.13427741426221845
-0.782544268969964
-0.3494492490268159
-0.27847240746236274
0.4207649076993723
1.0770265203005238
1.0707633865511805
0.38507611487375343
-0.1880660366182
-0.7881379312295749
-0.7937822216158209
-0.5288471495377437
-0.19473986177770686
0.5560125731960507
0.6063532497716927
0.13459684316352677
-0.43631517189224595
-0.48911012227954515
-0.2576760724413014
0.33449095644057397
1.0491807171109082
1.7335181475699184
-0.6436852975235504
-0.9197057356914279
-1.0490247759644051
-1.031382908169484
-1.2895409896545798
1.0878693159913009
1.2493539849744482
1.264048490183633
0.8300748073785964
0.04248115741832735
-0.5689625621072788
-0.9491381271994032
-1.0096727227605482
-0.7428681024519512
0.014623126694087395
0.5610665563626154
0.8662197179475708
0.693913557952915
0.3412619751384232
0.015062600228482947
-0.35065757166844497
-0.6479305307746522
-0.5404908024110927
-0.22388774872709977
-0.014609449677350096
0.22935845293172774
0.4658065766792095
0.4197706737897122
0.1461576766771089
0.01514577573552527
-0.07676547915891606
-0.2757852158446277
-0.33123333759762374
-0.1598654126502564
-0.02386101694955287
0.07333964906083532
0.17529797042024317
0.15132983393992488
0.07361583001400389
-0.0008370127616293991
-0.03994341523180174
-0.03777233071670992
-0.009228373832744666
0.019053506610280765
0.019033135561582776
-0.029258226992683538
-0.1308388605973059
-0.07306739748708858
-0.028165563455256667
0.039220953480852076
0.16142065263076352
0.15759492797329444
0.027798340506364583
-0.04646997345895426
-0.0955600055041299
-0.15165774849003694
-0.03943819914797431
0.029366456741484425
0.05627014567122107
0.052200970617014085
0.03184336864550662
0.008504036760552888
-0.009024943071717013
-0.017262999659250603
-0.01702493486871281
-0.011515306984128348
-0.00441707384219285
0.00144847407363857
0.0046928518402812825
0.0052706722700501234
0.003999874512818623
0.0019835430293132375
0.0001492633684736107
-0.0009916630055302757
-0.001365824480761964
-0.00120631518972066
-0.0008576037415195263
-0.0005963955687114319
-0.000521586744467076
-0.0005359134758309616
-0.00041496472638229294
6.232277217265073e-05
0.0009644160369841415
0.002093551915894614
0.002964521333671874
0.0029189992757915643
0.0013826433192891837
-0.001785574206019406
-0.00596981988823825
-0.009669363467262477
-0.010737666556480029
-0.007082124938389037
0.0022484574581565415
0.015885616481440285
0.029372989534451624
0.03537929267977988
0.025288973194482745
-0.007902998400618786
-0.06615029872124334
-0.14376109540525925
-0.027197396626387
0.10189725209275402
0.061094969315889695
0.061132418395424604
0.10201357232313528
-0.026998391395402194
-0.14349588254743723
-0.06587648477543066
-0.007726006393134174
0.025236173910251757
0.03498762422073575
0.02862987986941438
0.01494260482911092
0.001445744102244747
-0.007271968691905926
-0.00986575735494898
-0.007546530913842991
-0.002911743452446938
0.0012493100258274383
0.002893248112269887
0.0012888473573118469
-0.0028044674116224472
-0.007337870644648924
-0.009553011652362563
-0.006917049007568968
0.001704862510259978
0.014918933698913278
0.028158171383116198
0.034025712519755405
0.023962363656443355
-0.008870604468386662
-0.06625305017512664
-0.14246955468584913
-0.024255104872277885
0.10612548861949281
0.06539065926609677
0.06350199273223818
0.1002211788091074
-0.03444967257608493
-0.1561686372145674
-0.08046756828669402
-0.01803001071283355
0.02689823561699339
0.054663194885581204
0.06638531042738137
0.06046406323612214
0.031352679809269465
-0.02865028303060418
-0.12535568305506223
-0.05833810099367025
-0.01853034467095853
0.01084002671808526
0.050134422250070636
0.11763536120514471
0.02461185395743579
-0.027011677310762233
-0.043758845487679186
-0.0372670739300033
-0.02014239760401201
-0.0025734580770344446
0.00941434634927415
0.014003753626766455
0.012447685782471726
0.007476854865075687
0.0018803445211264007
-0.002382432156932345
-0.00447015257772448
-0.004490463369515008
-0.0031063532844252603
-0.0011347696111043328
0.0007276031814762067
0.0020155237242576824
0.0024852610312837095
0.0020613360044920725
0.0008091219421402826
-0.0010388187592001415
-0.003028357263099572
-0.00446951050149925
-0.004540898284958439
-0.002557820012802536
0.0016276124545286821
0.007225128474826789
0.012318870164242133
0.014129900239538789
0.009879359606536709
-0.0018028144372184709
-0.01926828921125156
-0.036659465449607714
-0.04387111116478386
-0.0282061362880626
0.022294719279346637
0.11468275360125402
0.047625903107066575
0.01025682568085993
-0.01580587643450252
-0.05176574982244494
-0.11599606288330046
-0.019568538198186835
0.03545621596222172
0.05469067248580286
0.048107798153169325
0.026509385071561992
-0.0007597590928264389
-0.026343303145163966
-0.04418165271937255
-0.04877058178253511
-0.03555909123477208
-0.003076266439393685
0.043620290297304465
0.08960482934141537
0.10887736711253894
0.06707399151748014
-0.07136488268797343
-0.13296173811501333
-0.1250843304552597
-0.029732439228065618
-0.0039485272083506035
0.01270292466982367
0.08551949054449466
0.07038251426572897
0.0016507933701591622
0.08536865320553816
0.09956387961207923
0.0017586962611660832
-0.057932515715207133
-0.12145752209514182
-0.2097824389321798
-0.11666767451870498
-0.012030398791869555
0.14554105075954954
0.19109585009983354
0.13675056104737388
0.16247768713677035
0.01796796934805057
-0.16472389455831593
-0.2520376854353101
-0.09002140090613305
-0.09229929964880262
-0.03874883560191658
0.11532583861110109
0.22344048564487667
0.13161002608349462
0.06731621742923748
0.03724324550433962
-0.16641407946407274
-0.1547292307754144
-0.13146892062260204
-0.08837303220904534
-0.009081696414785156
0.11900371438319661
0.08890784780316241
0.06023328503282623
0.15330179141926198
0.25578189646992006
0.24359668116998784
0.014168290113189739
-0.4747057475691133
-0.5718548832768527
-0.5194445875860244
-0.2702473445630913
0.06262248364205371
0.7339588718917054
0.894070844061034
0.9415445117450049
0.32153626297787424
-0.4250803321406836
-1.176257455194028
-1.1379871519614035
-0.9840604478217009
-0.2518913053342991
0.8025839126470228
1.7137514169459922
1.7197196037835412
0.5219803584744023
-0.685826025415556
-1.328624028402369
-1.5377065165384958
-1.2653942013866495
-0.06591247967085016
0.8457975060814281
1.2779156670218472
1.3318284891505978
0.7064529614988897
-0.13022257521627456
-0.6962281061289399
-0.9980168302021011
-0.8171356360001165
-0.4187235399930614
0.09380841634885913
0.9735951840325247
0.5883695120778226
0.16434313324954902
-0.46439560475950353
-0.4921500237421217
-0.36542418923977876
0.40015728324094096
1.4082389557469728
-0.8200615585503874
-0.0325149170529455
-0.01678142295474321
-0.16348513963811348
-1.2318276191669295
1.2742790064327483
0.5174452671075555
-0.07078849429950489
-0.39106869336469396
-0.48039482642153725
-0.32540719998457523
-0.2922896595635199
0.02495895678678142
0.34581394863771237
0.8510376194596966
1.1584854990428683
1.345164276481465
-1.579072914361536
-1.1613958208203556
-0.9944072413876566
-1.0449919879644611
-0.853365876974837
1.9942139055579824
1.5444168800663294
0.751642779688629
-0.00767517401293909
-0.5575228244202967
-0.6855056581028389
-0.6712720526037812
-0.210088863563427
0.44626127319126485
0.5229097274615402
-0.06683624764419825
-0.32427625480413685
-0.17641667977247633
-0.09405019360207172
0.08315769724478507
0.3170273138571645
0.3425744704436011
0.04812260392299943
-0.1316854694561649
-0.41064137838918496
-0.23895416723622825
-0.09130921202307406
0.3411784847560837
0.35683321901282766
1.4530407140144521
-1.4553150633853729
-0.6106303848445817
-0.3918676549594518
-0.11317442499413215
-0.849855491059914
2.1139652774557565
0.6344483812630333
-0.12259501656091525
0.12494406598498327
0.8205925644176126
-2.3631300597894764
-0.8618123324669699
0.010873469235211996
0.04306822454171326
-0.5423266259954961
2.6224834236989447
1.3737362234893944
0.18736901959446045
-1.1852651342943539
-1.028455000913801
-0.9555853199664256
-0.6275348842718681
0.07421187687406554
0.8134704548524588
0.3204974598439481
0.4976950955283304
0.5400832027215133
0.09190332114868831
-0.15265687811683307
-0.20991331176844846
-0.34355322363994173
-0.397690050479695
-0.34450727827797945
-0.05880231857436877
0.07709140239323349
0.34372518606588487
0.24297250756336097
0.6597592722141036
0.03983980684590267
-0.21055713177066704
-0.5065161940044446
-0.2586636605426926
-0.4534362209344696
0.15083836349262747
0.4104967754088518
0.3727379005681238
0.2532971691597264
0.02629545705351378
-0.1692415138108824
-0.40947179456795796
-0.16119783519151248
-0.06240864725353841
0.08583265842964131
0.11547827022546966
0.2796505763688378
0.038921700306290094
-0.14934412130371275
-0.03674923029302966
-0.18603067409725563
0.02763780045554917
0.014287518436564086
0.1659109093005739
0.054406883326871894
0.2333551353327481
-0.15491266194928552
-0.16794213974731062
-0.25105230401644724
-0.02915335360674311
0.09428424034043786
0.13126825432357442
0.09987206771546492
0.21638138595906958
0.09296485057601298
-0.25810146437745546
-0.21622155114545522
-0.14548506547465928
0.005789923537169253
-0.10359641500496831
0.1761336762894233
0.2673892630454727
0.3516966817742389
-0.032832792492680576
-0.18059327771907485
-0.19697973956682316
-0.1734917886593669
-0.16776882831850376
0.0055469435861823626
0.17168628481362058
0.1833832842687432
0.1049784984076582
-0.0012840615280218124
-0.08342649895299285
-0.10228497061076418
-0.030714838135433745
-0.05228819083089468
0.038711136900710263
0.0358885325016972
0.11926353500868364
0.05563316590988733
0.002212838521142866
-0.08637806923279491
-0.0493884228484289
-0.11219111340189243
-0.08221655968024205
0.049969290657133916
0.10493081557977589
0.10635075089960944
0.07404281538503076
0.020701604570753058
-0.04676735566515879
-0.12275397041350496
-0.19832693778948307
-0.0597545472600504
0.10805161745068957
0.11408337047012451
0.1533040124533402
0.20281177492840075
0.02543356209806293
-0.21901074653193509
-0.1582149202362538
-0.1936672926280756
-0.09472446855968185
-0.003773061555261417
0.14847646931230485
0.22251155208940723
0.25149449871053625
0.031322447479198934
-0.07727073171119246
-0.135714044213271
-0.2088692289916788
-0.14744826400219463
0.0226969186995299
0.10194858221242419
0.1102946464600228
0.07667823892491223
0.028831648162848108
-0.013268281985294107
-0.03937785682469589
-0.04735534818161446
-0.039870736694286854
-0.021400612290913338
0.003279863061080056
0.028933494852665637
0.048775847713205714
0.05370721680687922
0.03298211238209602
-0.023275066771532685
-0.12036153848132088
-0.05567889723301956
-0.017613534360906753
0.012358714893880617
0.054779858783535675
0.12633634624413864
0.03538289263424605
-0.019281772876243945
-0.045941570708064844
-0.05497248071703
-0.05354817924554356
-0.042261174048177544
-0.01498914576765091
0.038006135088998694
0.12507421854795295
0.048412469566516264
0.0016124052142393016
-0.02947214424005686
-0.06308073294303454
-0.11690733006852992
-0.004529911331931205
0.06581642622731494
0.09028339620061764
0.06768466454492707
-0.0013226344888108933
-0.11339193321902569
-0.060669110779057
-0.029654639360415267
-0.002208234341590024
0.04102477276443405
0.11588625558306022
0.030617978141255938
-0.015813930847369397
-0.03226876641472456
-0.03151295614252411
-0.025445031566151858
-0.02123343058661178
-0.019642757507212855
-0.016044233724678555
-0.0038101574831360526
0.02090556945286313
0.05453727988833438
0.0834314459018656
0.08473593717024229
0.03162969179514053
-0.09781577176428484
-0.11061311836474351
-0.19141886523906798
-0.10136524253903699
0.014925594556215338
0.2153140191766215
0.14342362633265293
0.21521963009891631
0.01402415921000984
-0.10406047269338513
-0.196441205225656
-0.11730444949243905
-0.10393350856705542
0.0296228325997086
0.09051389501229241
0.0988906787340139
0.07763199269857324
0.04409986704059282
0.0065365215011713275
-0.03445644693948386
-0.08089677112298597
-0.13158942541126437
0.02168975866291675
-0.005821939015167177
0.0041717242578266965
0.06669864931859594
0.1873597672015837
-0.041120243446860355
-0.0380938886168939
-0.030118343840046618
-0.04383628200212573
-0.09919359538384989
-0.005218702281468572
0.040536269681961966
0.04919356113650199
0.03584428410904315
0.014827338873432534
-0.0035254966098492704
-0.014080990489780709
-0.016288525553977466
-0.012511911318105876
-0.006148497961134674
-0.0001597019377939822
0.0037025655879077226
0.004999678569929973
0.004259546106476289
0.0024553494634552003
0.000537260313861595
-0.0008561560066812058
-0.0014830172052581365
-0.0014281646209549652
-0.000957173964567505
-0.000367925991318536
0.00011312548469899104
0.0003743274814079759
0.0004109492814583089
0.00028785215886102515
9.550790119686531e-05
-8.458897494560233e-05
-0.00019856038703295616
-0.00022433346069906094
-0.00016718031991745782
-5.263853935317259e-05
7.98108057518169e-05
0.0001824927242336456
0.00020738187693054787
0.00011872698546902695
-8.963103974499588e-05
-0.00037699666279084455
-0.0006478763508447392
-0.0007643041783687524
-0.0005858145449087813
-3.460566589480694e-05
0.0008310950783706686
0.0017669643341304937
0.0023544891500714314
0.002105539940854644
0.000662360920129749
-0.001949916730071431
-0.005112239290291784
-0.007570710893827537
-0.007686236500446373
-0.004023851168244629
0.0038042213517056516
0.014295728964869053
0.02360530311327656
0.02588672964475511
0.014655711685643264
-0.014998076867070212
-0.06404321903177203
-0.12809036300840926
0.0020137431174039643
0.13730735602875785
0.08659262720568774
0.053123237227981374
0.033946566088947805
-0.17775076097047318
-0.18881374912370819
-0.0032851572150612044
0.17772495591628662
0.15390772400100372
0.12373542530459422
-0.11503523600684892
-0.16198585773061633
-0.2100627164540564
-0.044445744959673336
0.15361036602243117
0.1988742126542844
0.09386210877469714
0.024528483902583432
-0.03758965371995304
-0.1273868487848741
-0.07554339126163818
-0.09931534874968279
0.0020030269781545597
0.04573602346422713
0.059661507702317595
0.07370736943654953
0.11264585274402743
-0.007836601890778627
-0.08094013562639435
-0.10553771882954882
-0.08235724338696912
-0.0119943523941143
0.1041134272870603
0.06051011716586469
0.044481283648440915
0.03503084580214019
0.00532212354719177
-0.07171206590011729
-0.01622328536270815
-0.035093141176404746
-0.1186125741542766
-0.04166682540401412
0.030376124636056597
0.13245590865525925
0.09011396435120678
0.11267440718502063
-0.00817741957418271
-0.09400384480442643
-0.1713927608641986
-0.06341756238498798
0.01585621729197453
0.062217546763784305
0.07827267943535322
0.06893757320309252
0.03808782480398008
-0.012076568428990013
-0.07907000863541945
-0.1571763413039978
-0.03576114685495841
0.0995512263122094
0.06289913701796031
0.06321026469401624
0.10073884184625696
-0.03312572762603609
-0.15270659133537623
-0.07317557215574516
-0.006404811370249989
0.0406484455629139
0.06482530781274977
0.06425380244362756
0.03631791299779178
-0.022624963785123315
-0.11578033082445376
-0.04389910429080318
-0.004323542537012381
0.007897588756280757
-0.0029034894162791583
0.1637542445666423
0.10296853461956788
0.00621996548356511
-0.1334103887035522
-0.11443226180202291
-0.12189022779401919
-0.1272804559263948
0.10526838664083932
0.20819650981179624
0.19933056835860868
0.07537080214624385
0.013406031438592515
-0.21978589251605046
-0.25462284448930494
-0.10767762880575689
0.022362587587532404
0.15024642510805553
0.09383377164372508
0.2631564881556152
0.05414024402417153
-0.1501482316734668
-0.17151413777187885
-0.02584792140312302
-0.11457912011085923
-0.02211065088762822
0.07969024292088148
0.02151280182236259
0.024469995667815835
0.08974939510173356
0.1935420602469027
0.08950934171915234
-0.08093355403839016
-0.17289732521266662
-0.22180845133553423
-0.23270731173096249
0.020464832185524053
0.18496899040388237
0.3127646241944272
0.24451091577677445
0.0009605455614519311
-0.2150677478615164
-0.20823626450320765
-0.17782107588327023
-0.10907040461471894
0.22739664163269946
0.2687138530351512
0.04938217393517709
-0.2080751898132964
-0.09905606747157049
-0.03991444542146386
-0.06970086312903644
0.14897471197185624
0.33171179653497124
0.17976536271398763
-0.2047014396753557
-0.09669415252699899
-0.12498433315539083
-0.25481787994347
-0.18370634038562803
0.04594970838534586
0.018270299285495516
0.10489233099373611
0.2245159038417215
0.2111226824892338
0.19967103330570918
0.23456290404513366
-0.0989762026170178
-0.2263288611751097
-0.1285938517122564
-0.2949958625649745
-0.49554983780759326
-0.18288227099187984
0.07461443924152168
0.13442612558576722
0.41036383617552014
0.41059101126668446
0.5018303403350325
0.7129556807688859
0.5812708866113748
-1.9684719422614443
-0.935962819114706
-0.37954485012317724
-0.19902655929150054
-0.37525771828912097
1.9478715787763972
0.9699734168645797
0.3645464106917328
-0.3416006970593078
-0.5354416074570665
-0.6480679630100953
-0.2763738462541991
-0.3227313207714379
-0.1689303638013289
0.3125821913358144
0.5186547688637119
0.2621607626442631
0.12222291038323226
-0.1900348147328218
-0.2459475188649479
-0.0964226951085395
0.1431267739731349
0.9159884507757098
-0.7464816751588139
0.00830853190623555
-0.11452314954925312
-0.3366389148576498
-1.0045522502367603
0.9900106216381952
0.171370848879492
0.23435757957483455
0.20736506481470537
0.23682128654860587
0.1987359509103817
-0.06509466991898362
-0.4957508768481879
-0.36547504496703265
-0.44209080670430784
-0.3827369598055131
0.0381688640084359
0.472756917222092
0.5314864788973798
0.7246917692579217
0.4340833959231448
-0.07480568164223386
-0.40227672059665076
-0.7431738014450818
-0.8199743909058553
-0.44481621800394994
0.07516118303244157
0.4908961789299183
0.7406137374251456
0.6823848328411278
0.6565878100693245
0.4942450308646859
-1.2297350023095002
-0.9171446304976761
-0.671324767040298
-0.4562734565348015
-0.30660850136122303
1.4154810759085588
0.9387985419791819
0.408934851566323
0.04872646490491796
-0.2349750833440423
-0.6056863766946622
-0.6337836544396109
-0.23956099838911943
-0.06147783961856225
0.1432749086601428
0.2709067489646209
0.4293061259109764
0.2985470010281869
0.10673607705372952
-0.1726192691123571
-0.20381993908527796
-0.261426424778827
-0.2032095900184605
-0.053063658324635624
0.0014846085025115316
0.1982559379608974
0.1815693246534206
0.183349175424744
0.011127110119335714
0.04664251782025833
-0.1454829275985505
-0.2031345296787434
-0.15209520122112483
0.003167338153147692
0.08054656423649294
0.1139401819670612
0.14301364692890325
0.003383129202772087
-0.0797413045429032
-0.09371421231826275
-0.03762712690887657
0.07969908450121518
0.0418420910376266
0.02710644423648184
0.011638472606873063
-0.02650750925775792
-0.10306235730758928
-0.024344764132019473
0.013530797012981648
0.022533069724882324
0.018276610837231585
0.014676899514229697
0.01930346161180909
0.030734463676262
0.038684710377425394
0.027051238011199435
-0.02071075994743736
-0.11527197867745116
-0.05619330718618662
-0.029819537604071165
-0.01149996878475014
0.02817808714427
0.11499175443597345
0.06329691672498698
0.07158138759301318
-0.07699010674643578
-0.009118357846579443
0.04725985934385897
-0.12792161836344892
-0.14009360860814976
0.022092560253041
-0.016792720815700452
-0.027498750549692672
0.21296548275060195
0.11174510127901745
0.05559161430674797
0.013544258637029974
-0.053554460005765324
-0.17980697155114053
-0.18205047024779092
-0.053383308539969844
0.03484931849381971
0.12310857307537833
0.049372545633190185
0.235780128215837
0.0810972992803897
-0.03826967756548368
-0.1591866093618352
-0.1182110491776139
-0.13879142268309666
-0.02397528717399226
0.043093934166790165
0.0917644612748597
0.15293704450008028
0.04895827055942041
-0.012101266051042756
-0.036312069030838945
-0.03875812646875409
-0.03587697596154142
-0.038165070989328226
-0.04564297060354285
-0.047478386285298005
-0.025977778432088285
0.036099480018671595
0.1471458862179145
0.10026993232511784
0.0717446131075602
0.025899310209167192
-0.0743381788203897
-0.25451696915100974
-0.1181443148225715
-0.043061061336000996
0.013120621754855562
0.0998507258351056
0.25722300219241195
0.1022257558453807
0.02274658087679143
-0.01841142025805392
-0.07092825278185623
-0.18024262024136517
-0.1724969628186037
-0.04626980404626658
0.02621434066961016
0.08911936740583153
0.18813179933997207
0.15615248147702657
0.00445401993337918
-0.07823811655216564
-0.1195729481147375
-0.15376090194976386
-0.012329289680495088
0.08162041813271574
0.11512622342542882
0.08461580470935058
-0.0051239410028915576
-0.1411096173832087
-0.10208534509932725
-0.05999214670143027
0.015602350837292889
0.15042624008285632
0.15807157037573877
0.035425192935619326
-0.03667157136251295
-0.08743391094563165
-0.14713248106837307
-0.03862756770817222
0.027539312418313835
0.05331328935318484
0.049443412112027234
0.030103759521113733
0.008030342828490977
-0.008434762691473596
-0.016068720062337623
-0.015762846498767545
-0.010664572930736811
-0.004310296261423502
0.0006912123235046736
0.0032185683551597603
0.00352286526855423
0.0026827561668421925
0.0019141913899005736
0.0019770658605935535
0.002842393752813457
0.0036997907780179215
0.0033052929111891307
0.0005886220470118643
-0.004647642997100797
-0.011185800018670514
-0.016299005853716707
-0.016352612395167648
-0.008176570620811199
0.009015284739730109
0.03174609278386389
0.05130944839355214
0.05460914644142602
0.02729362684601323
-0.04118856642389204
-0.15209039744163302
-0.0937382682262032
-0.04200313889850321
0.03424409304048488
0.16400399089682063
0.16462877451446595
0.035799329431914814
-0.040381494704575686
-0.09318527436374284
-0.15358634276870967
-0.045058040086175574
0.021812736628158132
0.04952118914240017
0.04952824808435254
0.0361511245270949
0.0209788621404052
0.009576030613630868
0.0011152127614448915
-0.009448661635811397
-0.02776602874709747
-0.05649813100000256
-0.09315837808500083
0.06968035621166684
0.04181510723733965
0.03155552811496896
0.04229756940682296
0.07106050248175956
-0.09037227531966556
-0.05222256888605742
-0.022827650693082905
-0.0057618559768082165
0.0009150638030033177
0.0031334404145754247
0.007695566220540497
0.018689598586935367
0.03466316988291646
0.04763989655983929
0.04467398697546778
0.011957097416733863
-0.059462321224666145
-0.1682889372616304
-0.10041925725205814
-0.031224413646728417
0.06707608926007706
0.21520053947041543
0.2179770744676109
0.061300106393081255
-0.08287960258303076
-0.24500854298396338
-0.24475284899886862
-0.08229427478598181
0.06173800256516653
0.21768733650498334
0.2137755888213861
0.06456630169068477
-0.03412206911725876
-0.1023887929892646
-0.16773022240890784
-0.055137756963801715
0.020100486963025525
0.05480350192744698
0.05586576485739257
0.035785942229675106
0.008036592026812745
-0.01620992331238039
-0.029603713802993852
-0.028863495110745978
-0.014547304527062155
0.009068212075921993
0.03395267239716149
0.04861329895671344
0.03940484627335238
-0.006740381672652304
-0.09849377279729798
-0.03637613270800181
-0.010601489285352393
-0.0016507702627491612
0.016294994306468417
0.06996546545335867
-0.018864619973997774
-0.03825892102196994
0.011007151691753113
0.11514809495997494
0.04993953494774275
-0.013868041844584013
-0.10310493507849401
-0.03464745831738765
-0.210451669815763
-0.01740014608065438
0.16746555618611034
0.16809301370260876
0.0005214159060024483
0.06759247681685679
-0.04086653243622891
-0.14305817727925974
-0.05799204316465535
0.0009108232820339126
0.029207430816120445
0.031275484634310506
0.017500345616473022
0.0002922477433164568
-0.00977033792338318
-0.0068915870183474505
0.008247707830112421
0.028221091946366985
0.040152729021460755
0.02862483498059514
-0.020113276799943052
-0.11355918946115684
-0.04949651702076169
-0.015210208490749744
0.009852846177903534
0.04857343089738354
0.11965950506854861
0.032541641564818244
-0.014427740471994755
-0.03186670352243816
-0.034275920582581616
-0.03394278384549595
-0.03599836618008266
-0.036253169374882335
-0.022515889044775177
0.020950433617678788
0.10717754757621555
0.04048189104231849
0.012780388896877458
0.0035571099871833907
-0.01648190320690843
-0.07924815584607701
-0.012458955133164588
-0.033992809868658116
0.05141104152062638
0.052851740946765986
-0.008175866681510924
-0.10075428844468994
0.011236477142721227
-0.03634225808007908
-0.014325627572044728
0.09335698712205777
0.08511145941547858
0.14098460685321282
0.027244236939483853
-0.0940517122780998
-0.2530390127439427
-0.061854477296585025
-0.11053356433538179
0.028857237610032786
0.19107910397816394
0.2038293848476151
0.07664172419011073
-0.0029993259917454355
-0.06496592498734213
-0.14537935903675153
-0.07361452559958763
-0.062315964543609444
-0.10389095229641258
0.025507651903378697
0.15611597534510288
0.11250658352451283
0.10394343456990085
0.1209509795007652
-0.060456576718615804
-0.268533468074395
-0.12378766913232701
-0.030277243586363013
0.026214184446211403
0.07270264267095809
0.1388599535639175
0.04635439580951069
0.0014809083943685105
-0.006796041966992585
-0.0033444026673372816
-0.01949510325567826
-0.08419135133661818
-0.01613065708935858
-0.018920030532604746
-0.08038619430880899
0.02395703102917464
0.1244507222606598
0.04994297567494896
0.021971661086869435
0.052272525620972475
-0.05601109585650628
-0.10460902763143308
-0.09612680391040618
-0.032057294677103824
0.08597530436551422
0.052292372320371996
0.05267994147619033
0.061990533888272276
0.045773520226513084
-0.033577610185649275
-0.007307151090056442
-0.08990759150814745
-0.07107703492166133
-0.11309597204929922
-0.1556227649306246
0.07202141596467393
0.23353037815257238
0.16808560997298633
0.07844231799083824
0.1290743338648982
-0.14459942692243546
-0.21887721408085362
-0.16217007488247723
-0.01953966070854227
-0.005790741823570448
0.09201971940411717
0.10514323789602292
0.07104928635939403
0.022868007975115744
-0.01695336029614264
-0.038148003354000856
-0.04036815170242325
-0.029108362336095688
-0.01169672422414723
0.005441037767755033
0.017917782835707295
0.023315924246890777
0.020665121496628483
0.010170102186447691
-0.006471570275340532
-0.025323781812522622
-0.039627706914000436
-0.040124188267158634
-0.01678460694260639
0.03818022514957924
0.12697682852792777
0.04406410854542576
-0.02348109853686873
-0.09275184481059873
0.019960962207879875
-0.09608708210056348
-0.043469074235605185
-0.017048236561805062
0.1928129436238854
-0.004159011215360916
-0.0016945606063828054
0.0018568847810594583
