0
1.1159125044046292e-13
4.1389151516572547e-14
-8.9898709413273e-14
-2.530273195799176e-13
-3.8608524512020697e-13
-4.0604512571944305e-13
-2.37424752859594e-13
1.4613446391122458e-13
6.803646263229569e-13
1.1894413314809492e-12
1.40788233162652e-12
1.0593418964519296e-12
-1.3506409649030018e-14
-1.7023538670860031e-12
-3.5324502608165716e-12
-4.683875551833981e-12
-4.195264349680994e-12
-1.3554852645445084e-12
3.8006568412476806e-12
1.0076608811112089e-11
1.5029437968447397e-11
1.545031714893752e-11
8.501345085720223e-12
-6.670586550409774e-12
-2.7361330272194965e-11
-4.657739506280965e-11
-5.399279996668562e-11
-3.9103627745773903e-11
3.698730460785701e-12
6.952216040248114e-11
1.39289803800365e-10
1.8090822131371052e-10
1.575284050271224e-10
4.294537065082537e-11
-1.593094210643236e-10
-4.0044847901914815e-10
-5.842036556258134e-10
-5.8670962305715e-10
-3.0152873546435117e-10
2.9777896674955293e-10
1.0981925199405457e-09
1.8219814128542492e-09
2.0679737848833068e-09
1.43761214228096e-09
-2.6711268911007273e-10
-2.8296745254720447e-09
-5.485110756753821e-09
-6.978680547083731e-09
-5.89994182734264e-09
-1.287469372049952e-09
6.636713801344579e-09
1.5889643434461232e-08
2.268255055780507e-08
2.2239891781791278e-08
1.058007081172178e-08
-1.306152586687196e-08
-4.398847681200141e-08
-7.118805488822931e-08
-7.909232297511625e-08
-5.260631581250295e-08
1.5178354830325685e-08
1.1482717580613937e-07
2.157263083918004e-07
2.688765163482132e-07
2.203694398460782e-07
3.510522323407825e-08
-2.7499258911926994e-07
-6.295593568621762e-07
-8.796691891834717e-07
-8.414332994064798e-07
-3.663302468756896e-07
5.650716498870598e-07
1.7586103233994136e-06
2.778240176109709e-06
3.0205267037254546e-06
1.9148724517074637e-06
-7.762223792636295e-07
-4.646775434660394e-06
-8.473900795809301e-06
-1.0346313533661851e-05
-8.206677961862987e-06
-7.807280053808314e-07
1.1340233557497737e-05
2.4907906864478152e-05
3.407561495307824e-05
3.1771477296796444e-05
1.2472418902955769e-05
-2.4174980822411353e-05
-7.017969190266695e-05
-0.00010830099880145199
-0.00011517628212782601
-6.92813053264566e-05
3.739498341377204e-05
0.00018755859009688858
0.00033244473762181713
0.00039758227335839864
0.00030457193110891323
7.440754926562628e-06
-0.00046588226650853403
-0.0009844345773134964
-0.00131894845195876
-0.0011977508326105853
-0.0004159644107408002
0.0010249112007953232
0.0027982650765987892
0.0042252141317644
0.004405706469183781
0.0025353038473909773
-0.0016406368442063982
-0.007379793716012663
-0.012728551457418228
-0.014785075379584697
-0.010595968921173898
0.0013695028390191771
0.019524226358826984
0.03789262913260694
0.04603617552683358
0.030756100056876106
-0.020423423971348654
-0.11483887636421185
-0.05093928025028363
-0.016952754910192585
0.007041374789093084
0.04402813084543696
0.11366547702543861
0.026890608815501416
-0.01654717584660583
-0.026870599286123162
-0.020015422087836254
-0.011920902471221883
-0.013175381045181669
-0.025488903319055286
-0.04092793200738882
-0.0442712458319412
-0.018184313158547422
0.04991914294320533
0.16135462062240877
0.10256228344349426
0.04661850669210258
-0.03956872793106042
-0.1842642987324143
-0.200137066257084
-0.07834708398539071
0.009432822322535889
0.10121911741144789
0.2307849814952406
0.2153090413123654
0.0499414712784861
-0.08822102291077728
-0.2284563716310591
-0.1923585797245069
-0.18393778046551795
0.011451370262786547
0.21880658223319435
0.25973621388561374
0.1399125625566977
0.043870773237965024
-0.06014869610884222
-0.207270383927669
-0.2205589577628026
-0.09979736731803192
-0.019409678939177593
0.06331952575129199
0.19276024659712393
0.19809374758530252
0.08154361285309804
0.016177412878981254
-0.0458194471048357
-0.15730666500611512
-0.15829303670509257
-0.062051251793983804
-0.04981902076270201
-0.07576140215009977
0.1194001701400756
0.19038588514828222
0.17075511026372606
0.06320370839672439
0.04001854981988766
-0.14664804013169974
-0.14857894535956728
-0.20536716375564001
-0.134191993054316
0.07113254716750321
0.2323509146595707
0.1744301267167648
0.11468648894344206
0.05821760859312221
-0.1989891508086212
-0.261892369529784
-0.12830659682574305
0.014253555580108304
0.1848907767054861
0.20085719459789547
0.06896180629604383
-0.01866725583266882
-0.08257006011032902
-0.14903283370924914
-0.04166550029616716
0.02504175916607133
0.0482397036073045
0.03536798197476051
0.0002979085145349993
-0.04144076646709684
-0.07724661128178906
0.0987919356658564
0.08361121971785206
0.06530098594222074
0.026456277310764588
-0.049449241319651394
-0.17045085060504667
-0.1302612245622721
-0.10722383507471496
0.13059724051733443
0.21562110766418013
0.17018973691813177
-0.00016448208058094334
-0.10687095875078695
-0.17245618389616327
-0.021989804523802132
-0.07584360457574708
0.05368738127419995
0.16174347014815363
0.04799634335545585
-0.08621432699418843
-0.03928009061236034
-0.009301920744349481
0.00640309738909926
0.011424203501480778
0.009802975038868662
0.005288916809133005
0.0006970895890744852
-0.00238853217755762
-0.00353155418691789
-0.0030968660627649497
-0.001815811488868531
-0.00041352282774542064
0.0006175023594802137
0.0010852825307455826
0.0010468153678456573
0.0006978554804414817
0.00026016164368289016
-9.769284758881631e-05
-0.0002936431950865276
-0.00032611153700851515
-0.00024502073548597283
-0.00011735110497322668
-5.607034756886542e-09
7.422753801403764e-05
9.804171409506425e-05
8.253253865259287e-05
4.69805379336024e-05
9.833898780344097e-06
-1.6737758129003456e-05
-2.833183346858616e-05
-2.6832844616076873e-05
-1.75158107473744e-05
-6.1564551604369015e-06
2.953246188689583e-06
7.79803561106994e-06
8.431425080233118e-06
6.199524563610456e-06
2.8475126196142056e-06
-1.6961164847324786e-07
-2.032510433970072e-06
-2.5784742123908536e-06
-2.1113831440512278e-06
-1.1380701632352152e-06
-1.4032204679924198e-07
5.605126762476104e-07
8.40265774993894e-07
7.376920179568462e-07
3.885561569419002e-07
-3.8905546865119846e-08
-3.8983984133927747e-07
-5.48678710237684e-07
-4.5356562319308906e-07
-1.0853277427815225e-07
4.0426751461720584e-07
9.201314238327942e-07
1.2104179578557715e-06
1.0385096498442384e-06
2.551563603672354e-07
-1.0868294248319805e-06
-2.6434293266799356e-06
-3.7766696279239772e-06
-3.6927583061713545e-06
-1.7374435816595182e-06
2.2041183312713833e-06
7.338956695055237e-06
1.1829595511045786e-05
1.3091786154982976e-05
8.632933404725702e-06
-2.6675622791499347e-06
-1.921029031901864e-05
-3.588525375461201e-05
-4.455212605136572e-05
-3.629255840230122e-05
-5.353321335756113e-06
4.618144545856628e-05
0.00010486822185034543
0.00014593570612908563
0.00013891711808505734
5.935836761601477e-05
-9.564121772578203e-05
-0.00029348960879183874
-0.00046156268732893937
-0.000499756361513608
-0.0003138615207411089
0.0001346060238640281
0.0007771381929023217
0.0014099803675656647
0.0017162015880195318
0.0013564623588326198
0.00012366318876546863
-0.0018776509876288297
-0.004101276547189766
-0.005571862074554816
-0.0051175578135937575
-0.0018383230171695542
0.004279180612141981
0.011808678555265769
0.01768527533755292
0.017636934654247954
0.007360354178389797
-0.015754873172359327
-0.05092458705799305
-0.0931173724410045
0.06623321172253173
0.0368487161080791
0.02634003458412108
0.037427151300666046
0.06688600747210612
-0.09330893371780127
-0.05318842257236826
-0.021656769891105005
-0.004465377435917397
-0.004096584022972289
-0.02135153868408064
0.14242479390848625
0.08395809788627749
-0.0012484361132045951
-0.11587129625224958
-0.05667041844928676
-0.21176970962931133
0.038417500208794246
0.11601349271901647
0.23804387306313074
0.009861144566430067
0.022941187702343335
-0.1417945399008911
-0.10676563970388864
-0.0899690359122834
0.10021292954119145
0.06624634548164458
0.019340012719257667
-0.024330863835963636
-0.047636735175725815
-0.036141307130213615
0.018709162096517053
0.11713085661864976
0.05005934337226566
0.000611564436796463
-0.05186092818869325
-0.12619707511822406
-0.034366887520548034
0.021091541466129456
0.04628222776319987
0.05245725271493547
0.051451123579926206
-0.1483148751655468
0.055682051072320896
0.05932531148917885
0.05287895303596936
0.023836634799193228
-0.038637207615566056
-0.1387509031079709
-0.07050066685656248
-0.017338958611579303
0.044164821078272236
0.13775443886689825
0.08059339498636216
0.07891659030653923
-0.07208787765694889
-0.18457984454101936
-0.07285669990927984
0.05050479507386518
-0.024563737054838646
0.09245573985279217
0.19009517632035383
0.05416177032802245
-0.12971653526377827
-0.17088515039830288
-0.06841944925808659
-0.008997769013822291
0.030388419894854614
0.07563361965999167
0.14739404132702003
0.05505031207680892
-0.004703195726190967
-0.04405802635327841
-0.07670530600300597
-0.11000878469260635
-0.14011628226804526
0.047729480757000356
0.07353261319238548
0.15374812473724814
0.09310083011711558
0.08064675165683662
-0.10812065740691862
-0.1039865493607584
-0.13464987935054795
-0.017087614521737796
0.04563865100851014
0.06262754001967484
0.04999837113624884
0.02488776364086914
0.0007755807734496236
-0.014755812264358476
-0.01987918007717897
-0.01680467544595166
-0.009526477326452737
-0.0018882345607584472
0.003571602632974789
0.005933917270992097
0.005589457859627831
0.0036339394583153493
0.001265778262497756
-0.0006265023118619716
-0.00162826115423343
-0.0017544200788165189
-0.0012872749535757318
-0.0005903840358556196
3.4593260568386304e-05
0.00041920898228205606
0.0005318240406074181
0.00043722942966143417
0.00024102929606237844
4.17234687908444e-05
-9.73968614827294e-05
-0.0001550533217401918
-0.00014318530156719688
-9.1027067188458e-05
-2.963989077394415e-05
1.844470069352526e-05
4.311821239996586e-05
4.528477955058963e-05
3.2534725540642144e-05
1.432212832228576e-05
-1.6676870492952863e-06
-1.126503462200514e-05
-1.3824924435434432e-05
-1.1133703283875279e-05
-5.959091289450756e-06
-8.267166233470755e-07
2.6785280930579574e-06
4.061199616576748e-06
3.6696833683059466e-06
2.277652812584462e-06
6.866272883826664e-07
-5.341879396266266e-07
-1.1400736750590706e-06
-1.1679351366911014e-06
-8.213650185668093e-07
-3.4594213244745653e-07
6.27635124585143e-08
3.018054911687195e-07
3.589439571441886e-07
2.8315082484556257e-07
1.468634971254155e-07
1.4787402334332065e-08
-7.343186390970197e-08
-1.0636131045500958e-07
-9.398592260252643e-08
-5.674242588090331e-08
-1.5333260058739398e-08
1.5795045639848868e-08
3.063313652272932e-08
3.037962036973252e-08
2.045190369814396e-08
7.320895098890196e-09
-3.7907442671066635e-09
-9.979783788734284e-09
-1.0672046691264362e-08
-7.010930585387969e-09
-1.0747351388469078e-09
4.789982444751215e-09
8.444100372837324e-09
8.319916788740733e-09
3.786864375066433e-09
-4.456441745886524e-09
-1.4098807612123711e-08
-2.1316695625552824e-08
-2.1553973634276787e-08
-1.1107552181336887e-08
1.071879750269147e-08
3.959730623010329e-08
6.538184287211996e-08
7.367123189624805e-08
5.036478010501958e-08
-1.1271387111338646e-08
-1.030398344589168e-07
-1.971885539038888e-07
-2.487231971908526e-07
-2.0755192079914798e-07
-4.019391269228104e-08
2.4409065037364824e-07
5.730592995563731e-07
8.10529871864459e-07
7.863750260261129e-07
3.6065526073888003e-07
-4.898985503177333e-07
-1.5927003150979695e-06
-2.550681503348151e-06
-2.8076756723927167e-06
-1.830160300478214e-06
6.166717529225396e-07
4.17981215809651e-06
7.751220105677605e-06
9.575640991691e-06
7.739965295947567e-06
1.0244204620530596e-06
-1.0093868417815633e-05
-2.269108364779979e-05
-3.141749408304584e-05
-2.9725837401892736e-05
-1.2402874320609809e-05
2.1087066480169537e-05
6.362298603733424e-05
9.949221247031497e-05
0.00010714670221154463
6.643480284948554e-05
-3.065775078098963e-05
-0.00016901391299348052
-0.0003044090847522845
-0.00036840870685396753
-0.00028803438807091845
-1.9072515040800525e-05
0.0004154829115220973
0.0008978384349268586
0.0012185875116454132
0.0011270125220850236
0.0004311073346119708
-0.0008730912897712015
-0.002489670734891702
-0.0037941428013622204
-0.003951288447494052
-0.00220888979978917
0.0016703858265615108
0.006962111832987684
0.011712809974913915
0.012860212593991182
0.006864910646420609
-0.009214751311092435
-0.036525726509486656
-0.07361163032504336
0.08355411618916798
0.04063708673634538
0.0035805551276862375
-0.022523459762740086
-0.034016041720357354
-0.028941648916305084
-0.007464411637950913
0.027408968716263353
0.06921986705542285
0.10841444942492129
-0.06560555553289059
-0.06084505730970607
-0.07878718894113909
-0.11221902337754645
0.05349524468222228
0.03541736526115141
0.04581200348271933
0.08543107750320987
0.1401890234123907
-0.016844466952977467
-0.017980158268868656
-0.08993096061286672
-0.24299238871363296
-0.06454303947899397
0.08019397654172804
0.039833721148133015
0.06358435472746539
0.18750392782131559
0.024689442660061133
-0.03771288947378799
-0.03415044212712167
-0.010722620059383117
-0.01281396757314939
-0.07372833303661318
-0.20725310386877027
-0.006116049111983253
0.15326273438221605
0.1014255959277308
0.06541576517236032
0.06095030450226583
-0.11049595492966562
-0.05968063325638432
-0.004398812732853743
0.03664318830026549
0.049208717620250794
0.027338681233579288
-0.22489750272888692
-0.0943722198885475
0.03683123015748319
0.18441074208678568
0.15454311152443634
0.13989970964640483
-0.07827201798921457
-0.12203357700372618
-0.20582656973621316
-0.12771810364801
-0.06712645868194912
0.20952633667462467
0.1374378125380129
0.1411384284528723
0.02634913605572167
-0.02112438284182001
-0.22985899478708616
-0.03374791856154654
-0.06340708134897836
0.05905889993859178
0.12132235472569397
0.11954356300047177
-0.14338957548213166
-0.0588439181871472
-0.012852197188534946
0.013032034145693263
0.039799149398469166
0.0882904537592269
-0.023357936398193575
-0.08148194100575835
-0.07797273082701271
-0.011327006658987537
0.11195948249361325
0.07626285756038535
0.05741401175960569
0.026273186854213936
-0.04471455718242496
-0.17373353971266428
-0.16356442287509898
-0.000212099103632594
0.14257401000894498
0.09430482381770898
0.07785458541587637
0.10261009830283926
-0.03690104713755453
-0.1569398726629131
-0.07730797306232505
-0.014209349168812549
0.024087204924900376
0.037828483613710544
0.033397390572814954
0.019667360943911378
0.0047038375091546705
-0.006229450777565752
-0.011160891024006414
-0.010755284939775787
-0.007110003954008659
-0.0025633764431241043
0.0011266080898467677
0.0031177805404013293
0.0034094279513580033
0.0025326945836185322
0.001188988006985675
-3.170579665275745e-05
-0.0007941432884072465
-0.0010289565117515599
-0.0008567184457359194
-0.0004806264910471636
-9.281283513604923e-05
0.00018149695339579047
0.00029845855125248955
0.00027939263335817303
0.00018020462902837087
6.125099788663428e-05
-3.3115654348789526e-05
-8.249893477835383e-05
-8.802040189096274e-05
-6.406702383440576e-05
-2.893303416465743e-05
2.3196856856095487e-06
2.13711757200179e-05
2.6761729184479477e-05
2.1827561887106297e-05
1.1899138801047918e-05
1.906588927058554e-06
-5.0106066608896725e-06
-7.824949575421547e-06
-7.165675202043453e-06
-4.5140873166164696e-06
-1.4287183958296653e-06
9.690235587302441e-07
2.1839999029024205e-06
2.2717340881076403e-06
1.6188615627133898e-06
7.009625431360982e-07
-9.840226194349016e-08
-5.735012830507885e-07
-6.952759461625437e-07
-5.555180310763379e-07
-2.938637019992372e-07
-3.667940052653554e-08
1.3747134096074198e-07
2.0477382980763074e-07
1.8348566699322473e-07
1.1279525473790276e-07
3.291429602818617e-08
-2.7843155148957937e-08
-5.753215145916164e-08
-5.8305180658687974e-08
-4.057661901625592e-08
-1.674410414722917e-08
3.4199392924070464e-09
1.488601397660595e-08
1.7243691983262612e-08
1.3182342755896604e-08
6.538128737490722e-09
6.491357926903667e-10
-2.5979796551803167e-09
-2.9789179619172867e-09
-1.565408742948273e-09
-3.2770580832606555e-11
1.1377780546534883e-10
-1.8061101999229898e-09
-5.268022320993682e-09
-8.557928118507369e-09
-9.253980051495606e-09
-5.153402759306184e-09
4.531587089083758e-09
1.8077678172908543e-08
3.078143411071289e-08
3.5659581508763496e-08
2.562720684061872e-08
-3.0613421074739924e-09
-4.7055292089672235e-08
-9.348067589154252e-08
-1.2079425441412564e-07
-1.0439144160386814e-07
-2.696191080993027e-08
1.0875112187054578e-07
2.696745870999677e-07
3.9111195449839594e-07
3.902799104006791e-07
1.966108566006501e-07
-2.063803266880733e-07
-7.415840014196108e-07
-1.2219751394517591e-06
-1.37898725636482e-06
-9.475392099861031e-07
2.0130480195675226e-07
1.9177711329854174e-06
3.6854175127141787e-06
4.662820692970293e-06
3.909617306183086e-06
7.925051382991653e-07
-4.52442544556705e-06
-1.0697726574511093e-05
-1.5182133742079844e-05
-1.4787350900600663e-05
-6.875901234401387e-06
9.016176780808552e-06
2.9689049510617584e-05
4.7729334291067745e-05
5.2717671993089026e-05
3.461846625099005e-05
-1.105219409475553e-05
-7.779518033753125e-05
-0.00014495717734688848
-0.00017969393451919947
-0.00014607919312498502
-2.101471043303399e-05
0.0001869582104088611
0.000423544426723787
0.0005889816643149525
0.0005609808741438529
0.00024221536228476368
-0.00037673168684461444
-0.0011609573867260952
-0.0018129905954882635
-0.0019241300617087616
-0.0011113602574505115
0.0007757201207141959
0.00343441704623149
0.00596597278466743
0.0069076023753062545
0.004494585240545456
-0.002891432923073789
-0.016267690348734813
-0.035883607433601236
-0.061628011781255966
0.1059533902025414
0.06448299126536927
0.009296287108611205
-0.06553355301084206
0.0352965354018449
-0.08863908175247272
-0.03122977932375298
0.020608709746701256
0.08522653917581771
-0.017131772237929842
-0.06846614339536596
-0.057169262109131556
0.018293031629128667
0.14681196326087598
0.10439599734095177
0.057677247480831154
-0.028374607097586244
-0.18008079130739588
-0.2055996393684017
-0.09067605036515888
-0.0024871951260748513
0.09869912648019584
0.24391713366479764
0.24207807016433852
0.07462409601507859
-0.09874201651396809
-0.12476778103020432
-0.2374725155647721
-0.24264162206247866
-0.11236389338091689
0.207841124685987
0.18178052458107194
0.2618353314397055
0.07258277567805173
0.004500430019189233
-0.18096194947286495
-0.1381031723475937
-0.12117133759353395
0.02846293256521624
0.08901809796055622
0.05874314093623454
-0.047995863799104886
-0.0065887500846202995
0.011753960933797806
0.03476159900781763
0.08535193980239279
-0.020159546547219936
-0.07188580087665232
-0.06499049275144249
0.0015748709412353337
-0.07491588452546405
0.09760633147011956
0.10412494537502956
0.12195921584536498
-0.0769708874523752
-0.12081208950664392
-0.03092731721303717
-0.01613883762901477
-0.07033273989826343
0.025691706230236356
0.09880635047488524
-0.023607641527937224
0.07970476317381907
0.01971667583074068
-0.0035091071743863916
0.002007287699868779
0.025354942254084935
-0.14153741024961497
-0.09978085380815302
-0.04288138212937861
0.03968131041534832
0.15573621564951454
0.10340465626978394
0.06723029161229664
0.019826073940403505
-0.07091972787196844
-0.23153931695738378
-0.07357561314818241
0.011151390380644126
0.04879282156292202
0.07619757411338939
0.1312111282475412
0.04418816208394231
0.03331901496512816
-0.09565657799416179
-0.14692774826374547
-0.1322105894098353
-0.0712124930078279
0.004149561659161654
0.24378905623702968
0.37641844176126765
0.3149671427702221
-0.026267812844263914
-0.504832178677374
-0.7221842592223339
-0.20664107594548461
0.7833992134560036
-0.565334124223214
0.5400931616722344
0.4576916626028386
-0.121605070338055
-0.7901019857896983
0.9782137485945767
0.044765396433246854
-0.1646364542693685
-0.2236962426914845
-0.26977030009266995
-0.3777371828759949
-0.15169367287685478
0.2628008321687436
0.35036817906070306
0.19164690052685662
0.23548392711326316
0.08667828715710851
-0.08769339025066333
-0.1369955437041092
-0.29938904336472305
-0.37842401706001205
-0.13297741604599347
0.11511625168603201
0.25808726389428355
0.37240055322892374
0.2934397700911551
0.004244202726381286
-0.15792796050927524
-0.28055579335643405
-0.24898534321545668
-0.12369406636699339
0.07120162929044657
0.14634637831431513
0.13568003952660862
0.08112342066230398
0.019265697639331832
-0.026393600968123664
-0.04698617345591851
-0.045141862104295924
-0.02968518138106734
-0.010490747608471391
0.005027889676964893
0.013339844265654136
0.014472619935575826
0.010693303927835874
0.0049753902080996535
-0.0001907778684691381
-0.003399063870125533
-0.004368999018927178
-0.0036204863479987687
-0.0020180832663120292
-0.000375005104808982
0.0007815173258018058
0.0012695727020224426
0.0011824583375465198
0.0007585203705391454
0.0002535848384296744
-0.00014519558204029536
-0.00035243428537407224
-0.00037372819464587915
-0.00027049785511488295
-0.00012038529915741474
1.2805966686543801e-05
9.378097903550918e-05
0.0001161614795745419
9.381478620866975e-05
4.921232867068024e-05
3.572451449620704e-06
-2.883549410726481e-05
-4.211747977167127e-05
-3.726073483532434e-05
-1.9508741974987046e-05
3.993793482523147e-06
2.5698844128445454e-05
3.850781187218022e-05
3.663468026754853e-05
1.705990080695518e-05
-1.8395766586114173e-05
-6.114005879142083e-05
-9.544271818175353e-05
-0.00010117088674045348
-6.042581522875285e-05
3.2750622619816296e-05
0.00016259011048580608
0.0002866050566538393
0.0003407647874314586
0.00025830801198827664
9.038169403721881e-07
-0.0004060106562093152
-0.0008487264300092687
-0.0011299928981859549
-0.001017651248119954
-0.0003387006740873427
0.0009012008475802301
0.0024169706714761
0.0036226751095426203
0.003746154383391927
0.0021022997384689272
-0.0015175056921168878
-0.006464319757760515
-0.011052072212821725
-0.012786460774978083
-0.009130385732950297
0.0012515648832466914
0.01708820851536414
0.03350489142885703
0.04210982200293025
0.032666366291072856
-0.0036689628319141886
-0.07036118524918264
-0.16236575733237502
-0.06572414786775865
0.03897893753079668
0.1699377110061413
0.13688004192367367
0.13683806023213374
-0.044517450571928664
-0.2261369797555939
-0.22257189493009732
-0.03724080032652873
0.13860273414107172
0.12095457420433872
0.12510169665815846
-0.041291840670886315
0.018852759534008327
-0.10644356723080824
-0.03367763956573864
0.021416604189820675
0.0479982119147075
-0.1578618337049238
0.0065999271987751285
0.14884913939479066
0.07833185968212691
0.004429626508065278
-0.063947970064148
-0.11749627981228938
-0.14599935953346307
0.06011331133859527
0.10577136848045787
0.18649667037623266
0.08584544292655792
-0.02246247718341763
-0.16750748632646698
-0.1717455232221365
-0.043251643680633035
0.02695049990119399
0.061482206814518575
0.08889861938083064
0.13510397258667617
0.01728405204257503
-0.05773184300191291
-0.09092861592871586
-0.08647879810098369
-0.04778176647452519
0.023874901159858537
0.1277906622083067
0.06088875561878038
0.015454963394736123
-0.02087152691041301
-0.06276775306035907
-0.12387012230419364
-0.01423595406590177
0.06013810328765804
0.09590272135767793
0.09055631004093759
0.042143397615920765
-0.04861089912498123
-0.17457062586177313
-0.11927331276235276
-0.057556165305107425
0.03894199687669489
0.1926441656845311
0.21091987618594696
0.08146698778083415
-0.024829246900302818
-0.1438933551619786
-0.3051837314236794
-0.1209000921482176
0.017469001545394536
0.13381850956688845
0.256128610842884
0.20482761942942906
-0.01367891392859239
-0.20580650206703574
-0.1836218402230692
-0.15642694114199923
0.07406517121673223
0.11276071718425737
0.1657574414134413
0.034060210285659774
-0.09005335872013323
-0.022433447295988142
0.01715030909145857
0.010991548835748018
-0.05069011730875031
0.03451203171121374
-0.11728428608896947
-0.07829213435764873
-0.014905543282348358
0.10348937091607903
0.09501471325543681
0.15844019659485387
0.07212662955585365
0.00024310653901979236
-0.09501595238854862
-0.23924037856401717
-0.2352320174802699
-0.061070003305519004
0.12109968358670996
0.14782287574184078
0.23477524599143607
0.16249474335007813
0.07344746059888067
-0.1174428425277383
-0.10132910951290293
-0.1492231846176505
-0.08862866617570857
-0.08961066486818987
-0.06419331701160122
-0.07965613363057972
0.016892284233964976
0.16800072621477874
0.6766547286561441
-0.6141590041771524
0.27217389144887766
0.25476148114871483
0.016534778688792506
-0.7673946833473683
0.39848255022033174
-0.3494816381262818
-0.2270625953389571
-0.010039847617300998
0.34624232646085684
0.4829528476535256
0.21895103260487314
-0.0551936960935314
-0.3684703589824524
-0.35133964834688763
-0.2180361953578441
0.04192669790451827
0.2596685658124247
0.27349999692144916
0.11352666717453912
-0.00842389435710291
-0.09994895662309992
-0.1813955941797106
-0.07568067508450597
0.0005478549451068908
0.04131032516970996
0.05078964727484869
0.03951392614694487
0.01956802068433273
0.0007572884219103471
-0.011328735756994912
-0.015362328311418684
-0.013054633344477451
-0.007474799797984993
-0.0015827085023247254
0.0026566668555330067
0.004520133614086786
0.0042944153548739135
0.0028145979702651116
0.0010014227886314512
-0.00045787179989765614
-0.001238440174926941
-0.001346222030080017
-0.0009947020357407802
-0.0004621614555497343
1.887589374652289e-05
0.00031733950411429407
0.00040722254716489537
0.00033710651805556567
0.0001876200651254965
3.4528225380736696e-05
-7.310614998907253e-05
-0.00011841434435683325
-0.00011015797483780809
-7.058374388125214e-05
-2.353374175936777e-05
1.3575074238905958e-05
3.282223737660568e-05
3.4765883065061426e-05
2.515484374672437e-05
1.1229670852265429e-05
-1.0830078546408498e-06
-8.536010373178806e-06
-1.059009603995897e-05
-8.587585794793479e-06
-4.642756509248185e-06
-6.990336491226296e-07
2.0142794405751823e-06
3.103057636369463e-06
2.8245050468492718e-06
1.767709329859336e-06
5.480177358995e-07
-3.9452353003089834e-07
-8.680111838966867e-07
-8.973472477390981e-07
-6.367477401001434e-07
-2.7401973405385965e-07
4.0474466060986755e-08
2.2701111599084814e-07
2.7533019621002197e-07
2.220382451424855e-07
1.215311895705896e-07
2.201011580088242e-08
-4.75831710610293e-08
-7.939074202150135e-08
-8.059167538086483e-08
-6.42678439804276e-08
-4.148177561546053e-08
-1.724199200258602e-08
8.95779155071436e-09
3.9114204427255086e-08
7.150705913151417e-08
9.708256214858474e-08
9.983048100493411e-08
6.232350930487838e-08
-2.439721567294884e-08
-1.4975935823319755e-07
-2.765859866632172e-07
-3.4381994952848555e-07
-2.8314772968584794e-07
-4.907305168502928e-08
3.4484955210331757e-07
7.980608677097831e-07
1.1219397784121335e-06
1.081721280894297e-06
4.85582349056812e-07
-6.957192183350963e-07
-2.2199381615793857e-06
-3.535089036660949e-06
-3.871699521151388e-06
-2.4958297277876473e-06
9.085494996680944e-07
5.841199215976884e-06
1.0758328789707726e-05
1.3227691906506464e-05
1.0611566430187326e-05
1.2474247290612334e-06
-1.4166693823760336e-05
-3.1546034113744645e-05
-4.346641160216402e-05
-4.08846856059153e-05
-1.66557097491344e-05
2.9844722068866363e-05
8.862724117013859e-05
0.00013785129473251035
0.00014770959137831277
9.049323553137749e-05
-4.4535299864603254e-05
-0.00023600039264039352
-0.00042230861303056065
-0.0005086592802569144
-0.00039448718598941517
-1.966952764383511e-05
0.0005823894494832058
0.0012469765113606482
0.0016831112619908322
0.0015438131552272228
0.000564864276937428
-0.0012565165148801006
-0.0035079602057429353
-0.00532352557520395
-0.005546794244558595
-0.0031330873634963824
0.002266287889917061
0.009715192090934634
0.016677471122192918
0.019273165162778674
0.013284547341991842
-0.004188482482819452
-0.03291284291226907
-0.06839165892108534
-0.10235693540000447
0.07459463202732444
0.06869989719519531
0.07873593043264411
0.09404450966660013
0.09666109539101239
-0.13230776110954032
-0.20406006286357317
-0.11488960662427335
-0.04415167951281634
0.040760105971463685
0.17373528532403137
0.17761749031804164
0.055217241243061856
-0.01264920588092888
-0.06131944012249268
-0.13096705036319645
-0.05404744000370807
-0.04587651705302913
-0.1013231663554839
0.0015721340350226284
0.09249877783582697
0.1976196915991707
0.13046002013526137
0.08869288671380375
-0.14173533844232647
-0.17701203809395838
-0.22500944810559445
-0.07921484712212777
0.07976186909467642
0.27569479322562757
0.12541509230413767
0.03016034035891053
-0.026437303500052713
-0.07313458593813878
-0.14124969397334558
-0.0544188791038329
-0.021775400447147434
-0.03663484359850645
0.1194884443869215
0.06959331868282738
0.03359281273887869
0.023063985911525503
0.03974084929124746
-0.12247418824444652
-0.0735254900530306
-0.023356114905231682
0.020114954511990062
0.050734448391314906
0.06247985075383484
0.048066146191596354
-0.000845265316330437
-0.09147623598304482
-0.026611959950691207
-0.0016387883033073863
-0.0033133735699880226
-0.010875525140916883
0.00073166905080156
0.05633648099564225
-0.02424610513394337
-0.030224436510267693
0.03777178315794829
0.16750470237902607
-0.06250024132607893
-0.07821506411692636
-0.10413970329118176
0.04196825649067532
-0.04811443633815917
0.026579458150888
0.07340626331721288
0.10236013312312002
-0.07707854781373102
-0.05765772988936358
-0.03486083217116514
-0.007114366085976645
0.023604935239270864
0.050907230840440194
0.06378504881590721
0.04813940889858819
-0.009481432657084848
-0.11657623698543713
-0.06962056412079955
-0.05154955252667652
-0.033530463174690335
0.018775379764195577
0.13609488177477916
0.1365605827564664
0.0201212211601827
-0.031501365371166865
-0.04927593226929986
-0.06784587914155381
-0.11627385451207987
-0.01156996727918779
0.04328089924016942
0.056881581997967674
0.044215040603682344
0.020959633845976555
-0.0007678828399942538
-0.014346226483005427
-0.018396289386208967
-0.01513051012963801
-0.008269723329315864
-0.0012971332268073147
0.0035519316811153234
0.005531255773557617
0.005068788760941176
0.003200454756214473
0.0010224656659119666
-0.0006736372751041043
-0.0015365441410279304
-0.0016034128991963084
-0.0011458134075569588
-0.0004990550402428068
6.573428603942633e-05
0.0004025627596317986
0.0004901351669127791
0.0003926964489843021
0.00020858400513796066
2.7044079133883322e-05
-9.625759305950795e-05
-0.00014426023141574538
-0.00012964944992195515
-7.997661307974328e-05
-2.3607876502160717e-05
1.9420404854667142e-05
4.059033564049483e-05
4.1328302936207316e-05
2.890804604599436e-05
1.2035014146134255e-05
-2.394026169820255e-06
-1.0777319758770055e-05
-1.2721112444451434e-05
-9.984259766118414e-06
-5.139201477199576e-06
-4.7101183539400555e-07
2.629606220664845e-06
3.7715095886008257e-06
3.317983773242354e-06
1.9963888860790614e-06
5.376398347447487e-07
-5.530170207080564e-07
-1.0706731927673595e-06
-1.0643512793163246e-06
-7.284594367664987e-07
-2.8877551020882246e-07
7.94770948188578e-08
2.877018298221315e-07
3.2974097013053557e-07
2.5351916769618803e-07
1.2623697023432774e-07
6.336697357449669e-09
-7.150479947265037e-08
-9.846112418738633e-08
-8.481476080986686e-08
-4.973278378300689e-08
-1.2027112639747569e-08
1.558108699525296e-08
2.8191287849692283e-08
2.7379492612856403e-08
1.8328218114774235e-08
6.8859224024613e-09
-2.5012671833409182e-09
-7.660947608023349e-09
-8.536799772612536e-09
-6.428994696640916e-09
-3.0905810208712527e-09
-1.4515598322974209e-11
1.9363566930423646e-09
2.566944182221081e-09
2.165503087272137e-09
1.2362369865597183e-09
2.6276426715601696e-10
-4.351262116066683e-10
-7.410251648630601e-10
-7.03508821594608e-10
-4.603988454677611e-10
-1.6300965858876985e-10
7.59905997072875e-11
2.035195757369145e-10
2.2074957805958067e-10
1.6281638918975848e-10
7.538957105035758e-11
-3.4371112502986494e-12
-5.224199523284628e-11
-6.683232216890891e-11
-5.5224137600777325e-11
-3.065886484397567e-11
-5.555214819002884e-12
1.2061132630537934e-11
1.9446749364802207e-11
1.8055963283706513e-11
1.154568905263879e-11
3.8261846886179286e-12
-2.2513092467684626e-12
-5.394722738780749e-12
-5.701433662554765e-12
-4.117612582671728e-12
-1.8314541465657996e-12
1.8621819843617025e-13
1.4048475687359753e-12
1.737891907141365e-12
1.4067405700612938e-12
7.585882486184969e-13
1.1196743929439223e-13
-3.3205155491343595e-13
-5.094201375549626e-13
-4.627606381580781e-13
-2.888994958529143e-13
-8.87672532095992e-14
6.558142472557733e-14
1.4283123281090265e-13
1.472091456778708e-13
1.0411303926359959e-13
4.4416738182357576e-14
-7.168329333995885e-15
-3.753557235743452e-14
-4.500819816938487e-14
-3.5664357271132605e-14
-1.859373209679875e-14
-1.9571246459476157e-15
9.217146804439946e-15
1.3450765115388755e-14
1.1972613363548537e-14
7.34132831741698e-15
2.15908566045494e-15
-1.755814534651636e-15
-3.648052783693822e-15
-3.670426438522256e-15
-2.5026875294328407e-15
-9.460488513327455e-16
3.712623179435187e-16
1.1263705467284681e-15
1.2902891354426745e-15
1.0290250258510738e-15
5.802000943473036e-16
1.526532974918294e-16
-1.2810974264552174e-16
-2.28447530110809e-16
-1.833349845913034e-16
-6.025744570513543e-17
7.377255996794241e-17
1.729377576600792e-16
2.1911902030532073e-16
2.1737331914656256e-16
1.8584582995109086e-16
1.4530580079445029e-16
1.1170701511780596e-16
9.298146430157666e-17
8.951101861174694e-17
9.677917953510328e-17
1.085757857435567e-16
1.195532330615119e-16
