0
-0.00027467226887557854
-0.0002746722688757352
-0.00027467226887586727
-0.0002746722688758953
-0.0002746722688757451
-0.0002746722688753872
-0.0002746722688748775
-0.00027467226887437904
-0.00027467226887414403
-0.00027467226887444116
-0.0002746722688754329
-0.0002746722688770336
-0.000274672268878808
-0.00027467226887998235
-0.00027467226887962966
-0.00027467226887703744
-0.00027467226887218325
-0.00027467226886614636
-0.00027467226886121547
-0.0002746722688604625
-0.0002746722688666836
-0.0002746722688808608
-0.0002746722689006253
-0.00027467226891947984
-0.00027467226892760436
-0.000274672268914767
-0.00027467226887512713
-0.0002746722688126632
-0.0002746722687449107
-0.00027467226870218973
-0.00027467226872008297
-0.00027467226882495465
-0.00027467226901560716
-0.0002746722692478732
-0.0002746722694314415
-0.00027467226944758073
-0.00027467226919115597
-0.00027467226863033353
-0.0002746722678648153
-0.000274672267153051
-0.00027467226687701154
-0.0002746722674256426
-0.000274672269007233
-0.0002746722714419073
-0.00027467227402496944
-0.0002746722755695676
-0.0002746722747117386
-0.0002746722704797932
-0.0002746722630008705
-0.0002746722540760755
-0.0002746722472644829
-0.00027467224714953944
-0.00027467225767483416
-0.0002746722798292314
-0.0002746723094445267
-0.0002746723362562921
-0.00027467234542393875
-0.00027467232218828777
-0.00027467225919241867
-0.00027467216440379624
-0.00027467206608250465
-0.0002746720106326213
-0.000274672050264767
-0.0002746722206360452
-0.00027467251366938833
-0.00027467285614941786
-0.00027467310799603997
-0.00027467309248814954
-0.00027467266208747567
-0.0002746717880867875
-0.00027467064373056703
-0.0002746696360559621
-0.00027466934099787307
-0.0002746703175910885
-0.0002746728226582688
-0.0002746765088297101
-0.000274680245041574
-0.00027468221906466896
-0.00027468043523497845
-0.0002746735914824851
-0.0002746621235987758
-0.00027464899917964
-0.0002746397246766937
-0.0002746411053469475
-0.00027465864536338545
-0.0002746930800673753
-0.0002747372456011829
-0.0002747750244493658
-0.0002747840914675773
-0.0002747433130257622
-0.00027464385364315354
-0.0002745006685033893
-0.00027435894210284646
-0.0002742893665264643
-0.00027436810847780816
-0.00027464245055930006
-0.0002750907243049998
-0.00027559296746355985
-0.0002759329908513914
-0.0002758490672807192
-0.00027513648388200043
-0.00027378152126395514
-0.00027207907321754633
-0.00027066644626633625
-0.0002704080302054801
-0.0002721011170171784
-0.00027604403500809964
-0.0002815995131287889
-0.0002869656890521953
-0.0002893881353336112
-0.0002859643938099469
-0.00027498843897744347
-0.0002574858854826307
-0.0002382940749196335
-0.00022589058905200451
-0.0002303282491965799
-0.00025919521803959055
-0.00031244484844888444
-0.0003779871911722434
-0.00043065683785371996
-0.00043702549433601744
-0.00036708002069864477
-0.00021099571223542554
4.303927535469535e-06
0.00020708581197656788
0.0002901498212107477
0.00014307286271638515
-0.0002952433109346468
-0.0009778322096388203
-0.001710084837339375
-0.002159961323574492
-0.0019418593900533266
-0.0007755614597480459
0.0013144920978880345
0.003834400407095317
0.005791693490664637
0.005895023003866906
0.003017047985027939
-0.0031548167263963562
-0.011491395017854051
-0.01914114380514561
-0.02193503823908895
-0.015674799941790038
0.0018185506529365069
0.02846550297410825
0.05649321625692539
0.07298170222537469
0.06327403081623464
0.01723146908209098
-0.06310864182813235
-0.1574675317846584
-0.22685478678615523
-0.2223683586243103
-0.10470084711513104
0.12831930435352096
0.41380913278600656
0.6070991528314592
0.48815823048269524
0.19826767301893783
-0.49590628043528906
-0.5257010629188194
-1.055198645693191
-0.6524693544033806
-0.3138829597783173
0.6585510821149473
0.7460272699441055
1.5014519028337805
0.6738574408374626
-0.006283831666897665
-0.777746027529165
-1.1560367268363505
-1.233958541916463
-0.21152228857565164
0.6238473447101202
0.8690846521361254
0.7512411237356023
0.2763016508126009
-0.1972021543990507
-0.5537650304075482
-0.494669063955044
-0.10638540998244932
0.16181874913925756
0.10450385144529965
0.15286554593175572
0.16046389589152268
-0.011185271614208505
-0.10292674521820858
-0.06338780682034537
-0.05117680756785679
-0.03622120425451624
-0.0017115780806987503
0.053477838885333355
0.11343873525540536
0.14717628290087043
0.1156672678433169
-0.015849819001243853
-0.26292797994299527
-0.4095782872043038
-0.2048485395653946
0.0275343133260064
0.3676202491494601
0.4731620084870359
0.3599345311242745
-0.002323975782077553
-0.2758730630986525
-0.5290347600924423
-0.41072191275424585
-0.13811245763368382
0.0957208031391689
0.2967233414042046
0.438252130475564
0.43786229244748515
0.355440973147533
0.018414411221057858
-0.33053393763731836
-1.177833338656138
-0.6957810683332774
0.07046167832679055
0.7792364900233685
0.7415100363268053
0.6634475656369085
0.00311533089876532
-0.8490172253247472
-1.1710264829463661
-0.5066579323298491
1.3289575438092673
0.8352708991534327
0.41758049116196444
5.6485516918493794e-05
-0.33336100071963054
-1.279975452294756
-0.46198013881392314
0.2066695108866538
0.520246975106035
0.35305454859423385
0.21837260072680315
0.03102198988191219
-0.11627859106777481
-0.1608687399308437
-0.06648883963477302
-0.014213871306421258
0.006791680972114738
0.005802825188999342
-0.006442735879350841
-0.01782704666458756
-0.017201272813909367
0.001989438783021604
0.0379798945960315
0.07826307606069126
0.09992266236515855
0.07368629660171468
-0.028570137137233893
-0.22497315270907622
-0.3172674090589104
-0.09105369913971981
0.07524046515564502
0.19475315629787604
0.45648908643639596
0.4181607536418112
0.014142166076097163
-0.42104992698467364
-0.5212722059417746
-0.46241305407917516
-0.15394813435157037
0.14584297559835013
0.39572524891818156
0.9322396233830452
1.442415145898448
-1.839668049300551
-0.9135600817364194
0.014643564647566729
-0.05240795367873343
-0.7106418935568591
2.0199659093200517
0.6680425060044398
-0.29966956404571204
-0.6615758636345201
-0.602128812454192
-0.2675509556195166
0.06501893563034945
0.1949751838564457
0.1836837406625172
0.1269974793851596
0.12587487257257068
0.06373082555286412
-0.005083392300829512
-0.0554600140981221
-0.08335106055111642
-0.09396196975847626
-0.09127778561277686
-0.07272435780038163
-0.030679190600313225
0.039945101537740134
0.13116272172956328
0.21313283769806826
0.23205522294578462
0.11797828736344784
-0.19786495770901216
-0.36123456352460476
-0.5773196950448877
-0.20647109961264914
0.22228646057673213
0.5837606583522122
0.5269999337955192
0.45857048549408447
-0.050788446650375275
-0.43607243320608124
-0.6960664999555334
-0.5583872212930109
-0.26950780647077616
-0.01876181447591812
0.40820181741880884
1.163629035881897
0.48322716517338116
0.06412066424017032
-0.11544490920377191
-0.5412590376319203
-1.0928150090588156
-0.18172816623165527
0.2822326472284439
0.29120764277861316
0.312601341410523
0.25077433724417697
0.011906179736223885
-0.11889898074494269
-0.08626758613067927
-0.062186962362239244
-0.03789984796149231
-0.014773117289040521
0.0029671838456468576
0.012555638422946028
0.014231634405995968
0.010797847711741929
0.006107205364183956
0.0032076909294371926
0.0025637241193615253
0.00047017793954239214
-0.012454361360306086
-0.0529413774553547
-0.14713568062072852
0.06708888006515706
0.13857788209568409
0.2042864046307153
0.19629356062114794
-0.14409953517452734
-0.24677396543015012
-0.09272227094403186
-0.00023989431965383003
-0.22302660187527068
0.03725378812228477
0.0049418525242478995
-0.10508870892977666
0.0740269067439567
0.42744775156738724
0.33817475732434754
0.28683150157696335
-0.12570042890982186
-0.537213278429367
-0.576123318562115
-0.02097515553391254
0.021202095484781434
0.3145599918853332
0.2775640164454233
0.15964370377961412
-0.17937540592039564
-0.08227005226965027
-0.10004426912233057
0.00681450924862543
0.06850870530567003
0.10626895067871017
-0.06692540052560216
-0.044728121415315764
-0.02505361723269845
-0.007769831905638082
0.006730205462332294
0.017864577999328533
0.02454159127389576
0.02492252609496882
0.016898957871866984
-0.0005119972754566786
-0.025238655130419573
-0.05062454945258608
-0.06551284047479428
-0.05697244722212137
-0.015926661071779168
0.055306820664402095
0.1359347021339257
0.1833402141277336
0.13649371876221775
-0.0726723282006761
-0.3018140316900815
-0.17963492319193208
0.10748800767678736
0.018961404379827122
0.052063962512374475
-0.07589436249111135
-0.45267295399898555
-0.20040255328351303
0.2954833984428909
0.9658312552688127
0.8575488939357787
0.36405246978983397
-0.5126963823994591
-1.2835069754402302
-1.705792532751535
-0.7620299413213844
0.49853852235018337
1.2626914958532858
2.435310747239736
1.548507357293415
-1.6648172050499135
-1.6260069965375765
-0.6213393186683517
-0.7126842573966594
-0.4843067407289194
1.9628058018685537
1.1829069515312627
-0.24941108271822715
-0.958400362094934
-0.3648082005585687
-0.07222303687151586
0.14332177773921845
0.13260872056679307
0.1626145978858906
0.1022190832965847
0.010364326635836607
-0.07012779348664815
-0.1132642986029744
-0.10762495080631475
-0.054180298373310905
0.033984336661301524
0.13040057278221484
0.194806942954094
0.1767676187645852
0.02529510351171628
-0.29657582104179997
-0.396950106832964
-0.24675853685471388
0.4166115024973209
-0.3268641266226087
0.39658087346203064
0.6323434408726093
0.1855104500319675
-0.7758781084498445
0.09599966039933285
-0.2486653460803301
-0.23856199006049625
0.12737525860630836
0.47780686737113165
0.060014471415025146
-0.07029717208190227
-0.2568542211411857
-0.24862705592708537
-0.00630540876008425
0.2889102849304907
0.22599766717921022
0.1589379369645027
0.010110983091200097
-0.31675094714849966
-0.1175564622209828
-0.06907447218135483
-0.01625089284993065
0.031438653666439234
0.09515120368296234
0.016293727221729483
0.04429932148734957
0.025727877972071996
-0.0033508838993683136
-0.021022814091846313
-0.019585443017994725
-0.002916599507031012
0.01779705605581993
0.029111111563198573
0.02050893789977368
-0.01094143347744115
-0.057431815512362004
-0.10012104407287041
-0.11312284964400066
-0.07249807927287327
0.03064760537179777
0.1761216907062503
0.30488394891411386
0.3194391071129824
0.09836925421753583
-0.2756797938043747
-0.4813801756335863
-0.3290413676399295
-0.3478001908770734
0.003492325633340601
0.5036912298139318
0.7259284337091498
0.1988957230016017
-0.21376082107056063
-0.31084299533353227
-0.13247281158445673
-0.13089292052003904
0.25650879906480145
0.025478671868939713
-0.18821341724263504
-0.5142709893596271
-0.26626138379745634
0.2285384221269013
0.7941615550953168
0.5777991253503244
0.24196402207439904
-0.2154608127250734
-0.8173103515093934
-0.5544593057747562
-0.14365351333624682
0.18996106479391947
0.30263688752083007
0.30211195895520565
0.11138285809966232
0.03839571077138599
-0.0414446049162868
-0.08909311089644524
-0.09548243294354901
-0.07020158432375036
-0.030113153121847515
0.008923549373692797
0.0361690681106443
0.0466547674955204
0.039990906566478954
0.018971854891290447
-0.01106161950390489
-0.04212945974962829
-0.06367100046593661
-0.06399391825909018
-0.03400427093550868
0.026910563625209948
0.10435064967264376
0.1643932303388854
0.15403688081978084
0.008366577219440946
-0.13637815757984278
-0.32779032978766154
-0.38638345157452464
-0.10417220644687541
0.3459540657408538
0.5949852301029075
0.46654220150429876
0.17939495589650145
-0.23300200781619668
-0.8930346892199439
-0.8552933432181862
-0.3061527167442205
0.4040073631180744
0.701259584590158
0.7207368995222204
0.6567337652898151
-0.04988824705485167
-0.48125982694300157
-0.5792916937137342
-0.2708598583457193
-0.40427278021464413
0.08689370519658392
0.1874964966277729
0.17728338987605435
0.19176604447256518
0.18065614059760104
0.0744277080849899
-0.03518490803705974
-0.10001009425004284
-0.1088496266121707
-0.07481262327160047
-0.021818589601809678
0.02616397530824808
0.05180033469271448
0.04742658626780773
0.015646545225644307
-0.03154666353726857
-0.07498051773688873
-0.09245537242847425
-0.06554785746659686
0.01106985076173406
0.11953019304595507
0.21130271221565397
0.20653796335863106
0.003380796457236012
-0.10256396149223342
-0.19239269667573955
-0.0986269628960894
-0.18826206659685515
-0.3600724992863223
0.14170923049752546
0.30012282699371745
0.29216453017332844
0.25959725010840073
0.2927004390915963
-0.36955932524441365
-0.5265962302917667
-0.3997871519985966
-0.022732502205583198
0.3566093599717517
0.464996475114777
0.39376875544282725
-0.00026986501851158104
-0.2782884020726769
-0.39092515013263307
-0.2480302156496359
-0.09800138987170921
0.0761466750337698
0.14369125263275911
0.2018354766603285
0.1487712741039645
0.06231457616343789
-0.01087807219775675
-0.054636574014537996
-0.0738750660725726
-0.08127810063136878
-0.08524803084963944
-0.08324234547143784
-0.06270607131383042
-0.009453225642513467
0.07905605229964395
0.18013528701852888
0.23766529817370186
0.16439951378725084
0.057349503014915544
-0.1754606660137234
-0.18331496406720535
-0.3460036524384336
-0.36212159260966637
-0.25953042371354906
0.17126834714775382
0.3281213396699609
0.7469872776891652
1.0678587725259303
-0.7696891302723604
-0.4986864826120376
0.32456917872607244
-1.4281896440265547
-0.6233612080408141
1.3398356191338092
0.7079170489776111
-0.6617156352059029
0.6679180302194385
-0.30329948612109275
-0.2128776715539632
-0.1242814366629972
0.08961602567645434
0.1627889316568116
0.04920484089255991
-0.2681364372749036
-0.17324838551981525
-0.01986639101786638
0.058351548426433204
0.131843714291639
0.2578860608379329
0.06766257965867133
-0.038120563207697265
-0.08412989513847835
-0.10843244090309016
-0.14850159996044177
-0.030115723289369394
0.037712090464423066
0.06127992266823222
0.05609511295751828
0.03921651037528497
0.022977254119108635
0.011935331451491664
0.0035285061557505585
-0.008280493738934061
-0.027908298835236805
-0.05357798624793379
-0.07527322361732178
-0.07678940565850212
-0.042471024706151446
0.03227954631961582
0.1293938510582119
0.19952929143930345
0.16088118490059233
0.10842197671416269
-0.06659753943788652
-0.451128681264285
-0.4863171961894189
0.04707493601002819
0.42967247719352536
0.593303259016687
0.5070042066707081
-0.8342726644190476
-0.818628461489164
-0.6317485589939996
0.11435357668057312
0.9386144803088166
1.4478467284093761
0.3149046102815884
-0.3051542851178875
-0.920756636834569
-1.230053194084568
-0.25595325652549633
0.48715249368998675
0.5884471150479114
0.30811123537475377
0.13618825298024606
-0.04056489517803968
-0.1561421485858966
-0.16806779317849796
-0.05132767781147867
0.010111275661832795
0.029868900029374618
0.022278456566005616
0.0025202565887109114
-0.01507036916325861
-0.0194735575111987
-0.005505267576378982
0.02422292271771763
0.05863461606527069
0.0796567292289117
0.06643357973012451
0.0020456281467384576
-0.11892763667370376
-0.28516250426327877
-0.2694769715779107
-0.03839646355249877
0.2306762424755297
0.5306907614853165
0.6141651455919258
0.19919874579588484
-0.405395278638205
-0.8637615742776316
-1.1821443815481467
-0.5011876723903429
1.6807665827179423
0.2627595476604038
1.8986124943770297
-0.21793435816972112
-0.729156866238201
-2.0616012935396233
0.024646905962905148
-1.1444978442523723
1.4170393722297125
1.2941596599710277
0.60195223296317
-0.05931174961732782
-0.40792029894853415
-0.6459667816438036
-0.40438825359267955
-0.09003341518811674
0.1493686732769692
0.23730985392845677
0.16190015352268355
-0.04098625105934355
-0.10710575099311402
0.03873171813060677
0.06888720688842563
0.04323580037548629
0.003936910779926147
-0.025338089823296616
-0.036459592962049064
-0.031699722170269416
-0.01819512698715041
-0.0034662224032977183
0.007259215050727265
0.011899525217178804
0.011038329343510695
0.006791916767414583
0.0016308349278919914
-0.002468695863401377
-0.004424885667165055
-0.00407395211661735
-0.0019735558517885586
0.0008696420332843959
0.0032710943518025086
0.004131483643977299
0.002717707243575817
-0.001035792419574558
-0.006271028267522241
-0.011137137715004181
-0.013080452809566904
-0.009606511122148182
0.0005449428406636509
0.01612490513757476
0.03256280119952926
0.04229311057782232
0.036735790220080125
0.009929036799021903
-0.03700912554782807
-0.09231425639333561
-0.13321153822045007
-0.13086697992338034
-0.06145292970904818
0.07828136136063042
0.25546411960071347
0.39237555160750887
0.3714641301982336
0.057845121683493456
-0.26343900479829974
-0.6459527670690842
-0.8524184137224873
-0.553234134801549
0.23923393977318336
0.7071301063534495
1.155782130669323
0.7638593174938608
0.37995947687807735
-0.2254484858192423
-0.6652831561005438
-1.2292323465286286
-1.4042807296542017
-0.4556351093250696
0.31767047493261463
1.46468393119835
0.8379024169132491
0.8684836387259329
0.3002702643446151
0.200601411557427
-1.1592180987421474
-0.7812010558348487
-0.21275570682270234
-0.2474539461965749
-0.4752417734372912
0.11369953787407817
0.6814812013123756
0.6710806823263529
0.334254409082598
-0.12183185161945202
-0.3603417592636997
-0.3159447654967872
-0.18206913472870012
0.004615208558366509
0.1761935723858083
0.24199166855634305
0.29774048084060084
0.039933871966913614
-0.21342120336254797
-0.29955746373590114
-0.39316361660635546
-0.2025269193550297
0.015857365273224573
0.42665570015567805
0.37853365783740855
0.3736690210415993
0.055439725383106715
-0.18087663783874525
1.2416047014601481
-2.6819355747431946
-0.911492505895785
0.6379569197040031
1.8649422774087148
-1.1694709673083892
1.9125632514487374
0.18787811501515855
-0.9483594521089769
-1.3336269577983073
0.42093857040437715
0.17775990940705388
0.09537858537701611
0.02559064394499206
-0.30867623225964347
-0.5478823343044212
0.6633316773507644
0.6367525127397018
0.41303177039860406
-0.044154489923839156
-0.42903005152415097
-0.45672027165872525
-0.2227981751166736
-0.17432962219693518
0.09861821735947962
0.2506793718950777
0.15496892376226373
0.07316306771452653
0.03137130674150291
0.007937918876122442
0.13542475786201777
0.11596132864961822
0.04690984100637339
-0.14831632132081474
-0.2916711634134709
-0.33302840770957554
-0.3520495106243647
-0.18357347834141008
0.13623629637580814
0.5140123884179021
0.751319539378361
0.9244615206161918
0.4061305793288179
-0.47011242785130963
-1.7190675877141766
-1.6178309593697129
0.1422965571636568
2.8469771010869027
-2.3018671695590642
0.5248892952814195
1.8935316085175127
0.03777966421269636
-2.3777623700698647
2.1422629500905943
0.15439342889390642
-1.07286107532395
-0.09883429967734474
-0.6534360309784988
0.40503911718231594
0.5105149651223199
0.1901868208420036
-0.7469544564426042
-0.028167673068747328
0.2608931827669801
0.2514446494840429
0.06785887891548985
0.0100313137208845
-0.05482996115488796
-0.09128872369638373
-0.08884651186222155
-0.05330197771803242
0.000461182941915572
0.05285200342273991
0.08158776051418092
0.062986926552915
-0.025766973267521913
-0.0026443491947437067
-0.07568511685070739
-0.03845784051637712
-0.06794034563256608
0.07390569504265203
0.03470448260290277
0.06327079462247662
-0.00043864882667161867
-0.13612908100909712
-0.35462876577543945
-0.11005164191540272
0.08894210790282848
0.4740080449884037
1.0271364069512359
0.9153417489720255
-0.24685982792493658
-1.517961465329137
-1.5599404955677534
-1.413787709166431
-0.34603189288269814
1.2344042686710919
3.2230297659111056
3.0873807508104765
-2.190319102389357
-1.673593058821804
-0.7593220165317726
-1.2476960188366972
-1.8487522553209244
2.847046870293375
1.5412179798810823
-0.025167101729109236
-0.5122978085973686
-0.19110225727424496
-0.3249183795153286
-0.34071982083661956
-0.20777305360178408
-0.03452684250423422
0.1143394176019694
0.3865771602265354
0.30758063613295666
0.15379400680261326
-0.05760782736559811
-0.16108024144509278
-0.2218194044678966
-0.1100745768079953
-0.07914902862531177
0.04732642948129825
0.07729776902806502
0.04321417104051916
-0.010434876458791367
-0.041302125286983585
-0.02223346786879001
0.04890184540725095
0.14446413708526137
0.20924685822751707
0.17088205967464293
-0.04232893443572772
-0.2803949585795065
-0.5553298695367217
-0.6390657833189985
-0.282242144758678
0.5476741256154247
1.0219606473543315
1.2222257643303482
0.750765171097567
-0.40960873691287353
-0.9971650400880535
-1.5670839619520416
-1.8253235707640223
-0.4370776817069382
1.078730654966885
1.9914564562826114
0.9875115172652035
1.0436256055667412
0.1856341307946973
-0.6580674450914352
-1.9318146321767486
-0.5010410557993857
-0.12067315528585536
0.0443556009083907
0.23777288105377137
0.4812708930904717
0.31612120623284784
0.13930700146877156
-0.04942836704772368
-0.08166197060529651
-0.03521995913254696
-0.03434104622575431
-0.040887208489794984
-0.041816962817609264
-0.036849505231678674
-0.02892713598891724
-0.01883772389132969
-0.004178834761920909
0.018206822478308644
0.04800600871829528
0.07754052145814018
0.09024378595821315
0.0628082501138241
-0.029124740649681836
-0.20372671526677302
-0.26780696020946787
-0.217609936111487
0.15246210252457276
0.2353354435531626
0.3975595821773796
0.3751650362837592
0.2857277500188019
-0.34309580486566976
-0.7368536504664182
-1.2445814576213652
-0.131797700724108
2.196646214124838
-1.448799243937741
0.9084837905950608
2.7782966487354246
-2.2019476282957444
-3.2484187908826936
2.1953805923258694
0.27216291255668484
-1.2957750250970663
2.3771065149087582
0.7324494008908585
-0.815417205442829
-0.8375789894501303
-0.6374768435975379
-0.41051656028795225
-0.03675018798734596
0.08705496957864402
0.3856672762410461
1.034738601909732
0.5053055491777324
-0.05762114473897411
-0.2156690530576481
-0.38516573637461926
-0.9722668763888668
-0.3179384125197659
0.33018967179775666
0.4139808387618366
0.23633611859220333
0.12259402452658126
-0.014443371745944669
-0.09791745919872309
-0.09716117052808944
-0.027102577639759866
0.059889720007419746
0.2873385926580073
0.17187663114765847
-0.15726526889761808
-0.5403921428771744
-0.5777560046251561
-0.23499219436944535
0.3347388547286431
0.9595026077645994
1.0243370511426282
0.2714485309789792
-0.3668702204345786
-1.111116625571296
-1.2775654459587322
-0.6510511856363675
0.29228877968263783
0.7130418835274851
1.5103758662542803
0.6334216945444319
-0.16536707046798005
-0.1195308039565046
-0.3872268123551718
-0.962432456167224
-0.38779467346270985
0.10660962070525366
0.026220778468349755
0.19810158703462283
0.33212455947724484
0.37342687252705264
0.06078152337515597
-0.09990371240747979
-0.24485132435142232
-0.148443246733563
-0.012808950863830179
0.1432309761373292
0.09318411702483122
0.009909914689771534
-0.1285463880478352
-0.13443503245580402
-0.008303855136717766
0.05942570702528586
0.0837255442189109
0.07915523866120976
0.05570254648609219
0.01819969253291545
-0.030485263326168605
-0.08415402289377069
-0.1288665822760821
-0.14266850516078375
-0.10167773196719042
0.0075477299274499055
0.17253541677389056
0.3424076700459792
0.42582265079907833
0.30521058589954697
-0.1320314235599053
-0.7526158433151251
-0.741454697768502
-0.3881724654850088
-0.10806410816629193
0.302984438790358
0.7945498397606346
0.7936810164053284
0.36911554650639916
0.24555699593424288
0.07063744361584563
-0.27960389754800385
-0.7842648410420135
-1.384553235281764
-1.146906025808252
-0.3029107721620902
0.6353776556258472
1.9126542296311475
1.5684385815163553
0.5278680484379074
-0.020177534092989606
-0.7543344075869304
-1.6894739321579832
-0.8291695297325256
0.15278951385326628
0.17406077056811614
0.34511301876771144
0.3262982412747852
0.46490348430708767
0.134511871768155
-0.10872325696575895
-0.14776394787906122
-0.10731692911415326
-0.14490771294713253
-0.03833389568253983
0.024915641967046466
0.053938008826489664
0.05677498895535786
0.040681963158356836
0.012191558859260964
-0.022049736552766767
-0.05389879527074838
-0.07292425677708886
-0.06757368185608374
-0.029074076080470527
0.04244901712101266
0.13172118807824357
0.2052171866281259
0.21452695544025893
0.1077912062141898
-0.15272598206180615
-0.57332431075623
-0.7215687062550348
-0.33823227749631285
0.22870090729547468
0.7764528838658515
1.2060560195918646
0.9113929055568446
0.21584543219484364
-0.744342358237125
-1.9132640686038946
-1.624409135343745
0.035346851701723865
0.7870702192415372
1.256905514373998
1.244810390868762
0.2079213487275065
-1.0110267769499146
-0.6027926030972741
-0.37022906584039644
0.7153830150126929
0.7683795668102718
0.25068929217213326
-0.5579753596765407
-0.6875844417580037
-0.8174589843096974
-0.04517493576436892
0.5056346019397461
0.44232989506627124
0.2404840957215097
0.18025637836697045
-0.30364702042720365
-0.052298922439461694
0.0060245475122491865
0.05950692124064028
0.02804598111296034
0.3879169285597402
0.003913413135486995
-0.23459025188552782
-0.3802420217745063
-0.4061329847436958
-0.20470413951614813
-0.010925015486875153
0.354501165928556
0.6341140312805029
0.49136612029645366
0.09165682565583126
-0.28662782373913337
-0.4155251949823939
-0.26889541750187745
-0.1784015129935912
-0.007194843489657688
0.05277390349238626
-0.13880614373145184
-0.30586670421554957
0.20270247577164016
0.5775413235012837
0.9328331923566466
0.9225475768102617
0.1941990262017999
-1.3295622811557979
-2.3692124453766077
-1.245062152429801
-0.10422400704146932
1.5770626201105555
2.045987545080178
1.5354769941221738
0.1905823818181877
-0.11261545308563224
-1.8650305360658208
-1.5806739962650993
-0.2641280099409595
0.26809097119502334
-0.004039507620699926
0.6454036288780234
0.807262427340513
0.6580540478063563
0.10768800624838733
-0.6146789865981195
-0.5414861935908184
-0.33079850041570036
-0.032490487478796286
-0.06917859909029293
0.5657647529391101
0.4992076565195375
-0.23253967060617953
-0.3899321950884223
-0.13161871480153212
-0.21574414132212022
-0.005746718927413608
0.5190454324019969
0.352766077941607
0.05924352690443949
-0.22040623347622684
-0.3502964870535184
-0.17957877860102997
-0.1285305908748539
0.013032845232767943
0.0746007684781546
0.2860340684073543
0.25895009244240635
0.1764967956182233
-0.0035565966968695074
-0.13279079852701337
-0.44908240801434857
-0.3558758981329848
-0.012691762572256645
0.2588253933424967
0.35585836680874255
0.17037467540759976
-0.030836170739415823
-0.21645241834192316
-0.19093308376805518
0.011795934385502008
0.3376297917068219
0.1229398125557538
-0.09332703519085878
-0.15671198094195082
-0.2865622398704524
-0.2724313559291979
0.11873740466232151
0.12499028440178368
0.16672164300173098
0.42792540780997795
0.6503153909810956
-0.6545925077763347
-0.17734419211065228
-0.17572295726460196
-0.4465611652350843
-0.5156698321682733
0.7492063153842577
0.30594882635815096
-0.10334532794103383
0.010044742447717603
0.05750946156181005
0.3675686371282681
-0.00038893918088041843
0.17495761480279334
-0.08004431512374284
-0.488228295076097
-0.8855543807319377
-0.00695731368653795
0.2992835256443673
0.4320066306667826
0.38554055970296164
0.3030258041153737
-0.15188972565729858
-0.20000035350013784
-0.3317865810723395
-0.08163533136618321
0.20027962109188824
0.3734159974657585
-0.07150485159358808
-0.19451569343210046
-0.19387703329391334
-0.4034063965391677
-0.30415578319989417
0.2487858530457656
0.7899902150472606
0.6094513714338855
0.13319384695548844
-0.8745660573397409
-0.6918728151913519
-0.41472764181434374
0.45982421339939544
1.6403956449667885
0.04550445656719388
-0.5845127452079045
-0.6665661529070608
-0.956239928443576
-0.9484274461092658
1.2933701203277108
1.286140694421413
0.6773769008590595
0.22214626321939485
-0.598694374616022
-0.725708459361016
-0.8570004691862213
-0.401438029460322
-0.06887176539501678
0.49897639338339284
0.6700083132282133
0.759198857110381
0.18614988149959455
-0.1321009823588555
0.047768496123416
-1.2525768534045674
-0.378375355766093
0.1960217344136148
0.2771263466482247
-0.2639355148181419
1.0774288530750706
0.2076984921777772
-0.38560653050204424
-0.44043876383968567
-0.3170886477725969
0.005752391184894048
0.12940970689482192
0.6285252211457367
-0.1546416343950482
0.292274729540048
-0.13408487098650687
-0.12927836057393383
-0.5553251086067931
0.17821909527605018
-0.28093885156822546
-0.03983521024130262
0.21392586723503237
0.38019919045977096
0.3182342419443041
0.03168626482986716
-0.12862087034337072
-0.24607668924476758
-0.21130045967324607
-0.09633683511314815
0.06233700508287882
0.0686472005198053
-0.03943656067542869
-0.0038490564956939395
0.03641537260621335
0.12909363501628446
0.0970651644645608
0.13425304724359924
0.010276605533964684
-0.1173613790085456
-0.2874557414696021
-0.12124993071220459
-0.015722285464743836
0.0536183177106536
0.12200919770867143
0.22156549406196638
0.17009716881923978
-0.03298612957417437
-0.20258669682153185
-0.158338805969176
-0.11462823957283032
-0.07502289443960393
0.1667833955273191
0.22097246582508434
0.09452378935862474
-0.012792218321010162
-0.10739442509467485
-0.19706742524574172
-0.08574707602534475
0.028706105116529573
0.15243364855330285
0.09060294451088365
0.04258225744622194
3.508412590415408e-05
-0.05109660613195225
-0.12582781404540738
-0.034942719355016756
0.01830837076445698
0.038471513126752725
0.035479192143221434
0.020979897952713253
0.00497024053435944
-0.006249031203206068
-0.01052566316279655
-0.009036651559298748
-0.0047887481074210805
-0.0010227854130365238
5.835723467323016e-05
-0.0019873543696762104
-0.00574528604994739
-0.00846389770376158
-0.007110687590026613
0.0002091133192709129
0.012782803889184345
0.026225730669028852
0.03233629139405332
0.02024416758805116
-0.02117436272151827
-0.10022037480661827
-0.019723134253603843
0.024093385700280884
0.0407707346455408
0.04325714921662083
0.0450353123657827
-0.14243269447185186
-0.11177482440647928
0.13843128813241495
0.0021098559952880936
0.26553457434412114
0.11015874799669395
-0.28098818998657776
-0.31513120690821883
0.016236345369218926
-0.06270351320693333
0.08086276936483815
0.6773831147980613
-0.2545858008763545
-0.11187425974627645
-0.10329378075635562
-0.04241082805513186
-0.3410869103009864
0.3930906303563349
0.15530437141894626
-0.05975844268237895
-0.06007322701628464
-0.05608446543778197
-0.05905288267313918
-0.0797560066405596
0.07135209424693666
0.18291225377114342
0.042016811686883544
0.03598435468493718
-0.04286921900894124
-0.19098884414668296
-0.18908923126003252
-0.0027965577222328537
0.009959951382266631
0.08625457562001296
0.24455881571303303
0.2759981188298127
0.1452813863211875
-0.19727483419951752
-0.3961294132725832
-0.2711256374634294
-0.2072290893136045
0.041084538647096186
0.3317937739742507
0.5111675094175812
0.19425586311896498
-0.041018599384381356
-0.24352455711747567
-0.2672944250986991
-0.3485412749662597
-0.09139049006685683
0.1319191086490472
0.16709642332814986
0.25657749129778423
0.22008533887145712
0.044741430638742495
-0.11176313892496792
-0.10671792329128106
-0.19264699963310378
-0.19988733889748853
-0.12787494335129285
0.051924568300910516
0.18299104053043513
0.30621601316388186
0.24539686663258223
0.0020427015172725187
