0
-9.918142823893992e-06
-9.918142823930517e-06
-9.91814282390906e-06
-9.918142823806542e-06
-9.918142823626433e-06
-9.918142823412458e-06
-9.918142823250413e-06
-9.918142823250296e-06
-9.918142823506154e-06
-9.91814282404047e-06
-9.918142824751553e-06
-9.918142825391564e-06
-9.918142825603844e-06
-9.918142825035509e-06
-9.918142823513552e-06
-9.918142821234508e-06
-9.918142818882098e-06
-9.918142817573045e-06
-9.918142818558075e-06
-9.918142822683304e-06
-9.918142829738409e-06
-9.918142837947097e-06
-9.91814284393355e-06
-9.91814284345768e-06
-9.91814283300307e-06
-9.918142811929976e-06
-9.918142784460312e-06
-9.918142760418865e-06
-9.91814275364355e-06
-9.918142777495165e-06
-9.918142837996013e-06
-9.918142926602508e-06
-9.918143015961125e-06
-9.91814306247084e-06
-9.918143018339974e-06
-9.918142852706436e-06
-9.918142576673568e-06
-9.918142262196278e-06
-9.918142041940444e-06
-9.918142079141265e-06
-9.918142504901309e-06
-9.918143334929982e-06
-9.918144394823867e-06
-9.91814529566858e-06
-9.918145501194139e-06
-9.918144506528965e-06
-9.918142105234522e-06
-9.918138664261834e-06
-9.918135275924306e-06
-9.918133640608326e-06
-9.918135581735845e-06
-9.918142218562038e-06
-9.918153005865445e-06
-9.918165036529353e-06
-9.918173103305389e-06
-9.91817092997397e-06
-9.918153643917197e-06
-9.918120992128858e-06
-9.918080147266372e-06
-9.918046482918088e-06
-9.918040757289525e-06
-9.918082008575065e-06
-9.918177174236391e-06
-9.918310648452936e-06
-9.918438888138708e-06
-9.918495656124424e-06
-9.918411491708399e-06
-9.918146071134965e-06
-9.917724991872505e-06
-9.917265420429977e-06
-9.916971500046894e-06
-9.917084229125185e-06
-9.917784084644751e-06
-9.91906695126564e-06
-9.920639006339712e-06
-9.92189336603658e-06
-9.92202745848919e-06
-9.920324962629356e-06
-9.91655888707563e-06
-9.911387457794925e-06
-9.906543539776699e-06
-9.90460440296202e-06
-9.908211714827809e-06
-9.918807056195743e-06
-9.93522491608997e-06
-9.952753840183727e-06
-9.963400147071784e-06
-9.95792225575918e-06
-9.929660787841443e-06
-9.879319222581408e-06
-9.818890840138891e-06
-9.772301161993012e-06
-9.770542854820479e-06
-9.840503962127284e-06
-9.989334529350258e-06
-1.0189466383565933e-05
-1.037204770818788e-05
-1.0436912183314302e-05
-1.0283766889651849e-05
-9.861545029062077e-06
-9.222144952222725e-06
-8.554617856764215e-06
-8.171607629239376e-06
-8.427011191563327e-06
-9.565516102769256e-06
-1.1538625512105046e-05
-1.3858384984138534e-05
-1.558278065289774e-05
-1.551643088503256e-05
-1.2652629920103604e-05
-6.778984387375721e-06
9.568717841934261e-07
7.82345055512196e-06
9.932219499323798e-06
3.4823579622217758e-06
-1.331521769926338e-05
-3.818848611808423e-05
-6.356682369547354e-05
-7.72364745271199e-05
-6.566469645689312e-05
-1.990336479310534e-05
5.7340174450573456e-05
0.00014627214157434605
0.00020984957305496545
0.00020202382486352063
8.520702773125821e-05
-0.00014629301440663962
-0.0004449543760793598
-0.0007025736184288182
-0.000768369163987915
-0.0004985759404183273
0.00016863114947425194
0.001135106624898073
0.0020982476245234483
0.002581444017101096
0.0020679541275596337
0.00023226110804114354
-0.002788523735677413
-0.006193710987072229
-0.008528441728674794
-0.008020872075977917
-0.0032711239097195526
0.005843519059224431
0.017368046138421224
0.0270295207377879
0.029001549729048597
0.017880611896073078
-0.008395785468687305
-0.04558135020023304
-0.08154198494832375
-0.09766327408443608
-0.07431683296239096
-0.00011696796159667838
0.1172580266683234
0.24285716847976105
0.31400580977872894
0.2516978340302653
-0.01576682809940263
-0.5223180095873398
-0.8381348062656523
-0.46197700838128386
-0.041605888392231595
0.5787687337725002
0.8984370734977868
0.9108744779898097
0.28742326627714737
-0.19568712259694815
-0.9947895758641305
-1.324757378461577
-1.503776397399391
0.4613573002502513
2.2493863692662392
3.583057128616774
-0.7918151106592294
-2.0853911656605444
-2.2155975443376974
-2.378786555674457
-1.4867671085037841
3.7158830746109417
4.0905188181195955
1.5722882325882965
-0.26195547877863706
-2.299413212694773
-2.705507161990951
-1.121825040817061
0.0769052163632105
0.6259472436356132
0.9180945529566896
0.8928187884492175
0.5145955396932315
0.07885985977162184
-0.2351612329967685
-0.3653321687630725
-0.3356380266162103
-0.21288427344659558
-0.06795813095907656
0.04851004430136225
0.11403736795223196
0.12953802955027383
0.10849387077263191
0.06641799220285283
0.0147972985113135
-0.03929050647104282
-0.08943463341269946
-0.12533715699610898
-0.1311467750329006
-0.0892969335344169
0.00987048842716618
0.15543400846288874
0.30566669777397387
0.3870055625672123
0.3075256426839194
-0.014512101393830397
-0.6138101732011214
-0.8470572524488826
-0.7854105624821264
-0.44365487920858204
0.35371224314354716
1.2870472719087516
1.6695605757193313
1.4256362618110547
0.543773986082632
-2.19960947552001
-2.682734522999211
-1.106697724033701
-0.14475001893739733
0.6031785912582599
1.8689855283369794
1.7382658550164665
-0.30610062504102636
-0.4764264830090464
-0.6955189202247548
0.4529191413478659
0.41523398366178854
-0.02229649905715133
-0.8230550309640404
-0.6068365938546191
-0.5915808831022288
-0.18297997335816504
0.5870363845753023
0.7866170063065956
0.49937231641958485
0.1543918325986189
-0.1119540318928673
-0.2587700588304106
-0.31628204376410785
-0.14880601991405415
-0.019116487716913343
0.03634075416099263
0.01773302429054975
-0.04155554525909736
-0.08886885474324381
-0.07284078218124686
0.03386993374071915
0.21507600233895643
0.4012846604963718
0.47607516701714475
0.30221579966865814
-0.23537249877357722
-0.981726223370471
-1.4787723354036713
-0.5677950338915795
0.3622078492405535
1.4902397715171116
1.4742259557883133
0.9978167892706112
-0.015784509830258732
-0.5173872026984317
-1.3970860006170955
-0.7465713541439593
-1.1679192100971383
-0.5652680965162639
-0.4312923344844784
0.5879682872332717
1.0917993952635705
3.5454195616472526
1.1820027379597053
-0.37433475385869736
-1.5646195827745049
-1.8753206500550395
-2.61703971620754
-0.3741742828576278
1.032697519592779
1.4751362417065643
1.1781594239405881
0.5728800875995245
-0.011357741363361503
-0.39317461511839663
-0.5284021674782529
-0.46435962362562516
-0.28564844733708333
-0.07221846126652605
0.12047546320101309
0.2605145035796954
0.3267710340842183
0.29609227816607736
0.1398415401854013
-0.1667063024775006
-0.4259119028483282
-0.3998431953620132
-0.20407658095538872
0.07920380096512628
0.16867352811492378
0.1395697168958831
0.18018164972858297
-0.03758322638407073
0.23728092203246107
0.6622604276070857
0.8630864270760065
0.3259193538655449
-0.6944437385798581
-2.6783268086106586
-1.3948249440560772
-0.539047628744103
0.5373781572064708
2.2296925002684254
3.0764501109310385
0.41795905219052026
-0.6342333025470964
-0.7094215750954164
-1.8072009928971517
-1.1045594458483488
0.0010833959010333823
0.37673493801199065
-0.040199387234039784
0.5022632227531605
0.4818710183237496
0.409579982729891
0.15594615658674751
-0.09101912848539646
-0.23520955501329882
-0.2568486781763999
-0.18447477480415456
-0.06651948076282645
0.04964323416453604
0.128730728735392
0.15064422317312373
0.1096398833961677
0.013024928765759594
-0.11962063781855035
-0.25864254920557056
-0.37173875013528607
-0.23982490622302913
0.11916800257990297
0.6252030182850743
0.922331452980606
0.7904196546220806
-0.009489153740956427
-1.4620801153865248
-1.6191526139729697
-0.5464249378650424
2.6800564995676006
-2.4764378071292943
0.6982746151888254
1.8687845626407686
1.1638189484051138
-2.8750455715480734
1.6992462792858576
-0.13015670505345725
-0.4904818167297235
-0.9587011384604024
0.09317067434619579
0.9382791706312622
0.5193837041462576
-0.537179527351219
-0.513019514995317
-0.3958469529056893
0.11013208759297301
0.3585949947644356
0.3246847031336752
0.1681152504068346
0.006378723268173328
-0.0961376033659631
-0.12364016006867444
-0.09414412015698696
-0.04106187624084361
0.003255051551886373
0.018746889753395318
0.0026164775215825136
-0.03154272370217171
-0.05942580381024455
-0.05524388756372307
-0.0028719682097392133
0.09350009203533659
0.20261451601037275
0.2671501126517953
0.21534316860512628
-0.01700531215113979
-0.4592399612743946
-0.8833041085917824
-0.3978464044771507
0.13326141238955924
0.8506002491329359
0.8517179063488988
0.7574921889384306
-0.09112861766163523
-0.8038540670387708
-1.294370076862451
-0.8421021003301783
-0.08563743632861105
0.5449665661063837
1.1715362034664554
1.2178487283320456
1.0001793029368065
0.1788633200668234
-0.9332862406339905
-1.6367620435397734
-1.7343333931513925
-0.8921536446105645
-0.10159836441928673
0.7637033586128433
1.5362034992274918
2.751297643249839
1.117212976774401
-0.4997899834666153
-1.3721881595516299
-1.5287616075624975
-1.7567340110613097
-0.2502453231387745
0.6585960147536368
1.285236475839201
0.9230313303244003
-0.0421403445942082
-0.6017899387407631
-0.16666088809479754
0.015862950789080073
0.05873680118085863
0.038574251797968584
0.0016099871749759938
-0.028889615235761827
-0.04464172716792513
-0.045081751220097256
-0.03218801720497175
-0.008221511482646321
0.023762754449170115
0.057794203056293444
0.08310021125342784
0.08434038774532646
0.04507933867714426
-0.045896900645609015
-0.18768565154269165
-0.1635410272529163
-0.14423936255331224
-0.1007275605952427
-0.024802605530755324
0.24760898625217329
0.41957627720370183
0.5331662266669849
0.5946138420383325
0.026116394352858
-1.0651300315935328
-1.0214547955876092
-0.5995704961010245
-0.5875717352826464
0.12030788603618935
1.2070521477970801
1.6083974764848632
1.0217400649787125
-0.11911030603779289
-0.7939477357553326
-0.8895144893975163
-1.0744390875839323
-0.6971450246767061
0.26490813813933983
0.7982833639790441
0.8038753433307894
0.23140819699061924
-0.17623225197343348
-0.11457501431425703
-0.12429924159749374
-0.18116586970323623
-0.07946386404947177
-0.017194366251590258
0.012496951106139334
0.02271105089592236
0.02865104914295559
0.04085334319688255
0.05888255734468465
0.06804667138850186
0.04070304815387543
-0.05759768584213567
-0.058353734684930776
0.020833513063380084
-0.014525259853701037
-0.13095927755116402
-0.06845820229523672
0.05093163255478255
0.1077495039888894
-0.035156122488734225
-0.35508690516806646
-0.09116369798466635
0.23838687949742432
0.22890554969937923
0.5999284318269245
0.8318826933935172
0.032270159360357396
-0.17529287379359418
-0.7589462043155467
-2.0141729649907902
-1.5602668665666224
-0.019222914551833663
0.8275652972017262
3.0424076226501415
1.9562024593545682
0.4775486974782866
-0.679370753419353
-1.2583728642833998
-2.8667584873916456
-0.5902676157261549
0.7267992860021348
0.9134444832946279
0.428916174712536
0.27920113255076057
0.12848870533414306
0.02900086877859124
-0.021502154411326753
-0.09543084168154731
-0.13074576555111123
-0.11449485573451763
-0.06254850629139509
-0.001486510504452551
0.044249726650744954
0.05946972932676548
0.0408258966614879
-0.003467545161688733
-0.055713496909243605
-0.09248257123550048
-0.09050167093315276
-0.03484821134182943
0.07166792049537939
0.2008627623111802
0.2975838681227112
0.28825094249285016
0.10092048658962094
-0.3068944237344095
-0.7225683832800074
-0.8689422357944754
-0.42376859583215803
0.1284402913702958
0.8236592857390815
1.351217197105683
1.4260661241864676
0.627920091160224
-0.08587255276796209
-1.2161244101353448
-2.3559824687193114
-2.4866280173277215
-0.9884297033441619
0.21192140178368438
2.3864395740154283
3.3167849195744785
2.6667712671706094
0.49742054904283756
-1.2431709635100525
-2.686491425373044
-2.5489357250718716
-1.2740579452944392
0.31324255683840946
1.214515755629095
1.1522258560932959
1.00723087913633
0.4599356574378057
-0.12162613230091386
-0.3299455046505424
-0.3091540645636491
-0.3097499631807646
-0.2308161457016756
-0.1691636728679984
0.013115384437369934
0.09942491722826192
0.11110957006123322
0.08884878610752557
0.07131777110155017
0.07817060738829527
0.10193726698719259
0.11065947859011889
0.06034909496682308
-0.08639868520485718
-0.34193697185671096
-0.48328842589793586
-0.25753414074530195
-0.006196534352143644
0.2955262118764788
0.5970696257310313
0.7459498299601695
0.49288284823865125
-0.06322731309786271
-1.1958383247509528
0.3440431275664076
-0.5885783477365292
-0.285354920235424
-0.39017374330197113
-0.16386752618710385
-1.6036898749400892
0.19824071765010504
2.086817692994714
2.709163418152551
1.2615177357276879
-0.04863336492257216
-1.228390314409715
-3.0605919092691436
-2.6767326612410867
-0.016113436739118324
1.3884322441429962
1.7087168806639408
1.255923297494942
0.5182337449881372
-0.14848592016295045
-0.5585404868436485
-0.6741306076467936
-0.5511323005653913
-0.28285416740931985
0.03781388195328692
0.33177839080950916
0.529513057287743
0.5632872070898433
0.3694562302299164
-0.09311342678384259
-0.8141169179714005
-1.5090018460801808
-0.823124245039122
0.0237231583688323
1.1580125347120607
1.966934752454182
2.0492587409509757
0.63982525952919
-1.0821798624432875
-2.830319355225931
-2.455532921945301
-1.6682631141660094
0.11756491669906764
2.224478332799901
4.4934177797906605
2.6949101012172894
-1.954830626208293
-2.1471471060187186
-2.1403440851056534
-2.6008939277958754
0.30324337493512304
3.7281973925812797
1.919879733184547
0.3705608011932326
-0.7905061550589163
-2.9658301975127017
-1.4487491043818352
-0.016036528266556292
1.0221660135977302
1.7278408607695397
2.2386916645610193
0.5183917525471179
-1.0188591658484794
-1.8182228669080926
-1.67020263842755
-1.2262443202052407
0.4177598573811657
2.065650917919347
1.5232104414909107
0.5066260273009812
-0.2020606193982276
-0.7385823996013189
-1.2947810792799987
-0.444409155618856
0.11173747492931001
0.3641849037826702
0.3781744153277912
0.25673978411112586
0.10139065836485399
-0.016318726418550443
-0.06677891044880824
-0.05907716481094099
-0.027667831147663906
-0.01529523234290108
-0.05793462474989946
-0.17628944914785039
-0.37696604529078515
-0.06444910515658386
0.13835640890721296
0.36793823514072965
0.7075037882027164
0.7957911731186412
0.06425344290785324
-1.2016406819861931
-0.9947706779339541
-0.3386617725633266
-0.08275781698301954
0.050948018970115506
0.7799455194064867
0.3553844543147205
0.06617102437135002
0.3764321639370373
0.5102672887543238
0.28682537217210763
-0.20170951553392377
-0.8866294171731803
-1.019138028633164
-0.4940402343683305
0.17976731283975142
0.6585664599503603
0.7068627474261178
0.3285692939206392
-0.09033786454060284
-0.2144402414296396
-0.16599429038209745
-0.11439612125560596
-0.05828983911987506
-0.008438476078656406
0.024362209807662565
0.03539708041233619
0.027281591625650643
0.008205216813458581
-0.011139169316904963
-0.020828211185752277
-0.014620285268688617
0.007811765914471061
0.03973556782485374
0.06793485445086506
0.07566829916561711
0.04819607236495828
-0.02004978782013549
-0.11911195431893835
-0.22182677448377403
-0.2910832236189334
-0.2988597530393195
-0.056093681162368805
0.35340822268465183
0.7481415824263922
1.0500852015460942
0.9264121027297209
-0.12483692857502517
-1.6603182720849499
-1.9829764182595595
-0.8840321317244328
-0.2701787367476029
0.7171986244315949
1.5183305354614502
1.5593954927436535
0.3025786479532569
0.18414349618653045
0.25455981750874707
-0.49444491399481466
-0.9520401598900822
-0.9055034518845136
-0.8968617785963175
-0.751186340739998
0.6119374848394313
1.0962913728582253
0.9085467136878881
0.439619280274025
-0.019132856688741838
-0.30982266948901743
-0.3964456300290646
-0.3250025932893574
-0.17588621363850518
-0.02475806902763241
0.07986288171646541
0.12192084165318506
0.11091184080853485
0.06950260975582874
0.02159752537335303
-0.015576150225612899
-0.034377651441669876
-0.03560373326938386
-0.025150412253056344
-0.010347462126280458
0.002766407070618195
0.010739144221714384
0.012731729727238659
0.009789425074082725
0.00391753682798061
-0.0026523872770430495
-0.007880074755164678
-0.010113670051646005
-0.008263259202781563
-0.0021016063249501182
0.007319069818104686
0.017347381653516254
0.023863636258311338
0.022195846394429047
0.008919041355627159
-0.015799385421087466
-0.04616039848615201
-0.07023139738295284
-0.07219713403286111
-0.03796513454434438
0.036500547122110934
0.13629936105139562
0.2216155758524065
0.22823595779584005
0.07647659933541777
-0.3131679078466572
-0.6037631497095596
-0.6339678945376428
-0.22549512063445534
0.5945805807573683
1.5685677903669037
1.6002942801511928
-0.41738482407990124
-1.938306326689695
-1.2844272839217281
-0.791016862265432
-0.2084248714326744
1.8309854535396
1.1007435063610118
-0.3401797625539465
-0.6417637135485774
-0.4128429738830047
0.876163528194757
1.9344149734742497
-0.06734726598479744
-1.3816726320842994
-1.3578647742587417
-1.739709256842958
-0.22247732635978426
1.5162475280852667
1.7281502887631552
0.8880547771355315
-0.18731089545605958
-0.9719176441948936
-0.618059307643468
-0.321892443437052
-0.0925844839781665
0.05950069096432726
0.11432837572038322
0.42300421685652745
0.6923103372736046
0.5863592233683047
-0.047859006862939875
-1.1354763162632269
-1.5257368543144232
-0.16310947848586063
0.7071196979952085
1.3011603448320925
0.24733732540857647
1.1515396605217318
-0.20558179773526
-1.042150406387798
-2.341095786331101
-0.23997546468302597
-0.4686548031614228
0.9646320160728148
1.8675730548278444
2.986891420479242
0.607447786296203
-0.9512036496596655
-2.761736481404714
-2.7000437659571834
-1.715230984576492
1.3882749432497083
2.051819350709026
1.7920012563905707
0.8292231399047357
0.17675094082554946
-0.9821855789116986
-0.8396704945895317
-0.46607733701625903
-0.3115579540677586
-0.3366551862132547
0.2144564138563017
0.4007045281414463
0.3444114001583128
0.1831497334004107
0.02912420544234521
-0.05445262602564534
-0.057990764690369005
-0.014667993185431568
0.019843836344926098
-0.009317500539747994
-0.13564406765528714
-0.15849633757586779
-0.2422911883658005
-0.12997972367340122
0.030112260522461867
0.24942111461566913
0.2658057971203218
0.32339963811819067
0.37595249109858625
-0.28101644137149934
-0.1511864793645136
0.3394718293414386
0.5238579559317622
-0.6366272293977604
-0.7116191896618078
-1.210045043051072
-1.454516519034894
-1.127639943273571
1.3268859645855464
3.8948758918189084
3.0435475518652244
1.3032296512966806
-0.5888245314144513
-3.6124841342556584
-4.746327899170756
-2.3220160188300185
0.4586312386521603
3.0216573375578415
3.58979206166164
1.926459798240663
0.15625694413140181
-1.284711388065508
-2.3785527168907366
-1.1917930615629377
-0.1463876196957211
0.45636476127151904
0.6458867557546116
0.5429562874601903
0.30059355542161154
0.051917609843307545
-0.11997310120916348
-0.187679669720115
-0.1671344505475369
-0.09704332553677038
-0.018994118725778407
0.0363473577751959
0.05531732847223471
0.04069134745548542
0.006696228107597383
-0.02837279896714673
-0.050721898018651124
-0.06033207217141375
-0.08057691954723277
0.03281212163598209
0.1856416923359082
0.24541782967974365
0.25135167450203366
-0.16404723610655955
-0.7438693438518811
0.2278062515426951
0.5569056135526799
0.16205337194777555
-0.5128682313866931
0.5013648393546715
-0.7188737323604296
-1.4349303598132146
-1.1239807979304728
0.6121545350493353
1.727408102985005
3.240789176197633
1.4225049591083305
-0.31177562776504236
-2.2079337051072327
-2.7384150597045847
-3.6103483463177404
-0.4935837394144
1.6994034081969451
4.012884601120806
2.2091841564325154
0.7876693788823953
-0.8748896782237872
-1.4570355532467019
-2.345654278159735
-1.2807214610099986
0.14663097250482796
1.3149075121064122
1.1235532813138123
0.7129167847840897
0.19457987279307234
-0.38216574205885195
-0.8249336503432204
-0.3689225175817326
-0.0446180939248508
0.14178320118537066
0.2103911646645607
0.19681871238718604
0.13754663089738461
0.059379420483964586
-0.023180116474551173
-0.10351578367262794
-0.17596109084141698
-0.2325189847769429
-0.26873201634698324
-0.10119085151823419
0.005737526089501278
0.3121789366254901
0.7871832647265328
0.7202307092325008
0.1709205197655209
0.257659632013039
0.27137081591780027
-1.6147327305358352
-2.678604235947036
-1.0655826231175927
-0.31081814299230964
0.6422187531252415
3.178033291567861
3.3806595933061856
1.322881281994646
0.3234538229157931
-2.435105709507743
-4.1962807337731105
-2.131008931207733
-0.148308095087026
0.9346496181137662
2.277437113789254
2.0216402272069516
0.8984341291297885
-0.2985334961638591
-1.3518297369098506
-1.187354177587604
-0.20947079306665115
-0.043055798199316896
0.2960458890778032
0.601524055747701
0.26104278078845794
0.040518092275643465
-0.12118077514546634
-0.3051046104347352
-0.3975935484076009
0.12467004428264426
0.4052978569614968
0.4147924945346476
0.15659595820155325
-0.3254385404295134
-0.7418851096669795
-0.564205102203942
-0.25243480623592013
0.0935346320239734
0.469079958023277
1.1081847151893942
1.0622964323771094
0.43745897657613225
-0.10254830079515888
0.21892577303364905
-0.7369245803494685
-2.4861518640012585
-2.270515287357368
-1.1335544974994163
-0.5341602704472496
1.7385585471973903
5.6320258152960205
3.5881109923819037
1.2893283056246356
-1.567194796929332
-4.3136520619915935
-5.293398379452484
-1.1268151491382763
-0.7713203122654989
2.7951826372499857
4.1251158091137805
1.998316532989229
-0.6208391214020693
0.3031834822685165
-1.5000567739838033
-1.6910403364676954
-0.7751030830375166
0.015542054012793108
0.3811178293104655
0.5528142502648291
0.4498815037993465
0.22216959479890022
0.0005090693573352817
-0.13309160536347744
-0.1538552335272559
-0.08641727740835513
0.011888525974346234
0.07052353632918808
0.02437147531837488
0.029754850278525563
0.07664616644158616
-0.004695322321284326
-0.3454957834329885
-0.6522498201321137
-0.23523456491268413
0.14978311253375423
0.6560470370021187
1.114257010293561
1.235890913356397
0.06560595076593301
-1.1202926587921738
-1.2943385282817486
-0.9784215781452316
-1.4056834471860453
0.03245963305230377
1.2593776098092742
1.5409949379264976
0.9212750984774171
1.1175794445762612
0.30783027333176
-1.1898020646257301
-1.7743802985527852
0.39442646038039636
-2.6826006484262135
-0.19154992377854438
2.673974204603971
2.8428514894987598
-2.3115402010339716
1.178596412030066
-0.9363515186392584
-2.113511015317369
-1.4135451994032302
2.2780600435211027
1.8070546942991226
0.9091760399647151
-0.19670456397657218
-1.1665707363262483
-1.4546456386858426
-0.6362147037685728
0.2368603347033101
0.6329723071142759
0.6981872295036686
0.39769250861060385
0.0660906436442694
-0.21827325282589488
-0.2329981877930277
-0.19349487198722418
-0.12909212484067986
-0.06372777104114337
-0.00687805627225011
0.044688651107142936
0.09764626160566219
0.15080607710420732
0.18759460601921296
0.17675677523908673
0.08278267434855487
-0.11656331068625071
-0.41264646655772347
-0.5584947980664208
-0.6815355459852732
-0.32146168358952965
0.5122686588408215
1.2820158776272965
1.4916890280722137
1.3139205853717564
0.08931843687450046
-1.3152921372879762
-1.9338952425734324
-3.1782995836546504
-1.4270929621932877
0.24201351393158124
1.9957511420514054
3.5361457824454674
3.0400578512355945
0.8404658032295096
-0.3040981988173777
-2.372688646753509
-3.958371040202644
-1.366936574312864
-0.6327413320946584
0.7026923175328711
1.865225741990948
2.039443335584792
0.9580721511956237
0.5569563910804053
-0.8719610539674437
-1.0371605365288794
-0.9504009257747931
-0.6225859302004562
0.009935737484668286
0.5118588816764948
0.5329828186063922
0.36863363741703
0.11813001765357693
-0.1433961882967162
-0.17481805551823595
-0.16421921907350712
-0.1174082508164037
-0.04720374982789804
0.03231552327088239
0.10631617731902455
0.15718182978977477
0.16387979416091072
0.1058297751362469
-0.02823195637872378
-0.22950865248957628
-0.46290248194319694
-0.4728638219317328
-0.20644522478429847
0.14801825585135217
0.7175462812141346
1.1156265211990548
1.0491240869241454
0.37462786892157945
-0.799832613271046
-2.5941946279251553
-1.0600044540205067
-0.15091355941992998
0.4186855144418215
1.0385895900653639
1.6308897991668128
-0.3087906270587018
-0.21575824039471259
0.914542374330212
0.1729137375080451
-0.15577928428123286
-0.24703834285615486
-0.9844997474800313
-1.8359988854257965
-0.38864897199753573
0.8416124603876051
1.1342383303744594
0.8526266143195033
0.3367450356257103
-0.1688335753639715
-0.3394567355088412
-0.35444204515575334
-0.25846834859565243
-0.11933167634701004
0.0043599383284175595
0.07976752182191882
0.10163558200976239
0.08430470484649195
0.049974077835486914
0.018205176863676113
-0.0004239712430728299
-0.005721785734211702
-0.005124755015208161
-0.008440482256627397
-0.022079696189790908
-0.044743330192538455
-0.06628132986829065
-0.07092914456946116
-0.04523597754609309
0.010330129578299105
0.06872040333169471
0.26664017998672396
0.3024847956099527
0.04531177312462403
-0.24507075449322643
-0.49155587370624937
-0.5750185354293611
0.08076684586591291
0.912479602957838
0.8149834165923561
0.34414173895764905
-0.26882041520515676
-0.8974124854653017
-1.7138739858627992
-1.4214852495767492
-0.13978287995064156
2.0670328220551175
3.457740125280278
1.134864019306016
-0.13388080517824621
-1.1838877543326227
-2.450396301809015
-3.365264132069273
0.3738947176391331
1.2216876789541777
2.298581808950694
1.4498513123149948
-0.2885399488034848
-1.1750330879029731
-0.3904629189637387
-0.627098458756965
0.33638792622958996
0.8583480696333005
0.0534868289958638
-0.18739600371414294
-0.37466458815521403
-0.5978834093545597
0.08784732423042417
0.46229215002518087
0.32908539443666435
0.10094794907101022
-0.21083402429386397
-0.1991806019374152
-0.05825846183127143
0.02061762275810567
0.05070714825319668
0.048415044628813554
0.030048970788547125
0.008663459092531385
-0.007715250809335482
-0.01618248587794635
-0.017868492623893544
-0.016550112080554073
-0.017798061390250187
-0.029165861844140984
-0.061430665256739236
0.06971220279408948
0.14277749338682535
0.13219859391280897
0.014076542278619668
-0.024092400728527315
-0.1721777592302199
-0.18927200106544073
-0.2038721518204602
-0.12603890631557965
-0.07155989790515502
0.20665501634615394
0.6892635765015485
0.07501425360267892
0.5892854407369567
0.22051957605557967
-0.6213145423106166
-1.4402476387209824
-0.006021689370778035
-0.14181860547699057
0.243972337162671
0.28966720993952527
0.4953277528258509
-0.15592641051122139
0.1496031867415782
0.8431653433794529
1.4057452096976872
-0.9573453692737387
-1.0142187279847652
-1.0049243784418973
-1.3763045615246663
-1.3811992739004357
1.8526456389140267
2.4084738910569166
2.0695010444029136
0.4620944002448551
-1.1206020216086738
-3.43034915286017
-1.9618683161865336
-0.49506121471538306
2.0884423141050594
2.9308373758813033
3.1192106727293245
-0.5412813674610181
-3.080187373138434
-3.470793929359323
-1.9615908769683277
0.30986683283259325
2.4076254389406033
3.639202112107006
5.432578170948045
-4.075911915032865
-2.3193343192911526
-0.8883826540511487
-0.5185346251654629
-5.361628203143911
3.4112519975007927
1.6795309917353978
0.7652962706780017
1.4232227681167287
2.298209458847538
-1.3107890145471928
-1.783434190497221
-1.6455952964802032
-1.4277824314954244
1.2385427994847162
2.469742997236878
0.938698785775483
-0.9286880341466491
-1.5537996633066433
-2.2117838481033587
0.7323636948133563
0.7442747401651892
1.209448122479133
0.7265163613706415
0.644844352995923
0.872860869553926
-0.6404125772424883
-0.7727339165707893
-1.2856283333892502
-1.9189452323585108
-1.9625584398334712
1.4800081429739622
2.957419428481721
3.721171752846884
-0.9720473596632365
-1.4629070376979303
-1.2015357232045814
-1.2165214332556122
-1.0014110073123643
0.7376004666695358
0.6601702123018112
0.1121382851223897
0.21868638059039983
-1.0175909022054703
2.0115717399296478
1.4966746393637747
0.24642116653916815
-1.618867439179561
-1.3392085220229346
-0.3935078777425018
-1.627979513104853
0.13985791180256188
1.4442953021209666
1.4515063457257604
0.6420392026405631
1.1383199834516502
-1.100876342486216
-1.2257007716088582
-0.2104506865165768
-1.7774508208353905
0.24048420942885276
1.4898458499443368
1.052217829855901
-0.005979621793466968
-0.06346983251638956
-0.5427594968928059
0.5158056870536766
-1.5126502803829076
-0.8150715492061722
1.0592368631517999
0.7752482668401249
-0.22176818358590297
1.0679806369762808
-0.2042996212373607
-0.5137332233164029
-0.5237338620639724
-0.6493504246106158
-0.038906438567454814
0.4173457687994217
0.25484591381093324
0.19160019912470636
0.2904846192103783
0.5398414950541752
-0.341877673096093
-0.27996551898612765
-0.20576881721435372
-0.6214688805012962
-0.5800084023426809
0.713862313734152
1.0852964576908875
0.16623027079357147
-0.2186338760665871
-0.4504328140216199
-0.5046570378191343
-0.7420388076439534
0.487619389757215
0.8273056875839685
0.4895436243514246
0.04218028720532866
-0.1869477863589801
-0.6873656439846536
-0.3360493486460285
0.02600416659577085
0.20163087362570054
0.22924091625973467
0.16503180767295905
0.06456866192374337
-0.029662023817984932
-0.09251768988862603
-0.11403223798800355
-0.09462145309912467
-0.04134605815639573
0.03283573708249715
0.10730381624804497
0.1519844094801571
0.1287565956008658
-0.0016645163662438094
-0.06749441550639408
0.12860929739775748
-0.3792168952056291
-0.5186233612818179
-0.19306052997467327
0.08699332356599601
0.16060338594048934
0.3733643323983572
0.7522743350448616
1.015431710647718
0.6264199209962522
-0.5104882588172468
-1.7364567026210935
-1.743863712630169
-1.1441060330149317
-0.3247256286659984
1.0085218007900563
2.645065948091657
3.103084232189484
0.9471424789196418
-2.176618741384665
-2.604213351625688
-1.8775401238012166
-1.40294500046286
1.0052609353093918
3.093842145060597
2.2933427430265305
0.2518581877082939
-1.9818178939598454
-2.5287378978226425
-1.2426272222298496
0.2904651254505903
1.096944659936449
2.1246468237978147
1.5623912961668198
1.0166489560478345
-1.8336202955279843
-1.5208625373826097
-1.4597796501584819
-1.461903985098956
-0.7322767842036643
2.2497066351544244
3.2017523631679823
1.9225928226377593
-0.5567245310090948
-2.3351520986988326
-2.34666497113674
-2.468369818960717
0.112952864318323
3.4589241791649625
3.394508706207723
1.2419525544486423
-1.3743445413117212
-3.045931124069253
-2.866992842465382
-0.9583684496221107
1.5223438912372316
2.685182396821372
2.1749890796670592
0.2675774835935207
-0.9586635845582877
-1.9715374285513592
-0.8880220704470173
0.020903005125218733
0.5887187865556566
0.5660865768229073
0.2002496382825131
-0.19892566046744728
-0.09083494902903987
0.07290351103573883
