0
2.5184176781995477e-05
-4.014326331091711e-05
-0.0001235603682784485
-0.0001944574148508833
-0.0002106280731594211
-0.00013233863421339027
5.665488571368424e-05
0.0003274664534279455
0.000594119319511122
0.0007227774108811976
0.0005699197421808765
4.7444417143027086e-05
-0.0008017500139387009
-0.0017488678854353816
-0.00238405366618213
-0.002213227141739252
-0.0008525463361746343
0.0017187557395600041
0.004938025747758356
0.007599009792914379
0.008074767429619807
0.004878467554276075
-0.0025180636697451995
-0.012862498042740698
-0.022702749290153937
-0.02681818551671119
-0.019799922355395034
0.0012953539337337162
0.033833333337396534
0.06717614112520225
0.08233397350085642
0.05477204401846697
-0.03955751403700221
-0.21638723283900846
-0.0762565203566011
-0.0015443008716418353
0.04100072407023852
0.09300471377249249
0.19525355113322088
-0.02018791855296781
-0.13437809396257971
-0.14240086612403302
-0.05246709547932024
0.11500667666801846
0.12813947314067498
0.14580150084802485
0.12346265000291269
0.02330452263536104
-0.37376742036098465
-0.4595758608564659
-0.19997387973589953
0.050297300237390395
0.3217903524620306
0.6033650029634446
0.6278744221088359
0.28229153742008556
-0.1545500566743979
-0.755932563865248
-1.2935956866342844
-0.6112727356910164
-0.04332262537004025
0.7206872019594852
1.144823021860854
1.1620032486385512
0.32825195365668175
-0.3661000458349191
-1.0331369523358653
-0.9971888446171303
-0.31141864481497866
0.0917724549871932
0.4064292316740325
0.522764052077237
0.3798064424739375
0.12074214478517163
-0.1363276636249646
-0.30962352354744577
-0.3527575451979167
-0.250990927574921
-0.02194660796325533
0.2780481907323078
0.5478211737240769
0.6456425072582005
0.41312303866015304
-0.27953007048220657
-1.076998798491236
-1.0922143893057634
-0.6941263269257364
-0.14568303922049056
0.9113800348987746
1.9500082642833672
0.8680190679462426
-0.04949550468193244
-0.4998183482965528
-0.8757979212107102
-1.1550246237436987
-0.20301963644587911
0.28143421633474575
0.3692656704478506
0.06071351432937215
0.019916132428610386
0.10396016783431543
0.30201786906111777
0.2956352204307612
0.24700032988246473
0.016988976739266762
-0.19164956261087146
-0.3772040623293551
-0.4836253039599929
-0.36251393927855297
0.036896062964788215
0.24795656217075712
0.2447904366868962
0.39281215622788007
0.4072176127037997
-0.06901267392952605
-0.2636621288499173
-0.2547155530372612
-0.14073082650139923
-0.21317691213798148
0.06163108918760714
0.2488331084709798
0.34230438492675214
-0.04198217747184531
-0.07255707759064219
-0.3088685155975382
-0.5111375016470403
-0.45805388333077685
0.2271175684805769
0.8492352156406129
1.2282418798295094
0.918670519839408
0.07217882548193197
-1.0649070319577982
-1.849272613754992
-2.1780977783287723
-0.9069651171131975
0.6366816684446258
2.6689202211751786
2.7543868742628366
1.4756704205233688
-0.17750865278136788
-1.2899500709372718
-2.615675401837029
-2.161104923160247
-0.4328961101492476
0.803663641917935
1.255930030960977
1.365327418383123
0.757203964128123
0.1294384403699586
-0.3946241918568436
-0.6512822753645253
-0.7819851587915896
-0.1682737218786165
0.22058661188610035
0.25683112180612655
0.2624261123062055
0.20528162823428836
-0.10779750985830557
-0.43736909942166197
-0.11794147489242843
-0.06831946141495548
0.1926748059313389
0.3278616824120494
0.36714010372978595
-0.09672048313081245
-0.09914407378678394
-0.2847455671138424
-0.28606412399078646
-0.10889324112352787
0.06991524230411914
0.09168052025625949
0.19692542145850217
0.2059934371005129
0.10693050207848316
0.05552708399596391
-0.011892142581818059
-0.15678551227180393
-0.2149829563050742
-0.17999667394199892
-0.2003463458157694
-0.19472532342748286
-0.08374825275564358
0.16872373963880777
0.5169975826119094
0.8133469230815717
0.8209423539000132
0.2674001808143782
-0.6674194353002898
-1.4526800795727688
-1.5328745247294926
-0.9152072469656763
-0.03752606279737698
1.2928767928367633
2.1296105960105227
1.8444189336277743
0.26432340568578055
-0.6857997577989839
-1.2488837844781342
-1.4564805012659803
-1.1647288881925362
-0.15513428238355964
0.6770578686665185
0.6552444420000516
0.6062047225591851
0.3370100883860144
0.33771710556799245
0.12918702896475717
-0.5400915142074014
-0.05663519831277182
0.12038367116159358
-0.07057860228059017
-0.42995437145304055
-0.051854884233233936
-0.5054487223386297
-0.24704531726652298
0.13928102894594105
0.6824183218411838
0.7629548021929833
0.2687338593167978
-0.21923826309931166
-0.40850483046229946
-0.45466626759356227
-0.3155469961719126
0.0845286934219862
0.2723442153288516
0.22607275283468806
-0.03521852186692358
-0.06545744799049864
-0.004205196152618313
0.01329080390553323
0.04815629628844254
-0.04872311854827576
-0.04262347903489776
-0.1208074465826538
-0.09865572897730186
-0.02563518324779268
0.21107838260694783
0.2895014223254792
0.46743395011460526
0.41229373072848957
-0.15547271108748945
-1.015257122580395
-1.013257085506683
-0.6637147486458392
-0.1967821985917005
0.9520411590632243
1.8360279974083633
1.112577594681649
0.014248227292151349
-0.610138636834193
-1.1980811631150563
-1.1555491279849088
-0.36015387690382544
0.2852849958910521
0.441629895199999
0.478993576169402
0.4051020489798601
0.40268802280248556
0.1937104259740095
-0.1639236756839222
-0.6533192053220901
-0.4639503819588906
0.037313145139709555
-0.4833636033655353
0.4614483760070605
0.5526149548080567
0.23319337184125544
-0.11271660128126741
0.4376548209483991
-0.4370935921465573
-0.2723598305742781
-0.18505865870772326
-0.24978172411249222
-0.09089773918895923
0.3082853234230685
0.38447706476689536
0.1706050897546857
-0.12175604853521439
-0.10883788234038912
-0.23065057477003265
-0.1407493568226265
0.3058315861235517
0.464616308492109
0.11424236047187976
-0.3304281753935081
-0.8085595729940304
-0.8150490132022059
-0.020979677186362303
0.8884350766034512
1.7727442821534007
1.415125023048318
-1.0602847285825172
-1.9339525914096718
-1.4254538773005814
-0.8549259270816296
0.9419822481398936
1.5482822244733911
1.4804163188900696
0.5265819035976266
-0.060101828053603146
-0.9096397700333816
-1.84868898305818
-0.8194103085389565
-0.03985292983387713
0.5784300928768389
0.3669613153617018
2.423283261144447
0.7580233468931101
-0.507789095864036
-1.693833831704051
-1.4858535825043482
-0.6753765312607241
0.45390999457620984
1.0861228814214063
0.9998035320332846
0.4960357700312215
0.15902185277828057
-0.3372857046788862
-0.7834429162454402
-0.5711073512498922
-0.23718750794802934
-0.03412130051661587
0.2679308559420975
0.5539963037169326
0.3271118814025351
0.07649353974638044
-0.1391628055031573
-0.29208883047987233
-0.37567752387947395
0.006566035532552849
0.24672379203809844
0.13135780630289762
0.03676858460043174
-0.07470950851764062
-0.05424145379798166
0.03886224625812623
0.1467020431359452
0.22562339883910776
0.06109322800946682
-0.5181717387829644
-0.4321162482974601
-0.15381764725311556
0.06957197636678789
0.38207140147744445
0.6802335811654966
0.18410200029100549
-0.17147472456898954
-0.32234436615769885
-0.24348527294363276
-0.1116318290140796
0.12729064472160193
0.1798687149222629
0.014830460744828454
-0.5381347589420209
-0.19898814101230294
0.3441377143692894
0.6123673820818367
0.5166716086270693
-0.2509508095242635
-0.6137708269538988
-0.7006974857977114
-0.4423609359935204
0.4186809575826077
1.505648017994668
0.18593856149606364
-0.23425515814523637
-0.09195936886839799
-1.3328173443201905
-0.4763198707822483
0.803481139549344
0.6764049678556154
-0.059124090115279485
0.408123386200595
-0.5047464569586428
-0.37234142366341466
-0.1558112403773991
-0.002755920943512886
0.14404303419218736
0.33153958570303843
0.1819278270985549
0.08618112427675886
0.00978772729434048
-0.09039334069724764
-0.2441130336742864
-0.2492976970659837
-0.26585327861399655
-0.22730849950364404
-0.07039424492231301
0.22418575855160222
0.593051356158128
0.8707272351120963
0.8055352648532684
0.31845582657975297
-0.6026975468294216
-1.7997136459990146
-1.8703895747196249
-0.9638553267401248
0.13548630584314414
1.8495336159823443
2.8222121078396314
1.5758274042919438
-0.13581645505635265
-1.0578331377072596
-1.8743989184481906
-1.6179167552884892
-0.3124173613243965
0.5041275758021316
0.5678891467288893
0.40750300600096684
0.22811438319247662
0.19642380134374765
0.35262588414332413
0.16375658798183118
0.12293727856820443
-0.009478944977392613
-0.13409574583994538
-0.32671993096114327
-0.15817037036480275
-0.6385655424509202
-0.8008508357979622
-0.130528818416383
0.5628407877586881
1.4500144152619872
-0.21021262535931334
0.6678341759949661
0.38382085845211683
-0.512429771680702
-1.550205875949884
0.5435605358809344
-0.08767226400530877
-0.3911015001919106
0.0016319214572406721
0.35355051939936244
0.38513087819566333
0.23363760433429492
0.020490414512183905
-0.16704305588207857
-0.2804464915995197
-0.30660231006596045
-0.063287942209747
0.20280412927635577
0.4171967910300359
0.48399224322637213
0.3039939996415755
-0.1937096517657206
-0.8136070420722369
-0.8642161081725558
-0.5548256114449464
-0.029553823458420538
0.7649545491289357
1.3983874681957609
0.6922654345839097
0.09923639788163889
-0.2624384236975824
-0.7293414497272779
-0.99567121467961
-0.4315968873771984
-0.043790871222973385
-0.08929223600261173
0.06384188145589935
0.44960057106824
1.0187324415726196
1.1835362301462198
0.21405406890284526
-0.10835611634290655
-0.9949534299212917
-1.7448378793334844
-1.4732124916390268
0.09428023792758759
0.7525450353500951
1.8957896402523884
1.3896561856771148
0.28558887721991605
-0.3921761958029399
-0.7871539211217989
-1.3063191395053453
-0.5112916584738791
0.15981309895324453
0.4222960693510344
0.3292607682541328
0.22687515308111444
0.10013152501195204
-0.07605236954690676
-0.17306374271975883
-0.1309007209732298
0.03192546751871879
0.2197675542729949
0.27334056411430485
0.19737982374729468
0.20309418996446793
0.1617436710686576
-0.5403676955620386
-0.7609344987189215
-0.9928572740467095
-0.6020810706099281
-0.11453512941572737
1.4638766081943309
2.1287727412340263
1.2035639932965434
-0.05553635915081637
-0.969369714508059
-1.8887218328042823
-1.8427238110252804
-0.23680426236469027
0.7677878988229379
1.1955018354588194
1.1517420301238877
0.11632160026182241
-0.12947549734660363
-0.3279052995985625
-0.32806005819400536
-0.4451552272063134
0.18535608722136027
0.04569957313361801
0.06031005139429836
0.007457345909786016
0.12086721207330463
-0.11608603203586502
-0.1823767206031087
-0.13728745226534772
-0.04390096052504516
0.20414749216984185
0.2577599330968834
0.2964580496626485
0.22804028537831122
-0.09344009774030779
-0.4346882052106256
-0.34429121759738535
-0.11969217463541763
0.010499208718312532
0.28544739246780015
0.1954397746530136
0.05654486602357327
-0.21683092058641606
-0.33794020136905617
-0.27152722096004483
0.14531785640994144
0.5897020004439
0.8560004911203504
0.6859747873089644
0.030699564614226047
-0.6640590576980014
-1.573135044481261
-1.642262793116596
-0.8045224516936369
0.5255747659077487
1.899735160846242
2.6736058740649438
0.8944300403748261
-0.31648935424549784
-1.0784517426509157
-1.7961978526361626
-1.7934220762483943
0.007353314611537475
0.7250653447281852
0.8817040098916937
0.7148644966804347
0.48179984989822916
0.1881945891092645
-0.24265715643281546
-0.5629370550682976
-0.5711052789739641
-0.2800667718330649
0.10212598753454376
0.5739961021391867
0.3302147181442781
-0.04999846854821226
-0.006122835492459464
0.012082448325751867
-0.03852892163314496
-0.5761330798457657
0.01816686342708511
0.00043597475439546314
0.050460680214568884
-0.15168528722117386
0.6483569292428359
0.25949068406452075
0.03912407567196542
-0.2961246689041221
-0.24630970706595928
-0.09923548695542393
0.09341014892687004
-0.07224257545163919
-0.1556356656122354
-0.2898642907629642
-0.2116647293574973
0.3023431488220903
0.40287376407775505
0.7520700538598214
0.7380049401317624
0.5269187482887936
-0.452307940129058
-1.6134110705666171
-1.943266916763018
-0.9951767975643828
-0.16651067991188379
1.3491869513575965
3.3803469496173526
1.8315459230741684
0.03328396289969214
-0.9878209368726191
-1.9422172649064362
-2.4761826024828877
-0.6083087303523127
0.9452183589858316
0.9451610211475353
0.7303453201200241
0.49169811919251544
0.3625838531414293
-0.24827793226073494
-0.07476046910308522
-0.17066027024650748
-0.2629085112541687
-0.2986663757713731
-0.20134721726880817
-0.04508862959990513
0.14954189192122821
0.2023326083795395
0.15092503592805154
0.028460308168847412
0.048887669764791
0.20381985040901146
0.07107037581771884
-0.16823508471130755
-0.30990835354057383
-0.31219341899594494
-0.29404810017459543
0.04998062560637175
0.4209829743627282
0.4824630274593134
0.435733852584465
0.014983297680877543
-0.29442444836387194
-0.42055174486752056
-0.2657869975906659
-0.27888738792398476
-0.048469555521571464
0.07976444456101482
0.16797904612620954
0.24513806730663246
0.2740454871226972
0.33921529375447224
0.4637015242473334
0.25594583756346956
-0.22124546154950242
-0.9771434613244481
-1.2400017886990966
-0.8501271855426841
-0.31466387845220606
0.680814086973762
2.1329132141948337
1.9993026979025328
0.1417397381616679
-0.8421392850109469
-1.108255841449717
-1.617675986568339
-1.0030200622198147
0.5090799466444994
1.1051004537310278
0.5353074396473212
0.2386851682967483
0.07238651663762556
-0.13654712615562764
-0.21411394520630778
-0.24365552686445183
-0.16162063549745453
-0.15317216356137292
0.14862675466529265
0.2617699907434386
0.458334945228203
0.3785908193907735
0.06000620781462987
-0.6221006184698167
-0.9137872819974069
-0.3579280322859553
0.0006244677073998175
0.37739205784321656
0.5890458711986586
0.7930357152872638
0.2472874279636424
-0.2969390996494139
-0.5692301872709644
-0.3337787563963586
-0.1409630054103943
-0.09223795406742612
0.17434196957439094
0.27929555118186467
0.2844232955835031
-0.12901217089838374
-0.28144850022813445
-0.31469372105507604
-0.21196686018830296
-0.018896424895877353
0.5388705927005256
0.8515213180690575
0.6468980812511025
0.4464151954778631
-0.3488448934191592
-1.362147311564761
-1.9691955348504802
-0.8869057132956513
-0.24547112011901506
1.062542670864466
2.195315153327681
2.598291767832659
0.5241752098805089
-0.730606440739382
-1.6834133641059081
-1.867755897730378
-1.4496917169409222
0.08354778827551772
0.9373871376354067
1.1392486897334642
0.8235026970827963
0.3183984406306078
-0.13136510395390666
-0.39447281614852375
-0.4428356417816449
-0.3196822337973247
-0.10471124841865888
0.11144395490125518
0.24026714891855097
0.20015729595242798
0.3204359020655953
0.1506823204153221
-0.3232285603158474
-0.46104238030267786
-0.35718496021535145
-0.24640584448883787
0.0696590051279097
0.5792610257497675
0.41299791708108224
0.4078791743485773
0.09588558328643555
-0.2786948529888765
-0.5192756222886625
-0.22807270130093116
-0.16374563002267406
-0.01660066207705066
0.1954344727005892
0.3142373245017463
0.2206698821340538
0.013814881749747586
-0.20509105199631217
-0.3445675637173647
-0.334930699019617
-0.1447140204790636
0.19854263183931609
0.589829441292963
0.8428276494276205
0.7136249498451013
-0.042010777563318544
-0.5856574727125143
-1.511408583299737
-1.5933007039377747
-0.7962413168462718
0.4371063439150555
1.6407887776971533
2.5671141141826728
1.273421397554942
-0.30051850786506057
-1.2536573545381158
-1.5732067089298787
-1.5691500959802893
-0.3513854812105132
0.6153291095052483
1.0767091599874916
0.5009007673055452
0.1755870937662662
0.1236184837139435
0.05564919730585752
-0.036880560870882165
-0.055413022782355006
-0.1469580632465975
-0.25012138636117187
-0.2483589012965746
-0.3417587060651231
-0.24395727812841983
0.19575792472845208
0.5525405689626164
0.9817210130681147
-0.6149192970897261
-0.0026248399847501446
-0.2067944378976827
-0.29390877731923876
-0.5508750409718348
0.9297985995779716
0.05752650227277685
-0.05256496494623111
-0.07498763861768983
-0.26692172704397765
-0.061301383034818885
0.13656967358452068
0.147275964629405
0.011481508961477526
-0.017661154262971074
-0.08238817912614672
-0.12865537301677266
-0.11604403382806688
-0.029789797164039226
0.10646841656380097
0.22112349822545144
0.19392328632966524
0.2697476113071834
0.28971140824005126
0.13744520211328276
-0.40811672570600327
-0.8286610689158247
-1.0502395913261253
-0.6714595241313468
-0.0413642112669554
1.426502992975592
1.936659508559754
1.0333656301812237
-0.004203698647267386
-0.6845412955265483
-1.567509882867194
-1.515668856605127
-0.38326329043518753
0.42387753918491716
0.7127918252290655
0.6141952071612959
0.47556937868639476
0.37073107570018365
0.047669073511499
-0.2793783747055969
-0.3013240435564833
-0.3652730896205448
-0.2233324345885479
0.006531852243867585
0.26055865436707143
-0.06942169154994275
0.05203612505122614
0.08543561695787731
0.09705517112321758
-0.05692096640091983
0.059546121825751745
0.05885330400357463
-0.06789408945982375
-0.14444574773276758
-0.0012254154239216535
0.1323773795815152
0.033917476735988064
-0.10831993029453317
-0.09371731379596619
-0.11029903016348512
0.06144798517073159
0.24284582673353977
0.25192834986307744
0.10191636105393333
-0.1957736348546578
-0.42693443902211814
-0.5748391139674592
-0.23191393656139694
0.17569687595673192
0.7581610863614756
0.9427180975638523
0.8840798783230014
0.31644709212896094
-0.5571481401800027
-1.9626958617100434
-1.679914288211459
-0.8339446843239693
0.02468830259206338
1.3638140206731368
2.4828412021348294
2.159889867094006
0.19040425572614922
-0.957250938962605
-1.7883490769891603
-1.5863921108624444
-1.2436754423459433
0.23024657243727692
0.9043817281803742
1.0445250132043162
0.7951192798280533
0.2692987027781509
-0.12196369360742922
-0.2917358847425591
-0.4586682919509131
-0.5068826662826073
0.05649845352932774
0.1332983873737499
0.4520425435206175
0.17523100081505444
-0.09789206802374954
-0.5299797102563724
-0.04738169891393271
-0.34936004339318744
0.27310701666582776
0.5121840668411541
0.6200555997511749
-0.40278499129753914
-0.20297575790232517
-0.2563016497399359
-0.04491429107840962
-0.23882797889707974
0.3132412097515398
0.18379726882868735
-0.03905196162065054
-0.15827556698641465
0.027193521306266007
0.12013395144516849
0.1251281240801852
0.05091486352566229
-0.08568571359754053
-0.25656128715353654
-0.42370132640441666
-0.14889731592915778
0.18776556466374517
0.5658593159553683
0.5096986899678276
0.4926249471355878
0.16747401462401112
-0.5803942477490626
-0.9732619314826969
-0.8982036587171969
-0.5038751730049805
-0.047600210188161615
1.0158716351224808
1.7313817780894092
0.7631534491878713
-0.031405421027296446
-0.5629833828408153
-1.0216848960176461
-1.372083986996939
-0.06892757596705774
0.5820849484977431
0.6150857051601659
0.3617576264838623
0.19904937730633593
-0.09450146189656268
-0.3659615711799025
-0.30070136506965184
-0.027314981738001884
0.07962919872053835
0.3981672012876592
0.46271344601217496
0.17814688736502693
-0.3542673162490449
-0.604585595721095
-0.587327462134412
-0.2529011173404879
0.29612597141854413
0.7685192482728149
0.6424362926882716
0.13618668033913622
-0.19599373769507253
-0.442737851310069
-0.49989734213546816
-0.23659331389756177
0.12364724971944473
0.2014423322678168
0.24344503394950753
0.0966630076336054
-0.015271314542520382
-0.10759653877219715
-0.039559627451203686
-0.10986498797869806
0.15626829980941814
0.42803230972497436
0.39829554389109123
0.020197780800834494
-0.45461016409848903
-1.0483997543895929
-0.8570705505968734
-0.49058296209631475
0.4451167964978587
1.6426964282780567
1.798845272017453
0.3684537889250075
-0.4088495804413383
-1.0141742673636942
-1.5191947700666828
-1.0664667750019576
0.2000519673636289
0.7369375745849731
0.7453506894470866
0.4858340030962553
0.19628471487888438
-0.16397431672162216
-0.33601396906162573
-0.15347955342584946
0.08441157319275482
0.2488946834276845
0.2198477124117808
-0.07838491145247851
-0.6487628534953225
-0.608542891242453
-0.3994086448581453
0.3765503985969874
1.1025736794222856
0.49238130728449087
0.15549636797784888
-0.003770140736523179
-0.5542058143080733
-0.8861856053279771
0.03939892849461783
0.12491069457703761
0.14514317836320784
0.13509557634732822
0.16574662637285992
0.11784123318208477
0.060744429513747186
-0.160734103667382
-0.33248672532463563
-0.27347400160483565
0.16289077647853978
0.488965170703356
0.5897727747883862
0.34334591296742056
-0.14268997612554105
-0.6846497719808385
-0.9826726813766914
-0.8076557484179371
-0.03065377318405227
0.30458045186044463
1.483869534213971
1.0315432441180838
0.4595122278746146
-0.32292438595291767
-0.5403226766259662
-1.4467521450563863
-0.4202478751968855
0.31324461045872853
0.5110216370234921
0.502602088018269
-0.04932006463159362
-0.4012034096342652
-0.5860284274721271
-0.2735326824885706
0.3688152527379287
1.0223018301396805
0.5861399783177235
0.3856368748008117
0.02727076387249293
-0.5066652085524819
-0.7465223463413218
-0.83842982203519
-0.8926280405971454
-0.19634152828089527
0.3080286784016874
0.899259259623931
1.1440216578176965
0.9948850331054566
0.3519788831217893
-0.09935573058107063
-0.9874905776454097
-1.1235759043909999
-0.9838410832304116
-0.44270732945038604
0.024308757895274744
0.8736855184930907
1.19060539292146
0.9879895883175669
0.142875874140249
-0.4117620346679255
-0.844464371609331
-0.7552259523217578
-0.30768649962666555
0.21330953245060885
0.4103058636890524
0.35405834748848836
0.15064477887142863
-0.09150600295277729
-0.2870188482504287
-0.3904354272100842
-0.006910471136864672
0.4022777402030177
0.7228776557612028
0.6063220134568476
0.10865703416738726
-0.8544273403808036
-1.2528645899937543
-0.9122451239566458
-0.3299119260233646
0.6575174601794194
1.372276316485032
1.39420323503026
0.4987210679378088
-0.3411115986865021
-0.8889098364579449
-0.9408644895191806
-0.8213882203100926
-0.3131431891777122
0.3603925731945867
0.702903786379858
0.6840432750086937
0.47629027045176003
0.012290909131368698
-0.4278611607376377
-0.6044803429488953
-0.29598134562385925
-0.2822432672928357
0.25721378088701985
0.5314497177486257
0.5226048563677494
0.17942130307902943
0.028240619807938235
-0.5993399732140673
-0.3324989512703695
-0.5362350594348846
-0.30872522941387365
0.09398319993327585
0.8122541283849882
0.732359302394308
0.4513316427331925
-0.12771300020166426
-0.3672348972675687
-0.6455822771431616
-0.7066324587577901
-0.22930324738585017
0.1713632011414635
0.31341917613893544
0.4020296431131504
0.5895677054169942
0.7620559244802569
0.5642097836719228
-0.13791269103211676
-1.3737626817427906
-1.9960524559273518
-1.0556502479300494
-0.04831858486732776
1.5695263522178613
2.4312448925780945
1.5319852005848638
-0.22711288331586527
-1.0012877673746712
-1.4891483206483436
-1.3911364875588041
-0.291437313970174
0.8024217612658882
0.8567081458544955
0.16412274706261015
0.0803846453748777
0.1680678430129019
-0.24101290029032071
-0.26415713818666464
-0.0718059953493969
0.11693676952916086
0.24378665361809518
0.2253713313282381
-0.027216005754230006
-0.18436325223226255
-0.27399335254803986
-0.4651306219450491
-0.06596481517735804
0.26091052966719175
0.47006194995337613
0.3011964364840721
0.0543654724271664
-0.4210163885265408
-0.3237501532917448
-0.09069408544217018
0.4151050232007684
0.7157663494076634
-0.4690780789053334
-0.40788419381977403
-0.3440250502203899
-0.09051626120009458
-0.0373907423787007
0.8300854523940379
0.3107583548299888
-0.025062027376143783
-0.4339591299746741
-0.3850387696380991
0.05945315595876842
0.2602909345005257
0.21020771334885607
-0.06386460846394544
-0.3035148788717767
-0.22660594649444968
-0.14180210507729082
0.02960211396742913
0.32811044081641727
0.5348231161735845
0.3646958933030529
0.08166223424575719
-0.46429435627590515
-0.1872344255482235
-0.318412081359394
-0.779511640941708
-0.588116859031534
0.5020354947266215
0.7359038204072199
1.2885274179186028
0.4188889634580233
-0.13503105235251986
-0.7185218333301335
-1.0972286286439916
-1.1974689093709647
0.5247350244488787
0.8759466855841427
0.6889509801607258
0.580929639009261
-0.07137235543341809
-0.7296125615887077
-0.47066515508870604
-0.15774157897225194
-0.021156664039451392
0.14377383738642122
0.3639549387802287
0.2695383487570859
0.0785463062552119
-0.208630559644326
-0.20437698363760076
-0.1230915886946529
0.029343306452891682
0.06148789316288153
-0.003369784614468614
0.06907681512202919
0.11910497949229555
-0.011182549933337128
-0.08008609227319662
-0.04711565143322208
-0.07402743094512262
-0.1279074354897218
0.012883102980798493
0.15089284987260387
0.2627971744199307
0.09753210483610301
-0.01773557491621058
-0.16388994923435884
-0.21215816314577907
-0.2084399036943817
0.034790090201079135
0.13654949366689403
0.13702224376949582
0.08347565921634624
0.017596588878437514
-0.032307887018993765
-0.05343177874651101
-0.046214029302177766
-0.019896717529781532
0.012176290294879594
0.03649641550293882
0.042451950630717224
0.024856290890223336
-0.013889180646788906
-0.062470057320791944
-0.10133403636070078
-0.10674868230984769
-0.05896141840164909
0.04645439706673429
0.18719581387292297
0.30778308112683495
0.32343417623344817
0.13740104702483047
-0.3300813283507569
-0.7094620793032425
-0.5590635843253886
-0.16406565124337263
0.23791607798174258
0.811608847634629
0.8763366411190935
0.2755784727928258
-0.42349188284066724
-0.7018527496897407
-0.6467636966174806
-0.3165350311447991
0.27299829781389656
0.5376154280935661
0.4990310329786907
0.15976433501197845
-0.10887263702313087
-0.36171315338034893
-0.26262054716977257
-0.06501812505850403
0.001262850556051286
0.13296382459567863
0.14761030701846506
0.07346770290622633
-0.06002077809361772
-0.028428675154003023
-0.014675779561940066
-0.008584383217904145
-0.005130970896306998
-0.002478698947344855
-0.00035312367969369407
0.0010470430360256739
0.0016206966918565352
0.0015354069619081183
0.001151501869655897
0.0008421604707362535
0.0008198348656400903
0.001039832432881816
0.001214669307043734
0.0009397500051558952
-0.00010016925246935245
-0.0019046653537664272
-0.003997837462814557
-0.005430542381150982
-0.005018065796300952
-0.0018220483230526631
0.00421831445959059
0.011718021755292277
0.017634585231878823
0.017690560393800417
0.007545908016052229
-0.015473224312985976
-0.05065745184452435
-0.0930349882721433
0.06594939789133145
0.03608460079514141
0.02514082321937337
0.03607468104191076
0.06593365365113568
-0.0930492642933344
-0.0506616633727825
-0.015460361754931795
0.007577769825317987
0.017735149322695484
0.017676250509175186
0.011734148892590045
0.004186316363848605
-0.0019138198460528118
-0.005158467498986289
-0.0055780676731767955
-0.0040835322700018915
-0.001850238458147106
0.00014868531212182653
0.0013722044347475293
0.0017211949039949942
0.0014066455744039075
0.0007696029146657778
0.00012679133351875595
-0.00031938768838459577
-0.0005020828944809311
-0.00046111088117149426
-0.00029139244389458793
-9.312867838175513e-05
6.137849530535236e-05
0.00014002404614522608
0.000146148072064331
0.00010447694495821116
4.55590082542786e-05
-5.899068894612733e-06
-3.659084214006427e-05
-4.4572398691816194e-05
-3.56954338018997e-05
-1.8919483753830084e-05
-2.376708507120364e-06
8.86006635636357e-06
1.3235613282595978e-05
1.1905385554265367e-05
7.37968964950987e-06
2.24332269365348e-06
-1.6777906560159825e-06
-3.607263624455906e-06
-3.674889996427541e-06
-2.5433662391641843e-06
-1.0059314995540675e-06
3.0892771902274875e-07
1.0729483226415636e-06
1.2501909687209118e-06
1.000887689260463e-06
5.594313433804393e-07
1.34049584463372e-07
-1.4851633793920264e-07
-2.5260591887475273e-07
-2.113088234932661e-07
-9.089741967132768e-08
4.2025346611237244e-08
1.4141584755951762e-07
1.8859670447225082e-07
1.8803030644806314e-07
1.574289852371208e-07
1.1736567104841355e-07
8.380814429551796e-08
6.483116956033629e-08
6.099737772563835e-08
6.794073868651013e-08
7.953810625229068e-08
9.046389099908052e-08
9.75578024591217e-08
1.0001507753172324e-07
9.877233220428115e-08
9.557595994695298e-08
9.214016208070173e-08
8.962423925730534e-08
8.847488560346667e-08
8.854861089561879e-08
8.937323626774212e-08
9.0415846144813e-08
9.127127107200112e-08
9.174151363231357e-08
9.182140281014022e-08
9.162938878813317e-08
9.132520590561578e-08
9.104490137117498e-08
9.086711165681294e-08
9.080962638801293e-08
9.084618777363357e-08
9.093085535853846e-08
9.101956010159055e-08
9.10831589225962e-08
9.111104052740488e-08
9.110762827243743e-08
9.108547920605117e-08
9.105838127287059e-08
9.103660182251368e-08
9.102497896755176e-08
9.10234068854566e-08
9.102868453232126e-08
9.103665056427511e-08
9.104383363096687e-08
9.104828142279193e-08
9.104961156580336e-08
9.10485542791417e-08
9.104631606190666e-08
9.104402855698584e-08
9.104242316788437e-08
9.104174998096087e-08
9.104187655127434e-08
9.104246969118272e-08
9.104317309170668e-08
9.104372692027638e-08
9.104401341107403e-08
9.10440414117958e-08
9.104389712448378e-08
9.104368881629253e-08
9.10435049553846e-08
9.10433938957154e-08
9.104336353143567e-08
9.104339369461178e-08
9.104345275021393e-08
9.104351167214033e-08
9.104355213613386e-08
9.10435683033778e-08
9.104356405576904e-08
9.104354821540316e-08
9.104352997927795e-08
9.104351591374924e-08
9.10435088731073e-08
9.104350847283446e-08
9.104351239899596e-08
9.104351783838358e-08
9.104352253910905e-08
9.10435253066489e-08
9.104352598799812e-08
9.104352513687159e-08
9.104352358149108e-08
9.104352206550883e-08
9.10435210471771e-08
9.104352066126983e-08
9.104352079585772e-08
9.104352121781517e-08
9.104352169002545e-08
9.104352204678551e-08
9.10435222192489e-08
9.104352222132218e-08
9.104352211493653e-08
9.104352197309844e-08
9.104352185305694e-08
9.104352178423897e-08
9.10435217692913e-08
9.104352179309051e-08
9.10435218339852e-08
9.104352187294485e-08
9.104352189853152e-08
9.1043521907678e-08
9.104352190357005e-08
9.104352189235646e-08
9.104352188014355e-08
9.10435218711066e-08
9.104352186689718e-08
9.104352186705493e-08
9.104352186992674e-08
9.104352187362037e-08
9.104352187668221e-08
9.104352187838954e-08
9.104352187870743e-08
9.104352187804703e-08
9.104352187697358e-08
9.104352187597348e-08
9.104352187533167e-08
9.104352187511668e-08
9.104352187523881e-08
9.104352187553615e-08
9.104352187585164e-08
9.104352187608025e-08
9.104352187618258e-08
9.104352187617312e-08
9.104352187609585e-08
9.10435218759998e-08
9.104352187592179e-08
9.104352187587954e-08
9.104352187587308e-08
9.104352187589128e-08
9.104352187591942e-08
9.104352187594505e-08
9.104352187596113e-08
9.104352187596614e-08
9.104352187596258e-08
9.10435218759547e-08
9.104352187594656e-08
9.104352187594079e-08
9.104352187593832e-08
9.10435218759387e-08
9.104352187594077e-08
9.104352187594327e-08
9.104352187594525e-08
9.10435218759463e-08
9.104352187594642e-08
