0
-0.006364444432099092
-0.004724572398762515
0.00019471444285147562
0.007875234799113326
0.016140932867950403
0.021271445280710816
0.018944885622580045
0.006027092392334433
-0.017183557098683445
-0.045101078435270066
-0.06653773264192736
-0.06700640357398951
-0.034080719247613724
0.034940546264772644
0.12529633206072024
0.20036976081200544
0.20419199752393777
0.07285468301049017
-0.24644308381959298
-0.37406316805198003
-0.2825408346441946
-0.0949416116366297
0.09961511752445633
0.2164992030774483
0.3412877910151365
0.302271890972506
0.059543272018889565
-0.0849388956636178
-0.0588113735849568
-0.18069077411863427
-0.3228888154026062
-0.2865687042943902
-0.19721074777958714
0.0773530627716351
0.29098847021412705
0.5762229832906389
0.20782473745746896
-0.015497477047767973
-0.1665197118240267
-0.1655788863762311
-0.3468100359283992
-0.025587431884359767
0.12437998917933395
0.08059039251702836
-0.13136254886601786
-0.05047554735856662
0.0009173897883065698
0.09581500058841144
0.08257365067053062
0.17073395272409048
0.1266613012247025
0.08116470754795661
-0.05176557783428933
-0.1494416905402892
-0.25539916268294094
-0.36306745184934797
-0.21492171973141314
0.08062567928036139
0.4188207235836752
0.6650877539282125
0.23164192699740296
-0.1257503304026714
-0.2891416743960907
-0.34574637670943453
-0.5549546849763738
-0.1281948114954242
0.3714687149694243
0.41214017520449314
0.26793074466027283
-0.0023438239213108497
0.03539095815708065
-0.2061172062313518
-0.3243231915957568
-0.31599916761603897
0.026656593108138317
0.310688631905294
0.9313838187560164
-0.7372597869074039
-0.14481133516399636
0.04113437287140629
-0.055514729320289426
-0.5098192959410558
1.21283307287441
0.2667659736533367
-0.3598428302763671
-0.6280229420592464
-0.6363174150623914
-0.42593405164741865
0.190207477523214
0.9789740181901837
0.8354668348871249
0.3498601901392214
-0.19177732603197217
-0.5714982423623705
-0.7824842315767392
-0.37345218859735346
-0.014462315793092533
0.3067213150542971
0.4618487738717738
0.3464693693122917
0.04671915964604199
-0.1808148156845238
-0.11358950789937498
-0.15619163186594975
-0.12914767283038556
-0.05957731553196267
0.22343906111782244
0.08946843984599975
0.10631203558254404
0.041692882634973706
-0.1317612528752829
-0.2297476042150098
-0.051084689246092795
0.022706574190575646
0.021938486457013753
0.17919537778669267
0.1194809378394654
0.05406075778401017
-0.019653118404389137
-0.11252515297241616
-0.23532113616653932
0.008382434043930138
0.024709964842228302
0.02649103857422943
0.02648391684852209
0.23019416936270257
0.03181471139235575
0.015611401559122398
-0.037124291369247976
-0.13795940412618976
-0.28225115094071207
-0.04550010128315644
0.012357770679305602
0.13563875655105692
0.359115217239996
0.29819413999546124
-0.051621102818182656
-0.3049332151895914
-0.2708523929313205
-0.3399700043473327
-0.08187746902106503
0.14352669543337948
0.3644756719677471
0.3746299287434182
0.3199907564920462
-0.09714059024905894
-0.39681545333325124
-0.28998601877259017
-0.24864715716654137
-0.08830708363772256
0.23201473659278388
0.19410159735253069
0.09622351471220789
0.028773436247212687
0.05651643883592783
0.010574025068958881
0.08997172788560265
-0.1297394293726571
-0.28474738287557877
-0.21265939317570867
0.05287628015214777
0.48209580650116873
0.24691448534896182
0.12179823051362408
-0.30924816571735403
-0.441836415465046
-0.4434697835463031
0.14371730421249548
0.387332690516586
0.3412127813856451
0.22416137970955605
0.01063954948128313
-0.1623867509767082
-0.1753137537858401
-0.10043465498635251
-0.18047498731706854
-0.21851501237012683
-0.18276736839020616
-0.024858672504696137
0.4948931022141249
0.9861565257977826
1.0233739848267966
-1.2364844959762449
-1.218638702683373
-0.6963684800160658
-0.38057181465575907
0.2554144251689627
2.3243792647001214
1.0728461669454719
-0.5439826132270902
-1.4466216941912873
-1.1855222853064504
-0.29149227931919747
1.3545909851013447
1.1277480511371296
0.25259116799603637
-1.0004607374686139
-1.113365226687402
-0.9238712271633776
0.7523413536221472
1.279066274589489
0.9516832624020921
0.16735975257777688
-0.570859486065126
-1.2186722827941716
-0.5430800706412607
0.11345652425613753
0.24296273986833303
0.3576696798174079
0.5660246983780222
0.5575183082253291
0.41006071762577395
-0.17712523350336018
-1.2354038415636859
-1.4848377941563384
-0.5226585742026225
0.5441084189649023
1.8293720066572823
2.790788430830268
-1.420057475761785
-1.560329668153596
-1.2607169588470086
-0.38312431592988866
-0.2003554790863258
2.594970765082005
1.0694347076975728
-0.1571576528851691
-1.486564875263671
-1.4931688970182577
0.12286106638075403
0.5549546260050341
0.4738272256932506
0.1864269307558041
-0.010079885065982695
0.13755345688429368
0.42503860227276846
-0.20148418450003497
-0.22047895528091377
-0.3019329192757059
-0.27740953441574207
-0.32328079207776284
0.4378535101791157
0.3195517279157282
0.24551860590899596
-0.2753391592616368
-0.166373904835216
0.008268519165097833
0.24241433656359848
0.09235705548932904
0.08664473842992332
-0.25958028517742204
-0.42840530228104595
-0.08543301365046307
0.5282608796029094
0.9990079641832845
-1.0582218020140721
-0.3982455207654797
-0.14687351788373298
0.18924189337802508
-0.49803879303092874
1.4555752190023543
0.4662256405076586
-0.3025659390783335
-0.9249350675819278
-0.4858186651759655
-0.056553457725376864
0.31566174947027487
0.6033593955308607
0.5880614308508418
-0.34569288749573285
-0.40599884491154553
-0.38245267495429197
-0.23783322454832162
-0.11128501920693032
0.6650778653680078
0.3422588858238167
0.13378419964582508
-0.19247430494906906
-0.3073266689084874
-0.10228683325220775
0.13204305885693685
0.1251103074450691
0.0402016989820575
-0.11784132217266109
-0.3017582942010612
-0.2294949773616761
-0.0013988176486012672
0.2749907093602302
0.45896641682650147
0.5588787616745786
-0.26931245995005465
-0.5051099901355005
-0.2341782536423538
0.08220008397882322
-0.17136765468667492
0.24312581747379888
0.21126724142011652
-0.14923602112160636
-0.5099072736675058
-0.1563353499799978
0.38584996565116575
0.7289643355758298
0.6137811575097799
-0.2794756786744379
-0.4989423802469603
-0.577697212180083
-0.5962858573571336
-0.366982938110406
0.7541569201244859
0.8347424425643792
0.5304425738397469
0.8648907129087222
-1.5659617548386267
-1.1716616277798515
-0.3458252476322314
0.5363772639008931
0.49725816388065297
1.124951016408572
0.5528664898442721
-0.1325602993810775
-0.6536857858962034
-1.4880607101311638
-0.22459361583199264
0.04812432724494891
0.31348243968048184
0.5689226774580719
0.7613982722330584
0.9411489530318189
-0.7494450904390585
-0.4498253816246552
-0.5310448095728385
-0.34282475318678285
-0.37723872489422094
0.9417871484398213
0.24602090654220407
-0.20162026921411016
-0.13198410555585618
0.11207429726026352
0.16591964566133005
0.041173028016908295
-0.06968601008564139
-0.18431776700096644
-0.12072644542397737
-0.09076417588845113
-0.09957712679771147
0.24935315642299563
0.34711968585513325
0.17559062974738684
-0.08875656523297998
-0.0629712600392178
-0.5424241102506715
-0.2902353864376925
-0.0385871670889756
0.2957933487272239
0.38674928347666127
0.4745570042721483
-0.04686865202716447
-0.22584588295288177
-0.33409634079156775
-0.2417346123949046
0.003847842086196324
0.1884847638475943
0.1299880699646338
-0.13157926183576454
0.05255995762864572
-0.07373373459096152
0.11709236194405016
0.028846601822321002
0.23969164857322037
-0.09320222143989551
-0.022942153542673892
-0.19876974372934983
-0.05281703678806799
0.00774943718515951
-0.19973804313506208
-0.04265776432686182
0.11118340879992533
0.27597621983588383
0.23480581370218137
0.3371475076905126
-0.08994709117150343
-0.5193619360219507
-0.598238015685664
-0.1298036394597493
0.32970103931119366
0.6593250076039043
0.35507314218112906
-0.08470593553905689
-0.5648788304590433
-0.5931579590832246
-0.2823677419900645
0.637945321716279
0.6018201645445785
0.18843891895029669
-0.08385391135012767
-0.1455484729716862
-0.34932102186322006
-0.2383016818312567
0.08036001614501301
0.14992693582441302
-0.034888131950760036
-0.03764359630058516
0.0034311115194101743
-0.04385605891716723
0.07548893231841676
0.1885957496501096
0.086879180017925
0.12800874706563803
0.04824959484533977
-0.21735618563731923
-0.31258906330782693
-0.24273566265411803
0.03136781731961388
0.18562057037827792
0.3142390797498672
0.10739241347279346
-0.1681097024682378
-0.2810846888343435
-0.040940326968503714
0.10333546901059543
0.4701971491607513
0.5609082699526213
0.08541235835092555
-0.6038465015179142
-1.0805375521409375
-0.8316249754672563
-0.07683324843613856
0.978477549550557
1.2735059488810705
1.0341834373244252
0.1547573009176159
-0.97021209048702
-1.375684266746773
-0.6473770437432897
0.9341435804725953
-0.7915565797526017
0.5101565805128865
0.8187029514987386
0.30260248844108734
-0.9242564277888231
0.9756474458224225
-0.03484771112905556
-0.44736390419727323
-0.3776013717813751
-0.13497070094023392
-0.0015241219769047624
0.17522478243578318
0.1774137731870082
0.20616697024410285
0.07210662636261739
-0.008638679644708734
-0.2128352209940311
-0.30670066890458053
-0.24607860337435858
0.01575464315813823
0.3130044623389298
0.45071772471866794
0.3956296551823693
0.08224527685908979
-0.36428949748275763
-0.5954433494101748
-0.40990984658587953
-0.141118784694361
0.13122977600847593
0.5486077038608522
0.4318454052374978
0.04507670362406461
-0.22297650475328448
-0.0564420199507479
0.20813547572348776
-0.38713778514741015
0.21255123504883064
0.10518160952159834
-0.3466715505864391
-0.7079501394727861
0.3200595794109383
0.0743142185515793
0.2937477053042782
0.4830872753142093
0.2888472678043627
-0.10447981612284002
-0.3576706477024134
-0.34707284546103234
-0.3342277074523713
0.053858013861539246
0.22827398534222534
0.22748962274526538
0.09947232587526847
0.08469772840185613
-0.19468732811022257
-0.13844264436502465
0.03352087856284423
0.08564293733358666
0.17261761262033012
0.04678315368757011
-0.13289234262931884
-0.19164064197410072
-0.13265776445011912
-0.13710415694705308
0.2284010970057026
0.19892775033711566
0.19797725427865082
0.029201339922266818
-0.12397348814111205
-0.29189097394744523
-0.10967050847232857
-0.010508891316270481
0.17624626485609743
0.22345030717659492
0.10472805944896696
-0.0030792522492501676
-0.11259329994474754
-0.21627730872321765
-0.27947867748704935
-0.040934734391919886
0.1773467023395798
0.2533419179552028
0.24761280627581866
0.19224680604700548
-0.10973074505238306
-0.475550767621389
-0.5304543651980836
0.7004511262128438
-0.8082691527145293
0.5099987403384488
1.4059121914504635
-0.3855963246522764
-1.1316591824225157
0.7227397760128647
-0.42098262715708223
-1.1028037124710401
0.5886633142625796
0.38968006674021693
0.2238323195638847
0.367062473256564
0.2284864943581791
-0.04617777201234978
-0.35055942244890653
-0.3825344238999761
-0.4114581500002306
-0.05966206395612458
0.29615091802833404
0.3063683293530853
0.22207199789087237
0.07177881610075335
-0.15094827822184106
-0.08697997096836951
-0.00102161154349436
0.03406140902399562
-0.046728934719356255
-0.08762209470763217
-0.10471724493034704
-0.08567535146051578
0.003357281960179883
0.2053941941642132
0.1586322540051175
0.085577366494108
-0.011044125310068743
-0.14467365494939136
-0.13581171476072393
-0.0014553540954712833
0.053092957927137585
0.03796628928701785
-0.022143325297209998
-0.09265329501246555
-0.13663717812830672
0.07572499510315579
0.1575544452779313
0.29856955112450695
0.0647858297893014
0.006567651398039834
-0.32661580174885163
-0.3702892641432415
-0.3352304934251576
0.19096171465016928
0.4315934196779741
0.6050295879335587
0.31555285774937175
-0.2419036840877681
-0.8644461064349638
-0.5216066357380078
-0.14707913908272027
0.34982760250476014
0.4558326845781921
0.8214890224181896
0.841394976033248
-1.3429590677514314
-0.8199449213194091
-0.0780652842795819
0.013673459381202159
-0.19284853780477582
1.6633090322189892
0.3411200774088596
-0.19887020453303825
-0.5723327291070901
-0.9401424218883204
-0.7879060574169249
0.06641754039551415
0.6319334399036968
0.8832063089952801
0.7014920779526007
0.24323332481446897
-0.250759792237646
-0.608829946813878
-0.6626241352418643
-0.3859408840509892
-0.05831468088974944
0.33797453224155233
0.2918351512468885
0.3218116698661597
0.13504710443383924
-0.0009796258695601793
-0.06860027838418764
-0.09340135039978381
-0.12678200336984805
-0.02489343188502193
-0.030330554742725717
-0.16080967346948782
-0.006651488301760168
0.0633717455319397
0.09031292988517726
0.11149441427972116
0.14960163306521232
0.007829834057827202
-0.1278397909407622
-0.08088083743124393
-0.07459859003049245
-0.12459645442019457
-0.03592013322003623
0.1948988677252743
0.17508464427995707
0.11172126941294022
0.011755654345655536
-0.11359717500412342
-0.24283785795150553
-0.34156621207221377
-0.16795766238083915
0.11232372390759672
0.5059459239394783
0.5758660399647599
0.44045088146434597
-0.005536461131143714
-0.6510604858140873
-0.9240156628691221
-0.7618461658484529
-0.2149305700188058
0.5126814127247851
1.3980314390526571
1.3357902783113824
-0.49581794078700986
-0.6252090619109649
-0.6402249811103439
-0.7264535948901111
-0.4170004638429297
1.0304234236198828
0.6287752415513752
0.04095176096159484
-0.44305633966804736
-0.5240721487540699
-0.10824062492740769
0.27749278566784225
0.4686596266531914
0.4510385617433394
-0.039339999941679894
-0.3003676517862148
-0.4363245979562995
-0.3289356855318708
-0.018064228217866955
0.3018843654964866
0.2713085255297247
0.14767645166158774
-0.01104035816574233
-0.15677343773863797
-0.25542785093733256
-0.08771716908737484
0.15001150018015894
0.24425864028540922
0.16445066943907002
0.06791904172645842
-0.0888927278532822
-0.3355064203767625
-0.27461109780211285
-0.07788448985119231
0.10589188209094089
0.13191491548693726
0.23608671755932165
0.21621068761661616
0.2254204391731976
-0.018309374736409704
-0.20819289460838672
-0.21717364968354463
-0.2692750127604883
-0.32396013701824367
-0.08001229842653747
0.20075759303656143
0.2565367323244829
0.3870399155649537
0.8266647189073775
-0.6612437617209818
-0.1674183899113191
-0.20437329857834666
-0.2717163518756449
-0.6314050531992004
0.9003661524539339
0.145504944717228
-0.05251185327580123
-0.04551340352119466
0.007624497742099389
-0.06466325436727251
-0.047878136598228975
0.059638775143982796
0.04882311164891266
-0.0975104414811736
-0.00170950658292423
0.11192585969954608
0.02046006828292345
-0.09442792876286345
-0.043715784025570005
-0.029729483980548532
-0.04717050108440423
0.11335031635295677
0.060206333241958565
-0.004258250284805026
-0.08710581148558977
-0.005819568511023083
0.012996156941670702
0.13705121133719775
0.1340751588701161
-0.020172618656643514
-0.132710104256081
-0.3859365681091442
-0.13615826629917413
0.07898389105184181
0.3249341446535989
0.2517559082021205
0.2804157608043629
-0.20019967291835342
-0.2245523701429425
-0.2345687752402717
-0.06413138954290243
-0.13043498491019112
0.16534695638158403
0.2303350517831486
0.27060985780855806
0.08613767220842705
-0.1268366578707836
-0.3673400311111962
-0.22073327963551423
-0.2560237274971703
0.16670326157812992
0.48054524335561377
0.49500655186567216
-0.012711221466064425
-0.2927841828055409
-0.40587947427169374
-0.20239009508943345
-0.10734973565208983
0.2834270958383106
0.3969434322544888
0.07223087563760197
-0.24830016838314792
0.07780577396404073
-0.3062682675445928
0.044299181724977814
-0.02618966386935486
0.11988221816020783
-0.09512707860502294
0.32803192379589213
-0.038379716165200826
-0.04690844847836586
0.03339647142993161
-0.07070696042977893
-0.223881614838618
-0.07266245153731862
0.1583625196688502
0.0643227214146963
0.053726005779514384
-0.059014420321980614
-0.05980682328458141
0.06122508319970927
0.10844632956705497
0.08213072917409305
-0.01750807610171111
-0.18475168684548984
-0.20376581038766808
-0.04807258170117657
0.11394180432448009
0.1083175409450737
0.14327864127134085
0.0002996998301836716
0.03230620265502821
-0.029535571056177816
0.13859191580066177
0.07246727274239848
-0.05992629637351806
-0.44241596006833356
-0.4050408472204476
-0.23410481793454305
0.2011094202096216
0.6111886960309969
0.8521588586902861
0.30896651594225455
-0.29368657198202724
-0.6557875864177158
-0.8568146100174527
-0.721622173739027
0.38688321707852535
1.7461883580240491
-0.7636947368576191
0.3048814724997383
0.5500421881777348
-0.2749754347339662
-1.4409462058613263
0.9836433170804045
-0.046576412225710094
-0.34465826054084975
-0.09393051165727936
0.14089770574343663
0.3987100108693096
0.30872225577372264
0.08456828572621389
-0.27203431866677263
-0.5616787986494222
-0.5801884086301315
-0.12248496106866005
0.600430709487804
1.3390489869158644
-0.007654876683699984
-0.18242061189135358
-0.3345380703351251
-0.570416994348094
-0.9090217184314763
0.5402468443440493
0.36898613633701255
0.03414476245463741
-0.19293901035398964
-0.07956429905858345
0.3237643042798531
0.6551991191318798
0.23629334069986963
-0.10719369109266483
-0.4021441807070337
-0.6745698499899454
-0.5024861214189577
0.2103961019693262
0.4346363959954136
0.39416669577048363
0.13716114605582744
-0.0887886477977197
-0.2505303874501488
-0.13255707375355943
0.06613985538926365
0.13738215538450704
0.06951334143689987
0.05374163065704836
-0.10859317239899671
-0.19901089208035933
0.0222490683439863
0.014834014517058049
-0.14981980171132514
-0.0023036574836951445
0.10812713003729996
0.19842308501740774
0.24318919474350373
0.17709176825833017
-0.09020868071195154
-0.24954048754228345
-0.3655369051793263
-0.25734064425802833
-0.09448157881707159
-0.010264051132653808
0.4720922429186594
1.2111033632205168
-0.7715262564177934
-0.4922731824280698
0.2087078110658986
0.8897602748739961
-2.071886717071922
0.7314049807923647
0.5365225355192937
-0.003585523422601677
-1.039604224415795
1.2554352861854872
0.27481720796733095
-0.021133728283242968
-0.2904766998634861
-0.38524045051132855
-0.32717128986478805
-0.29498333318230535
0.17023752825793928
0.3429297227500003
0.4832871580593078
0.2124489709058123
0.10310940374901988
-0.31092283263069437
-0.3110218663865633
-0.3665208424269568
-0.11538338259676997
0.0400859472472372
0.3224572479277842
0.35988349739979464
0.16801990386681828
-0.05870512361009988
-0.14361743946147784
-0.3154078253493053
-0.1939769436554076
0.018385326446969587
0.13689470494021178
0.18651048459139766
0.19139034460652263
-0.03291492412183567
-0.08123647699680256
-0.1547651720216877
-0.0542250316266833
0.026086323854504136
0.10101301316275405
-0.006366407955982986
-0.0683257257773012
-0.05764622157364826
0.04639694603775533
0.051912491304466936
-0.05070759928451865
0.10871907944428096
0.08179229820111589
0.008175227523607217
0.027090663082491924
0.09205051894015381
-0.21436290442080314
-0.2700818034245747
-0.21220057568118358
-0.14783532115949624
0.22350307074167777
0.5819080571306378
0.36333697308883967
-0.05001193687673835
-0.12047714723319125
-0.3301875515685758
-0.3507867527818244
-0.2195805507471352
0.06919211800318686
0.1558302946956958
0.29411600071360655
0.12675760236088437
0.06660371639938166
0.08965247482761338
-0.05893483578240827
-0.24902429939440163
-0.14591320818809453
0.006468447661068264
-0.005296834211053664
0.03569708722297243
-0.0314730018856838
0.04150419904445473
0.09820726867091488
0.1660718982636197
0.050379742214391676
-0.06507633975607115
-0.21168097338556902
-0.22719965046963989
-0.1481967536078632
0.7944781813899692
-0.22144279241858236
0.19506212895377442
0.05704877911060122
-0.18945803476453082
-1.058253802627663
0.37314105449296026
0.04383863733256616
0.27626003700768775
0.13830316732937775
0.213439550168813
0.18942414370937435
0.2714458077466085
0.019613710274800307
0.004523962832387019
-0.33116227194501463
-0.8215113953081459
-0.7537795855645305
-0.2852325271985598
0.29805927816480887
0.8940385135457664
1.0960185670275056
0.9340282849161937
0.46944512657513865
-1.3529585501059018
-1.2144762915316893
-0.728735138652113
-0.38097957795409687
-0.12115434882736435
1.3920489454202087
0.9194994069986239
0.37454000210085175
0.18709358949827695
-0.891287361058315
-0.5507678135163515
-0.2762619172362966
-0.11183209122169227
-0.24914429261273446
0.7596480968990432
0.37416386573490534
0.03715607426285437
-0.043118517823292325
-0.09443607628164692
-0.16848168514821388
-0.12199387177013918
0.0013481697189586868
-0.01705672588059704
0.032886890971076485
-0.014497886993893379
-0.11134970212371846
-0.010635579897229089
0.11880234076088506
0.08017111551803485
0.24379569448154662
0.35300079420513375
0.14213900367440344
-0.4362869351672567
-0.7839454579845568
-0.44077760777111746
-0.09163795427392134
0.40211833090172694
0.755563616559385
0.8161079026221443
0.14160931062544138
-0.38877669288660077
-0.7346767247768892
-0.4416285537743894
0.004392408342366295
0.20007515368924464
0.02108068815391132
-0.2035286992534857
0.07086403399139954
0.36490051698210685
0.9442544066707899
-0.5942514224870131
-0.11553687599485504
0.07831451987646285
-0.31971237126182056
-0.9932410736748952
0.8132853207880341
0.49524799724759677
-0.12254512892647937
-0.19965126113420814
-0.09145504794298505
0.04285341066182754
0.034418063764392055
0.10022865989851806
0.04075411061658676
0.040831399709768006
-0.1259857038241342
-0.09084735809096803
-0.08297491693088187
0.07508686761046965
0.1697849891134098
0.19748709762527492
-0.034488282516998835
-0.30668802734243006
-0.38864008162279506
-0.2460638836983939
0.14401215204359027
0.5738006251274976
0.7905050859563159
0.4988768644003588
-0.4128797965862981
-0.8287454019264633
-0.9591222715254905
-0.515901309626803
0.075797852865373
1.0291197587568364
0.7272652343746727
0.4621510794683884
0.0034979010323277
-0.19136558065858997
-0.532779374405915
-0.23637663074601875
-0.26367725591481966
-0.08229002493161502
-0.054310160976275106
-0.05295182117303734
0.09932678870360542
0.3822889625035742
0.33192360649808766
0.2089751250935726
-0.010226072160230932
-0.21962304561445917
-0.15198537645665364
-0.1407039906940741
-0.28605580767686417
-0.034454384638957496
0.02543818475703171
0.15095750059392904
0.023473249143219806
0.3238394289293069
0.11258656556197594
0.019711902221429448
-0.35496942218778926
-0.23394462081876813
-0.051757613573156246
0.7535575616055866
-0.45333259898231654
0.10051670088949703
0.2025446233000727
-0.13961838928592887
-0.8961275856278645
0.37992939235718926
0.13878744173973276
0.21479207158841365
0.4094776266009035
0.28573964159615367
-0.021913808843993063
-0.3830669276779536
-0.6423474127463339
-0.5989822697249017
-0.006273540121330545
0.6062295503580702
0.6965770384538549
0.47717750136781795
0.10107646945274223
-0.3246640703270587
-0.5037667322059901
-0.5090352892307861
-0.3521243795826658
0.022554834538597295
0.3175610997995306
0.44445037202165366
0.48367489638168737
0.25822207576490763
-0.2692614218210671
0.2241226600655846
-0.9437786773264749
-0.4261212078421964
-0.0278851399398349
0.2907409587846289
-0.20921225488240439
0.9221208170745117
1.0975737837061121
-0.7137682401655302
-0.5705196090118403
-0.5285783490718502
-0.21275766999063953
-0.6052491424058575
1.1443928716931377
0.6952601316296575
0.2921945929539623
-0.24231293502818158
-0.4976852157172283
-0.6547762819752245
-0.2704676859801383
-0.07985427749743002
0.3811611783883616
0.5413804275116986
0.5639091791675047
0.3360647922484311
0.08863506860782928
-0.5583109972664835
-0.937717171921944
-0.4873747367264425
-0.1307434570796711
0.30454811136753585
0.4366438541645377
0.6658707583973954
0.31964084094918405
0.02314967007340201
-0.2974132820943863
-0.18410961158953162
-0.20205489587993977
-0.2951481875715584
-0.15520323444443596
-0.011179746377282437
0.16138058655759957
0.2164450663113034
0.20844060738705988
-0.0322548913795094
0.08772372766304831
0.12609842388557332
0.01938138166163795
-0.09403500751719014
-0.24885787715703203
-0.43400482584149513
-0.18727801737430375
-0.00744454042543899
0.4186743177537887
0.5831396879691797
0.33047164674514423
-0.1516347240405232
-0.32144497882039974
-0.4582765599682642
-0.23534800587504598
0.09843943259076107
0.12257587880589838
0.2371519718957726
0.25056665446468246
0.17086280833838913
0.005691319783475943
-0.22937699310877774
-0.4997142055635243
-0.34608550037490593
-0.09177088142790725
0.33636915656799354
0.5796522916942186
0.6249970364970593
0.20101769500755604
-0.20113894918020844
-0.6875628654875502
-0.7177329901111021
-0.4767012051340009
-0.07763509435073405
0.4036173045756143
0.874800433689254
0.9770715651101368
0.46139535555329153
-0.39586708955018196
-0.9430277040828493
-1.0902623352806649
-0.66242965700332
0.21087433822418852
1.0642351594111688
0.8400714544037892
0.43368250540462655
-0.13683176327222427
-0.5266692923161144
-0.633921086569885
-0.16015190773514285
0.02073707929771288
0.27603536706494786
0.21066976143646618
0.05349662542300591
-0.15864172039686406
0.0060352145062352825
-0.03418283022578521
0.12162594617872316
0.057569306042730375
0.14616600455768844
-0.04197674973246774
-0.12579355173277038
-0.3023813369760233
-0.14130655935999503
0.011801711266691455
0.2221342883486984
0.14702245913132353
0.2184244992581408
0.03309038354027453
-0.046098877525758225
-0.0783867868478338
-0.12742646935006646
-0.24382067304323798
-0.05366735340575173
0.043572731082854414
0.0681546623381026
0.24778669095249115
0.20561633223297582
-0.04650043444411011
-0.10724298315925858
-0.1792156307478456
-0.26099423491731444
0.05731949209927623
0.19254495718279477
0.16201572304450496
-0.023853263914161545
0.0339731953141022
-0.07638377888179902
0.027084677081322416
-0.07278003733047633
0.014206743964692695
-0.11053723189109231
-0.034526889205059356
-0.1388493192823756
0.1936679532721469
0.16931256657027424
0.17711009769056896
-0.01132654724677222
-0.034530097200979104
-0.3287093827002199
-0.11500197558018307
0.008225344803647734
0.06494372497843393
0.09344851014445683
0.1343195288802661
0.018905083848905456
-0.038143057653509053
-0.04085152150875833
-0.008986962582354603
0.028162977930884826
0.03956433877969595
0.0003769121556624476
-0.10119237824226433
-0.05954828869908578
-0.051352283320687836
-0.040023264791305836
0.015379990785323101
0.14900890720597265
0.17818401552589072
0.09803730526408959
-0.11693167362987812
-0.10481215264497659
-0.10492866951099328
-0.14767563029030734
-0.04922583273481216
0.18765852870340974
0.1684036251665215
0.10067422576882883
-0.008671138474142491
-0.15224028754990251
-0.1178461658718473
-0.08470266390981745
-0.02329099485014313
0.09985827166366498
0.11377223985466187
0.034115812810861325
0.05705151372698122
-0.042051749792285396
-0.10487694273199526
0.0172494440589537
0.07247155788588278
0.017583328172689712
0.02619690690118601
-0.10508873303585539
-0.15394883582399904
-0.07471545253851933
-0.006838253375719757
0.11153972365143491
0.12822352481352026
0.26471425452001934
0.11166982013319188
-0.16571494713531457
-0.21401470001865636
-0.07471673946709734
-0.170727123814947
-0.10123291645894686
0.15362769010822627
0.22076632383920533
0.12013046983832146
0.05458687744055835
0.0076687163944729134
-0.0503315400569497
-0.15077222518733827
-0.11435698208991843
-0.14299192009196396
-0.019045025375387218
0.08761880156559587
0.2076056859809869
0.15995620568931063
0.14530227902304563
-0.05272272399491807
-0.25848687169654744
-0.2920793627114723
0.04031713757110315
-0.05107992837617752
0.2550600141964086
0.18144493146326482
0.14319216603881016
-0.2562283048660378
-0.023179105596459103
-0.16844823039387238
0.09814102858573803
-0.029499710961317087
0.04595167077889633
0.12304529112915594
-0.0006858216567846998
-0.12975424591698895
-0.07033239631182492
0.17088629856829757
-0.012095807401185335
-0.023388071159316282
-0.06387259085460704
0.07011217110994722
-0.012497153657550032
-0.09790051822544893
0.030700733998407073
-0.01021911062753833
-0.008843054170307998
0.037680755811910535
0.12043640229661111
0.01895083381680947
0.105352785266222
-0.047836519023313255
-0.2582884331632302
-0.12625312519187512
-0.03231500733941491
0.05766822302197447
0.18171778587636941
0.1690286693524626
0.030345608726205696
-0.04509292260367201
-0.08549327582707726
-0.1276185833064127
-0.0067514064954870496
0.051259851553793014
0.03425470439613268
-0.055649924524387544
-0.004233989429811212
0.010881822476163379
0.015412397867460494
0.033656307436747156
0.08484868115304421
-0.018566586609582877
-0.07057680843363988
-0.06985771389427536
-0.01794259432189403
0.0815809534883665
0.02260782223026162
-0.004559546758437041
-0.013987696254274035
-0.0240738944669404
-0.05668896011902348
0.06435737873187142
0.11566925517460308
0.07791192573126095
-0.058979536298668624
-0.08983621937294888
-0.18979689978623776
-0.11433716755630333
-0.00585718634091081
0.19359814576201434
0.12690912016889752
0.20905488954119886
0.021808894988721662
-0.08179280203389123
-0.16468041219090454
-0.08919333097771398
-0.1022878475893468
-0.026817461743177777
0.1394935235373304
0.018584370955656092
0.04314025839511824
0.047607549952596646
0.06163098474838466
-0.09303968690640782
-0.0025292144531535174
-0.05906748335752692
-0.05916721488046326
-0.0029929961640823366
0.10484285997288505
0.0539208519900811
0.027572517239694772
0.004549847668554901
-0.03709766335123944
-0.11512013197631944
-0.039072996961732456
-0.008990167431049195
-0.017407248337279198
0.14609386912396363
0.08987612005016005
0.017139271695239974
-0.07379003443820052
0.014048700212003974
-0.11879271313960943
-0.06420329055151393
-0.0055280177465937665
0.0797098981222995
0.014204086770051368
0.014354047573499625
0.08509909471001573
0.01779749709018598
-0.008141751109438069
-0.02029788345171138
-0.046408816812471304
-0.10776792880218973
-0.0148955215947187
0.03325983257336507
0.046642270929794484
0.03925722487436743
0.02413901645405022
0.00982045679306557
-0.0008316489200809523
-0.00950468243114309
-0.019871705663124573
-0.03476341643980938
-0.05429112280415317
-0.07578343781642125
0.10432260412829321
0.08749515901509074
0.07074617353683418
0.04668750218293631
0.006740897064494371
-0.25355629607246105
-0.12979277455547591
-0.007447136208750108
0.13432773993091687
0.11509682610410983
0.14517460107938387
0.021114572643325724
-0.07325626308009187
-0.16091053511282674
-0.06368481876312408
0.004186759191401968
0.038777499556028806
0.04518063116515679
0.03367406266841317
0.01535624521527372
-0.0011504231574030368
-0.011211358796778838
-0.014017704317843733
-0.011363115629008751
-0.006097099473478016
-0.0008364535258659825
0.0027687444416374775
0.0041946794868718855
0.003792531740768299
0.002356596197340215
0.0007130873676648548
-0.0005497330606470841
-0.0011779325494047875
-0.0012085384340672699
-0.0008513262808871485
