0
2.153873679202666e-05
-0.09183822761883588
-0.21072072453724083
-0.17797169161365248
0.0031575641579676076
0.14826819971203004
0.08567511514448656
0.046522716937531176
0.054959509519182125
-0.07909738542305528
-0.16407610464573344
-0.028647751272028583
0.07757989727504003
0.0847548193121196
0.10660317649036762
0.24976016642417317
0.22991849487743227
-0.20671287213487485
-0.6621333447903229
-0.47439688866818297
-0.12349066670307954
0.14141801755605943
0.4596980666388263
0.9172538939092599
0.7233979439583953
0.020040794106885678
-0.6761870382371887
-1.0140551673533267
-0.9563245681137171
-0.3626834190219486
-0.019900919984162897
1.0883465357681792
1.89841057883961
0.605196271458166
-0.7504611027638461
-0.6397797714670826
-0.9679613742431108
-0.9923105233360412
0.534583906162715
0.9839233464652655
0.6379757936724066
-0.13799922558966654
-0.7252153694140101
-0.8791615257729383
-0.16145723022718844
0.6196412661978219
1.3653829177941559
0.25460430305209064
-0.2601343134515201
-0.4227875069663483
-0.3199299054546743
-1.0220922705217832
0.2604914532498412
0.5971611184610379
0.332341998796902
-0.332864775663288
0.03825823866434223
0.10132321306147397
0.12061425386837313
0.16513958893647218
-0.09034046969793767
-0.3622807807242998
-0.5582865012316693
-0.18514573390384292
0.4336154845057753
1.7361848721085473
-1.09184789263113
0.08550631197117815
0.1764598183644115
-0.5060684386588775
-1.6138193863209513
1.6554171381752174
0.761502114376809
0.01630288644840634
-0.4228653602266312
-0.5587399414914517
-0.7666153872122273
-0.6257201149678474
-0.1746645890813512
1.0181780823103284
1.7941378724949304
2.787019547786071
-1.5241171442332175
-0.6906712580063732
-1.5317800086474092
-1.9914663223294178
-2.874853006706774
1.7025921834975164
1.3612427420971913
2.2513824157454425
2.673517249224559
2.5967404543559565
-3.291684538757076
-2.628254467898176
-2.1781132287374274
-1.6904969142646795
-1.0658119866183493
4.759863970155984
3.0631873570449075
0.7948469123545149
-1.0790543859046413
-1.9367088379245532
-1.9962739079607639
-1.0095264801098525
0.794397528673491
1.297473480515967
1.032021184333933
0.3085272902812595
-0.2338917979294915
-0.6393479251007311
-0.2145035452320892
0.10851024222583423
0.20941915841088954
-0.1929279579157363
-0.5281881751672375
-0.37913136892394195
0.09707189582314814
0.5361451930856534
0.9346246344729109
0.6343153663506979
-0.26458042092180434
-0.4613875137979147
-0.7983434113726123
-0.8134467005303199
-0.7257908224061308
0.535283661420157
0.863755709998235
1.2963315058129092
0.34799485441280803
-0.41273522588713957
-0.5428279655580024
-0.4707410045813412
-0.4323015667462006
-0.6177179556757457
1.2592514779076107
0.971527759952584
-0.22183603845794403
-1.1783188053543925
0.1225037015531222
-0.6392625253049525
-0.5645279230126029
0.600879437365635
0.5909057972067694
0.5544397631698278
0.6261045454036364
0.7520186816757485
1.5761576328171245
-2.2256933222076185
-1.997541291326367
-0.9880891568484179
-0.7149229224099417
-1.430661342541835
3.1231947279446213
2.7240541237055744
1.305284400346135
-0.31921180553601675
-1.4211078753650208
-1.638624876626593
-0.8272945628076976
-0.5376747577626119
0.2445462807817157
0.891502108006472
1.0801642306370547
0.3260963046495981
-0.2673320215767901
-0.2304610278170582
-0.3226529096415606
-0.31507128371951637
-0.37613088462234373
0.13042400053869194
0.23307666972749805
0.3318969969615877
0.38062128088313646
0.28211122263386323
-0.09732255673235297
-0.49726509071452957
-0.42633071038445186
-0.5328126682748677
-0.1938780553971246
0.6741918306333037
1.3929315656159726
0.900906604973063
-1.4525398587158866
-1.1001790757975285
-1.0531345657885758
-0.7217139617357986
0.23079542326252295
3.217275838741459
2.276315534011603
0.6831927278941518
-1.7594404796277827
-2.5749529220474696
-3.271783427943473
-1.2782190383037688
1.006865070965824
3.8623908464355106
3.460318611255462
1.5359029897535303
-1.2248619469535662
-3.0788208772535093
-3.4601897226809686
-1.8447789966208996
1.6864006183045483
1.9690596126080833
2.206535640139662
1.2240655317047218
-0.40831686318309995
-1.5566210238416112
-0.4218252453331776
0.20312556468667947
0.07554211746349611
-0.1864165197123793
-0.4426374756043304
-1.0297659695141839
-0.8251065279623687
-0.17258065510336168
1.3471641326463069
0.9378665999738846
2.046741386460755
0.5048575685329594
-0.02858873994383331
-1.1273067368800354
-1.2043232623229765
-1.9215018163944813
-0.45737864403527745
0.13306910145545914
0.8654852658952764
1.3094594143690665
1.0548365912715643
0.4061059787181864
-0.2679872558766568
-0.9280080169706555
-1.0211872100668855
-0.6332938307390333
-0.06067670823782272
0.5884758128586363
1.174229930510621
1.1100517053662844
0.5767897525329072
-0.6246053569176095
-1.3939966861643929
-1.4589850417072434
-1.5467777999274774
-0.0273072738242514
1.5746702397677632
2.4335982979840636
1.6994523011322302
0.048987053895271755
-0.864773592008856
-1.482729755090851
-1.7801087514542218
-1.3367715806657126
1.1192347359557773
0.884095884124475
1.188760045269314
-0.11229072823331758
0.36322458348757364
-0.9345972795072767
0.48973814152019784
-0.6169160692893744
0.1666667454411918
-0.03189147084813331
0.8589888893664112
-0.10254519121907273
-0.2252283664593634
-0.539724905121794
-0.5659867845836769
-0.3046497983167313
0.14150876404960339
0.5205868927895837
0.774054426760682
0.5887983456657293
-0.02468765473026709
-0.9224887450197438
-0.39386444459278264
0.07905571072988567
0.052380413239214475
0.13398141533875801
-0.020567459641800085
-0.12522059210631314
-0.08888347144865898
-0.04467669789271088
0.0215681885609713
0.2496164452686902
0.49747941084711716
0.5558085499997937
0.3879302511215639
-0.20839686593151968
-1.1323696960876588
-1.9293270690470676
-0.9841806119336035
0.6266082162813463
1.8355310572593841
2.675477620845814
1.8130351931562578
-1.4398823617082153
-2.637599281214834
-2.0786794620176976
-1.1134750390227706
0.2710207161032572
2.7827375096994533
1.9093304237161295
0.4140522403867946
-0.5103999016328898
-1.0170642705982789
-1.5313640651886378
-0.4696938669602699
0.41452526061182476
0.2423472277470671
0.7863902894456772
1.2356156813053822
-0.22965941932363726
-1.0410887543538223
-0.6285301496388703
-0.005318275474541048
-0.5688311749501644
0.47783414261732243
0.6908985281402303
0.9550766498894159
-0.12410863019794531
0.006695245511227724
0.10846608797271436
-0.3729845646351653
-1.4359974264893884
-0.4830854447881474
0.06964134947147063
-0.07064421628204436
0.6232331431341059
1.1829201630857549
0.8498134968081661
-0.17178122740519017
-0.3020264054400578
-0.5212161894176494
-0.27640405656021333
-0.5865521428476205
0.031019320425561003
0.20025168331761434
0.09031405086941187
-0.20962415007988483
0.06546703401026312
0.3041284819306291
0.06780675662409082
0.05090124838910231
0.05833510907021388
0.20430451443191963
0.13234915315199974
0.2535969490845588
-0.20347914742265566
-0.5424514705554292
-0.5614150746882869
-0.5424647271409547
-0.4764238490400324
0.6801978857526821
1.3327264978435012
0.9872156227959231
0.4276316164288273
0.14501942058305864
-1.1900687303283122
-2.642248125803296
-1.5533347441614933
1.257787284957211
4.635652494832425
-3.000355626578106
1.2707395218504547
1.8448563207794457
-0.7820681680996711
-5.154649017938616
3.2056047175662337
0.4389748258833703
-1.0516003471981803
-0.23012066829014777
0.9292098652967313
0.8012893169540184
0.08596240944552293
-0.18969815957297853
-0.6420355606310097
-0.08466949272563155
-0.08141192394726436
0.08812502691945034
-0.1569112425224125
-0.10491983816427465
-0.17628365007073782
0.23915546523713352
0.5389146574709242
-0.33199798035596906
-0.1090795223728651
0.18125070024584597
0.6313382703121746
0.6825216367463687
-0.4265761930848223
-0.8026385962879358
-0.848544135372474
-1.04404313946721
-0.5714687204510525
1.8150719104709003
1.6995059031993676
0.7290791009936047
-0.2116087827827779
-0.9658042667494742
-0.8245688929210913
-0.6350979371234939
-0.1316111984347227
0.2904227739840993
0.15422585219409551
0.04779460667928665
0.35488056662248385
-0.21040893523472415
0.14978959361847105
0.7002136608452346
0.792150202169645
-0.0787403275752764
0.01645065603941177
-0.8591964279456213
-1.2250759946285263
-1.5499931295736427
-0.49333178671590006
0.3767159616016261
1.6135081540963192
2.121785111187134
1.6475021347889653
1.574624135825352
-2.159185930214945
-2.2608660139493972
-2.0630743032393393
-0.766115174911686
-0.9950862165841633
2.3183602567932264
1.7659245741541196
0.6683686364057949
-0.07809135158918239
0.3273604958162167
0.4123478519631704
0.530736130473538
-1.9928285637134464
-0.9146871904765389
-0.9638598323916907
-0.6078283910617911
-0.7042811374183643
2.5780301438795235
1.6111839239266073
0.9858932660484273
-0.14125771936416132
-0.8163515079818584
-1.1918333168073274
-1.007590781214778
-0.694438034537694
0.27015884720281436
0.9486716737709334
0.8897208335247874
0.4631147738423182
-0.18993166473694406
-0.5791527116634526
-0.6642764664175439
-0.24454604084823073
0.24840721574841212
0.5503644492242488
0.5631362482213846
0.3627850308416955
-0.1754324528788408
-0.5381564145167499
-0.73435377229291
-0.8736626220890756
-0.17757338848235782
0.5738949957123521
1.1736547393346362
1.5233667048620978
-0.19899251836530368
-1.1254669083810789
-0.6453404683586443
-0.3373592034312815
-0.11414829265523517
0.8042946646632956
0.08555776428345986
-1.1448476302395574
-0.5488004370716092
0.17210135035087915
2.0297565689243804
2.3285128242123254
-0.10885756681985241
-1.8626303362909924
-2.2090284853312956
-2.0331203104541795
-0.40999001518512695
3.1268206254490867
1.6528378581487497
-0.49087310561448433
-0.39901958872304927
1.1677190022181339
0.023734380835916235
-1.347680706324848
0.3250009476215718
-0.3843591558775821
-1.7192542617430535
-1.1136920034121593
2.1763404132058457
1.3973691574546672
0.4097171873167767
-0.5810982521394025
-0.6548725484790757
-0.37293561737238023
0.043253691539155655
0.3355699980131313
0.22790569909604166
0.04078248496679313
-0.29551214430363
-0.22926867507710588
0.019770634105254228
0.059681291424433215
-0.08292491652183968
0.021947931954865437
0.19154794524382712
0.21886784828976974
0.2707983651010674
0.09879197537036688
-0.13924978674109673
-0.45242149712244356
-0.5963810319877515
-0.47033137279409404
0.06231294118984613
0.5332249287721178
1.2231399597600183
1.7314366975437967
-1.821931444822177
-0.9607959648999335
-0.40078872218324774
-0.4073350221814584
-0.5823842732340032
2.5195583742417127
0.7624310834066622
-0.39117625068499245
-0.8776333390016767
-1.2135727954270776
-0.6813693358562386
0.26165634900753887
1.146440310387643
1.2434009630668013
0.5279095855423609
-0.31895012999220035
-0.8714536560353447
-1.0996879423814092
-0.9178798585064027
0.23527926945071942
0.9772637603945602
1.1367596043235701
0.5092738354254647
-0.16271275813905822
-0.7762310482742517
-0.6307078218229848
-0.5883325326070897
0.14808825242347917
0.4308768814301667
0.5418052746911527
0.1591799791609182
0.13261598031575605
-0.32599703964065924
-0.23560780086527003
-0.029743809430217278
0.06109143665222117
0.022781187111779986
0.06472924898191458
0.02108561300026419
-0.05320985220309408
-0.29151813546372446
-0.23019627681595628
-0.028519718234363358
0.30942547597614956
0.5182319182690619
0.6701035333446949
0.3975373140527553
-0.2596332720285952
-0.9941775476378603
-1.5808626361596918
-0.6610841654287192
0.22114039589353104
1.1369636501989797
1.6730136636384791
1.4560179700657105
0.13755428147527315
-0.949416019627308
-1.682402896650179
-1.6339732613297568
-0.3975803117317183
0.41501243634272855
1.1056633954156458
1.1810670834651837
0.8467673073331811
-0.25849162672916
-0.6706430691792171
-0.4560478626024788
0.06403045585230056
0.3966096352776151
0.3501029408890281
-1.11385710609297
-0.6587933216782322
-0.39033123299295264
0.08483495578660623
0.16621223863243367
1.5551891297468683
0.9699217832536358
0.30798680633075964
-0.7289303043929488
-0.5555716992293693
-0.395001358362775
-0.5755321016830228
-0.4612355682365899
-0.03169887751748946
0.28832141530144245
0.36205674263728643
0.4582368243643337
0.37667557100063576
0.2010829101783507
0.08903083279970316
-0.10181035192025438
-0.3616163805434398
-0.4671903317086393
-0.329748669786947
-0.16625479613920868
0.09900432102341272
0.20547079049431038
0.3109056158175213
0.34440586670530715
0.1718175820339602
-0.01752722788768148
-0.10105498989282964
-0.1954408396267504
-0.22110119103976633
-0.069408405875852
0.018870858621001445
-0.14055900466477717
-0.08562801703075108
-0.13086755435636693
0.0025713252669499562
0.5582144302546137
0.9272276311921285
1.052599939229496
-1.9424895072947534
-1.111513034423786
-0.4472565281488518
0.32933825703968933
0.9484237921019728
1.9521699113306603
-0.13935444631018962
-1.4412116490133324
-1.6984970700166562
-1.4823522488630716
1.794915776759681
3.248127714876967
0.09750857196434344
1.289092382166603
-2.8324020752962995
-2.423635532531864
-1.8655409388070892
2.0460159513990437
0.03005354619041396
2.8002934877925307
0.9489097291623608
-0.11647057013509136
-0.9609829546073865
-1.2490333886187628
-0.646335672257934
-0.33861426654734733
0.2062200415843106
0.4276916614286029
0.6282347677825033
0.31774631144324234
0.169117577015159
-0.20215176130954812
-0.23245997793416776
0.014039873511245702
-0.12309736548946158
-0.2726328124395535
-0.014910247098639228
-0.08030113177745411
0.03722220632735131
0.05520972863428978
0.2731881444973152
-0.05376247459326607
0.2687404919894738
0.17294212668113312
-0.056573509061700035
-0.15543112808671503
-0.0457951006451403
-0.4056761726250612
-0.4503326866594833
0.26814288344730447
0.6424752939379516
-0.6214198133036862
-0.040273409997281455
0.41551300745007275
0.503193301916847
-0.09226483867649497
0.4646157952156268
0.0038751457322697917
-0.3935698565825432
-0.9431092696500196
-1.1260182277418092
0.3032788339883615
0.6688680665327363
0.6970434583656546
0.6376070156663476
0.6094183690647142
-0.6137784486729079
-0.7776043119110229
-0.2958994521880602
0.00569474759852002
0.5357758617636553
0.36684474588393906
-0.35019450578757305
-0.7847964887212107
-0.44021466183870867
0.2159949164381673
0.7073706511935965
0.7017807388945393
0.3798018162783216
0.03201981859342721
-0.7124127360120249
-0.6368341375853827
-0.08652207601356014
0.06584831029965692
0.029647312870112835
0.08179656229910189
0.1364229599558151
0.10905493632217285
0.08490009976577122
0.09833769783495659
0.12767941024016588
0.10596055296454247
-0.05475855957076483
-0.031269835364819996
-0.2576597377175802
-0.7041188356269624
-0.274885588038236
0.17054814388559364
0.5769837495494461
0.4465848135918421
0.602749907984539
-0.020953729961699658
-0.3621910849658432
-0.588806386999619
-0.25099547496403296
-0.043718218975756916
-0.19064543668172093
0.1481933464962754
0.25116892776072497
0.4033745489585235
0.2707942360937488
0.28965807070114363
-0.32614674198454663
-0.764787036637647
-0.3947239471476881
0.046353525903512945
0.4457771176583726
0.4968788087261227
0.4773903103415581
-0.36401506514808013
-0.6090199273216444
-0.46326855120396543
0.24917579065020112
0.4851868122204117
0.3778556464746988
0.03500190204671797
-0.25299378798864747
-0.3960844044503666
0.5157481524164168
-1.1721155384220865
0.32564874989963627
0.6269179722949967
0.3670191756737627
-0.816303713524903
0.9089420616694069
-0.23020014255278165
-0.40454783770039765
-0.37497365895119744
-0.09022409781546233
0.3055419782920155
0.2567106459478686
0.1782438670172581
0.044077653242151786
-0.012560578405884098
-0.08635387466146897
-0.0784841576336061
-0.07280754323222961
-0.11596613418178091
-0.20636901762568216
0.305363544051649
-0.2953562485148427
0.09253032149821461
0.1611306261885211
0.17002667471828797
-0.2710918207503234
0.39051270756741646
0.056043441786148375
-0.006957115685108544
0.06334791718962877
-0.043943716700974654
-0.18212033793120516
-0.5282213372832382
-0.5847392190883071
-0.20670438907573946
0.3483420276882854
0.760279943566036
0.9978154547373638
0.9046462124490121
0.23497708989456756
-1.0648810128978425
-1.7528294216956088
-0.80307829897214
-0.37013934271142096
0.3778690238183449
1.1663518450833412
1.2940277029486544
0.325523165698607
0.4278820467137349
-1.438747771391733
-1.2883624565518312
-0.2592757921669763
1.2306946092293705
-0.08243514230123551
1.12328812049058
1.6030323002082318
-0.3838778100163431
-2.5890335966477225
-1.9057738708488936
-0.3545604756113869
-0.14846479396065188
1.7685900088026407
1.9533551727969753
3.325131364033875
-1.6906114317330594
-1.9196057459593652
-1.7231990849634424
0.13581512506657184
-0.8060801005631862
1.52897580766217
0.9494202730746358
0.3543376576545109
-1.111803174265336
-1.4987019041277738
0.7137657194281299
0.7788440264202756
0.850800864744518
0.3725772221746065
0.29715431878651705
-0.6562823313998055
-0.9268313226745076
-1.2435644654970428
-0.19091307320752293
0.5780453371253618
0.8859433964674759
0.7562130791011736
0.34825091955806614
-0.07549731075055648
-0.5447276473218864
-0.7488701295348205
-0.1959395873904704
0.2197112718182363
0.23192661771796444
0.20122837175332547
0.10519397646125637
-0.07111840424581244
-0.14027537551095787
-0.11285254438280072
0.004934114895396304
0.2146478804380172
0.33003422842625474
-0.016691614478959522
-0.36706174605807496
-0.43064538741487396
-0.0873977160860951
0.19717224866782287
-0.25566279790324564
0.22846337196852837
0.6479904293554256
0.5128065093454498
0.057015301090728526
0.07898139234721312
-0.5997487550821402
-0.8745508364720465
-1.1187191994772498
-0.18241336615004997
1.1672774161490542
2.1803524212646073
-0.33990116523404973
-0.47273939056587005
-0.9794746647750426
-0.47850495262464093
0.18350396933096985
0.7496037499547973
0.15763982624640582
-0.06100364328593568
-0.3824149276206674
-0.889838101007892
0.525003067270043
0.9577914721464984
0.4893499922835138
-0.4071996726283749
-0.847132320176478
-0.3095533171152606
-0.02017831551510423
0.24928823726530086
0.3653339077709812
0.2088175731118913
0.053987351358710196
-0.04219631669746648
-0.03898678866800323
-0.10292327486235048
-0.1978268576500946
-0.280766041254988
-0.3091232248244724
-0.059991878166595056
0.24253154868719434
0.7028481573733645
0.9470315950779274
0.747252510085478
-0.11819599652094419
-1.3810660764535414
-2.0043452251359706
-0.9453261696643421
0.011910811041895952
1.153351689093825
2.0917043481085744
1.0340129813508163
0.1098802401007671
-0.21294404903749697
-0.43122348400078986
-1.0596723642623818
-0.28019896438241804
-0.8296474171385765
-0.9558789410239112
-0.45347358671704363
0.8306170630172536
2.051587712215512
1.6257794849506493
-0.46210882974246953
-1.0790866018623901
-0.6962332963292156
-0.10143131211084781
0.2942523174686043
-0.4669788485471457
0.3595274224848854
0.041610601893597644
-0.8348063728303812
-0.5926153153047191
1.6941119650330092
0.5532174983725582
-0.12222090927221212
-0.488580565069604
-0.3433242170393923
-0.1033020807400075
0.017250828363984737
0.02029181342657577
0.1270644728148506
-0.026622014817077228
0.20142277751504578
0.05194121398306547
-0.041149965945797416
-0.25382473653755344
-0.17481373028582953
-0.21090359641840087
0.2045630007596348
0.4030325525385331
0.47862566330459305
0.29988674482628663
-0.06148098441291556
-0.689988608447464
-0.7874701241250042
-0.4534028710917873
0.10241925638568818
0.5134680775976018
0.38867120697705865
0.4444677140877477
0.25828613818492496
-0.14221852100395488
-0.2504089632310466
0.38186880815503327
0.42907358800481926
0.08490735605639045
-0.05314696209385828
-1.7286470112997294
-2.2251484986794057
-1.0401365034025634
0.563991814624906
2.762642364965746
5.789418516608692
-0.3504866204881422
-1.4256153205898525
-1.993296086336201
-3.1558713175344244
-3.9563410957362763
2.3087090947731377
2.436521008527215
2.366215636356906
0.6055728681059801
-0.4905114483086635
-0.3550789581975557
-0.566175644456952
-1.1610844556602493
-0.34812470198066764
0.1536250851067435
0.3336227003790146
0.272323342133093
0.10192920501444992
0.16289297068699865
0.16967471309385235
0.19305116241095366
0.060303693718693645
-0.23069434298868088
-0.4920071469738064
-0.5319211066363948
-0.35686497677727735
0.007507557168576021
0.6828567324228958
1.1095082122790234
1.2448612573044728
0.6059614676542108
-0.8433581890114077
-2.1840255588819013
-1.655010992591766
-1.4345675477701794
-0.11566315684355187
1.935916027649522
3.792061215918219
1.8151306730376253
0.41723383565915473
-1.6518155581433156
-2.9221843174533526
-2.8041576908498036
-0.8543511894781636
0.8403489701598571
2.1640133319029844
2.211374991383724
1.3422780110885024
2.114289834061776
-3.8833135775104854
-2.119558904574952
-0.5954835316121915
0.0360642735479459
-1.5289664166897197
3.683250722783454
1.4224275921465024
0.3327238842692451
-0.6696238065254679
-0.3520980882698173
-1.4797007423741075
-0.7279754297482447
-0.43300757812515067
0.2017675048069154
0.24559563306013749
1.9512187578526106
0.4705737128076262
-0.39413481469643563
-0.3893922108629171
-0.16511913035466813
-0.605290796283786
0.4424109449819244
-0.3798620236578441
-0.3132714956563431
-0.2853173469635793
0.05945489421084774
0.10890039178606882
1.2266804270476168
0.5069755513904127
-0.24476183324734047
-0.7002593110509383
-0.5745407501936015
-0.18677819688694403
0.16830402777309617
0.4318787714136031
0.37902581062345886
0.012195261767498697
-0.24272542081128362
-0.33660494120426154
-0.3978708086498646
0.06058918639933634
0.5267950154899208
0.6717740262164734
-0.06347213784979953
-0.4702251553130479
-0.5647920398377291
-0.3795848442432737
0.03925300419044828
1.026211242118814
0.6903751126071963
0.12089458378749297
-0.38900279336617954
-0.9043987863387696
-1.2136835378760105
0.3852165633010132
1.0678795151145726
-0.15840697804104592
0.29634044736330184
0.5675519998093604
-0.07767376673523661
-0.6291252864147523
0.4964076030791831
-0.1086274365306622
-0.6134845510635425
-1.1393300963807782
-0.37701832201004176
1.1674208650332643
0.9123983431689752
0.7500034481370953
0.6306465959361565
-0.20360871819031556
-1.5442915807921715
-0.9260558533883924
-0.3534431850077004
0.3301768641269446
0.6256027061778714
0.5262537707655333
0.2555861143977827
0.014907129285604179
-0.2469028598887454
-0.24141842569854435
-0.13343392654198116
0.0728277391051443
0.14796289111649658
0.04995986135275918
0.1355303393029798
-0.029322373781141962
-0.2608350506851054
-0.35454428253622305
-0.0919231550583509
-0.0585143125299075
0.12928285272999168
0.39713775583407296
0.5974683755689423
0.5176230195309899
0.1179300631954162
-0.2040800717917763
-1.3389558587522739
-0.604647709622174
-0.7247588938235762
0.33999710465478544
0.7112200593247728
1.4852840441050041
-0.5698967161299096
-0.0865215086987992
-0.1232104493964075
0.8538325158722372
-0.17329540772816576
-0.8923865255937103
0.03312508959747835
3.455327168344388
-5.386132703264761
-1.0278149701735877
3.0022936321254394
0.3133824271926649
-4.659921558123657
5.222679298994437
4.916237065423757
-5.4396975953035325
-0.6772138528594241
1.6996347652643615
-1.5728375488658841
-4.03572502694483
4.7209117241756084
0.6325598241046918
-1.299114067328964
-0.07173737340698201
0.2650124864295663
-0.4256823692354668
0.41437369425299914
1.039734812769953
0.6257041070765074
-1.0840413128211361
-0.9159504119765288
-0.6108758632086541
-0.3961226543437704
0.20270322989002493
1.1155500975071533
1.0684974084030014
0.3375581688434302
-0.46538026742289096
-0.7726240398357106
-0.6220672505591609
-0.4230354987014698
0.055100203003101846
0.4664862096083733
0.4536395588113531
0.4113126740356017
0.2672792065069848
0.09083407194876654
-0.07095479627311112
-0.33962450336385946
-0.5519186697121575
-0.6264925817294528
-0.7670109193239775
-0.3082928091184362
0.6023848143562792
1.512864696645361
2.798099901100738
-0.5492881428604999
-0.6550933258004624
-2.0435420003233644
-0.9068407449306936
-2.4174956553993328
1.8811026370641413
1.6042525775185383
1.4071830749024763
-0.935318065690191
-0.41351599468433614
-0.6177280727659797
0.4712189550595723
2.9263925025184805
-2.0522773702777193
-0.4442178863732575
-0.11174569416923379
-1.129010394765627
-2.7629890993628323
2.68151549901679
1.163810522525819
0.7895748241383488
0.31628038429233435
-0.08654266733821854
-0.4149957950788139
-0.1621239053556845
-1.0307939386961746
-0.657210908771563
0.03340227601262503
0.8309413765234601
0.21153995275910747
0.29334155727364003
0.19584366858142654
0.014916916147782242
-0.3840400570905202
-0.36020108223794484
-0.08776700250249929
0.04930751271927029
0.25536449623134133
0.11661260645760668
0.19615339847160077
0.03583469324069752
-0.03307507286066232
-0.27264935357768616
-0.12005153438465689
-0.17483862638938022
0.0033061132166456062
0.08523546579690937
0.15431666847699785
0.085496791138637
0.12787629541295176
0.09570003905989953
-0.030212817981084692
-0.09185380413136573
-0.13825885917663971
-0.21011376551737296
-0.1298605970164298
0.09991391454775167
0.2906412942534651
0.2586809184830792
0.018373963912459306
-0.21935827279788053
-0.24363079240874108
-0.23974096687434915
0.010398549021562559
0.32184072411958675
0.2970626176392133
0.11915627287666557
-0.04713657010143574
-0.24560513971861317
-0.31399571236317836
-0.07141194840257355
0.08666995784353833
0.18416922310308123
0.05380344670641327
0.12535840412967325
0.017547375621279792
-0.064249739068872
-0.12487076523919748
0.02665844445573051
-0.01694265204180054
-0.057657733208775944
-0.09200577860605894
0.08596839436574591
0.07985500273276049
0.08641166114783048
0.0939638538120059
0.0853174147433376
-0.15507880804910334
-0.23225596327051726
-0.13424555652516104
-0.03187017765902584
0.11375574033888881
0.13818835685546577
0.2601364672378471
0.07314312663932036
-0.05383500201426018
-0.16696136782102516
-0.11288867822959082
-0.12463757628672958
-0.013075527482180977
0.03343812973716842
0.041775289833669245
0.04208764336869119
0.055258193364849904
0.08369832918731461
0.10843968865431197
0.09393142133220461
-4.874649792827535e-05
-0.2023206641729089
-0.31519285474115605
-0.10633743316380333
-0.11216377880797819
0.14676544102315364
0.34271618111890234
0.31830303921239705
0.07316237135251527
-0.03495309959371088
-0.2752550416825841
-0.32138345834826626
-0.030111649491171583
-0.02875403109860256
0.08564384814855122
0.1371807001829279
0.1571156175736551
-0.029269163242226243
-0.01080891731396647
0.007949973605340705
0.010900576882103311
-0.021889752858139825
-0.10547356337448187
-0.042913906435161416
-0.021876370087691683
-0.01601880331255312
0.009140171715461652
0.08755271122026179
0.043716234601610005
0.08616051161881348
0.005334185310716883
-0.023469978256757455
-0.03310391019543329
-0.0556997719585059
-0.11472201300227199
-0.020351446541710252
0.030528417073852596
0.050085893662409904
0.052882325125868365
0.049405876742950536
0.04215254336451749
0.02556877137197519
-0.010223559524660612
-0.07336069559766209
-0.16426598071884466
-0.07245799289355594
0.022038901093695773
0.14278630379094098
0.10884701765859225
0.12810659459492363
-0.0049558152819174275
-0.10615879520559152
-0.19495115528488785
-0.08773615963173212
0.005394513488506102
0.0791321381483376
0.1280506575150798
0.1417783021203718
0.10388339872782613
-0.003582834642444766
-0.19083463300730122
-0.2502213592800274
-0.1505061960831534
-0.039810092442069345
0.14197592440904525
0.2449167309343768
0.29171217910967945
0.06846049438803194
-0.07230124526751884
-0.19705540071527114
-0.17071964095522316
-0.23770351966466108
-0.011209073670337513
0.12628996121388197
0.21299970729628667
0.0932174891194699
0.004069896256589526
-0.03236000117208513
-0.010516546944665492
-0.1380450916550822
-0.030379290682340594
0.09430793963066737
0.01849391451689282
-0.07301449787756759
0.007482404395250166
0.050616788481489136
0.0499151263114356
0.0020764741121219576
-0.09226554700109169
-0.02765669102538881
0.006420449860970878
0.024567535086020952
0.0433962526776203
0.07912185768185097
-0.0543561749104381
-0.14664177603054548
0.008198908645154194
0.010205873621380224
0.051641041331593286
0.11584618885738603
0.17870442809201148
0.014034371723522234
-0.1975660759313925
-0.25936405603511964
-0.153245482940509
-0.04258527687353191
0.11600201922966062
0.3557118038554596
0.28437235249410964
0.07821164062895757
-0.11168531682728478
-0.34214552451089547
-0.25689277262283594
-0.07051117950917
0.03625953725932888
0.10868102643116077
0.20153106400909462
0.1607235383799505
0.009586578249625425
-0.0562652704028428
-0.06514819973630698
-0.0593019785125482
-0.08267176619863469
0.02989626174823423
0.05982419529784023
0.007661894844284646
-0.10803467718802771
-0.055212366672006935
0.0043809261927016275
0.10613615098248395
0.0737022590659082
0.11288141269988324
0.010496376822568423
-0.06113613838992952
-0.13556200589168535
-0.04239247510576218
0.0003311447980211288
-0.010632898125688718
-0.06538720172264174
0.05366370189133641
0.16475230081382708
0.08070299400737116
0.006212621018264726
-0.06062820304312866
-0.12373240145925371
-0.18414580920178428
-0.03791508431528127
0.12185683815078761
0.2999495017429359
0.0943272472224878
-0.1046959442233993
-0.11025118691502438
-0.13178215862231804
-0.16910405686557295
-0.011282704357526317
0.15858049436967087
0.15475770891297763
0.18081238962942991
0.026371753745489373
-0.12918223505684545
-0.10747197422659625
-0.12048182090171422
-0.1634309284402882
-0.014608884609760992
0.15732321488306958
0.18126925532527502
0.07169951143834366
0.02155212128338416
0.00277351466768057
-0.025778341143860007
-0.10586093392583273
-0.06688406465245654
-0.11653005560491905
-0.03790429268058046
0.005805149044283859
0.06051230404796903
0.16765144568296536
0.15226314944625263
0.016724327719500002
-0.05791689465576947
-0.10393360811638512
-0.15566534101850676
-0.03936544394931799
0.032483878329768984
0.06128047721448424
0.058062795545845765
0.03749120577686702
0.012596335216988297
-0.008158806016976846
-0.021234908073906756
-0.026527215159249155
-0.025244052221277843
-0.018310193359580524
-0.006007046725890313
0.011072644408303972
0.03029662787944262
0.045450059501970175
0.04639993301916065
0.020610278760481715
-0.043638716577719616
-0.15344203283470045
-0.10864606431054762
0.09805801014877354
0.07815626487326115
0.24310406501457524
0.0014854286691894736
