0
7.784696110049979e-05
0.16768386248078926
0.11788593669182108
0.03355750395984167
-0.09933737306425759
-0.08770270234879943
-0.1275738961875681
-0.0031106453070315595
0.11034507194808359
0.03978533280941113
0.006873284718903252
0.021738151703093046
0.08013106982954697
-0.03532676785679245
0.04981779355533926
-0.09081790038545934
-0.07685369200980392
-0.11567067834718862
-0.000929095407972311
0.0844523740678042
0.1622364464140505
0.052455437929106966
-0.030666560644847064
-0.07928817020083542
-0.08989891137265457
-0.060802922116546775
0.008869605697978568
0.11798552260386128
0.06105599557402621
0.026607800702937754
-0.0021472882672790863
-0.044065207624633444
-0.11540265785544493
-0.025678028064887257
0.02421799594694134
0.04102592601615637
0.03592391621721462
0.020647169027226926
0.0044048006159348166
-0.007569841942870916
-0.0137988990414024
-0.015222570594681272
-0.013538158064002213
-0.009930588838236918
-0.004621250764980626
0.002711170326227183
0.011936136752433582
0.021450007758752335
0.02775557313098183
0.02613224486913737
0.012510871479991236
-0.013908302511297795
-0.04840328801840812
-0.08044765493127704
-0.09706192593443934
-0.09083404059303561
-0.0722102497473793
0.11645204010274608
0.18989839705660747
0.41853110921557823
0.44270941689180665
0.30565285790328584
-0.2990291935902992
-1.3781233240160595
-1.2079574064421024
-0.3412372306161545
0.7416164349448127
1.7509581967220398
1.1092449259397166
2.9119104397243
-3.652454166911241
-2.4346034786456876
-1.0507399396676504
1.351791663878565
-0.5316559944704576
3.3673089196165673
0.8186644514238153
-0.7390215690108701
-1.3765076591666079
-1.4106177038798269
0.46765160732904976
0.644418504120447
0.20285871914728903
0.11852477561403117
-0.15736341871159593
-0.3181878505588867
-0.023559082093331265
0.07713697762386117
0.12004554826301703
0.20468697442223688
0.1796577541856963
0.04051141527137369
-0.059110069374075536
-0.1861604521794103
-0.20310613517133036
-0.14666474487967565
-0.01642359765329895
0.024217618175990958
0.23655620461398674
0.08948985367985117
0.042724869991494704
-0.06516007648859287
-0.021952615506135708
-0.041030460779384006
0.04346550925254012
-0.016488587834497585
-0.07533404629822439
0.01315683449921782
0.00202244575581098
0.056218680650690064
0.1570812558597534
0.10657629512656089
-0.06910655561347899
-0.31889874695672005
-0.3733285539665714
-0.3625415618040148
-0.0471469788720559
0.34340388394782956
0.8780084923670184
0.9148288919541754
0.5322183280648068
0.005130924608369186
-0.6851094111916687
-1.3378511243596998
-1.6576447631993327
-1.0535911119334191
-0.13165759740963734
0.9328299727441418
2.58787762933999
2.928807650689209
0.616818514606636
-1.2749680106589578
-1.9033670089698045
-2.444414650524318
-1.5071448826909344
0.7681320439332766
1.7083467412174833
1.4281659222184448
0.5227919650803705
-0.41957636209118376
-0.6618180895046817
-0.3213561739825658
-0.15132070956810761
0.08139100392635919
0.009853798192495338
0.07025397461229681
0.09754464676882708
0.11847345477051692
-0.053831618215998876
-0.021346963063226827
0.0016059472970482878
-0.005854385247887538
-0.06419418890693107
0.012971725834859617
0.023480114975179982
-0.021387452171153454
-0.0978139910324304
0.02679763983980562
-0.0123287909166188
0.015184955913190181
0.12789110252672695
0.12821653261936608
0.0026276642579059475
-0.07333383491763924
-0.12674724185783387
-0.17901474849155938
-0.041089844256859104
0.08581868064133738
0.20484769483575288
0.11660284891786514
0.014702291791872686
-0.11390194051564513
-0.0842557478296482
-0.10710995177117306
0.015726229262237924
0.09230625913416035
0.13756953083364828
-0.03239174018350735
-0.20773793450086453
-0.19393874584223347
-0.02310045550092243
0.03294923448521332
-0.14880096854638186
0.4542207916770284
0.8237861445841077
0.7392503376130303
0.6431368981042659
-0.47551522995636286
-3.405807594683834
-2.286160873966352
-0.4570938880629251
1.59742681825974
5.058216895145583
2.8035701130199264
-0.8579692842600852
-2.1222935485161236
-2.724305104091582
-3.9526480883919577
0.6720406882190268
3.213072055173039
2.2452499873938594
0.7544618521983768
-0.32778066739543277
-1.3256003449804543
-1.3691388638568909
-0.5326154033989764
0.0024130745430115284
0.34093965272991505
1.2323292459071145
0.6153476698799017
-0.02379846765776762
-0.46485047448755856
-0.5388277197062042
-0.29851047241243844
0.009409878982032703
0.15954885637150223
0.1485475153514507
0.18653346348909314
0.08706959393981385
0.06173054425051208
-0.0782835984066551
-0.11500541506806543
-0.21529405432418147
-0.12622098209978083
0.022104964548786455
0.10574003915531746
0.19113945486990014
0.11975800609360734
0.09837225052446842
-0.10176587083958534
-0.13722117899049652
-0.07932724972396522
-0.00021702511704142527
0.038448495845908356
-0.007641970779261401
0.03708768274160053
-0.03280934187716804
-0.007226723122077482
-0.0657488817692143
0.01589520002831449
0.05904207106075972
0.07633292956295078
0.06863918056974151
0.025948876541511297
-0.0676902908214928
-0.026644097664158223
-0.0563137124680969
-0.14903800050671506
-0.08578920656298279
-0.04464702584368531
-0.014786090787479984
0.18786842598433037
0.3093052524648776
0.4570400151058197
0.31531423549785637
-0.42476357497662187
-1.2283777910491729
-0.6878862589348069
0.08486966808423492
2.6412145270560154
-1.4362802384867386
0.6373861314725439
0.6362021515265585
-0.47534452637596963
-3.3373367342178284
1.398013864051394
0.4362700060670698
0.9944629603071407
1.3621583438773537
0.8975093099590655
-1.3279953314199817
-1.2466807914851488
-1.5057878238623954
-0.6107875093445476
0.47480373181784524
2.0761642924202635
1.1292289977683798
0.11650066005330316
-0.9565735965536188
-0.9426280388741853
-0.31040825869833544
0.09432872164423377
0.26813835334206976
0.24712314018555792
0.0902391851858677
0.05956046108482356
0.005433525507812262
-0.040304279424203254
-0.0637546379364677
-0.06386492627162364
-0.04613119922144954
-0.017725725518157407
0.014681111001145329
0.044615830696021194
0.06434396649971726
0.06401818179128485
0.03280933996693637
-0.03768300356806835
-0.14885294961510276
-0.09157303833445403
-0.046102644219844606
0.013416701731858388
0.11084924015501448
0.2593527328714395
0.055920479287059066
-0.11801452228116405
-0.08977066360643216
-0.08516365888775967
-0.11902551168818688
0.009938746316036856
0.11850164775383061
0.03336800747872162
-0.016839378796321438
-0.0094246340695596
0.06657426403023518
0.007540077103236584
-0.004357523617080452
0.0021369844727598007
-0.00723089150677592
-0.06599656946678545
-0.0013687987512091245
-0.03049209215631904
0.04070121745600264
0.0160153989204399
-0.09458830164399575
-0.07988722301006963
0.06738977964244991
0.1465669240320146
0.14852814360217786
0.26110439667365065
0.08118463237273285
-0.36896391113585214
-0.6277965380125617
-0.3921304942469762
-0.13348430608726708
0.4670895100873728
0.8759620821393073
0.6732494727998192
0.1455088772658639
-0.28783034318943723
-0.8216844807912285
-0.8060592167078079
-0.3039480244790932
0.11700611012589658
0.35683690044014
0.5320976080332779
0.5224692978276204
0.3362345584160765
0.10788614650938042
-0.07088425221218657
-0.497726124367624
-0.8033035608396978
-0.714270302591454
-0.25261343438272554
0.22390246769890473
1.151478689590097
0.884805509676219
0.44491553693917085
-0.08945400340010137
-0.5442474156424355
-0.9817546212732526
-0.4277665515701219
-0.019381336015373295
0.21246707593157127
0.32655238332620745
0.2332768115178971
0.2515013069855657
0.07428554054256546
-0.048737934304134395
-0.11155112729775345
-0.13907651534620952
-0.16889748459750709
-0.03444524508366577
0.045623552361599304
0.0704171911716628
0.05358604948428666
0.016755233893877345
-0.017634494314217857
-0.03236656150936419
-0.019745763357263545
0.015911483756893854
0.057696108645672414
0.07782811937489369
0.042108006715746465
-0.08305945679650596
-0.12233339303125293
-0.08405078333548917
0.043912143887203936
0.09390925706134597
0.11453018212048154
-0.03548196714078236
-0.09403166182629277
-0.20308178988068795
-0.11748570258475834
0.18454678422443568
0.29129827382379603
0.15193384470602533
0.07997549400627611
-0.03221703730955397
-0.2905063872778719
-0.17411507199269388
-0.11689665505297753
-0.10116627324242551
-0.06651221808398486
0.06875347880883899
0.17994465344108157
0.31117972877616895
0.46283780323320495
0.3982436799830775
0.07064999697981239
-1.1370751320625083
-0.9762944352839237
-0.5196829647232089
0.015240766676553776
1.0088831128437994
1.569449981947107
0.6806138050151446
-0.20747712251655018
-0.7372519487657219
-1.3694373051053101
-0.7068955206029246
0.15314139112673497
0.6237143722666718
0.5954998151481328
0.387212440883401
0.10166147432774668
-0.19807815476617052
-0.289917145183506
-0.17842239103156554
-0.07562589199073234
0.014011236775401519
0.10001981141550965
0.0037469331807963606
-0.049757134064298394
-0.042454456072745644
0.026385303268047385
0.13309609697946526
0.22860893289565837
0.24609255803233931
0.1180413446143739
-0.40005546253775
-0.7069309476346323
-0.3440181406241736
-0.003654473990666725
0.4421339374239861
0.701533739047458
0.627654799605356
0.0032921379373369196
-0.4479073350473008
-0.8300907239741779
-0.43929790589836226
0.06049729207978548
0.44103073365889867
0.49665346851279046
0.42663839146987315
0.025658991606005366
-0.3115696103282377
-0.5752384060343627
-0.5259019905864925
-0.09203636524282795
0.4150741243526148
0.8739364899892466
-0.07433911502220343
0.36057020269725715
-0.07451399179176776
-0.6515930915055678
-0.8309306478793144
0.36137978401919923
0.13822437347682537
0.13841942336383417
0.4040439665579824
0.15945775316527502
0.0006044799103974871
-0.30265138647036366
-0.19441298167490711
-0.11773575096432858
0.0966247709943049
0.03434365126561028
0.09519188568915857
0.08739638951096797
0.022143200516786827
-0.08964272028063516
-0.03796810859709321
-0.013052977053374408
-0.004799820742216889
-0.0034973624290452624
-0.001924063760562254
0.0016796104772669965
0.0006738055262778244
-0.02181953976923244
0.10746891028421436
0.15564657185123268
0.0913329467421599
-0.10419767417134183
-0.2249824846344452
-0.23207726396324435
-0.25410331444822387
0.0005092024865654388
0.42135837203503257
0.470881522531055
0.1657671053167235
-0.12732411889073642
-0.28024385735755586
-0.38170056344344816
-0.11502195727383487
0.05637971830676493
0.29273641534013667
0.17351601090223315
0.09068060308101662
-0.15537158509303517
-0.1556435386815532
-0.09013066104504365
0.07349899685405019
-0.0220625234049683
0.07107153630968362
-0.0005093956865374591
0.20308585535709517
-0.08736498101777204
0.151013865918457
-0.26303367414386697
-0.11128153614058796
-0.3759835866937125
0.1543120091001891
0.27404564189394554
0.5500402218611176
0.1182438098061085
-0.10696954831931077
-0.4118245325688389
-0.4582091538440337
-0.2657507047927362
0.1907198754554134
0.36714064893637544
0.32626170801209764
0.11446465517933686
-0.05153261169641417
-0.18466663770346253
-0.11695557228726043
-0.08468225201312622
-0.11574186609182913
-0.02314808361810986
0.19461802198448921
0.14862743665572295
0.053616664594914556
-0.07556137147808607
-0.02408553159496897
-0.1753625852846981
-0.110070040099273
-0.00838753010623544
0.14420370064513896
0.14968261026293941
0.1926466171734318
0.041455385965413004
-0.14342860023608842
-0.1961608866600366
-0.13233728880020934
-0.14149948195756892
0.01117274694821537
0.17420102269338372
0.1940879216026395
0.10051891014077038
0.09802272626536239
-0.0331189403771167
-0.12770203369000718
-0.22240403246325857
-0.14428953553072743
-0.1058930551736706
0.09125671751514912
0.24687768138748256
0.3515360596129416
0.18216109530104257
-0.09241073424258638
-0.29694566616215645
-0.43303347820392113
-0.26950971164602977
-0.14766234543715046
0.19746990609455684
0.20648749513930317
0.8689656789018111
0.7159130881239829
0.8419625419954792
-1.443630800918048
-1.3539218751418856
-1.1783946952665147
-0.48310233100871414
0.23161577830379784
2.6316641855878617
1.6472834197929918
0.2140192922374765
-0.7153130045161626
-1.49234362530528
-1.4633696254999125
-0.2739080579676614
0.5786165308472533
0.7359508553420405
0.5300240299497081
0.12135976305419637
0.04879667314588369
-0.19754945557579323
-0.1802377790447775
-0.10283651159132971
0.008072666591130944
-0.08012439747494389
0.005891759414764416
0.051299457232590245
0.053928321261734226
0.021745622909843835
-0.031103922878877015
-0.08846545233566065
0.0639527186047586
0.03521076420010103
0.0267120202576503
0.03140329734155042
0.03504164172460926
-0.1807618256555643
-0.034782232732840965
0.05700424142114367
0.08338561249553791
0.03915021039604037
0.12673918788165864
-0.04104748039801661
-0.23813019874665767
-0.22439657906078533
0.05010788622019892
0.03489359540361151
0.16468352276379444
0.24599934743056615
0.2505434512893727
-0.08063438517524248
-0.22227587629118017
-0.24409590543935555
-0.1916549899680533
-0.07604831553225905
0.12423753497623768
0.25105436432006545
0.14967088727746417
0.05413617235817712
-0.020076284523901557
-0.0749180382894684
-0.12248833554872261
-0.1759724983702332
-0.043006332626244634
0.07623591608581508
0.18678347060620576
0.2954544155086708
0.009916856387071947
-0.2580749480323029
-0.28719044206673605
-0.2436319658107458
-0.08551892593397398
0.42459974317149296
0.5036930256333949
0.13680378218334177
-0.12277955841347916
-0.3404838566321707
-0.3801980565227242
-0.08609515839833375
0.12588739980328129
0.2648901868297615
0.15405260381717883
0.01799047696045965
-0.12589929266587063
-0.07050426705833811
-0.01773941809086819
0.024589441828434023
0.04602800192990297
0.03626819584538841
-0.012385658530918536
-0.10291147537094182
-0.03239134208463433
0.007445717553802081
0.02764987934720341
0.03810100813799488
0.043639003269603696
0.041874809753808695
0.023738149912507965
-0.023164097811047828
-0.10939388111045363
-0.03855462048824786
-0.0041307573821153494
0.01049841647101321
0.028907025736230756
0.07646379802753968
-0.025252328792421955
-0.06313924874447642
-0.035681083824860876
0.045724208557493345
0.1574910963979339
0.06724411289227147
-0.05967074619044318
-0.05130407799931154
-0.1202932851020514
-0.2586260896544283
-0.0389866231631557
0.176517407862674
0.22269616210955603
0.11786624751773021
0.056345683009835244
0.010252191802076172
-0.05978140372412685
-0.18883052195825328
-0.19261122045486528
-0.05876251194513703
0.05201619632591558
-0.005095413552128389
0.02331157788375617
0.1701396975334788
0.234037351631325
0.1757984161044817
0.1276068978182079
-0.18619477037758247
-0.4228732737489474
-0.39921621951248865
-0.28332474507523575
-0.0055522734560694035
0.5141668016748226
0.9336226741568132
0.46543202188010996
-0.524279708780154
-0.4943681481569888
-0.4952983899713172
-0.54124951869583
-0.0017769720285890469
0.7834461064923024
0.6751799195574422
-0.0942117921186676
0.06469365339466361
-0.4969588534833536
-0.047301598694159355
-0.25046131000506267
0.25174816862729676
-0.15170767780131134
0.15731957991197107
-0.18290170723177637
0.07296012953574038
0.1637121089493495
0.11088050419738982
0.113745613958057
-0.0483025730870266
-0.2070911125321776
-0.19427207231235183
-0.031944460779429834
0.07118016156512182
0.11751897454274672
0.11472386842714094
0.06995907955847226
-0.012643840853297955
-0.13055547241138335
-0.07896171580813735
-0.04720321633762374
-0.018000489059895073
0.02964717302437495
0.11489563356186865
0.04914129051200655
0.03230103926229053
0.052939777556736345
-0.10768864259846196
-0.06922789999355015
-0.04595041024028303
-0.043091021235455405
-0.057164526851400846
0.11998431220281677
0.09520860266639174
0.06888053638994626
0.03301438509880911
-0.026180932750703177
-0.12216754816889616
-0.06084413636132337
-0.035237991253924274
-0.024409615357536857
0.0027557492399710613
0.07993365299311701
0.03423251598412673
0.0783068781574544
0.006049203145212011
-0.006912417953382152
0.0019152391260270586
-0.00974540062672053
-0.07948413449371555
-0.031992300561287296
-0.07413640581803886
0.005456867731727515
0.03229903052572355
0.038732517197790764
0.05567860756922963
0.10592562697624054
0.00084714605997781
-0.05881983134159884
-0.07904802233951651
-0.06755357066447577
-0.03013251091938728
0.030238275491453376
0.11157856011404944
0.009716349064115589
-0.084450776198865
0.014103208003649769
0.08593194578391529
0.11090310337805505
0.07414723750810026
-0.2267758714210727
-0.17580334594124228
-0.13676914464861262
-0.05905309723705879
0.1094651390846583
0.4058089708696163
0.23802960578129992
-0.019704481332320927
-0.22028456556122025
-0.22761126862269743
-0.0978867392742916
-0.06539498696227324
0.06286530921758761
0.10344994391508153
0.08670062085721658
0.04536515014820486
0.005460601479224228
-0.018521930675766775
-0.02390819036688456
-0.016831603388746157
-0.0076816141735328485
-0.0066750291340796465
-0.02080854444159361
-0.052988267820360146
-0.10367051012435255
0.025269325287910052
0.12567761954417717
0.1796280090951165
0.1601774146343864
0.03829524541873658
-0.20479136449992677
-0.36401434486207723
-0.2020882086081901
-0.05209462774133851
0.16723936802968303
0.32748489188824537
0.26595030182856705
-0.030357063664442917
-0.026398610173382252
-0.02586031179209265
-0.14721152154311537
-0.09574241142151273
0.06168560464590568
-0.08604985901953714
-0.2880733673487167
0.1626887440013762
0.012743910377691002
0.02361414311215117
0.1448495849093929
0.09006798436701291
0.1206703419887112
0.039866669939855395
-0.20301654777507874
-0.3006280994811892
0.22772303312313943
0.05116702725318155
0.04073086142157789
0.08166460447333153
0.0853124039483134
-0.2002173129072106
-0.3831320221218765
-0.028216089292293193
0.13349558667848338
0.18681605051365296
0.21131559954610227
0.06378877577271515
-0.03051945542696019
-0.07643592217678401
-0.09942016787193209
-0.13267220850965247
-0.005408405307202655
0.0646380063472244
0.07370873739800197
0.030583350235464924
-0.047050658365108675
-0.13720211315639722
-0.01878188129267367
0.12278149571307066
0.0904631866891159
0.0729771518285298
0.04638880713517051
-0.0194820956808835
-0.15142744908772807
-0.16329173514932946
-0.05031627003915895
0.009935202411111144
0.04988600731685483
0.1000393965758799
0.17714518495793202
0.07682691485227108
-0.026483256571785584
-0.1720954246637057
-0.0005843481126595165
0.059700039485820366
0.0032234242300271504
-0.14792236279768137
-0.14694348216734635
-0.334184928731832
-0.2574404659772644
0.3031893418974229
1.1148211908311825
1.4884934046399638
-1.0962675505559238
-0.5396391707185012
-0.45958784157429416
-1.5482921300684223
-1.5732398072737268
1.5666057396923627
1.5436067262811692
1.9004166870284542
1.1907184324405722
-1.2078165623164077
-1.4111452560529398
-1.5133010101197337
-1.6892151475614512
0.44312240006659254
1.990356816702457
1.304329934458897
0.49832877547832966
-0.20230629426745722
-1.0598585344390528
-0.5853490236226876
-0.28709712750504224
0.16865212494189136
0.17263390396509537
0.16432330431021466
0.21029302046135895
0.180546635352116
-0.06881031227383737
-0.10307508467119787
-0.10775454311110488
-0.08265022122242542
-0.03560093191402816
0.02131765996738302
0.07268590013011682
0.09922898849581423
0.07825862510449437
-0.013040600907492967
0.0088926189268534
-0.05781503835743889
-0.1936373749255215
-0.15571595784565287
-0.08350898980210533
0.0876474195962297
0.20804626632511208
0.2960855760844308
0.1285019915352364
0.043092979828639084
-0.24581754788500815
-0.22391922670061412
-0.15339816300416423
-0.05717543308615709
0.08448693784248286
0.1249023549168896
-0.06704342730061831
-0.028634154678752657
0.07620239853536036
0.04187605735807153
0.21511517528359403
0.30075958894668026
-0.019530155090559616
-0.2577853570461432
-0.28573197011900064
-0.1055597505161409
-0.03456682228850188
-0.10928112348378947
-0.10967072665594398
0.00045123277930227384
-0.17583582926947994
0.0834494089885862
0.9849705790478471
1.6130570897683945
-0.040269265346081176
-1.609996221504722
-1.2771741525316596
-1.1056581923835878
-0.6274238756048534
1.513498023481952
2.277221861923995
0.5437981759287853
-0.13173549144106816
-0.7063781813523382
-1.188971470890088
-0.7639273341018059
0.2677659849330303
0.310236399724521
0.05604297949530222
0.24443675413773702
0.41307547315132687
0.25937608592669303
0.02161341847583269
-0.11768244113941745
-0.41102561996495424
-0.31834048420565214
-0.0838753648441188
0.07441790960898084
0.16153383664817408
0.19270333209947768
0.1791219505195099
0.11938639897260898
0.0005564220323264539
-0.19182188934057853
-0.2595360453167346
-0.18036324724514255
-0.10580351792905891
0.029442918811293628
0.28858527510508564
0.31109640908084263
0.09669984220345844
0.0015733899886142162
-0.05128487751811671
-0.15088632600263988
-0.17332869941073592
-0.16116456207967328
-0.11353262377848265
0.009875647541161466
0.072153086616065
0.134798750281387
0.23298332551522422
0.15804258076951133
0.05274455394938705
-0.1789077192890862
-0.049893011178978916
-0.0621950965374717
-0.2794235356909595
0.09438935383210546
0.5267834595746572
0.15912869603916635
-0.6007561836940737
-0.6976564753931508
-0.6641654166664196
-0.274317248562548
0.9916033270257082
2.2917819164342568
1.8062764701199971
-0.818309424219951
-1.9651042786161723
-2.119056436524524
-1.7695886173468482
0.009842241222300695
2.2936327690561034
2.378278854038698
0.8569188818039617
-0.25129203796859245
-1.093098930105859
-1.1089967685127742
-0.7366829563684169
-0.13190866643305266
0.2674666323684159
0.3306570804002617
0.39047722013029096
0.38911416336780236
0.23335602056559024
-0.02822562568147879
-0.20351772567990795
-0.3366990338825461
-0.2810213956148068
-0.07618822658466921
0.06211999562197899
0.13931829408776453
0.1699725715222819
0.16410329956900216
0.11858440583885707
0.017545885980718483
-0.15842341653548253
-0.21833171265125723
-0.1484110617909012
-0.1073470696432083
-0.032346458054190515
0.14493626801374299
0.27759325824742304
0.18505407677245883
0.04395814765754883
-0.007918129970665709
-0.055524197087523
-0.18323952230729385
-0.2517917673918085
-0.08265950570608892
-0.05483155946060557
0.08522094430323457
0.20381161698691536
0.1570160603902463
-0.02851478593243525
0.034474053293858976
0.09535708615926917
0.07785365423194769
0.09988602906041007
-0.10389550953543393
-0.5637609660870457
-0.8686869827246818
-0.578407276218041
0.9473784941324539
2.7157000202086907
0.08571793941840798
-0.007369978586100179
-1.1897820827553032
-1.7742653410222788
-2.7151341827158153
0.7706925571209953
1.5086933801168794
2.227553529216472
1.432630671475438
1.1486490667420055
-1.440380536248026
-1.8679512663698172
-1.2271064090765724
-0.6377764331279078
-0.5843297567471241
1.2634783036715778
1.1653909071661903
0.8008752867679638
0.17634745545238262
-0.42322021260843623
-0.23277229020230278
-0.16850444604119974
-0.37321979617326845
-0.3659020096835685
-0.009457894556970643
0.09755846123157737
0.20750189732345903
0.19687096849051589
0.13712105540282765
0.07255638783181785
0.01083386268585984
-0.07304394212268246
-0.022223278025597103
-0.07824300329200796
-0.06192340657676604
-0.16014856077452236
-0.12228968582763035
-0.06783754838811144
0.09600673539543998
0.2511123025817361
0.24622399492087266
0.08271113389775886
-0.08727490516297363
-0.15014572695874018
-0.2118781590802122
0.0231086409678334
0.06979141797781313
0.0743431545101627
0.01973255473903263
-0.0739306836680563
-0.15372961954289613
-0.1430779540428493
0.044462765238674914
0.28846571835839385
0.24601601938245327
0.14213689883618683
-0.030573863289869052
-0.304239325102971
-0.7257095903676595
-0.3520067681291889
0.34413272072644296
0.8618596401311379
0.8648401918339573
0.39366659469148124
-0.2942738138795169
-1.2646435371629419
-0.8475200833724861
-0.40749187473359505
0.23833076952583343
0.15296334270750023
0.5798937689851136
0.2394461280158936
1.0510259931918542
1.1044842806011463
-0.5089524478067489
-0.8131258747948544
-0.835717346326742
-1.10531506310345
-0.9901914675659405
1.103987744472916
1.2836366113527526
0.69031900450225
-0.16890870859893448
-0.05930569041404213
-0.2181606072696795
-0.3261869652864699
-0.26762649550301343
-0.09528805410099818
-0.21138446008090328
0.03200449671197142
0.31576926021184193
0.3278804824579913
0.13885582548009798
-0.01298332993058998
-0.12288081488221476
-0.20977325770322766
-0.10117042644111225
-0.01941390101613059
0.026190808937063128
0.04015170080372789
0.03601438167783587
0.028927115490501618
0.028479569600070486
0.03401952036370615
0.03365417096548711
0.007119004209322022
-0.06828012269695304
-0.010278616593674994
-0.02491339494351542
-0.10243222688545726
-0.01720833804417235
0.06801615475131953
-0.005553264253225593
-0.0019502753531278174
0.10129455544702358
0.10809171517645937
0.003478622051206693
-0.041631959533785366
-0.061962346453782124
-0.08841575832376573
-0.14096306360745553
-0.026440196945437557
0.05798718765771399
0.11725587425873031
0.15023486530740332
0.14505226208971128
0.08078424616718262
-0.06443834668938728
-0.3023264408063693
-0.4265133621745192
-0.2144160256707551
-0.042345581770977386
0.289008445292505
0.7287878881549257
0.7643365751906726
0.23650871992290912
-0.21426391495496028
-0.681109425330151
-1.1257648578816575
-0.7433716073932727
-0.5785956261406585
0.20204902666935237
0.9985890179255531
2.062523038081468
1.6218097805229805
0.27970903787561063
-1.705988452063684
-1.892056460120588
-2.121896899788302
-1.0564392507597014
1.4067410920346
2.8388597157100324
1.5591913208461337
0.3483736452127981
-0.7648897622410479
-1.6439201998646402
-1.3459965060132024
-0.23379741653972896
0.4680716929642983
0.6620169136376832
0.5269364847712564
0.2550314531815018
1.169879282602893e-06
-0.15052099409786707
-0.1774624628940118
-0.1148231544069221
-0.025839365305565198
0.021030149616689798
-0.028739006719424805
-0.003619173039412651
-0.10138146962011246
-0.09143624263662707
0.27707213250575546
-0.13639316821339734
0.12398122396739715
0.10040981981236213
0.015769563472474477
-0.32754301139755043
0.25477011750064216
-0.06700409387755973
-0.1323138675334487
0.013470581885455081
0.12253965415300319
0.1485757497249525
0.052285184300648574
0.009076325263978688
-0.18244386572031576
-0.294719137997212
-0.27282413517421145
-0.04647976278838763
0.6485277930877579
0.24566290678392982
-0.2712790152212651
0.026103476039039054
0.2208394038382251
-0.0257004356094503
0.1590722954174685
0.09501230735522956
-0.6194085810883769
-0.49025268917036174
-0.5354987739139436
-0.32187179455965426
0.3733725143433226
1.292593208341621
2.4461765111883476
-1.6949366218077377
0.0488299824719932
0.8573498764669926
-1.9861008373878166
-3.420470116521136
1.2042498036122091
0.46050799382802177
0.9160297401396953
2.5925649452608135
1.2673559969491228
-0.14112587311976815
-1.295488645895178
-2.3001352553479677
-1.355665224319587
0.13852023726772844
1.0044870294845811
1.2357007182582578
0.7099098702426032
-0.2961632543314643
-0.3647377444642763
-0.561973578891224
-0.03888235695607868
0.17984804318868042
1.0122545854347842
-0.6598257629364558
0.03603537997242372
-0.2072961906972974
-0.2508983493293731
-0.6967051031906721
0.7082388068359556
0.25161511512757495
0.02734564388066334
0.10908742647237606
0.13379858906738987
-0.10164983393566356
-0.2326709978485088
-0.11279399220851404
0.0013093015720968436
0.26152658379666427
-0.1646526691455541
0.30886076544016744
-0.5135048416474186
-0.21276280189431207
0.03665585087814548
0.8557797885971092
-0.34895532316814143
0.41106229930317173
-0.08652041891502739
-0.4601557630982347
-0.5084231616148536
0.19869092917740439
0.11590443600013257
0.10690931497117905
0.22319745178282735
0.0858672023808586
0.0770587986473571
0.1438488071789089
-0.1867809348829345
-0.38690590772000255
-0.10768416656271058
0.03284435431240898
0.05073508614653002
0.18707302555382388
0.0935592988174503
0.018316047246067464
-0.004063915613906175
-0.15683370264739596
-0.040656892018100715
0.12977346304023246
0.13072474409747215
-0.06439894902300716
-0.07797919496417516
-0.12138816578759964
0.009429457205167928
-0.06588190889162275
0.08334354800842618
0.09076104218567731
-0.016062001201183503
-0.023218458880541935
0.06528348863914167
0.02737816608100795
0.026887318966815187
0.020863447285252485
-0.031116424581869136
-0.1579779582052312
-0.17126160475859314
-0.06467260847390617
0.18030365026040496
0.18478765228748298
0.16324338581767095
0.1191678745314363
-0.15198903193484356
-0.2542176987629002
-0.18147703590522193
-0.1130379733616329
-0.017096546651523322
0.33818021705473367
0.37120497642471284
0.07796903814510879
-0.16752890628650766
-0.20332882588152498
-0.2650531516879902
-0.17422675923531997
0.06513158167044222
0.2607475788680035
0.2211306067513577
0.14600210388499815
0.02375332722402797
-0.16231038536947656
-0.22185600216893853
-0.14558465143580088
-0.0997220848301694
-0.03055966291459108
0.12150268251737167
0.2029386690638895
0.22999231388324692
0.18027507418335856
-0.002873457087725459
-0.19379237293229712
-0.26102312427812124
-0.24531345438621086
-0.14720034239563168
0.07135256071003923
0.27231392789328074
0.32005249651265777
0.061336449420245645
-0.08623781775638094
-0.13491086609844816
-0.11877703131821953
-0.08198044219609492
0.13242178014228967
0.09060997434987109
-0.02696709626363245
-0.022941714783491374
-0.08255241499378231
-0.17606567376301513
-0.0649528728002299
0.28847700958414113
0.3102711836502314
-0.39348245552130856
-0.0394106526912128
0.5368352616344854
-0.3103218675626733
-0.023857359313402726
-0.031080953415456202
-0.13401764334098493
-0.5072975428616089
0.29411016211275964
-0.08162176199145905
0.5967882015352426
0.32856409104869494
0.07857409446046683
-0.20888793236861225
-0.38446415926877814
-0.4668024293340749
-0.22662387990031277
0.009980099683965987
0.3388885965339683
0.4442802764966979
0.3673117426771655
0.08974086040096567
-0.0610831064997748
-0.38817911304614516
-0.3915905129194313
-0.13852966554677315
-0.04745876332729407
0.1097453099742196
0.1905659378365667
0.2576333456374643
0.1570169674256217
0.10641417595787504
-0.10388206982805337
-0.29956704448531196
-0.3067642929153101
0.06031099436188446
0.003518350824528635
0.3364820285196774
0.07570288613735303
0.032450306572441814
-0.190900455760046
0.0003043428558121311
-0.20318285394196747
0.18927681093768992
0.1706075834533957
-0.0626457028855137
-0.10917610067438098
-0.16199232334527394
-0.008841548448519808
0.16510208417863664
0.1729560035589256
0.022425435666151117
-0.08529681986780395
-0.1538805483991725
-0.1894493724841125
-3.850703856571073e-05
0.2019735138194306
0.19609813347957333
0.15232123564131148
0.03540989251763625
-0.1845348927366141
-0.31862590540644575
-0.14882894801261853
-0.026399381361349235
0.11852490173218107
0.15855255324192413
0.14795470340049552
0.10594091389145098
0.009646855347244807
-0.0011533261228391769
