0
-0.00017300573394417497
-0.00017300539893029272
-0.00017300603786702567
-0.00017300790118567703
-0.00017301078127762026
-0.00017301384894709184
-0.00017301570126573626
-0.00017301471994942853
-0.00017300974387941256
-0.00017300090667601693
-0.0001729903223547844
-0.00017298219298333698
-0.00017298194979499737
-0.0001729942900225782
-0.00017302043597866072
-0.0001730555157259746
-0.00017308742676655096
-0.00017309860353468008
-0.00017307150309823585
-0.0001729972637768295
-0.0001728851112091384
-0.0001727683102283946
-0.0001727017244318711
-0.0001727473149790695
-0.0001729477246331767
-0.00017329404962389256
-0.00017370030838417984
-0.00017400107651217557
-0.00017398689988787182
-0.00017348196131871077
-0.00017245025041478086
-0.00017109445837648003
-0.00016989463783074693
-0.00016953261320170858
-0.00017067307964936069
-0.00017362608666277775
-0.00017798839259843035
-0.00018242817330199653
-0.000184802391514553
-0.00018274207184717207
-0.00017468863384372034
-0.000161132367065339
-0.0001455600341792466
-0.00013447577450939656
-0.0001359471212402607
-0.00015653661243463906
-0.00019719410448811267
-0.0002495308945969782
-0.00029453345475180336
-0.00030576671432977617
-0.0002580941565240081
-0.000140819484494363
2.866010047894625e-05
0.00019712052204599103
0.00028094445368976684
0.00018968658084681834
-0.0001333186332558564
-0.0006634262171662286
-0.0012596304968107838
-0.001666507489659184
-0.0015736525805180386
-0.0007366703987776187
0.0008642247547959225
0.0028844008602368775
0.004573712040447375
0.004911815562064516
0.002955774365690394
-0.0016480800584824404
-0.008145268202842691
-0.014400287556051442
-0.017150781598716795
-0.012978105093307626
5.0147383675231186e-05
0.020450512389087835
0.0418297956449354
0.05271529519409016
0.03841182914308542
-0.015042077631292922
-0.11571415119718892
-0.06122652965866462
-0.03692368941261156
-0.018184190504329584
0.023183422728494094
0.11014310248485047
0.05199880766103037
0.039232068560622044
0.043646187180954574
0.024292061630094446
-0.06207241351992744
-0.04867008797313388
-0.14805764380668712
-0.14661797036782523
-0.00649767274401659
0.12495211979686308
0.1008862198094457
0.16049946341914093
0.11930430029027386
-0.03268649297854794
-0.12475920352839251
-0.19424898228835671
-0.07497841587723458
0.010268291781739117
0.05120397768079188
0.046354425650473374
0.19728523175950022
0.10429738639745649
-0.03401163099399155
-0.21730072794372887
-0.2387156770115781
-0.08261916076658066
0.07259879121918467
0.24745037646042634
0.4544319904700355
0.29696699017786937
-0.4226385890628598
-0.4888993877998094
-0.46105713854687674
-0.2732730654224246
0.1478369804516196
1.052818769481506
0.6394258370913803
0.03870516631687412
-0.47404360494853914
-0.6473523177838363
-0.8155795476576421
-0.07188118343633723
0.7386579677384527
1.20960573764949
0.16118104724728846
-0.36107706344549034
-0.6746384367509003
-0.8465886481977858
-0.8962007391690661
0.37440368183034844
1.1243926838699776
1.012734185857236
0.7593967057057092
0.15207450827808305
-0.49685011804743995
-1.2604965278415583
-1.107981721127666
-0.6506516072657991
0.05325570733855523
0.6356592576034203
1.120992632979535
1.2318357823628698
0.735376819986034
-0.14691874799349305
-0.8685036530582253
-1.0521911026145572
-1.1904958548174835
-0.790864688912207
0.21208086157210118
0.9806797882607773
1.262509746904978
0.8840165912136028
0.28752248847774836
-0.26841413546604187
-0.4497507524541406
-0.9537890781251933
-0.8166105528780094
-0.35247127442210696
0.05704723192637444
0.3250999572697501
0.7911798662248715
1.150666987273061
0.41031979472644803
-0.31324490335787875
-0.5529829689879211
-0.8274357663839941
-0.981609339605884
-0.15824938249986817
0.5885263470963801
0.643566161757577
0.5661352374442785
0.43633747547306473
0.03176608511068078
-0.3598695776305364
-0.5002928544104583
-0.34950677333986574
-0.2224420620900792
0.03374638823754042
0.2382630667195938
0.2565052679913665
0.17163055753255316
0.05862095639965467
-0.031958073137099696
-0.07840852570090052
-0.0827907656814469
-0.060742111710456334
-0.030830026931505078
-0.006735847733837688
0.006262188349523726
0.010664050283190028
0.01320643838764262
0.020104569514285964
0.03279767843086126
0.0456384428489297
0.04645568912258749
0.02016948159684879
-0.04534366026284513
-0.15298183537658222
-0.09227329670758941
-0.03963834164192595
0.03611810905009419
0.16450059438027534
0.16358054348296933
0.03375930081494749
-0.04232785036853406
-0.0937715715907764
-0.15183982605755733
-0.04081186257336232
0.0275224053699478
0.05438293509906758
0.050413732062225214
0.030199632833842943
0.007175754136460516
-0.009607381418616997
-0.016481998845199
-0.014372055136871904
-0.007032090966007126
0.0009027613896825142
0.005540601158311963
0.004811742481932588
-0.0010244058381192948
-0.009421789312685511
-0.01615442207579172
-0.01652455149771445
-0.0071197808970231
0.012169961399914836
0.036486419794191725
0.055546590323721536
0.05521790643457227
0.021455390742885366
-0.05402620400973461
-0.1681319644723991
-0.10339639754001786
-0.029941378169858722
0.08691064810870494
0.07508501578665835
0.1440179980139929
0.07707954371338567
0.031377071350462124
-0.05416787206561611
-0.04420418508670575
0.01046018841449163
-0.11154403088391374
-0.19274048821516646
-0.17688720197047023
0.020138581971498308
0.09035304045912695
0.30977124897280356
0.3182556063916886
0.31052632110645634
-0.3578836259371753
-0.3520393592816425
-0.3344553558848033
-0.14748624056664866
-0.008076112762208834
0.6851877138259501
0.3393501906174515
-0.04218698934246137
-0.2595965197413103
-0.30825293533841125
-0.36905525610736933
-0.00555443962723412
0.22809505988743176
0.3708595289994466
0.23782390381403806
0.010892386149664021
-0.15810556380833907
-0.13311264125960212
-0.17432068293380976
-0.1209228615054228
0.01808300326128577
0.06280319821589256
0.05248741949576914
0.03059436736268603
0.029562566742106777
0.05939000330271362
0.10291881361051397
0.11933385946600159
0.05576473220188596
-0.1351829114542525
-0.2764495774129678
-0.1522036226008874
-0.10396339056031888
-0.04012257909628439
0.1426144635540411
0.33170180013742456
0.17341782770209296
0.057582766094173794
-0.08319449370035671
-0.16018671446076502
-0.10578549129267914
-0.047711106758401484
0.11428143591617769
0.12600168584438817
-0.01042037536539453
-0.2331865126333891
-0.2261654783449434
-0.23465402996544907
0.1081937930804779
0.34781425669553995
0.37544745593847634
0.20605879335122781
-0.025310954477785114
-0.24703181001713562
-0.2193494447234233
-0.09740306841385524
0.0013234893570427402
0.01828412718944888
-0.038830467290331905
-0.1022890488293392
-0.0617339627583673
0.010563893609926767
0.23119789947105585
0.27968442886678835
-0.01888807593200656
-0.09842118223061276
-0.04292622929433765
0.032955392874952694
0.009394774614210094
0.1880732835571772
-0.08419882197350381
-0.39953072228487624
-0.48587912273643125
-0.2213491619611764
0.13366979036813129
0.6933892240824758
0.9067601461898798
0.3375625684509249
-0.3246601339647452
-0.6246723068291176
-0.6878843088700382
-0.574799402227226
0.13849135104290555
0.5479293254840611
0.5852894306547536
0.17498675356395063
0.0005345815883422426
-0.31031565181253473
-0.18234185402790734
-0.07841979136634883
0.11824497909781254
0.1201990029817272
0.04861300197468174
-0.15684702125901792
-0.1313195043250479
-0.08242038229361091
0.006561882789067785
0.16846779299576461
0.2418606967721272
0.062436243761484655
-0.14066979895472595
-0.14341409434346597
-0.1229498475948697
-0.05524043550550553
0.08312327631554446
0.10890078673687087
0.024416247681028992
0.01142876836130983
0.029464412712159743
0.019975614557020155
0.11628309382677314
0.058128849461168655
0.008521848458018923
-0.23089460057207514
-0.4111507912197772
-0.23936880059782673
0.0026361079117441203
0.2267826678556595
0.502833507283849
0.6311802329000363
0.1366205717345095
-0.11109697111801455
-0.4545605252462985
-0.5982056420584314
-0.5689807180026556
-0.1039901822335755
0.12884447116285674
0.4837282367294907
0.6806513497132306
0.5609520798040647
0.2718761218795125
-0.5137741159500304
-0.5506395109413892
-0.5650956253141928
-0.41251160197486253
-0.06305558939772676
0.580499935030379
0.44216292247134625
0.22634336251593498
0.1829236851380711
-0.10559190555501001
-0.1135000847781828
-0.1442734039897746
-0.0962610800359279
-0.23233175059533676
-0.16168502403239593
-0.03821944670277758
0.024681240125432352
0.1276111967693946
0.3550406891954366
0.351196447276339
0.10983687682707773
-0.2189029645328022
-0.3079994468981154
-0.42840063117648935
-0.23001796105023728
0.06378844183221646
0.44795037248058556
0.5207169354680848
0.2727205193454412
-0.1114821208791191
-0.43844534082931524
-0.48510155102570457
-0.38467642255372964
-0.029743343327365238
0.3048571456639931
0.5262333083285504
0.4886729428825144
0.1743758707171292
-0.1019209679231399
-0.4660380541854071
-0.4460184044523046
-0.3374499748566911
0.015001964216639269
0.21513320755446427
0.4963458372503252
0.2972858045307607
0.04357324099627882
-0.2575780676677383
-0.21047274654171583
-0.21833381534490034
-0.07319154693474611
0.04620561108708989
0.16773946410930396
0.11415176985783014
0.0918798583576074
0.08565938662829015
0.061561128550784563
-0.022092740165952224
-0.1994695379944755
-0.28323785966670684
-0.2578935122374159
-0.08444835992364066
0.2839572694922996
0.4815538540757262
0.5145617205190545
0.16046535289299413
-0.21447809296224163
-0.6253471636884942
-0.6405033962431871
-0.572151912458557
-0.09669134352690169
0.496246220152422
0.8413204793871984
0.8466277334672143
0.6799067190819137
0.20680427560513764
-0.5219846962452084
-0.957479179954231
-1.149595726703941
-1.293385164599977
-0.35118112952571284
0.4457219878737095
1.2400436442266634
1.382876939751677
1.514250746643871
0.9339757209987261
0.07979092299713877
-1.905495265691386
-1.7683434117279646
-1.3675328166832859
-0.9862589968311378
-0.36444747760735624
1.3579183040042833
1.6328539068790024
2.100261654748438
1.4554766535368253
-0.16806061753826154
-1.0981397822596979
-1.944332927299368
-2.0060587723432564
-1.135682596737766
0.7007294168316498
1.5628162215922194
1.8117585188092546
0.5783337346910309
-0.12790743221084364
-0.8461073746334212
-0.8363003607416684
-0.42334617148842674
0.2587239924665233
0.30450283765373615
0.4541809875493954
-0.10406841542487136
-0.33915973133147004
-0.38694159944781564
-0.16628229442697604
0.1974667456525655
0.5452489968877582
0.4624043350868151
0.2727710169275161
-0.14505924849694704
-0.5222525268098771
-0.5570274096136218
-0.281002695090465
-0.04782803732322977
0.2516100299778112
0.35358889049566494
0.3790385791688592
0.19905767666191485
0.019152348953010434
-0.21474278585432124
-0.1931712823141251
-0.2127134665755421
-0.14878369939849512
-0.03940092834601973
0.11721133054245828
0.1532671809129035
0.11572499177993714
0.050541678097719006
-0.008357878920515982
-0.04343824531880912
-0.05198064466898169
-0.04095169761506667
-0.02101295365768778
-0.0017248090134799952
0.011073064613438089
0.015727205013619197
0.013747445243818716
0.008170047002921618
0.002046182181586802
-0.002518033734705461
-0.004673267363056993
-0.004631695293837332
-0.0032121567969077363
-0.0013630459991958005
0.0001801758003852123
0.001045738908775267
0.0012083066137062886
0.0008709747685003351
0.0003201920370652175
-0.00019180643929222595
-0.0005115346529661939
-0.0005963496562972571
-0.0004905353814941263
-0.0002860737739010556
-8.449989916452049e-05
3.173292742262042e-05
1.704462053814048e-05
-0.00012817588811219824
-0.00035554595285098624
-0.0005749923760389828
-0.0006730875284159267
-0.0005464101233014814
-0.000147618638355241
0.0004671426687495346
0.0011103106613664154
0.0014796646514059764
0.0012388072562680777
0.00016037193187291404
-0.0017008526219713898
-0.0038721982953949055
-0.0054536602337611996
-0.005314014682121736
-0.0025180645078333344
0.0030860058442359383
0.01030602482728875
0.01634713208861675
0.017130836517692476
0.008330640293958691
-0.013018804257818935
-0.04683834874497286
-0.08900801105825394
0.06825001761374538
0.03445265050780867
0.018034743010622356
0.023772465418332965
0.051460791794747385
-0.10381382651242549
-0.050244612902937455
0.0023800000267052844
0.0438812219078856
0.06440390705380099
0.05533714675837498
0.011183561259933434
-0.06765591411723387
-0.17236641708491118
-0.08540144107944181
0.016105704308686505
0.1533741290374629
0.13785481377778808
0.1657112368940683
0.018055688738490352
-0.13241559163720915
-0.31101162855192893
-0.1317673752716665
0.0059810025589197985
0.11333284224893922
0.20217194016185064
0.2754829819249375
0.12328024932791037
-0.07293345094556715
-0.3288947442670535
-0.44562458789856957
-0.2046110541399098
0.02468522772708962
0.2662064718235371
0.7159959758367217
0.9308112717139712
-0.36288886952802746
-0.8381750727733946
-0.32593736349056807
-0.5812458020605032
-0.4752750344018516
0.5802286146718822
0.7828894827524955
0.2819580483186724
0.3338846460394996
-0.11382307078291437
-0.20705582392649177
-0.14554864711059398
-0.33340711845113513
-0.3346536368765001
-0.045175082212920825
0.11379058365312386
0.182538718405164
0.23772098383769205
0.16503665936596887
0.03828926430549842
-0.09080235322811242
-0.19246826549682436
-0.05244633337702029
-0.06440267051902601
-0.02510745162735003
0.06631885987488495
0.20626437681844967
-0.015819458087220004
-0.017691489054504232
-0.021414212432711858
-0.04816204433915604
-0.11288076231329898
-0.021024957187253127
0.031289936198073624
0.05381898209238182
0.05688244317175538
0.04639024806072455
0.021053497760889554
-0.02743417409624735
-0.11176582388181837
-0.04541605146114867
-0.039673388534479034
0.09790264249721344
0.1641797427306936
0.1618741258478268
-0.09706943050400119
-0.1867969831041173
-0.26470963686011517
-0.2748464341924225
0.039677704316583094
0.3166170601075733
0.5535040438371908
0.0951156595662001
0.0375440814060775
-0.14907468682690062
-0.18459447387869596
-0.34038192857322197
-0.010275651548045078
-0.10032812851584137
-0.24180087977473463
-0.2264864338538327
-0.05842208789272205
0.3887435721495783
0.9239401117813065
0.8177113728952177
0.22165089894105514
-0.36959574363581543
-0.8278692967047745
-1.3007649376541193
-0.7531965954748975
0.03505963955432323
0.611784166205775
0.9530555437127602
0.9560507000499471
0.3593958859664721
-0.085295360475131
-0.3865899071468595
-0.6457584465324817
-0.5743624839103194
-0.22319126271608555
0.059500445876356306
0.2353062685860477
0.35532022615912356
0.32585901450079185
0.07449818263817778
-0.07404250781646787
-0.20970162201444031
-0.24028680385790993
-0.2926917433855665
0.08246218445773512
0.301617366045641
0.33845555595767396
0.12043961001680137
0.13765799277498889
-0.13490378630369784
-0.4066856816518515
-0.3420341956744018
-0.14222367201844197
0.054171227363585296
0.15237105758960326
0.2705056248509296
0.3072253418404998
0.118091305088464
-0.09285294430310563
-0.1657824632571145
-0.1669572953465774
-0.16750612470809192
-0.026351333023081014
0.01860072726203362
0.15086717342794065
0.17047097278535034
0.0880869036420689
-0.07829532747708919
-0.10330681777286249
-0.15262397489763557
-0.18319064104888003
0.052195786471650185
0.19593352835930683
0.27536803967532714
0.0960584233151016
0.042407686266442056
-0.3140176843352222
-0.20237548015482282
-0.24297803556522082
-0.04566612947168605
0.18254602086724545
0.42450382771990286
0.24235675227570636
0.17723066893600758
-0.037212742736256306
-0.4504213181854257
-0.4691172127946983
-0.24185905936645355
-0.06306839516389338
0.20181511250490222
0.47715757136995246
0.4371928487107057
0.07938301863596015
-0.07972967883612786
-0.1852422367371621
-0.2080453366555625
-0.10344756976722494
0.024923491542893417
-0.05168486661000695
-0.28053444013065915
0.06230196631414127
-0.05292453600761762
0.15591592123845685
0.24619039309584254
0.32016238497183275
0.008234386712424838
-0.13068672039392312
-0.19333769796539838
-0.10679371119334599
-0.0013642218498311205
0.012067848602461712
0.0569575885990407
-0.10244753113391865
-0.062439990101903375
0.012198669124780778
-0.024727156110648768
0.08378076220329453
0.18349933039809244
0.09929694301524962
0.03303796108602729
-0.030238097121109662
-0.11004392187553555
-0.2166618285730996
-0.14131074125060025
-0.05456644620444149
0.08562889246755931
0.11880901685221179
0.265188696639056
0.11377487601945577
0.020412516136627725
-0.0827339278410671
-0.06889824046379192
-0.19535696440410802
-0.0857338899715211
-0.12154071249019935
-0.045794200890438765
0.02193765472567412
0.16308915084624817
0.23673550465342955
0.2625534522915482
0.015774314630380107
-0.16404094486748907
-0.153488731543303
-0.22203384923712277
-0.21294172971177888
0.06575692049799363
0.2387732593095634
0.15255511479477227
0.06142385523785024
0.016102254432641364
-0.14294973183981122
-0.18827486645851488
-0.10700250385096927
0.09635004143557542
0.19577758474891735
0.14099486099965777
0.05976777317997725
0.06795962805821482
-0.11315947513195568
-0.13611364086702232
-0.2088935443770475
-0.08529150978969552
-0.0681905211934114
-0.026625443238280005
-0.023498316819637433
0.25249619125088135
0.45919481111555455
0.18602612279109082
-0.042506967787463226
-0.14488507790450814
-0.24874262525406968
-0.4562882586895659
-0.22053441343129226
0.06004956753721899
0.22777096572265282
0.33941661540998
0.2385319164712323
0.13722221464645837
0.01394142699271371
-0.1728707668413389
-0.26150608367257316
-0.2637376321240434
-0.15116478588775892
-0.05717686300076636
0.10510131837964426
0.2143158088525447
0.31127951310691887
0.17862934465334976
0.13764655736505654
0.06499221139332242
-0.1741478368073203
-0.285556161509405
-0.5104160036644194
-0.20673115800447747
-0.05544619052560981
0.10863581641081171
0.24947632961953028
0.6804801413833377
0.4293872522080145
0.029699769063809896
-0.2577280304056668
-0.40004823245057597
-0.34015050509719785
-0.35450277989533535
-0.2346623708097377
0.10245288705154236
0.38012613846308935
0.3157747746504895
0.37951263391751133
0.3717890679216624
0.02785017332788345
-0.35262458279263814
-0.6615049732914382
-0.3402414759826758
-0.1557789136323152
0.19688755174758066
0.26712014203286594
0.40640651842088243
-0.07444472490383044
0.06343100697208613
-0.02602280220167187
0.13269629746791237
0.1599630734255915
0.05635809882505344
-0.3566815784110825
-0.39967774778677917
-0.31117394073539845
-0.24466836594454033
-0.087903487390072
1.1025470675508373
1.8657794502400367
-1.4843352846094027
-0.8585186539300256
-0.17771436644713787
-0.3625481262722379
-0.9409127752736354
1.9254306367086078
1.2087604861010466
0.19857088485654564
-0.884555420445851
-1.0456988955475863
-0.46176504801935175
-0.24142001830053064
0.38621283891898156
0.8557800363753266
0.8379285149088179
0.017918945626271082
-0.7087257970003651
-0.6266991611589788
-0.591933058676698
-0.4391481901587985
0.38710954219489146
1.3854501901029679
0.7542248176373869
-0.026144469517410757
-0.3726845598929515
-0.5461065261324949
-0.7835413925077913
-0.44241027843138575
0.22624204983200802
0.4698327846860047
0.4002380980628692
0.15013483639282535
0.03572515474620783
-0.06473117357003626
-0.11524631325565711
-0.11375946229702447
-0.07785501986142551
-0.03067224377626182
0.00908049182605808
0.03168550183446916
0.036297748063813695
0.02800518991362664
0.014074594584502047
0.0008798493539670143
-0.007766858949981891
-0.010869496321397453
-0.009525467523153773
-0.005809394203610145
-0.0017576853540436604
0.001262381808713587
0.0027376213989727745
0.0028479483576800842
0.0021331433106874403
0.0011566357863115203
0.00028213356551769393
-0.00039140225324575467
-0.000953878635539789
-0.0015273767548018313
-0.0021075023918592757
-0.002477847324877527
-0.002248810969229201
-0.0010310360346120861
0.0012993321568233393
0.0043407679122925156
0.007046795420431751
0.007879544755116197
0.005306971909934507
-0.001413404457878584
-0.011392042431077162
-0.021591287535838517
-0.02708192169424659
-0.022399649648531212
-0.003985438170563072
0.02683347765803219
0.06142106469938486
0.08339484775361351
0.07140955299349828
0.0055058319734646415
-0.12413750374224959
-0.10883289170619753
-0.11711045161834772
-0.0977907552293607
0.008304129047409528
0.04955378128186848
0.04199358175575453
0.15122682224170708
0.2844588138514707
0.2981550240484037
0.223827166034354
-0.09055708964653063
-0.7324442544916144
-0.6843286051308259
-0.4068954693642435
0.1443279117421609
1.270574126715296
-0.5363212987099353
0.3421235585563121
0.606540604651485
0.02399867856518661
-1.1581658995914539
1.0247439406982948
-0.09535888881275123
-0.5678202842337874
-0.37981090531321077
-0.029313763527030134
0.08005084226558117
0.22276337745308325
0.12050007389511738
0.10674822124218689
0.09641777407940996
0.16664968904997998
-0.04902123178488159
-0.1547964390610799
-0.17973375249445617
-0.16412022695387843
-0.1506716222918285
0.016829358202712225
0.2890842437802246
0.40653782006992
0.3015308736250173
0.11245882258441776
-0.39081860983379685
-0.5785401497034243
-0.5430413406514686
-0.30412764164600997
-0.04341832859664732
0.6385448797248906
1.0600824615731532
0.614467728850568
0.16397589404791954
-0.3216775430993639
-0.6936623737880188
-1.1443302433559175
-0.5488557267977574
-0.04985707983321612
0.5101755388383833
0.9228369226560745
0.9413194559623973
0.22988506761433639
-0.24715424240865042
-0.5971445298769146
-0.7480046676177496
-0.5985152218712848
0.009490363372955474
0.48877603537178554
0.6806662486155716
0.42199502461508626
0.12281316747677565
-0.23509236983284584
-0.48055236485050673
-0.4274791739812289
-0.2557773077435899
0.09101475015055123
0.2896815742013128
0.41003870879367277
0.28854174754373485
0.11418057068637838
-0.16768946944929936
-0.2357316789229901
-0.3657443920406363
-0.20738185401113138
0.02697416967529402
0.15834109723084663
0.2258217823682135
0.26773004211720325
0.10759863995186753
-0.0495460136431535
-0.2103325575990768
-0.18010803279755264
-0.15088296928380224
-0.09637221925307612
0.023024903936922764
0.2468489280085465
0.19800007744052847
0.06964439101114508
0.021013694162026874
-0.0159362111250623
-0.12098154341619971
-0.16598107274635743
0.0031850951664927772
-0.021669550676104262
-0.008270685155660498
-0.09028700687383426
0.018693807229397216
0.006428578369655144
0.14225813160583747
0.060688080836417725
0.15256728085040963
0.16688076780092542
0.023790822159989983
-0.16363791872076602
-0.26489940886371516
-0.31272879635035056
-0.29661683679351564
0.02696803912068254
0.3100848912263871
0.583658036002051
0.4356828387590094
0.20888354025643333
-0.1778681752448037
-0.5905706076703912
-0.8388084058600693
-0.2504689663825047
0.1244535554842589
0.47953749813119934
0.39820445652319236
0.39892351716647406
-0.10323239760585398
-0.20855168826583606
-0.11712251583826513
0.30882016751401664
0.39694559752984604
0.12359683202061217
-0.6295970325137802
-1.0336770343619641
-0.4998485130691665
-0.10777097322455623
0.5260063423264432
0.9558239514135303
1.0186608573021025
0.17820298364018192
-0.28173846901691235
-0.8157297441894052
-0.34498870631463924
-0.18059378776063903
0.036904832552881656
-0.02970364130595072
0.1902466459243598
-0.04241173308233917
-0.00804637197078159
0.03523746237581396
0.2172768086121087
0.22995440583666407
0.11441051815789836
-0.1366536759863977
-0.1635330385330088
-0.21664476434566965
-0.133571507752993
0.877912771396347
-0.952300394075277
-0.1588584101705072
0.1465411341631745
0.2533096976090558
-0.5749417483720874
1.2754988234208364
0.15626943740829488
-0.23660580937743128
-0.23706355921724465
-0.3716835195950662
-0.32386239999293925
-0.1122895690905811
0.1092378112497146
0.03153844368199685
0.15697463356673916
0.36496016218618943
0.4875867420645661
0.10376752916230482
-0.2458293154368349
-0.42871475278383914
-0.4877937920838339
-0.4202651549791514
0.021816543448660006
0.5086504248846812
0.49699559825509393
0.3974995463404858
0.16007375959645156
-0.11522358248348227
-0.34496609009312845
-0.41894308237205147
-0.3626299834578572
-0.11945085336837218
0.040332974554645934
0.08639114106199439
0.3809466517857704
0.4318065975357103
0.2601631863661447
-0.007092045714843016
-0.11858065826130784
-0.25958746986494
-0.40547704813056196
-0.281184327900414
0.06259432188702335
0.2523776800578971
0.17709100232920952
0.16329161959455948
-0.05118990006352811
-0.13976572491675884
-0.20431922353265816
0.011780056241543851
0.11388710543926503
0.2505568159690322
0.11531879512435239
-0.041156665238861107
0.01226363909929537
-0.08103887951737238
-0.03068518878336572
0.13169064480540013
-0.1269883492303342
-0.6371778295677528
-0.3442302235266199
-0.14977340468772493
0.22689069129298148
0.5798274203574871
1.1596781461027401
0.6499529786883478
-0.2104531406561369
-0.9610649911612705
-0.7299608593235986
-0.7505669983056407
-0.31276971006622184
0.6382487324046552
0.4606316980442899
0.5516087587591875
0.28490669845091904
-0.03100412051306764
-0.3659217311483933
0.044384908306254994
-0.27468884733814275
-0.20656576661019774
-0.019892117628011713
0.04388274575777031
0.17178510618898304
0.1731946979563532
0.07153986199779064
-0.10209033212397671
-0.11215163744272687
-0.12023247879374772
-0.0878291271644848
0.017776228653304228
0.2149541181136665
0.09930862995430834
0.03932835307963366
-0.02084870040614454
0.049115231789124025
-0.01780687857355298
-0.06737903449773971
-0.10783324973492428
-0.10058249630043645
-0.1617460032890198
-0.17648539272976055
-0.025292661398404
0.18223579643404106
0.2742504263541133
0.3945765864662242
0.4016254731198673
0.09387570029128217
-0.14007902939000944
-0.2578012522573693
-0.7036820869434182
-0.7747132777948277
-0.42825711918805476
-0.13824369555245333
0.2090165153304475
1.0039949322887953
1.4235614718155125
1.3976021579332516
0.6572634876312851
-0.5350891477207725
-1.805269585175713
-2.4934479997142254
-1.7532507415580658
-0.7731822974337497
0.6699237177612937
2.1649386997424482
3.407261802986379
2.819255769702726
0.32171482191825945
-1.9245563038187394
-2.4525259830820856
-2.7926393685753217
-2.4525021798151623
-0.04835594531085938
1.9939674056772942
2.0132852486737915
1.849493464792489
1.236180790445435
0.9162453402436267
0.10080996842678461
-1.9565872611160084
-2.5356159381576036
-1.8560773034375957
-1.186838372593416
-0.09053730100167875
2.61322432853076
3.229424957683675
1.599235558604923
0.2142636200117101
-1.1379207848948563
-2.223331578206159
-2.37279881764445
-0.7302136351890629
0.4105839414360571
1.5715957000597875
1.791964070170079
1.1190545219738057
-0.26254026898400745
-1.0432579191038744
-1.1538889833266757
-0.9170387050361332
-0.21894534707795496
0.6805016274621798
1.1048921371071767
0.7086401076674572
0.0416817073922279
-0.45140351924215705
-0.3978870702214021
-0.24322353057244325
-0.1964418971185514
0.009972474201525833
0.13823032868892024
0.04145786919035807
-0.1573342338661896
-0.09721495645717113
0.1841171874470181
0.2156318434047171
0.2669418014245216
0.13712333618583392
-0.03845145963027853
-0.16505101077284762
-0.15605775332149038
-0.30068907127401906
-0.2414468527238865
0.032518782678657376
0.17528757347142326
0.26209490459532764
0.16389187011059414
0.12742928257613728
-0.03335848685920766
-0.13376737064772684
-0.20611057701019986
-0.08488496408513027
0.0049539057632615735
0.053347378865365926
0.06405802033877263
0.049459892115291185
0.024241901664247417
0.0004423618412849748
-0.015034980100601381
-0.020487032817984613
-0.01788817790709075
-0.01083175955170627
-0.0027936111033869198
0.003834899451792713
0.007918511338203649
0.009224961691451393
0.007931903569794643
0.004321620309535073
-0.0011829396482172733
-0.007705384012681775
-0.013577192349857173
-0.016312107932955254
-0.013176930963616489
-0.002431781086333544
0.015011964004787185
0.03410705136146488
0.04515283855586913
0.03494488295189667
-0.01019154500875303
-0.10006324349385458
-0.03633263705368323
-0.00997003221123187
-0.001621699862694555
0.014971129974677783
0.06742066796211459
-0.021490675883114457
-0.03913160699790502
0.013613974780435967
0.12161655731385555
0.057840639630387276
-0.01114795277755548
-0.11727676040370721
-0.08267852790268759
-0.11381384689135349
-0.0003243099391929922
0.08079355927022124
0.15729186782111806
0.05318015576454298
-0.017198093107311532
-0.050827741989860974
-0.05379335208850345
-0.03700408258783287
-0.011990931196414242
0.011823063846424932
0.028066222033550213
0.03314983558371424
0.025742553052502077
0.006768698371899636
-0.019859359033289864
-0.046255429021903355
-0.060293363118638914
-0.04705689559658605
0.007569650268656903
0.11178824061351038
0.06295188012131576
0.04500078880382792
0.029932676806547702
-0.0164532705017043
-0.12598690375797858
-0.1194165404111899
-0.000480165608477939
0.045301768607461525
0.04700150893314822
0.041441847656086966
0.0655036718690542
-0.05043319176692915
-0.08698081646073881
-0.038254846366533334
0.08711259248221001
0.06640254847581653
0.06534112595541755
0.043523351109732746
-0.03736140039269922
-0.20409945050182227
-0.06416719911352847
-0.0025560920584257615
0.01518177241010249
0.03429790433505049
0.09922151831449787
0.042419397354143545
0.07689296036647585
-0.005760868020648137
-0.03150049680244727
-0.03565555021070456
-0.05301978985263461
-0.10916440083821705
-0.015385551620103084
0.0315218175738602
0.04505735290889709
0.04218517839478271
0.03637872218074042
0.03280272312603585
0.026990706193957787
0.007214756634276304
-0.040381251847180985
-0.1257101746179851
-0.0499781098936691
-0.004118300648128494
0.028901491146254114
0.06885934235111918
0.1323852500504134
0.02890968204316701
-0.039916317642481575
-0.07739833609088156
-0.08734242505263273
-0.07053798148600147
-0.02422876483152671
0.05495360866870408
0.1660051959731695
0.09924665782527911
0.03545279465937032
-0.050336173363439304
-0.18147971207594363
-0.17208806760187342
-0.022746923731548893
0.07823930866950635
0.14880072628073313
0.2055604684888904
0.05890018066136117
-0.08680629269434725
-0.2283209506880488
-0.15747902207242528
-0.05836168944540933
0.08951982734949608
0.10260576262267351
0.18295182669802285
0.11118806997909142
0.04672595396634655
-0.06366362159595138
-0.07118649321490791
-0.20925133316042951
-0.28256261172739544
-0.0659035713172757
0.08582163009707842
0.21927032421579992
0.3631612667999085
0.3162649134884484
0.04935417207110869
-0.27802837799937824
-0.4920519188373204
-0.3813543091525631
-0.08719241003124453
0.08730213402102914
0.45153926242546955
0.8956918968842126
-0.5347590650408638
-0.24963989133769152
-0.10924816785145566
-0.009861634105075595
-0.266460688617778
0.8037360462149832
0.0971032807534235
-0.2598895287460517
-0.4947387612767311
-0.37896088286093577
-0.03115371994351728
0.26372924898209954
0.4231167244382512
0.3340712469231765
0.03078293089874609
-0.11032882413835848
-0.1578145986120167
-0.20094597414432627
-0.12306479270554305
0.019464040658241394
0.00813919677740655
0.06241594209966589
0.03126013413146167
-0.02033362908655209
-0.02644029075701762
0.06584641225287186
0.0857926111469948
0.033501487037034074
0.08065388417839515
-0.022475691950545884
-0.13529149631371942
-0.11342942280302334
0.002856463966175921
-0.004327149402575911
0.07080813018677068
0.05420592702240734
-0.01462487387649572
-0.09059095634163332
-0.13140502314646033
0.09418796058076556
0.19939369144363314
0.17559774344044124
-0.005888785579195081
