0
3.917357575872722e-05
3.9173622200614686e-05
3.91737538909182e-05
3.91739554110472e-05
3.9174167979555675e-05
3.9174293251578986e-05
3.917421882116489e-05
3.9173865455511516e-05
3.917324539708007e-05
3.917250942536181e-05
3.917195296114644e-05
3.917195443199416e-05
3.917283695584786e-05
3.917467699912754e-05
3.917712352847763e-05
3.917932287236704e-05
3.9180047679408416e-05
3.9178084884416746e-05
3.917284182148916e-05
3.916499839967938e-05
3.915691067320823e-05
3.9152422621040954e-05
3.9155835400705325e-05
3.917005301903952e-05
3.9194340234428546e-05
3.922257256484946e-05
3.92431264635427e-05
3.924141578989367e-05
3.920536054759468e-05
3.9132794773743126e-05
3.903828837763188e-05
3.895568083933047e-05
3.893258914511424e-05
3.901493814888695e-05
3.922334578994973e-05
3.952827327404624e-05
3.983546981375194e-05
3.999486031023101e-05
3.984210297242205e-05
3.927129915577945e-05
3.832110438325358e-05
3.723958190919299e-05
3.648349930648775e-05
3.661436343320198e-05
3.808249342715247e-05
4.0940558354914595e-05
4.45868125671594e-05
4.76818046127654e-05
4.83802965604108e-05
4.494705752768395e-05
3.667586949204574e-05
2.483483607232319e-05
1.3187395391463386e-05
7.585996890071952e-06
1.4300429095942482e-05
3.717017741406995e-05
7.430160542671984e-05
0.00011567343752064684
0.0001433577891785722
0.00013576592936698646
7.616242366526801e-05
-3.627080135641402e-05
-0.00017679297455039134
-0.0002924626066928223
-0.0003118594049900271
-0.00016955373411577524
0.0001581785549853594
0.0006174758835642714
0.001058443135849018
0.0012533655340746814
0.0009639181838433868
5.273006657651094e-05
-0.0013898870597265974
-0.002957674900920692
-0.00394453331560816
-0.00351798961324173
-0.0010568703973641953
0.0034156259893237946
0.008856697035096492
0.013095767503445134
0.013185130329972972
0.006275516986988715
-0.009151214627198728
-0.0321451878180542
-0.05891146461014951
-0.08381230315941571
0.09810866180524985
0.08783850194476295
0.08000719367782536
0.06324838972558718
0.024171178432983158
-0.2460557962982573
-0.1453241384330552
-0.057884330934615945
0.04244463955654006
0.1837321060107103
0.18550562488075045
0.05109507557254363
-0.03377606051607302
-0.09561740498687596
-0.16356622362043527
-0.059769742479657814
0.006423923374109006
0.03866273630657674
0.04885346882242706
0.049952804318256
0.04928408509885121
0.04481152058482993
0.025601870871651108
-0.023724015656569338
-0.11609418391184587
-0.05511918374814583
-0.030865216011449176
-0.020024825311866057
0.009302494629563278
0.08961108581073428
0.04525216388072375
0.08570808120569903
0.0029966661234360095
-0.026023703472757502
-0.033278561426140794
-0.051129824115294584
-0.10466280171376935
-0.006847593568064823
0.04227702141820663
0.052706695675154104
0.03942272600411812
0.017236753180599966
-0.002845979774722046
-0.015066239140074574
-0.018402929008201684
-0.014922420033774794
-0.007893801616097044
-0.0003445909735305677
0.005653428145700084
0.009040056260876166
0.00946164562685426
0.0069527934676110285
0.0018484876113305895
-0.005026581637426978
-0.012055393244220818
-0.016719872437461612
-0.016003582860556174
-0.007467104194762947
0.009147426880337865
0.03029586845251784
0.047796476552421
0.049605513081882234
0.02264872099160446
-0.04265080361728865
-0.1475185093776181
-0.0817468237277711
-0.024329091533367854
0.05156711274875254
0.17069099938802665
0.14792747914108967
-0.016055735144952524
-0.13394360309317038
-0.02639698173139607
-0.11486823584601084
-0.015704302036277873
0.06254584437499307
0.11852941340897266
-0.044469547517580726
-0.02134705559963795
-0.007192374883223429
0.001661842906982111
0.007258451636642748
0.010069263748836217
0.00944200661098656
0.004444822377802738
-0.005016008888776138
-0.01713626272197341
-0.027712933512693345
-0.030723096869801618
-0.02028435205938352
0.006179374691263775
0.044388809937776365
0.08068994963666697
0.09219354743041464
0.050740481531279885
-0.06938700700201797
-0.08183365824454794
-0.17997231268982034
-0.13393504341275078
-0.09548603653443996
0.1893586850365649
0.16342996330268825
0.2432660747318156
0.2121039966467858
0.024847035329535187
-0.37580318890053466
-0.2378194944626458
-0.1815827555288494
-0.19260903998119808
0.17154965041599757
0.36312464502454983
0.22240894877267317
0.161673083943058
-0.03879469242161991
-0.22155023526369724
-0.23436592678178889
-0.1117963102369122
-0.06308611105892346
0.12986517779837461
0.10515010439603086
0.1080415253775712
-0.022353622440927784
-0.06316809408929239
-0.012835058196027371
0.10893440327907197
0.06565191377300753
0.012278661065317283
-0.09405046019871009
-0.08305823614821067
-0.16323758678177436
-0.11957091250504101
0.08167075721178799
0.28246741300838485
0.12090440417010923
0.022201213340768675
-0.003847843027923239
-0.15911293393473194
-0.25025192939629304
-0.08316385620593894
0.1379927599546392
0.2070284842904784
0.11014999700513432
0.02276451864981631
-0.08858547339170296
-0.059355631820241145
-0.11793926820108247
-0.07801134288053699
0.06502453226215002
0.13271749260898696
-0.04148803978445635
-0.01899459481271426
0.03726942596356005
-0.04290403078798268
-0.04161442104928704
0.04375892185145175
-0.0013136419656505501
-0.00822418561327172
0.1781013985310447
0.10632750909604081
-0.07038499200334261
-0.18124395339033014
-0.025851401425846382
-0.16774951171936534
-0.13705033758733387
-0.04328652947369371
0.20364501619580155
0.269769660862723
0.17781611198543432
0.09917522587739666
-0.03969099627990892
-0.1380967673580175
-0.2953906723355905
-0.18693932576550124
-0.04922661987396365
0.1222032542957407
0.1631087825803921
0.12429892063296213
0.05519607572739804
-0.007734281165665088
-0.0455527946122623
-0.055151790234383165
-0.04378841368152096
-0.02270656793534956
-0.002034691344839607
0.011992042277455305
0.01751242675629406
0.015944592576664186
0.01026602318885491
0.003470748572288991
-0.0023429191156568107
-0.006177236009054146
-0.007835997286534394
-0.00745336905651407
-0.005160300461178219
-0.0010655328309860806
0.004457864378392914
0.01036734096944356
0.014725435508862373
0.014949731569116047
0.008690811419299758
-0.004781820358752961
-0.02314520166194271
-0.04028649442554182
-0.04709215623665448
-0.034323524135832235
0.0025270809811496057
0.05746167616142318
0.10927979702316136
0.12040600068730822
0.041208289388195714
0.020206754458023835
-0.18172430499067468
-0.17721598041675465
-0.14332805077599045
-0.02150794164225403
0.07235076569841183
0.23033801216520944
0.1327727217210191
0.032131046285229115
-0.05534589672105167
-0.14959566849177214
-0.10029844997900028
0.02279978891696091
0.14057465962385718
0.17586269809868138
0.06632170879693386
-0.020899730352747038
-0.07469483587024207
-0.23049728017063248
-0.3721275040713949
-0.3506661240298493
-0.22238667474466153
0.09874742000183905
0.5866716926422257
1.0665512413512255
1.4174526875688787
0.6289870444671828
-1.0909053821035868
-2.583933587332296
-1.4317940567689373
-0.7170099797150792
0.32026416121048545
1.7422584108169716
2.7384321281566977
0.878227978067533
-0.3577703354546655
-1.352502417323708
-1.456638567062145
-0.8702772150529934
0.05096108789821424
0.4398501498240715
0.7133513338961786
0.7421171973719909
0.4212757872653881
-0.13741497061262248
-0.3867898190414938
-0.308539601096592
-0.3792738348042628
-0.5580098618329783
-0.5086035062482139
-0.2601769552535422
0.504122575817227
1.1524654459153145
1.4349280690576005
1.0695553962654378
-0.6000729772918993
-1.084762306043917
-1.4021235081521388
-1.3507610298679362
-0.6500672878651652
1.0338258238798113
0.9864817720914616
0.7041201563926485
0.35895581087610956
0.10884684092997293
0.27090239576412967
0.3597450940529379
-0.22330258291107136
-0.47369400342276785
-0.8697118718896318
-1.2926235524342709
-0.8064117143315678
0.2928973395674371
1.1708908239219997
1.5263497782041642
1.487407730420355
0.7723977337878183
-1.2689245064118224
-1.7511227129215594
-1.329997354108643
-0.7121314230964368
-0.03217198249422937
1.498321824515708
1.2972590284118002
0.7167560565141574
0.18545384961995565
-0.5927841280918763
-0.7906516476991496
-0.5852328451556158
-0.29256737331343136
-0.1318858580848171
0.17222636583001738
0.556112081447194
0.36779923650874463
0.12082527221095923
0.06556416100925783
-0.01576098755912969
-0.19272319735862012
-0.15722558229334777
-0.19145756061487462
-0.1428839763688086
-0.012581575799298583
0.041282761034594245
0.08746121957859535
0.19889915284516882
0.030209510746615265
0.001389145656360037
0.09148012430792857
0.04311781923041916
-0.023449030512023503
0.009949736035165718
-0.11851329207910186
-0.2321187012830875
-0.10573333433736525
-0.06817955441080656
-0.017357021397453987
0.1551648326440444
0.3366447681709069
0.17079812451924742
0.047409261783550635
-0.09304606987007333
-0.14184982886862016
-0.19782412346289083
-0.14427585243128535
-0.033577343842268334
0.11754554736020897
0.12289837034799918
0.01566915513002823
0.035911038972126205
0.02030291762430883
-0.00401940865177414
-0.02143043420056682
-0.02651215269996931
-0.02089784303542081
-0.009676531478562365
0.0016016214304147012
0.008825322236395067
0.010128978750629071
0.005899955641776469
-0.0016661091475009655
-0.009231389295156668
-0.013138846116284469
-0.010421142161957296
2.622329382297624e-05
0.016316294651876406
0.03292578340981716
0.04109469905762972
0.030687163864363293
-0.006561951221595799
-0.07325360549678149
-0.16356159243052099
-0.06328854766464119
0.046273259064039944
0.18151222013042984
0.14953535623690797
0.1447376133341182
-0.04867280858486889
-0.24874007626487396
-0.2661611130351887
-0.09825116106900617
0.06975157550068181
0.25618869826112073
0.2716437936024857
0.11105870319782261
-0.04597592126500613
-0.22631237078875982
-0.249888258887227
-0.11852018891836949
-0.012466159858946155
0.10337695838091687
0.26627096605648376
0.10109825647640641
0.01044434711645574
-0.027076028531322394
-0.050173941196191035
-0.10282559243027768
-0.021051692828885
-0.022527296763635733
-0.10173290915253932
-0.03171216442159837
0.028136964052562836
0.12034004147056632
0.07701357886115029
0.11063458950622047
0.010764638593423945
-0.05237076550498328
-0.11884617778736943
-0.027652696734904655
-0.006522963276159928
-0.0656776762691782
0.003315358184689941
0.023872379641220264
0.027350430275638812
0.04476481549795329
0.09957854983682038
0.003438668875614607
-0.0442695116521062
-0.0534896106229568
-0.03872960354474878
-0.014385125993507858
0.00841776783994146
0.022994916832070715
0.02671890899398633
0.019961762472747356
0.005198814562373196
-0.013313717263773641
-0.029416335038135663
-0.03500889810864967
-0.020695538809565095
0.022617080170198825
0.10148596708009167
0.01789145773626117
-0.03176519087740139
-0.05641023751833011
-0.06945333410661898
-0.08842913961998905
0.06429102974049936
0.1603869925643784
0.16603565641214205
0.04617690999873246
-0.02651569597471351
-0.25978873459743757
-0.23154389102908005
-0.08644808037324664
0.05714449792740155
0.09046419370357836
0.2924214882644163
0.10942776001875806
-0.05673291796488461
-0.04962729765119939
0.05208581044361918
-0.04734967892591113
-0.03946736125792753
0.008640863267742174
-0.13056198330642643
-0.23838620740995356
-0.05383402056035571
0.11183952374026056
0.15284100347243976
0.14455942641401917
0.12413371239532361
0.08136875067181651
-0.037677137575866895
-0.11583019480650836
-0.04309598838299622
-0.09406120506287288
-0.11012150085074253
-0.09066052113796758
0.005038194209842563
0.0459846060174364
0.11105559602734094
0.06884928671565327
0.16099652250853008
-0.007062598299600029
-0.06605108370826243
-0.07433449842066212
0.09636477363792968
-0.022497075856247536
-0.08081890256016308
-0.0983123692671501
-0.05929911590203434
-0.11543357831843298
0.0036741674596506286
0.17415999063335316
0.26023332507125424
0.1003726166180765
-0.09848752872232196
-0.15776171683256224
-0.11754410569999921
-0.024919367691373984
0.07589245758875826
0.14994314308875645
-0.025003766960268667
-0.05686726535551266
-0.1391342973137904
-0.05298401046496879
0.02748119639996456
0.12721475860680473
0.06140629653093631
0.028790000126234234
0.009553882024658428
-0.031176731786523235
0.06503793168524523
0.06137249326167667
-0.06233841277964309
-0.3002464553429088
-0.21708530655669595
0.046704814470590175
0.16144155785721848
0.590257117125295
-0.2265690256004242
0.12092046138664977
-0.18507070013450108
-0.18044779778216494
-0.5081371339571708
0.5894661384250326
0.0729138088657808
0.10537157820049375
0.05368595296475161
-0.1067071702601462
-0.18414500484023305
-0.16422834448638485
-0.008724690784064078
-0.06225659380965501
0.13411459315824104
0.22643024293408034
0.23419391989849084
-0.05533420497248971
-0.08263095129343227
-0.10291161325224638
-0.16957747429530168
-0.11999119175992617
0.032007572645614414
0.09538985363461787
0.0946939011836934
0.05993128264187399
0.01752865931936952
-0.015143643185505998
-0.03102092984780355
-0.03129784885151403
-0.021762263180843545
-0.009141020363310381
0.0014570165179834252
0.007613118600228885
0.00937723856842502
0.008270906931248958
0.006100692192584571
0.004050090326201807
0.0023081022320590337
0.0002712004226299894
-0.0028304400137188594
-0.007160314793215819
-0.0116955137043907
-0.014158508331636744
-0.011662946641735823
-0.0020536827882793973
0.01438009328992112
0.033443004370569324
0.046621838251840145
0.042417064914385856
0.009618894624933429
-0.058114064348775876
-0.15794999326741416
-0.0759500032783636
0.010850804984998054
0.12828129600715182
0.09677391476293552
0.12430309888793104
0.003507845627636868
-0.0858759786891144
-0.1705937072569519
-0.07652752465807956
-0.02358657009557047
0.1756453219572858
0.11434104141682154
-0.010648359406332492
0.0008365245775485729
-0.045848041877159795
-0.13735439381055414
-0.05097826746748188
0.04328238114463544
-0.023361715459739092
-0.02747798289823155
0.03719878129308959
0.35315019809307213
-0.12164480025430591
0.15352668552106835
0.11707538440418513
-0.07543740280156731
-0.6334149612318083
-0.3225969532427518
-0.2723114595541954
0.19992918816600216
0.5534385115488331
0.9937869853856222
1.2638857131224737
-0.9325746502393165
-1.0797313424890345
-0.9918324620489745
-0.9794665198787644
-0.6627059775594917
1.767038857582446
1.8597924037489066
1.0341804352912103
0.15616620812261828
-1.0162600336021623
-1.3396773563102689
-1.3836992382090265
-0.5654093821191432
0.2528798755407897
1.3032923876182843
1.0164586262833506
0.52979978378505
0.03470688713034337
-0.02123229110067054
-0.2826057337158457
-1.0069490941710113
-0.5863611150071442
-0.2953892028206012
0.120544147688401
1.0174606488624987
0.0009069456604051116
0.47081039309876666
0.18063524156037908
-0.38136111706555764
-1.191486304390757
0.720143309029107
0.0813996071697991
0.18788230967688885
0.31390314785485324
0.129585059862385
-0.27476211499296804
-0.36161660472752744
-0.32562962898838
-0.28908398584730877
-0.11893932948567622
0.336641150326672
0.6025396573524914
0.5372513538396253
0.3148755604728395
-0.1634420014402877
-0.43204379164549245
-0.8116704836934101
-0.5685178951088059
-0.09808361083116016
0.8603596155456468
-0.013476937008924661
0.7367823107125671
0.515814452023431
-0.1256979658973616
-0.8667332995348513
0.024166424649672835
-0.47259149764975633
-0.3067665702161219
0.036588676881147995
0.30754512701681663
0.44747276854454054
0.34612960959273836
0.21429587142497697
-0.019335808779002372
-0.2871948265300864
-0.34625693225652726
-0.3389406965569457
-0.16400712206824397
0.13522866142564943
0.36563459908074586
0.3688190670930864
0.20505259902484035
-0.25637518009796983
-0.339443206668179
-0.3615782235555481
-0.23935273415664443
0.09565736835450855
0.47301986077084873
0.4607162904169911
0.35584859375581873
0.19828569981670763
-0.19140587005112375
-0.5586545306872679
-0.7631788112703577
-0.3480712856209522
-0.14342083505251613
0.2934931835700762
0.6129022117893832
0.8033263773227832
0.3414991468139292
-0.02240025287960789
-0.4411753440954811
-0.5195483742850214
-0.4551495228985278
-0.1913721886763941
0.20538599579215927
0.3423889838973036
0.27875730807385274
0.09698581286895208
-0.12215413804626296
-0.31660441334869605
-0.052379191352979
0.07207080438498134
0.22519155325862883
0.3468531492789841
0.16087180332789075
-0.20363122790702481
-0.3858599443858007
-0.3705113922450863
-0.2785266366029836
0.021990115299388005
0.28542918025342295
0.4475893520945029
0.387414170105883
0.10462119381814276
-0.07950915835762389
-0.2994915618627489
-0.31002335004702997
-0.24979737733036278
-0.015586874299288983
0.14792784141557616
0.24364063545463044
0.10863477746613853
-0.0009659001080376264
-0.021839506504142167
-0.09045677390296805
-0.14658997614977132
0.06415551882985532
-0.013080806319169153
0.05301287756626354
0.07544364000539351
0.046403384236643676
-0.06180201914877633
0.10801557162479421
-0.09429343192399732
-0.11719610271490463
0.0006073779746227496
0.03546364017187177
-0.019617377812953044
0.04337446504814483
0.04370318033804675
0.007371291454970855
-0.03725560243288448
-0.06340900852858425
-0.049687250362007204
0.016164953872119896
0.13392918986863062
0.08938303886780519
0.05622862157756208
0.0023060937525566853
-0.10092429173073919
-0.26862012067789753
-0.09647461697810811
0.03859736488878743
0.17062328643421848
0.13251997632709536
0.1447958931759761
0.009558821369488615
-0.08818075022685894
-0.17319477822779167
-0.07037406968257348
0.003182269514991384
0.041708846080852506
0.049689956159864476
0.03776802290797588
0.017912249652712153
-0.0003352813720411757
-0.011682703317093585
-0.015049596341214161
-0.012307780194536731
-0.0066027992433802425
-0.0009038960422963502
0.0028709169216997216
0.004105500331689464
0.003262856760952611
0.0014165216808811009
-0.00025807515673184216
-0.0008968789702660803
-0.00020170576844613495
0.0014815794298329767
0.0032616593109369564
0.003972268605541695
0.002592140927614846
-0.0012540283741614515
-0.006852380535204673
-0.012219400324464034
-0.014404308308108764
-0.010411859029253933
0.0013184125681828943
0.019229639489889216
0.03739526425768277
0.045452962145040667
0.0302934653408338
-0.020495987744713288
-0.11427101222727691
-0.049630447991336105
-0.015092418640269015
0.008891788999211017
0.04498953341825811
0.11278646030735599
0.02357458215634329
-0.022038914195776978
-0.03304625680793968
-0.02417494911912512
-0.010800959280161442
-0.0042792815005677845
-0.008878564978463281
-0.020924488146173828
-0.03027408742565628
-0.02384239366688049
0.009544564420651838
0.07424474320772209
0.16460237881291512
0.0652219063613591
-0.04445919312820644
-0.1823715566778698
-0.15591285025769253
-0.1579257186889169
0.030714682660766483
0.23224431004487273
0.26064943320789696
0.11340081011412634
-0.0291872301193594
-0.19610221179332873
-0.21269035515442514
-0.08854104087938038
-0.011596733428728828
0.04913400964430803
0.1336450570237777
0.07788244108737935
0.10243455971261056
0.006717210153806812
-0.02984119074394377
-0.04056420188815017
-0.06103034881512144
-0.11885856428074798
-0.026940485623146486
0.018005244487924833
0.03147881441417928
0.03348598792881771
0.03975222779187406
0.05468011891554453
0.06825364261937082
0.05802106835834534
-0.004088134294547678
-0.14191266807938913
-0.16535132092759072
-0.06449124620026234
-0.010302216538110531
0.037740976092810144
0.11955232151869088
0.26228073733672325
0.07285276376078856
-0.06170168771243735
-0.1662304724112423
-0.0651802505778841
-0.17130585755553737
-0.0800579446133162
0.028133588494559693
0.17871692445857829
0.19088550599897164
0.06759739391569923
-0.008089438097223685
-0.06904027303623857
-0.15435292834830475
-0.0979729212939527
0.0802265502409904
-0.021710749594349092
0.010518375122341522
0.0015635650868057666
-0.021793545440010068
-0.039118659688320345
0.1569501630862376
0.15778552666733922
0.1414222216221678
-0.11874890969266862
-0.2412309832076322
-0.22420948276174563
-0.03941122820474077
-0.03571434925427615
0.24776862036123004
0.06343864860798185
0.2382304346318001
-0.03620992244867605
-0.0030532523856744713
-0.12997999874129257
0.10754962957745473
-0.155382908844408
-0.1580110096692683
-0.10569041580027734
0.02928849347357042
0.09831918893767058
0.16169106729888708
0.07331165462051886
0.06970005806849544
-0.033945586075509376
-0.040583533366973665
-0.16346878138432835
-0.01723710966775481
-0.011318466709124488
0.052391434104734264
-0.022472798782112946
-0.03177922947918622
0.02291772357230701
0.129001236792725
0.060096677410348895
-0.02247012383871211
0.036374017325477015
-0.005008931160314707
-0.1744339703923868
-0.07760931214952202
-0.09511471402735748
0.013716893354758716
0.1006591537075501
0.2151989149674044
-0.00778776582437421
0.04457324635202739
-0.037490063896263186
-0.08104654338408812
-0.12173639161240703
0.005193693837760707
0.07174902308224403
0.06113602797977028
-0.030632991698249866
0.005520090628811196
-0.008819316388356042
-0.04111803483943731
-0.05099586875069077
0.004728348549939313
-0.03481918469472521
0.05769187966418669
0.0908744893012345
0.05063718436133251
0.10095702264542293
-0.009888447993589025
-0.13867498756849006
-0.13496730174022387
-0.030941481552620928
-0.03641846475075585
0.05970571944709041
0.08278682623307342
0.0633146863617866
0.028521114713841042
-0.002946091238801085
-0.02243633939978236
-0.02940497973564049
-0.027724739177277323
-0.021899834278131268
-0.014513751053338582
-0.005570460013960259
0.006343060918411776
0.021765950162808734
0.038035766110090775
0.048109924004076605
0.04144607370966372
0.007181573874307098
-0.06112181292310204
-0.1608974768644543
-0.07840352034908878
0.009296168643968705
0.12811076069649127
0.09849963385791347
0.1282647492617232
0.00969800598175103
-0.07764526691923371
-0.15978545275945064
-0.059884791744812926
0.008053092283299007
0.041299645415309214
0.04638236378033995
0.03460682969045326
0.017290708955999677
0.002382929082748192
-0.006799189081550077
-0.010869104734272958
-0.01243460568583227
-0.013865974948459953
-0.015630936887125364
-0.015793027425854356
-0.010898035801409856
0.0019536832320308285
0.022482791251133703
0.04503853940291972
0.05795425054905554
0.045322601484177785
-0.008648573501646486
-0.11361814070927788
-0.06740810410006189
-0.05303787292713097
-0.04032500656691795
0.007640023078781699
0.12467930021132327
0.1313506822193026
0.027834786160605744
-0.007558256384206673
-0.013642377320820048
-0.03688698782295971
-0.12018292242911932
-0.09315378046549594
0.033369150230492625
0.06760794133859982
0.03254976873655921
-0.04088033645795791
0.07908733665200648
0.019445135632204326
-0.0007764176465188315
0.028963843876306804
0.11230454190434898
-0.15166437973693234
-0.36738954546474323
-0.14554951252931522
0.08943990277744909
0.2893814923129642
0.5761588604023598
0.6479032981398966
-0.19712220554687054
-0.6217450323614625
-0.8092802249981739
-0.8404477744745996
-0.3042360868146978
0.6535534469769527
1.2577789264247328
1.6347531637493244
-0.42487516554510624
-0.8560592962458814
-0.8694402113952437
-0.686857488302423
-0.6904773920498024
1.3986031030888026
1.115282976756102
0.2359411652628653
-0.6275494114415913
-0.6191815622889113
-0.4244756925664949
-0.2663002531627017
0.2779402327506062
0.4377374570392391
0.19975530919251783
-0.13844660925365349
0.0013659916975083117
0.27128765554239614
0.6163983352416618
0.11883049424040795
-0.3385386575629959
-0.40054040298686416
-0.7783762156605755
-0.8181753223866622
-0.11310992230070704
0.6403434143820033
0.9572765608139076
0.6774069202249708
0.3046975535718028
-0.20848438390183702
-0.43168144123013424
-0.5955958850919126
-0.1224937094271597
0.03151949213191235
0.009523224862189344
-0.14144796002260848
-0.09066456167080172
-0.062138131014007614
0.11773820415799202
0.5742256601310485
0.5519410501869655
0.20647262277820416
-0.17607360587491616
-0.5373844938683825
-0.7982150111211748
-0.42153643723453504
-0.0019410452619412768
0.5158311819074208
0.7997248398908321
0.8935931349959718
-0.40107900034316213
-0.5171985996466918
-0.49434348496957053
-0.3477534344713013
-0.050843093140462176
-0.14000778574190537
0.46049010707927446
0.6046252040877587
0.29665496250461093
-0.11819045816041479
0.2607297954164468
-0.47697411377625837
-0.6124463527959751
-0.36607281811414283
-0.28749962247467015
0.5281802263368739
0.6042002564781159
0.24037459261936284
0.08194796345860558
-0.09060292156361725
-0.14979694179754907
-0.1942654660386462
-0.11723433565774699
-0.18027312500345916
0.0010594981989724415
0.057416344469233244
0.05360992756986113
0.0691613537210024
0.17749177495460278
0.029267054824811484
0.0435989767286143
0.008273957134141599
-0.11243624414476888
-0.16581603012203822
0.0011900259129128397
-0.04969647711959497
0.05507231580980303
0.09951478749685497
0.0744666254722174
-0.025839047502646505
-0.005309617875029128
-0.0654701265159171
-0.003917866775759372
-0.013209289098865033
-0.08127935276886211
0.006270734086897711
0.06256770580052544
0.09594177506638484
0.10839213550426523
0.0976323496638829
-0.13710902232355796
-0.18749897268338694
-0.23049800151094452
-0.028681536901625476
0.061740230966364426
0.27716287338594187
0.23240419897998504
0.11240423442279807
-0.1260472616230098
-0.142762705646884
-0.19727750964864793
-0.13315806223509782
0.031016577513284654
0.10176795962659804
0.10340735336142232
0.06724008204129503
0.021588917287032758
-0.014455054712970317
-0.03272706640800084
-0.03403600741991384
-0.02433935196454704
-0.01082150107358388
0.0009123376001480275
0.008065013973005304
0.010475303138498092
0.009592407213764434
0.007232892594652476
0.004632687351961599
0.00207466814730037
-0.0008786712188074738
-0.0047289053458103155
-0.0092828087120463
-0.013163618402338756
-0.01391515704769813
-0.008860490879042714
0.003386844579300371
0.021179996992935584
0.03856021253373935
0.04522792395720917
0.02831506181684378
-0.024100777194867067
-0.11865675002460531
-0.05318106700918082
-0.01570647848856504
0.013097727816771647
0.05465116687022536
0.12625410389186528
0.036384121199300304
-0.01661460397516015
-0.04198772279025389
-0.05135851742325506
-0.053108094265955086
-0.0486818969544312
-0.03233893946590957
0.005455967581833846
0.07221185321390503
0.16750781255374958
0.07974714458558863
-0.012444714396874303
-0.13410340046252248
-0.1053185381231237
-0.13380069171120426
-0.011953383661394631
0.08021988139086964
0.16770866098252993
0.07191859681648832
0.004578017627142154
-0.03366192385419419
-0.050027720274366645
-0.05381843136120771
-0.05072138424999907
-0.03954911463671784
-0.012544116272881647
0.041020676821533236
0.12950325016733852
0.05412154203085618
0.006887101833427965
-0.02778575771093035
-0.06850978627928575
-0.13147050228074952
-0.026523943658284442
0.04354511674116328
0.08064607623357016
0.08757429380227663
0.06519250037860555
0.012426532405682329
-0.07071098208636567
-0.17868969620846745
-0.09739026017689521
-0.004899221438474481
0.123100624948317
0.10510242218571496
0.1462679434462691
0.03523869930184711
-0.0529149986569349
-0.14848957378046868
-0.07688787185530996
-0.05034530091963255
-0.06473849564772857
0.09756922309975724
0.06019597910777334
0.04345782329395484
0.05666598010818479
0.09457243110249998
-0.060970609629831876
-0.03479420531913653
-0.04979325884273657
-0.1188872048348858
-0.0403797367535782
0.0016006629445161475
0.03164693359523943
0.07445988688007621
0.14610980967320739
0.04831334172398184
-0.032224754309213025
-0.11931000264526076
-0.03949633380856371
-0.01400922522696095
-0.05295207840693587
0.04691664230610386
0.10099106154475283
-0.0666821731824398
-0.02789299422118314
0.045188559324212514
-0.024132320941185965
-0.0205346106071315
0.06092958590226091
0.014006779289705236
0.022426507184133426
0.06327415904259648
-0.08784269046480189
-0.0509664341323504
-0.0369911840370645
-0.045566153716193825
-0.06661048946946914
0.11492978402588191
0.1127898250970972
0.13411255992926005
-0.02248732862442713
-0.16474461587745948
-0.10184842906889323
-0.03967118085240649
0.02134075530348168
0.08488908370899136
0.15549474147428105
0.03548535730874805
-0.07587860923355089
-0.18104962992080062
-0.08227772047884602
0.018735599505433513
0.1187821404106
0.21003683577746296
0.0786622048365745
-0.09261492141603561
-0.11801131534038739
-0.20103204696443844
-0.1296989139245666
0.12233277638029914
0.18864370048713996
0.09984599133947998
0.07464903270822473
-0.08451561138555891
-0.19069247040065138
-0.06828426922246049
0.05173008552772146
0.13575229177880518
0.15121335131210234
0.07156908250229635
-0.11646520491117685
-0.2048097701402602
-0.1586300862807004
-0.11773920000137758
-0.006927708346050984
0.24630942819269513
0.2918627575591005
0.14196002305984168
-0.03319049902329041
-0.09721404476873952
-0.1298385730873649
-0.20599206524459987
-0.17870283034507864
0.1292665942721793
0.12377677683114398
0.030100795382310946
0.08075736755649941
0.10491825779769202
-0.07779630018780566
-0.05853058592242645
-0.03665494893927151
-0.01564961222278407
0.0005874353622156226
0.009916703783679606
0.012504745407012
0.01023801143876335
0.005675028218660007
0.0010895826916136624
-0.0020925934074893858
-0.0034098212198857233
-0.003148603919252814
-0.0019785221548748034
-0.0006034215616980817
0.0004696611084662955
0.0010154932150222224
0.001056805115340944
0.0007657673511396925
0.00035518942241214156
-2.9201598978951013e-06
-0.00021612212367179537
-0.00027123369956396037
-0.0002093713942484012
-9.315891225946558e-05
2.081293441079218e-05
9.760510402042374e-05
0.00012708545334717998
0.00011812327917952021
8.881449759023897e-05
5.715642422305307e-05
3.4907204741415346e-05
2.549635879131284e-05
2.5415491288575038e-05
2.773963476881468e-05
2.623561675700243e-05
1.869165602130126e-05
8.456695950042185e-06
3.618893152167864e-06
1.3794521514116834e-05
4.518363846418494e-05
9.533919493780458e-05
0.00014979074304699753
0.0001828957789017509
0.00016463889640407238
7.329779535244032e-05
-8.89029166230665e-05
-0.00028307084444117233
-0.00043172386901682715
-0.00043478084112184915
-0.00020591413117261023
0.0002768570720106607
0.0009229899285521041
0.0015087732730289579
0.001710337469984508
0.0012051701857677087
-0.00016813664570979492
-0.002236827786211565
-0.004385146817201241
-0.005600580757216903
-0.004742319168317959
-0.0010284457347718183
0.00537154383374347
0.012870184644420316
0.0184250660763649
0.018199645686820563
0.009001534533972273
-0.009760329376277563
-0.034267742486077085
-0.055625526171067204
-0.06135622822953213
-0.03964136283972847
0.014060153404960174
0.08967139380192471
0.1572574015051176
0.16712329556746486
0.057571711772899964
-0.029758563630878275
-0.13035991860546284
-0.4394961369781121
-0.30454724463463817
-0.0327376350152286
0.08516849061312133
0.3414811350432909
0.7804626755750526
0.38288793735770327
-0.12475067033495711
-0.4371022139970253
-0.6246943010698588
-0.6952925074391794
-0.17934182558940467
0.25248141727766876
0.7451265270275247
0.6054971817972665
0.2603529432288707
-0.15849725250550384
-0.19776831363891817
-0.4431670248283306
-0.2719136176299864
-0.012596194290821316
0.07761798021820651
0.015694667318245453
0.0787026827292347
-0.02053402329062526
0.038779345935183646
0.16022873992310405
0.21246346235978208
0.022228705294463223
-0.020898409470851087
-0.15031257893010108
-0.20395956439465332
-0.20829323896637245
0.02987091703860416
0.12133117446707488
0.08408784917811588
0.12937136079205197
0.04971752168769955
0.01329575914594417
-0.033831525161807555
0.0416615472131648
-0.025734880813944025
-0.08539842707269843
-0.15820719749314377
-0.03004148594737049
-0.053208385166664846
0.04421914740193936
0.14351288144022406
0.11895311958884607
0.024532491168375525
0.08699841031158342
-0.09377450981457439
-0.13858235139455422
-0.08006783253706462
0.04523849901307196
0.0017120988662379583
