0
5.877288220607548e-09
1.2618853435222107e-09
-6.650914930946381e-09
-1.5875450152263178e-08
-2.2627070632107453e-08
-2.214309675034717e-08
-1.0462276538800894e-08
1.315786274626253e-08
4.4006831117093134e-08
7.107752372691957e-08
7.88359749825083e-08
5.224925337195132e-08
-1.5515216557829316e-08
-1.149626940118454e-07
-2.154734251393404e-07
-2.68131010856992e-07
-2.1920937170004812e-07
-3.385826445477615e-08
2.75765753835293e-07
6.292060975496359e-07
8.777131896387824e-07
8.379116303700483e-07
3.620730787527161e-07
-5.683898367949943e-07
-1.758805898710605e-06
-2.7734009762616063e-06
-3.010111955533337e-06
-1.900775261319876e-06
7.891953471162264e-07
4.651581830974799e-06
8.463435957303618e-06
1.031687653755723e-05
8.161772929426448e-06
7.335224653806576e-07
-1.1367783522114319e-05
-2.4890767586700565e-05
-3.39962149772858e-05
-3.163268734107061e-05
-1.230800080029884e-05
2.429905131803036e-05
7.017892574617884e-05
0.0001081029818407752
0.00011476268469516261
6.872690457572507e-05
-3.7907764712138185e-05
-0.00018777175528276134
-0.0003321155115599176
-0.0003966224861678445
-0.0003031944420257034
-6.2393171584237785e-06
0.0004660136777704753
0.0009826343455106054
0.0013150345099137964
0.0011932026279499646
0.0004152327353194162
-0.001012749166100575
-0.002757402130046657
-0.004130388282505512
-0.004218904099237357
-0.002203083233675828
0.002184726298673991
0.008195691276979401
0.013805942220601964
0.01588079661764964
0.010872092893538368
-0.0040767040154424975
-0.030065423329571146
-0.06614783171835824
-0.11060273645846912
0.03588424857903778
0.16580117221813712
0.06108334881485572
0.09264165543443181
0.02496388428295908
-0.17438001596328653
-0.12273199021218387
0.38843505394911615
-0.6005672480400318
-0.019191948956721664
0.22320189085638484
0.01955514749206678
-0.3568994704654165
0.5263849978201687
0.24702961278758118
-0.07475804208337612
0.0359298159325943
0.034384388847590694
-0.009752228244548094
-0.37838053404543004
-0.279768173607859
-0.240283621837388
-0.11739409510657155
0.26779474077158916
0.486993267508151
0.46341348481486855
0.2459173344272802
-0.19371176654093064
-0.5419488671188442
-0.5133706679906945
-0.22291087726849823
0.22931674080987474
0.5592052064364399
0.49317078123036123
0.16682429212641509
-0.26521089768481576
-0.6101192858908558
-0.41840771855413184
-0.17879125961220013
0.06558755379959579
0.2810871026307491
0.39838870693512507
0.4738999312508181
0.6722993029068742
-0.522027530684353
-0.4673866746038996
-0.3140070158544525
-0.3583027964855098
-0.41783220136508104
0.5659960953704787
0.30083323723112326
0.10326945382739218
0.05968803611424335
-0.0008100907861835227
0.08404410569811994
0.21809669186475017
0.07026413017116341
-0.2922763849025037
-0.36908517771789057
-0.19916362756808134
-0.14977326804343832
-0.12514528072133088
0.4078960692147259
1.1865160998876243
-0.8775864010938778
-0.11477117528533716
0.30068198675781627
-0.04102725530269087
-0.9730131853286389
0.8593531354501139
0.2061916854722986
-0.18162154146405318
-0.1474187551325877
-0.12316669875990564
0.07491801432185492
0.04733920357887193
0.00829490135175137
-0.020202495577049184
-0.015379992590841352
0.03943563347377545
-0.050841981406675875
0.10339077075377616
0.07587463265297777
0.027555928976482177
-0.0868594631365021
-0.11019079542299572
-0.07424026914278521
0.006220602694194809
0.13578568448893807
0.13764067175250233
0.051270727631086394
-0.27027347750698916
-0.1641664601315373
-0.16457913435778035
0.18636467709852006
0.3251096323854816
0.2554489525346688
-0.05488513309668808
-0.06699864128111634
-0.25500109093086704
-0.2876223084047715
-0.01429904192510627
0.1397512222807694
0.16942268426353543
0.08049921995385083
0.08067132677401748
-0.025243812664061286
-0.034804368877224684
-0.14382892177023285
-0.14185612785202595
-0.010293353590067502
0.07522284624954881
0.13915257435283926
0.19997998495687905
0.06705741934551221
-0.2579585709142709
-0.17628901398636648
-0.08736580436442669
0.012111063493963401
0.12425607191524506
0.043399292946282975
-0.04877690646416146
0.6183714595203932
0.8157672141793136
-1.2647679321780314
-0.5871160830259715
-0.05721314741114379
-0.7319666012314644
-0.25530368872358217
1.8875084349912765
1.11818796760953
0.34134429792148213
-0.6361289855873881
-1.2464078155036096
-0.88711659495329
-0.26430344095032166
0.22583176604725788
0.8737883636128289
0.6077554185597671
0.14246504284467365
-0.05441734034152694
-0.37052844274144864
-0.23601128429229684
-0.10081430532310702
-0.0132395125652358
-0.006494785650100382
0.10533737837994918
0.12434064457508168
0.06280088006901414
-0.0622169566122943
-0.03191836463071461
-0.02657377591203657
-0.025372425556992522
-0.006741788341155074
0.05009011754497124
-0.037741204497135375
-0.060388833216644226
-0.01909302361078255
0.07075612835539738
0.17860007501624373
0.06137027943968925
0.07094198404840876
-0.034261758055598314
-0.2766802641476859
-0.4512431534168935
-0.12648767877828632
0.14256986211497943
0.3932468456503238
0.6349334089997948
0.4411813418070234
-0.03832265684989325
-0.6476863754581339
-0.9891714417276287
-0.6006800026373426
0.038119552523953035
0.6680501401847694
0.7940958941118564
0.8343725920131967
0.29794735449561804
-0.3965383902360167
-1.0667681749505562
-0.29716046832630383
0.02115794775999753
-0.0781929886761426
-0.24079941674148203
0.3736518845321151
0.03695967352064418
0.19288823116186204
0.6069513597645567
0.33705133914466695
-0.4692139720525737
-0.3526323371247379
-0.105341934110377
-0.3314457702287067
0.1845122445604433
0.4971690990020772
0.10976896194861128
-0.4227029271786363
-0.2946829452158596
-0.056791424450470834
0.1697907577761558
0.27240229034485436
0.1246317287823021
-0.030513987370816068
0.012835519722116369
0.028189844519564047
-0.029474529840540057
-0.0049817778339541095
-0.12416446921077547
-0.17987434564044755
-0.12696752158727162
-0.08866753823599725
0.026255368299535727
0.29964979836203365
0.38063083888055477
0.07063914751239371
-0.0776039338172363
-0.14689025308506232
-0.2331411035987875
-0.22192870340344822
0.02862246052059265
0.09458936683921348
0.183223395600311
0.12411193354623103
-0.04065397242171563
-0.06414623513469779
-0.09968812361810613
-0.1050176311980773
-0.04752049989429305
0.08878245899172331
0.09591322023359941
0.13746322087706683
0.1506052785559434
0.056955932632986345
-0.01805071483173726
-0.1209405398589861
-0.2476555203962411
-0.33050968688306265
-0.2413165830436349
-0.013433602682171477
0.32062589718778817
0.48573668763454103
0.32842213951858135
0.20132616755907073
-0.025822581476406137
-0.33151834592152607
-0.495048332431244
-0.2515018304286784
-0.06294990014877618
0.08681867842836583
0.07495245954739295
0.20735095460843173
0.1826625498792836
0.2631265098275345
0.05984678731895249
-0.06468467925849872
-0.17931957780305618
-0.1591027914741201
-0.2610403232168577
-0.10848858481308356
0.1117576108447234
0.24041718901306897
0.12962220055259574
0.026424767377102126
-0.038701642270820624
-0.056139557757875824
-0.03499361669245535
0.003077965347966239
0.03164428119616289
0.027177404726683226
-0.02446308272349474
-0.12365052008445263
-0.055718788500789526
0.006430060092403367
0.09601591234327296
0.04392960531922782
0.07066971796148527
-0.018909879611801197
-0.03670672986810371
-0.008385656262747844
0.032651229220421824
0.0529646938482668
0.027111148041804898
-0.055442638822237225
-0.1864459094963047
-0.14036715640375275
-0.08313085826429034
0.011999921636283472
0.14457444111239862
0.26935443040231677
0.2886889388375719
0.26148168082020345
0.031338150633030706
-0.12974271828671322
-0.27242144012318403
-0.7308738271007901
-0.7092249655321324
-0.104501020497158
0.23345430788313365
0.6182785802434697
1.2442547346650097
0.732559995403201
-0.07260495741320726
-0.45412767585761044
-0.9344746769247692
-0.9809596919850965
-0.3361978017300218
0.2046603402964969
0.366719655681055
0.532750580434191
0.46998241780128913
0.2710960784927094
0.12625394043394914
-0.06876446783513528
-0.27470500085372057
-0.45582296259579774
-0.3295377316317738
-0.33447797017934877
-0.02588443917302319
0.30206139142740307
0.576504508076205
0.3038876158810009
0.1404940540282114
-0.11566189661377646
-0.3119216563869921
-0.31523260458679203
-0.18516071503933823
0.04454147187207029
0.17144470806700068
0.21873552282263128
0.023855094486083677
0.02738925604764293
-0.13430540678236702
-0.03240461930759319
-0.04654598348881978
0.03466572468103862
0.012635298968968344
0.07754463660665378
0.00792380625382832
-0.02805847603948905
-0.06933983848122582
0.04277397971887628
0.07005347624004508
-0.017112886950269208
-0.03451628735189533
0.02009331458318561
-0.030811395393858864
-0.1456469419284368
-0.06911571080984562
0.05795351121181412
0.08560390408716641
0.04150707431590256
0.1213452616517331
0.08632733394085158
0.06978275678533088
-0.007506358823798453
-0.016099534548873768
-0.19593340812157828
-0.3400494379143713
-0.19015596730187487
-0.04757745530531367
0.20166737123845577
0.4545229325776251
0.3620046872562901
0.1142306455576358
-0.15506466691171256
-0.34665206812841437
-0.3654894439939313
-0.09351517053855622
0.02548532934344302
0.18607741382576629
0.20989844104031338
0.13001352830606044
-0.02207003921210642
-0.022657108184954835
-0.055183328636548554
-0.1053452757934829
-0.1559461897063576
0.015208514253918169
0.032846846973410886
0.11804702131211173
0.08114413136683783
0.11717784493963472
0.00637407510288743
-0.07995471270345121
-0.17007944900828653
-0.08269906155607866
-0.021605682199555627
0.02382096378149295
0.07278562430965034
0.14454835335337105
0.0506910228873573
-0.00897218684682464
-0.04577946989107657
-0.07792105979298848
-0.12487960442297368
-0.0031756682819025655
0.07511896694274181
0.10138899132512551
0.06873437889865172
-0.028515548104578212
0.006940772290691078
-0.021320177542722002
-0.1005912847863076
-0.20913811760376982
-0.12126335650040064
-0.017629133742186224
0.5017164918726005
0.0071572866042284135
0.4389146392987402
0.32062100968669377
-0.4138010894715526
-0.9877959750763359
-0.15757781137709564
-0.20835575459961156
0.02293855374006266
0.7043675146288848
1.3609032020745695
-0.7598552025906702
-0.09559491645682895
0.049717301296141006
-0.258672296605565
-1.1491756056284217
0.6823450024286436
0.18183739788476266
0.5315439529789366
-0.4621614074019449
0.22078697402726072
0.20938456548329687
-0.2583878382266581
-0.7343145848275207
0.4381732563223559
0.11626186181991977
0.1453070349617279
0.14649527444953866
-0.09005347927599748
-0.004113056109126506
-0.057009142515235714
-0.11933026118315766
-0.05847232158051456
0.071057347538939
0.03328328115405525
0.012704085184682396
0.013812909989417746
0.05943979873803446
-0.011489230406261155
-0.14697090817510783
-0.0865201244824124
0.03183320154985686
0.06222661505786587
0.040967926910928806
0.17875240357445968
0.05806849883695315
0.037483038116161535
-0.13776447257739138
-0.12188773613002042
-0.15602687882911848
-0.06155117748635417
-0.041664014348617794
0.10935253779498283
0.19299596726394372
0.1951171833245955
0.08165812562548053
0.004621502692102766
-0.08250817641157551
-0.20452043671698764
-0.3463808017310646
-0.044105389353392976
0.611344232020247
-0.8426105747494345
0.1343377384341783
1.0570117932942793
-0.4097415062591126
-0.6654307274018008
1.0253019912361028
0.1453258232186047
-0.8515613784008487
0.28900994067556396
-0.14894339357887215
-0.23075274657962214
-0.16337070897639777
0.09782977177432411
0.2305041189611494
0.3211995851952748
0.043355914653175634
-0.15637818399767187
-0.06142525499918573
-0.08030101162292742
-0.037627122919426534
0.03505537673096369
0.10662706865497089
-0.0485330503845131
-0.047464645207104764
-0.09746365711620818
0.0028793492922082465
0.06042445114680089
0.0829425544056946
0.07513604882886447
0.03713040618884561
-0.03367712099621907
-0.13817560523312902
-0.07069560915277516
-0.016358954914374054
0.0476800892707153
-0.052865030638486014
0.10329566502878469
0.12609087639831057
0.010016791605140045
-0.06544101031048381
0.069207190261916
-0.01842249821537512
-0.1538681783313183
-0.14929715940829594
-0.0014745289374175582
0.10493440334576322
0.19009254446850388
0.07093471207424065
-0.044348883129787756
-0.15769801843765524
-0.07922836453631314
-0.02407501737792993
0.19032902754327677
0.1465608229199895
0.030325382983226946
-0.1648920787299822
-0.23289723343533977
-0.15264212040895064
0.10825779430488482
0.18401542357058
0.09823093119738195
0.05355113867589491
0.02787513213057956
-0.020913371818360307
0.057507570785953734
0.02320852107988824
0.06407290899655553
-0.19032740565507938
-0.6646173871049644
-0.4484680080438295
0.17554584341813856
0.6920309202625097
1.3142653203617567
-0.2352334736642943
-0.1124396338277356
-0.30839593572056273
-0.5891012925395459
-1.0402271004781114
0.7642858822908414
0.16052532014152854
-0.037272272101020285
-0.18730801376125633
0.12409997695388571
0.4336212398976231
0.36872913148765973
0.24008751306722284
0.061920688652642206
-0.40359763630492773
-0.5897755881570265
-0.27316179616170416
-0.14092822978362715
0.013840785532750447
0.27045088773112247
0.34240041445276914
0.3367441013922618
0.12410224635836663
-0.07288080213904456
-0.27222597517694086
-0.11262620739030475
-0.23022893079422863
-0.04090806530087525
0.06694275633956025
0.12868684430127122
-0.007903671131742245
0.10339497843284468
0.09537435892187414
-0.019330939478154365
-0.04873911854278826
-0.016617051207558565
0.04565226544690336
-0.0922410339796175
-0.052779616595403575
-0.0477871586697627
-0.0807276166909945
-0.1541184384814984
0.11967535237001299
0.3079999764147697
0.353168313149246
0.17861047933169674
-0.0920526656406372
-0.5067975777853838
-0.4574607540153494
-0.26437969779313764
0.018070129325733358
0.37459894013730366
0.5892766086604336
0.2067202356452264
-0.0931026431821529
-0.10041248092028505
-0.2639101152408718
-0.270127725624675
-0.22328293621800735
0.16806551656224927
0.3967402540753435
0.35935633419847746
-0.038320010258201184
-0.06946295190838689
-0.36991979771100275
-0.5250486105398018
-0.2684853462539286
0.30216931103148414
0.49540463989660194
0.39190713267500943
0.22013699393533118
-0.04878894610089734
-0.2853871940802998
-0.37235478687512547
-0.17336511952155503
-0.11163735684310432
0.035099877812970484
0.12329944794484406
0.22160631533309882
0.18669801433607305
0.04512539298575033
-0.013619645097158318
-0.03179529974878151
-0.06868723746751586
-0.18159218968057322
-0.00806667308073271
0.04611323037989406
0.010877046243844333
-0.052667070923468784
-0.0642412624388603
-0.14237060860252537
-0.02626499588397373
0.10165235854479568
0.19763083971339795
0.349394840069728
0.38606813923766203
0.10830286314031155
-0.2643374953708238
-0.4391595566577322
-0.8055749841914267
-0.41691085137496076
-0.009814255258642478
0.33960568766142246
0.5371094937799863
0.9925797578341099
0.36763564057306763
-0.4350291764376691
-0.23842993292442227
0.473605928286286
-1.3679342289933616
-0.5532043528104222
0.24139856398067944
0.2511587197403389
-0.41120996164802404
1.193485142810941
0.5832317800912553
0.22782662305493545
-0.248801753457881
-0.8414092912172504
-0.7278572065322683
-0.44597806348896973
0.10250234585977509
0.8203148601782366
0.7691803988182647
0.332153957349024
0.0023036464831952936
-0.1957021050269595
-0.4588113360817986
-0.7512464632810005
-0.1623504828427093
0.10924806398366337
0.14160300800393683
0.05296666285157299
0.7572981493035971
0.32751810451833957
-0.021684469048331368
-0.3276036179118845
-0.45529204283613783
-0.26750552448999565
-0.00162628791034296
0.1388079097966267
0.17794268064630764
0.1527340970402885
0.09732270409037656
0.032971145228164384
-0.03373241857639367
-0.10546198604537915
-0.18523907845289245
-0.06861735172041672
0.05942231315642234
0.021641929744008883
0.04121837113147371
0.13308923184992258
0.09742028522686196
-0.08235971960643003
-0.036313983559789514
-0.0008242740447968072
-0.01001513031272803
-0.08849323057054344
-0.04757259106391734
-0.08628788263481633
0.00265723563618018
0.023373771235227093
0.1666865937942294
0.20354114041988397
0.08588608767996678
-0.042810466451741705
-0.02845202162379829
-0.08306531113459888
-0.16413239090919224
-0.1636544564688165
-0.31272491969892446
-0.2043835501212303
-0.032954106042641707
0.5576694140751586
0.6297416011079964
0.5266369346459703
0.07869704141711902
-0.35824703183517137
-0.8423540923521519
-0.5831639326303197
-0.0978852586257437
0.2004361992234716
0.3829782773403525
0.3651317766520203
0.26318096687173775
-0.037905544099017766
-0.09825990074093525
-0.11911568946342675
-0.12727197712560595
-0.15620145191927715
-0.030760765934642487
0.04053734069851328
0.06515791442907161
0.0603125292382265
0.044445051293610996
0.0298517278045136
0.018676191945636997
0.0030192558693803782
-0.03143751388279067
-0.09984056648383303
-0.01255517921530828
0.028775194467848448
0.03267233227531918
0.016947489021830086
0.006260877684128194
0.028790009360639326
-0.08781435056333303
-0.12149705199354503
-0.062284073406940386
0.08012004163724062
0.06942179740649596
0.23992911530076713
0.30184426301963263
0.15726703304198564
-0.07416295156997267
-0.6263222352152025
-1.0653837608362604
-0.08796395225489188
1.255968805709527
-0.278380998404848
0.8256197848318664
0.6180601474150341
-0.31915808056371053
-1.4493450558825625
0.3536741018137675
-0.3653496891520914
0.16798677136291792
0.14890436487811443
0.1719884333271937
0.2085240559109133
0.39346738041177676
0.22919521543507176
-0.19264455514482148
-0.35680701502274653
-0.4894221249142278
-0.5365485789575101
-0.16737158380906086
0.3955103566878453
0.5272521960626891
0.5505958888522865
0.5036577304447334
0.13897775694935974
-0.24471044866379374
-0.9497555956254087
-0.8271613857921223
-0.44702435168778365
0.2942833337575561
0.5321656156504674
1.1749300919587808
1.0538066288874488
-1.0966253625093063
-0.4209601275486204
-0.299254912566454
-0.2978988034277543
-0.5339897891350485
1.1377486613297934
-0.08255863566198283
-0.15919008926216843
-0.04207272866440871
0.11607239837271557
0.1488922737045097
0.07237970411137894
-0.11251207043431835
-0.2121684912921678
-0.030761941682494704
0.03745470268519973
0.011704222630862194
0.12405608664716196
0.01619537018025245
-0.06461931419615582
-0.06949474607714973
0.048116899392510216
-0.07217278983268476
-0.0030702577343356915
0.06483122664076073
0.11859162178485817
-0.07884655320919902
0.013492511227455052
0.12101243095002723
-0.03651465331934695
-0.13297355926627585
-0.024035211677982827
0.06220796458600766
-0.06985428943883763
0.016141992012989808
-0.017399759897741594
-0.09284477501715821
-0.13200312551778387
0.12706034312381262
0.11400437876901999
0.21517028882840158
0.17204505697920272
0.09217986133993722
-0.12797742211032498
-0.17320930263748732
-0.2809773156437982
-0.22363034360177986
-0.3087226979981611
0.00012537752200637636
0.2459713882246207
0.5354987913319648
0.5047243789410477
0.507106335475376
-0.16907811654202987
-0.6582753155317619
-0.8654172947838675
-0.42485193838767155
-0.08774278760299506
0.45685684567278634
0.7368921870848121
0.6481123946957063
0.221738655057642
-0.17858089751633804
-0.6318803380973855
-0.6208275652746255
-0.3976332837778046
0.029881287736470207
0.48769834742688856
0.6083559979574951
0.4024617503415425
0.04379123756660859
-0.32520896166288754
-0.5715678398853886
-0.3456102201042939
-0.06365834281341372
0.292841061367647
0.36311430404886796
0.18619238719982906
-0.016433253995298925
-0.04788539089658213
-0.13169348603761666
-0.09992482335881035
0.020914309835094205
0.021502078395024996
-0.08393936510501497
-0.05752172212521476
-0.043553295359506645
0.02084245831773093
0.19271191425015283
0.1112452641203193
-0.00975280689549843
0.017294495012851446
-0.04058292071886131
-0.22711498523187462
0.013554435375973546
0.044614819525864394
0.04019563918699266
-0.014804241048639597
0.07284171353164315
-0.09846139330403367
0.07203960239109053
-0.014565388092603325
0.0421861364201239
0.042298027392290195
-0.013567961023958203
-0.12272738677911005
-0.08010208778669022
-0.08014404168633035
0.07852954154811201
0.18708262380227467
0.02192693112863221
0.14509984341300697
0.11168581867452146
-0.11613971626297283
-0.15180435464566622
-0.169465095311233
-0.49794795023966604
-0.028054527824383346
0.36669647758929924
0.6017519996675244
0.15593141058445426
0.058513774364966534
-0.30686090874970706
-0.38544849705622153
-0.43141844402756563
0.10560807377293709
0.38284506006595864
0.35806118846616836
0.18231736328298126
-0.20103586132828288
-0.2488955598501999
-0.20623665281016365
-0.09597144507666727
0.08379973079070548
0.1539763957479487
0.14311775181441533
0.07564983322483504
-0.03601569335281016
-0.19363785562207847
-0.01045800986534741
0.09411543901262988
0.10063453607379681
-0.004107431512887185
-0.020828550671812208
-0.13242537190672368
-0.10148683087158847
-0.07282921546338021
0.017885417929854923
0.03052174962786625
0.20516536701308652
0.1498373819328397
0.03568729148614565
0.002118518599042716
-0.028837559361657442
-0.1326388689335944
-0.16244226150154298
-0.13516192606516306
-0.027570037927604117
0.016285020964034207
0.06850803852233188
0.19663688236679988
0.2450788662641192
0.02430060350548875
-0.08932367075451329
-0.14398204712388027
-0.19763072734941192
-0.10369202069629514
0.09833025256824847
0.1860283389029334
0.15292321620141447
0.006193679612702088
-0.2345519780954329
-0.137877394253467
-0.06282911804224027
0.03502617276427396
0.19420781275630244
0.23766695716722125
-0.03288672475490363
-0.03573242730381443
-0.0010656760784095048
-0.15929796718082906
-0.13056374021016326
-0.12004821271608916
-0.1219409284942693
-0.1318363956779655
0.2362445744839074
0.7355316941916875
0.28403627963223443
0.18114785732794125
-0.056347729340969946
-0.8483621447373275
-1.1135887462524987
-0.2593017595923231
-0.011079372874924458
0.5207007448689988
1.3574671512043346
0.781840912879299
0.10697124970703138
-0.3015791353947187
-0.7592076280113973
-0.9755422025586291
-0.3780986123568606
0.1299653887339613
0.3695970934134489
0.4510604398047666
0.32289884640569744
0.12414491099533721
-0.04684502515411569
-0.14261581762760564
-0.1594349236484384
-0.12053004760639256
-0.05796272611551691
0.0009855809302120023
0.04045038918166228
0.05621659922825343
0.05195367954374543
0.034318110801840176
0.009163147424496995
-0.02009254047213432
-0.05210727840276614
-0.08626684311263805
0.0784970267172339
0.044072110855644026
0.012869370231385348
-0.012522457176920446
-0.029336234709963046
-0.03447218999605119
-0.024755316682945293
0.001977447146995778
0.04510437303473295
0.09954181560412237
-0.04475185471507245
-0.001315658868531295
0.016187366806203786
-0.0016448893235071018
-0.055955992561744904
-0.1375222812796301
-0.027769032638650316
0.09667419303097712
0.056863416924258815
0.06422704848494311
0.11584525058403701
-0.005729230756058401
-0.1279148096243446
-0.08050990864671115
-0.08793630264140052
0.03601846831296351
0.08979236821087788
0.08268028226377894
0.0323239477502997
-0.037354553586676206
-0.09745867625659957
-0.11570081165238011
-0.05977354528362657
0.09682735328260102
0.16766165104271527
0.1476842033847803
0.012156170052652243
-0.07838588644791605
-0.16838417494516905
-0.0963644769441385
-0.08708641990991757
0.05055748028191535
0.11989849636577297
0.1296548460434841
0.08763332863111117
-0.001992010394879127
-0.13694813401936715
-0.11229365174558371
-0.11613153782728643
0.07155745775887505
0.07598282359953419
0.12183707944977744
0.027508584348575418
0.001642260214751797
-0.15707521506926406
-0.05777057287518653
0.08542966824082221
0.055678759056921795
0.03512565413837598
0.006760933723169291
-0.04322422174894233
-0.12311418722479371
-0.03461139994182686
0.025909123405706624
0.06387147091992189
0.08211783472888969
0.07789894076181304
0.04313311508320887
-0.03153751027114159
-0.15020591990695875
-0.10550677699308167
-0.07601629488429398
-0.029386304925098472
0.0689535036698071
0.24424289143809808
0.10235821664366586
0.02554011587956458
-0.023962379016544463
-0.09335356075535187
-0.22564476551781332
-0.04781323903365811
0.03522149725307121
0.03924514893312526
-0.0067098519188423964
0.12928119923203976
0.07251471108360047
0.03603827470828409
0.020544769840613684
0.019499947148941727
-0.17264772494786262
-0.15261209259910868
-0.10438610094582158
-0.0016373570269949248
0.18396338427946765
0.2717773420648614
0.06353445888454476
-0.058930707492497535
-0.12853564596589342
-0.18299200709172475
-0.054648789602609146
0.035770841124831206
0.0798778876473715
0.07786998106416951
0.033064733386802506
-0.052561440567413076
0.019733080822036293
0.04633847006659092
0.024275206203267504
-0.044848931855124924
-0.1513814900373959
-0.0763953105764813
0.005946191031341954
0.12240505565915397
0.0929157389438472
0.12418125765922157
0.007485581177558928
-0.07817074669591727
-0.15888271021364933
-0.057635123316811546
0.01166412258786923
0.04603175508095437
0.051330314831555736
0.03801390883720459
0.01683986089805208
-0.003931299542185895
-0.019371912040691896
-0.02721675302099573
-0.026655057086566434
-0.017567765879621198
-0.0008000976619081846
0.020548894441238807
0.039428100190409994
0.043677872967471665
0.016291514664160126
-0.06254582963040405
-0.012040537055664944
-0.04699637296118158
0.02527447314929503
0.00671067711715457
0.10896054351953821
-0.047043849657105175
-0.03214698342033974
-0.21100174324513465
0.05419834124755455
-0.0019300157938259414
0.24572640894775208
0.2085237747034273
0.08467510783542284
-0.33452677233714245
-0.2556149529981381
-0.27640109688424297
0.013049459869230185
0.4209697077531028
0.3404540000182234
0.13984056043963078
-0.03650488108386189
-0.25570386131215606
-0.37705074292484275
-0.0342464132568424
-0.026689361681959657
0.07702612513904754
0.1254971132385134
0.1664784323344597
0.031021077297858784
0.12491835444267542
0.02974824310172418
-0.08742638973697699
-0.25942907297587614
-0.10478928462821895
-0.019186587982466894
0.024556860675811927
0.06840710010383379
0.15637973768694108
0.12184125760157498
-0.021025574065029005
-0.07951152019558637
-0.07891990459772005
-0.055748013700438845
-0.05029446583157621
0.09955436076321285
0.16322130872952892
0.12202363720710362
-0.02574582056338307
-0.2601693871841279
-0.3387454314869772
-0.2034176496593216
0.002013676055027849
0.3065712855330343
0.4870907110970132
0.4551592920992221
0.26616877234480973
-0.046187989961007106
-0.61674639278382
-0.6931771860191837
-0.5981732689234468
-0.12616182411969026
0.22005910696505143
0.7618049785295686
0.36664676222344306
0.5844178080281781
0.01594526852941337
-0.07825961598148799
-0.5351484083492496
-0.2276795374592181
-0.40390119652635176
-0.04271547844909161
-0.03491447505695905
0.2107742120678406
0.3440947745032381
0.24323781778112585
-0.011108283063438128
-0.15134150960505205
-0.12760959552002465
-0.1054548629857368
-0.06173102127212819
0.017410371740717006
0.13549691813064493
0.08324484153136542
0.03735614998982682
-0.03711544894670585
0.019812567880795055
-0.027317345565338432
0.0009565484843201389
-0.09261864876375914
-0.07821429309079846
-0.10168333353915161
-0.09469795314501046
0.008792576666490302
0.25318048625134937
0.24439033646936514
0.14183039907929246
0.0635579576829643
-0.09495552161106365
-0.23296808993762558
-0.21569322481103664
-0.2537066204104563
-0.09738148492891127
0.151554947264947
0.21492309635073678
0.2075446938201341
0.21091316896057724
0.05879689982499188
-0.06204225363368693
-0.19811694117343476
-0.20870498754643452
-0.14638541068031544
-0.04502334314376208
0.0821026587775069
0.23572573504737718
0.22049733029952928
0.037029929345004584
-0.1203576330147957
-0.2604295427255752
-0.189930748753452
0.0890022221621359
0.17665219732952867
0.0700409835012016
0.15753959235593465
0.017487909792044985
-0.17770873808952728
-0.053438616496771923
-0.024114608723112347
-0.08741493446558678
-0.02384166142680112
-0.001934524320416605
0.012376476022335428
0.24521424689938937
0.1066160668729787
-0.012090287947705199
-0.13426875026704094
-0.08892077938725917
-0.10021924138819792
0.020584046198669766
0.07866405174407558
0.09447709062878822
-0.10064258595881843
-0.07055561874420826
0.018915769998363387
-0.0068993543743736735
0.06240564557849398
0.21869606794415877
0.03595501864059126
-0.12390918644979505
-0.10122573463723132
-0.1278370576714162
-0.019333582156704405
0.027076727032432666
0.028706392647813477
0.009370921314474546
0.1902597091733001
-0.01722024884044113
-0.014482626184376691
-0.014124574744466845
-0.03471212022613342
-0.0941284189909348
-0.0037410720403629493
0.03501678682054324
0.031130029730271656
0.0020267944290401677
-0.02990369827346163
-0.04145348693715997
-0.012821812646955059
0.06866775250600576
0.20629383198820456
-0.005785519954596407
-0.17926704327356538
-0.12656549256799704
-0.05630888250576137
0.02816524548046957
0.12679102728588715
0.2390037451436302
-0.03890750547948685
-0.11334372399586264
-0.1902018776049519
-0.07143195776933156
0.04589457897675483
0.16704548329801733
0.09514194583315501
0.027600082857758296
-0.04426467353876626
-0.13225236390402562
-0.04664977535004551
0.007598216428326647
0.03223465497211514
0.034379726012742196
0.023627377060428768
0.009004115118814162
-0.003119114484255453
-0.009749278798544434
-0.01081440533667112
-0.008041964584612494
-0.0037289000205410435
0.00019457149580778084
0.0026344870762817964
0.003366372595824476
0.002784418299455483
0.0015500118666587656
0.000286409463149841
-0.0006022180850053139
-0.0009767107575810836
-0.0009091774561943186
-0.0005830162713416759
-0.0001948982660346394
0.00011141647648100327
0.0002704692381294
0.0002867567766855509
0.0002076382708425532
9.282711108301828e-05
-8.765441725611922e-06
-7.031412529326455e-05
-8.733271433703363e-05
-7.086843585024258e-05
-3.8352202307437724e-05
-5.818669691834457e-06
1.658101084054057e-05
2.558380616819959e-05
2.3302561605275324e-05
1.4592810189074551e-05
4.531410429041877e-06
-3.247832244539116e-06
-7.157301532392889e-06
-7.399143904145685e-06
-5.244924063305225e-06
-2.2463631538128758e-06
3.514177576709622e-07
1.8855556563992884e-06
2.2683022683178547e-06
1.8031688582780179e-06
9.465892686356031e-07
1.0942974140242953e-07
-4.5439438353956406e-07
-6.694539326379633e-07
-5.967755825557203e-07
-3.6469725400406573e-07
-1.0412828420641632e-07
9.321580621862434e-08
1.89018170336165e-07
1.9069753823180022e-07
1.322979656010214e-07
5.409458453501658e-08
-1.2253636764639857e-08
-5.0411580458091055e-08
-5.883382732142868e-08
-4.581487508997675e-08
-2.328888391908807e-08
-1.7715957592887948e-09
1.239781070259896e-08
1.7499547067040814e-08
1.5272966009609367e-08
9.10377867703927e-09
2.3636604842241456e-09
-2.635968012764099e-09
-4.9753101897202406e-09
-4.901919786127337e-09
-3.324784869301533e-09
-1.287963133887419e-09
4.045875998380742e-10
1.3515244556325967e-09
1.531403542748577e-09
1.169844551999497e-09
5.784399530335085e-10
2.6018099190547968e-11
-3.2947867052920116e-10
-4.4952033742515046e-10
-3.831483483061769e-10
-2.1952167402214508e-10
-4.538119503969936e-11
8.111022717487029e-11
1.3800883134671325e-10
1.3313076766703262e-10
9.068525175288071e-11
3.7705070168331554e-11
-5.419868740230715e-12
-2.886099719773934e-11
-3.2537279237676433e-11
-2.256086602476399e-11
-7.056970979768179e-12
7.1088743132554965e-12
1.600906854828597e-11
1.8800102032287176e-11
1.6853748027201228e-11
1.2516787669996487e-11
