0
-8.171510812669131e-06
-8.171569108160458e-06
-8.171556359339963e-06
-8.171437612741227e-06
-8.171209864485138e-06
-8.170922085177742e-06
-8.17068125389337e-06
-8.170633306824166e-06
-8.170913829148208e-06
-8.171575228100475e-06
-8.172512626663373e-06
-8.173424256242563e-06
-8.173845891829294e-06
-8.173285335919407e-06
-8.171448746429574e-06
-8.16850057913667e-06
-8.165248551116889e-06
-8.16311895165029e-06
-8.163812779003736e-06
-8.168626906682782e-06
-8.177580393681196e-06
-8.18866340870837e-06
-8.197650081358878e-06
-8.198894831300036e-06
-8.187290570872352e-06
-8.16109813003986e-06
-8.124758195278544e-06
-8.090289837537555e-06
-8.075766021356269e-06
-8.099920781661382e-06
-8.173300451131943e-06
-8.288313836532423e-06
-8.412445716718278e-06
-8.489814265774032e-06
-8.455147947173238e-06
-8.26050245333725e-06
-7.908945806635054e-06
-7.482655518884436e-06
-7.148337595860704e-06
-7.1241336972685745e-06
-7.601971746598878e-06
-8.637765041403463e-06
-1.0044910042741438e-05
-1.1345483754332942e-05
-1.1836682151816104e-05
-1.0806647049405085e-05
-7.88002760828437e-06
-3.3982793852772477e-06
1.3325547513852454e-06
4.12561051379424e-06
2.479673590014156e-06
-5.37063378127032e-06
-1.9157739204174637e-05
-3.5532997262084725e-05
-4.792861453365204e-05
-4.792589039048386e-05
-2.8329795706818136e-05
1.2574900540694909e-05
6.699763399876123e-05
0.00011596381510755952
0.00013217411465466026
8.862583217301672e-05
-2.7907959747235253e-05
-0.00020236463530115136
-0.0003823955289775554
-0.0004825221891213847
-0.00040702989606940644
-9.118864799873638e-05
0.0004488812145598613
0.0010772671758639458
0.001535797516412918
0.0015004658459942233
0.0007031633341728308
-0.0009033233341840853
-0.0029932336397571033
-0.004811210409152715
-0.005294814653553786
-0.0034207913739908334
0.0012633543354194103
0.008072042332114155
0.014828147557991103
0.018005262712804834
0.01355639424891183
-0.001620742127234164
-0.027984673912456588
-0.06216224502611582
-0.09713737869420701
0.07565709492417223
0.06269297850598417
0.0645612026135534
0.07401925203107595
0.07736145868965819
-0.14083248804044554
-0.19129244487488553
-0.07494088564829565
0.018224242111656398
0.105452256204942
0.2045934015130015
0.1279818952699224
-0.12005236196100419
-0.1412514594488893
-0.13907775896636468
-0.11537701982967687
0.12940903632986242
0.1925640153819178
0.06464512246761589
0.12786663338432036
-0.0404436036079705
-0.25991670493045643
-0.13803995497805585
0.13578549750887167
-0.21010033236971312
0.06332195467146404
0.19425595185600894
0.2081743082217024
-0.0901891726198797
0.0819988419783038
-0.10842456494858756
-0.10015670399659342
-0.1263727571828633
-0.006819382204266535
0.05478787498022479
0.06815310095733483
0.050549311387552684
0.020416503624156018
-0.007449532041374296
-0.024200182909254506
-0.026982051260437106
-0.01763844382471957
-0.0010207122143804702
0.016514459535537564
0.02835410554639053
0.028904406518922454
0.015178563207185481
-0.011373867139411091
-0.04344159792643407
-0.06799313070201922
-0.06928991863614253
-0.03560165790935574
0.030662971007898287
0.10117368600694356
0.11127011392405112
-0.0456442689383712
-0.5161640888560618
0.1243317704165414
1.094020607891891
1.8410407068785546
-1.5051003297202543
-1.6759399703136622
-0.8234800596818415
-0.7261188189494725
-1.0588114774984736
2.481360065329763
2.2311081732898836
0.8508014443948448
0.0938137502796728
-1.1281865238692617
-1.204684471392685
-0.05711343179833146
-0.3922916163179172
-1.4169779667234996
-0.031975947536375796
0.4960159867255924
0.6051170544267852
0.886221881341237
0.7480622843277344
0.13241469799329586
0.2964147277328382
-0.5403853238783978
-0.903147091560706
-0.15136333113767006
0.020731622105423047
-0.5471692648197674
0.14803832989073157
0.2656513826339238
0.28722603364137583
0.16976159880109445
0.09951559865048935
-0.1441449873010284
-0.011153151810984982
0.009632352096257705
-0.009665658921514624
-0.030043482607953673
-0.03671638280341365
-0.029621894482792722
-0.015176369306395461
-0.00043724127965194044
0.00998800603164259
0.01466619223936114
0.014524600710392037
0.011443455530247034
0.007037145156765652
0.0020815328334831454
-0.0033220568269400653
-0.009069048221246061
-0.014282430734265205
-0.016927012325721982
-0.014174098348817943
-0.003624755490273825
0.014864629256457255
0.037383457280932376
0.055053031816663156
0.054765121714863814
0.02179533120314251
-0.05647443059745586
-0.1876528286449129
-0.174934560896397
-0.22342769607836654
0.0477731766819748
0.3915393466449515
0.7243606394771573
0.5327584522653821
0.09967471923596552
-1.2535461559395207
-1.3255530890565785
-0.6157255624675828
0.4571823437177996
1.3012580698776193
1.485769824275347
0.6963925052773949
-0.6645943261154201
-1.0319018925678929
-1.2075299692307853
-0.3025215010975513
0.08115706486853584
0.41879646999894604
-0.008106238288324645
0.6016831811171157
0.4942243607759604
0.5196051344998779
0.3386782831442675
0.07848404070153901
-0.9761209079927516
-0.8787505375986652
-0.5349022953130778
-0.05673157877494235
0.23076357428269514
0.5394785914144128
0.5442179107809035
0.30951855499131936
0.03709508026611695
-0.15661933201791156
-0.2346237028250827
-0.21500987441115668
-0.14074777754532483
-0.054264390532141785
0.01717692820821953
0.0644038963418967
0.09060571480022943
0.10198759207232223
0.09993385152030626
0.07838552655248009
0.02777540473021781
-0.0558767955193475
-0.16063288961025904
-0.2526298191497965
-0.2799738682465526
-0.18990521720564213
0.04191059597471488
0.3770984642631992
0.687948572498496
0.7533657372011674
0.2887091052309234
-0.18943229505229411
-0.8769585981063381
-1.4008739989234489
-0.7738668270585571
0.19208198681312275
0.4092991148062704
0.5942599491855282
1.1388880242940074
0.811863742404891
0.7187990819879253
-1.8688340357615612
-0.6279029697329108
0.33177991875055685
0.7834224756302692
0.2803876567921843
-0.17518100607582157
-1.50081929920816
-1.5526890874288561
-1.208467562617425
0.48594312970949133
3.732540298066791
2.4137163411233007
0.20254474686039495
-1.0110665616496375
-1.7864516214576496
-2.1416919087335713
-0.174221262284578
0.6549855201413117
0.7549172388144929
-0.030745242560201686
0.30227187998182586
0.03527420673426011
0.25387247476120267
0.197061038051511
0.03207392832757376
-0.14660868409146607
-0.3005980754488355
-0.22305898854941694
-0.11638056567440506
0.02094875515345766
0.19647325919204975
0.21811829593965723
0.08665846241453906
-0.008281408287458403
-0.0862699742907509
-0.16939585354321185
-0.07454050295030248
-0.008484322708784237
0.031974285620409326
0.055205098466808454
0.06756410755775745
0.06694816000568836
0.03971949000208212
-0.037682350679008825
0.007243662577499246
-0.04832038553667799
-0.013811665796971179
-0.07917667906529244
-0.013570579139059936
-0.17022630755776394
-0.09761149890594588
0.04473671233534345
0.26951833599709674
0.3500195982168041
0.4199170681515923
-0.011653614460754124
-0.43192992175086214
-0.6927427107478429
-0.5893231514723313
-0.26217330477604056
0.5745756250493407
0.9878193561079354
0.5828293615065947
0.08416970416354373
-0.44825080333073886
-0.17130783301786337
-0.19472587025787966
-0.12166960084576946
-0.6121565736331627
-0.38153877761248206
-0.438603606414879
0.04161490530654287
1.426257497363528
1.3397732895643801
0.2133789980250337
-0.7136086060950739
-0.742991635829228
-0.8392796023638441
-0.35316292291503387
0.6306117365689871
0.7139730214664303
-0.018001630752703852
-0.6123356341880128
-0.06615930318276386
0.2553426460634172
0.20151942858915445
0.22158337785850377
-0.04369748885800499
-0.16213138419548767
-0.3041256041144605
-0.035567516435255506
0.08557132985674207
0.10689491582403547
0.07500642955583797
0.028155462423782567
-0.008735680320612239
-0.025197849535821618
-0.02278264200000517
-0.010408214379690016
0.0009470169519599622
0.0029203882004108
-0.00703837596664255
-0.024464137506764662
-0.03897856319782248
-0.0378019971461917
-0.011384143301705778
0.039797931046187514
0.09900701592733671
0.1298283331904983
0.07758017283899767
-0.12373063670739845
-0.14028032125553236
-0.22638088583117233
-0.015153054070744578
0.2861653557320637
0.4973109271207657
0.2653854813654591
-0.3341894259665019
-1.200232551933618
-1.2213153915092234
0.08731790298619878
0.928410786758949
2.170231271656607
2.3318052902010664
0.4364979089080537
-2.061990438700366
-3.316695456928142
-2.1538504010646893
-0.6354588181926573
1.2508516274992152
2.7982076102786673
2.5518368766277946
-0.0728019672936215
-0.26694105446191746
-0.18779249454208322
-1.8307805836912026
-1.4687966531936731
0.08758213486704917
0.3735395315368093
0.08920281355696284
0.870961718467661
1.043463882977575
0.17921163005492194
-0.919059402473892
-0.8143054011935933
-0.22352705847164925
0.18476943016999112
0.3757730759837978
0.3202053255037516
0.1643348657155024
0.009490213100363671
-0.09325902434676613
-0.13436633492512068
-0.12884387679505002
-0.09837513577386058
-0.058514272006866985
-0.014102549241527042
0.03721443728489643
0.0962025621398212
0.15246214054668314
0.1787813231590055
0.13284098387748347
-0.03309447932266887
-0.3575978978442549
-0.45709131703359784
-0.12201507458584533
0.07304798765249294
0.1466893917243259
0.28366592618997816
0.6159214901492992
0.42348767698248346
0.16169333153362872
-0.28833272902964574
-1.5598069401374797
-0.3526622919695613
0.18124058285195108
0.41055712502035907
-0.039018858010549565
0.6342475279359207
-0.26873105759792365
0.19734930965576508
2.000891636015805
-1.6503912250848267
-0.46075985607268116
0.21996391156344533
-0.33986156201467854
-2.0100320164856416
2.2174267929307736
1.2207959523848826
-0.2683232315610828
-0.8772114170194033
-0.9959835084575056
-0.38261021061592854
0.41973414400109677
0.8527709913530223
1.11486095196369
0.7549219004855708
-0.09811498901239747
-1.4749546771563602
-1.299203004747099
-1.1491660892330446
-0.4762990379723434
0.9146446180559826
2.7481224524040395
1.1687517204749442
0.0875159058661457
-0.5923168993250791
-1.2800970560709208
-1.7729535914896206
-0.34956921331338114
0.48206330047864665
0.7739554954115346
0.6816118754811443
0.3924280791112416
0.06733284777677288
-0.18908906655103414
-0.32991175253483845
-0.3492609914830782
-0.2620983693816989
-0.09189103487220522
0.12923020845053582
0.3510666065682984
0.49575798580793623
0.458575673642741
0.12585435908291953
-0.5916085448090986
-0.9213620459370664
-1.0065471014585072
-0.11384572567691274
0.32371999483409925
1.8430122772405928
2.0945106129198874
-0.776840088294065
-1.3007654520458174
-1.015098580255347
-1.3986461808272104
-0.8390720021985565
1.748715361560409
1.8671290302480799
1.378871088073304
0.2856274398912168
-2.041332307036192
-1.3948231096562629
-1.0692760520885423
-0.441762816569713
0.7865158433040998
2.1029724514918393
1.2890344749249816
-0.03930407971704082
-0.4307185306038171
-1.1417610516410088
-1.0531897317460208
-0.7971229135118929
0.27698857476889877
1.0907860963780476
0.5949413343663839
0.5240093243129794
0.37336104062366676
-0.1903998507964618
-1.2915280779067955
-0.5989708097076591
-0.09483594120496143
0.3272444050219521
0.4333735272465976
0.4032510003602668
0.1850315104891843
0.06617332001725708
-0.13318975143649084
-0.24666452046345883
-0.13608485675578444
-0.06415948040872156
-0.07351071384273546
0.02351329125291416
0.0438171104478815
0.023761201277819093
0.004503640922933162
0.01669612269342521
0.06833534815683631
0.13888392360779397
0.18188904963714567
0.1368651796864293
-0.05127700114365306
-0.4103612146361514
-0.5248454459727234
-0.33436221753682793
0.04795047529848973
0.3001573005096209
0.8512958355179098
0.6539468143792604
0.18576871965644376
-0.1134145422705035
-0.17670515183209454
-0.8384114851835259
-1.183572586562976
-0.9448079375688484
-0.3607169021509264
0.11046072611779949
1.852527587859862
3.1784039234640713
2.0966937672682997
-0.20804438057249708
-2.990471601370531
-3.71509974520495
-2.4733958486453296
-0.3278385815612899
1.787915430913328
3.6510677619121257
2.502051854712291
0.26369959822847716
-0.711219484354235
-1.1601056628712836
-1.545060298685109
-1.0721014174705112
-0.5589480531325998
-0.38899856002276156
0.244037039114648
1.625967556327314
1.1905581796719722
0.8147610092572628
0.1764259554988252
-0.6148309851105482
-1.3304874211751976
-0.715482436183859
-0.3991969418063957
0.14787153115546384
0.4051013809755803
0.5528990928719896
0.40713078478976567
0.16016535676549884
-0.05583993487333601
-0.17874728942317128
-0.20428561103053647
-0.16221924613706654
-0.09163843582875274
-0.023180239901574713
0.02848215209994771
0.06271464971282424
0.08520447031611118
0.09920675940405148
0.10008804103927586
0.07590031929272618
0.014362056892018298
-0.08604083638365635
-0.2055107688440418
-0.29898108472107887
-0.30423780289839797
-0.16454813189749237
0.13730871093362604
0.5435025068880134
0.8995379679316803
0.9629413821081488
0.45203217518461863
-0.8701544277903109
-2.1007524286041575
-1.7291699134369
-0.6339841873084888
0.4391174071299029
1.9373324476619322
3.150329968712707
1.7136048032960187
-0.587486999756006
-2.1088455266762054
-2.378771527057008
-1.9438980534850534
-0.8994312473614473
0.6639913786192235
1.9155747681759907
2.3034370998809393
2.217082411954266
2.7588662777713946
-2.7520107581998836
-2.975892561408229
-2.7311880217040487
-2.4536687985125467
-2.207776022669927
4.340957680871404
4.654127371728383
2.8594308842062346
0.21032635426229088
-1.4768206280639635
-2.8303098097072437
-2.8606090037639036
-1.331819441902446
0.7560007199484629
1.5510813264575178
1.432232833598386
0.8512496159671832
0.19648157370679356
-0.28537283873795694
-0.5026536970507914
-0.4838698669557783
-0.32112885057798674
-0.11637174443607724
0.054321727502396513
0.15405445784665556
0.18036677565593442
0.15108405181300183
0.08955318042269599
0.015259131558124443
-0.05823146198202764
-0.11980018890423912
-0.15596312948524707
-0.1493809152368429
-0.08390930885146775
0.0435612459598293
0.2078561979649726
0.3432760352509121
0.34181017586308243
0.0671578888656387
-0.015384314392599229
-0.40013665182804686
-0.9063391053876074
-0.6624174706128102
0.28058362556682676
0.7074094919869212
0.9832706434192293
0.4072327626496886
0.19371961504171878
-0.5117075630868145
-1.1926574859373367
-1.5198988125566535
0.6718309628765039
1.3804259975981572
1.6180437015623732
-0.19861935451088206
-0.2314351134494931
-0.9797189286370381
-1.4382678918599912
-1.2861614954239118
0.4714249079309727
1.209044256348406
0.9611999671345888
1.3199741776057412
0.3908083200829307
0.0277439529146775
-0.6580082512414968
-0.9470263012801433
-1.5629699419219336
-0.7701538601135145
0.2541504742628632
0.7696028980829367
0.9677713352577206
0.8510978563125728
0.3347539192324365
-0.20382622110010812
-0.5234564973656661
-0.47948435137018414
-0.36881386325582916
-0.08151857480221349
0.12762678534560276
0.24513965432529924
0.08818477579679955
0.08677651513886496
0.0674884477440672
0.044032339159777695
0.01639490481955411
-0.022753063764355912
-0.07774868693614577
-0.14031636043692977
-0.18541063901540997
-0.17621117170150363
-0.07942726250824929
0.11171630487381817
0.3536668356902795
0.5378950166995777
0.49550709270745524
0.02678348707918361
-0.647480587337505
-0.6262016508783186
-0.4798052962366553
-0.23232647649761473
0.0168507752650837
0.6356247792579467
0.38176004460241525
0.12645759083446265
-0.0020881638073549946
-0.04351597947997367
0.4047328014075671
0.22932341458398856
0.06767195949877396
-0.21197830182838487
-0.4333007667854055
-1.457495569410453
-0.5708591825664115
0.07541284016227086
0.7795980842206899
1.3834944689218238
1.3836717251966593
0.09467581570414467
-0.5193479911979132
-0.7544608157317191
-0.850381214534329
-0.6886758855589568
-0.540253810905432
-0.07957270297116155
0.13794869465346396
0.9576305856600345
0.9009332851151965
0.8716385314808031
0.32121115456828053
0.0837244660561323
-1.3311960104908167
-1.0173376366953542
-0.3605576742031022
0.03122935474037598
-0.05769939523330721
0.5129581391532505
0.5724164506881548
0.36530476054814837
0.09312525543715892
-0.11700563504963854
-0.2150598462454614
-0.20986183156186197
-0.14158874012165398
-0.05584127637324622
0.013812029013345798
0.052663124840009304
0.06273523616207004
0.055446088396788176
0.04316432597946862
0.032890353295596475
0.023834221440629973
0.0091148918433036
-0.01954671452789147
-0.06628661110080654
-0.12741738126888566
-0.1922098190459729
-0.049650974946917614
0.09955157470449821
0.2294566306415474
0.28014753199088155
0.3605079265621461
0.16659475345208133
-0.1859657892226869
-0.5242765826964615
-0.7897473761107731
-0.8347030182808776
-0.0536457332586547
0.7544417023954699
1.5123715166824665
1.0100851711977272
0.4975157764475928
-0.46345714393256215
-1.5017920439226546
-1.530578569829951
-0.47393839604258764
0.14105089301357646
0.5214454067196408
0.8955002225044237
0.5873056799108135
0.5181437671060176
0.5626966912932131
-0.22942313946617945
-0.3548741326720806
-0.5435082859230731
-0.6420516040002162
-0.7249075959746247
-0.2535466516042598
0.3086265559662872
0.6353309230087846
0.6528146339705848
0.6590087345457752
-0.1311936404233738
-0.40479734446490234
-0.5384566766098244
-0.36972585392863316
0.03225191192847547
0.5870165035677922
0.21349221191924825
0.03652057031272257
-0.20562715588988076
-0.5524066659366321
-0.015081544115442035
0.22152497458768952
0.18871629154251413
0.11910939365613805
0.03369121708531625
-0.06433984924121544
0.012529644107754213
0.04490652613630656
0.01871718051876833
-0.062903943009272
-0.17206324284642033
-0.2569049707597163
-0.2539032992862518
-0.11218372233789474
0.17417438901710805
0.5354444627932775
0.810954217068998
0.7628067333779219
0.12535204609125353
-0.9163588527571409
-1.4417982261742726
-1.3369068710404526
-0.4927950670307943
0.5274409965662736
1.5703398015367638
1.9630968439683878
1.0232395367281313
-0.35748118291734554
-1.0502511502061394
-1.3765077009025275
-1.7952600329154658
-1.2386986416953993
0.6785038716818419
1.7859579278306978
2.6633645635244805
1.7836775081447127
0.7388388659481375
-2.045891535652822
-3.5519871868391104
-3.239922614667406
-1.2314904292913083
1.1606360585171225
3.784543066037812
3.7697117506840607
1.7267860208468515
-0.0910068460902078
-1.847212217116707
-3.055709717348099
-2.286934796159432
-0.9475840268538536
0.40194877249505206
1.1843710272486376
1.4397726267840887
1.4287385544949012
1.075158343190965
0.4963350378739318
-0.36706179437105263
-1.2441823909350842
-2.1994958024798246
-1.3288861012710735
-0.5325373848154804
0.6199762378401216
2.1556235835887434
2.548676614393352
0.6184893977191124
-0.48265235817197366
-1.1874252918831645
-1.9727394526121935
-1.2175768519342096
0.08854317106640812
0.7609195050680702
0.9667415199995049
0.7363029692701466
0.2771620693923588
-0.08038934270334343
-0.29670721664911354
-0.4022021782967182
-0.2595859514278388
-0.1268802430916686
-0.03395665884087916
0.022375873586804814
0.06682240211386806
0.12436745585829027
0.19811110489607475
0.25459662286226986
0.2227553116135415
0.008532969247047361
-0.2780959852712974
-0.49235659731624853
-0.4318520400147889
-0.03204288066359183
0.2158614772805618
0.42926848844432414
0.29261501263839657
-0.17637677406038674
-0.24223073162335337
0.5554506830951766
0.8315565804023435
0.0038648581907258206
-1.048077401586558
-0.9294512910637679
-1.3033117092075561
-0.30728248614044
1.3861024296328293
2.8881784859414257
1.4304230989750357
-1.0483737659836234
-2.0587343551159876
-2.291858351434891
-1.376655742701363
0.29803009939827657
2.8937400019490336
2.0045206155392683
1.3717517673352
-0.5186875182339938
-1.345229719368639
-1.7968455046768999
-1.0139903340063674
-0.47981715553323984
0.6074097544595286
0.8829490312474084
0.7141139376807399
0.4883612409855434
0.12500538741394976
-0.17114711026009508
-0.31343353458443185
-0.3061862338619848
-0.20405543938498563
-0.07350206732315852
0.033656725422548925
0.09164990685946116
0.09954327606246155
0.07265423694845653
0.03203775397634995
-0.004020801508156266
-0.024702109127704343
-0.027583395016005076
-0.016930071515785367
-0.0007421181285245956
0.012347684998122015
0.015717254510159855
0.006704559850976543
-0.012273779296888054
-0.033700646788467424
-0.04646401088556392
-0.03927495655623916
-0.0059543847599565864
0.048252871461312935
0.10108348121102499
0.11068002749049193
0.01805568307478439
-0.04467159092748251
0.05850888656143545
-0.1182102364157023
-0.19079380579841268
-0.14047998627504252
-0.11856342089739803
-0.26102620677766
0.49071075405077275
0.7706999492461796
0.5808796961311504
-0.4979990027833246
-0.47862035512603274
-0.9350050732484827
-0.5842583532900157
-0.09603016781935499
1.0697244368799073
1.0118260620752577
0.7484546935637619
0.0108812018775722
-0.9231603579191686
-0.7694077935007988
-0.5763900353638858
-0.2903724761772379
0.03968051412991147
1.2197685498423645
0.047921706678564255
0.05300235149502523
0.0534215978748637
0.14415624329209778
-0.4888652706400896
0.466574887042091
0.09686076175860354
-0.28574594456067937
-0.49649780109474867
-0.24596859949256394
-0.13014937580613287
0.1543678302439345
0.3748487447306816
0.3176371377029584
0.1473854001103391
-0.01936509974135674
-0.12217719848905788
-0.14877307463126163
-0.11785021464654165
-0.060218771356647924
-0.003993672056044688
0.03347906594126576
0.04716142498323446
0.041371342477283315
0.024968165549182023
0.006888041797250282
-0.0066938677102464286
-0.013279914152371603
-0.01346254694600264
-0.009571734832449405
-0.00427053345110443
0.0004269008867449871
0.0035436538917796283
0.0050162487265221324
0.0052835713007779155
0.0048395091676755285
0.003933710413100793
0.0024824789893757616
0.00010867328019190999
-0.003906269347139668
-0.011079384461650313
-0.024958488357731637
-0.05343639049995619
-0.11220292159726802
-0.028796186449917566
0.15436401890270376
0.38093810946673107
0.3892833531618597
0.13082543088062223
-0.4044945095574407
-0.9651863146673236
-1.0320253173253444
-0.24124348933280948
0.5617034031054344
1.6541654890153792
2.3851993719102174
-0.22656999070136372
-1.2320685692424165
-1.044574096386911
-1.9295938862033437
-1.7417815845116897
1.258977682096216
1.9140434265245578
0.8307792582101601
1.0583999550952807
0.01952296533433299
-0.6846506619956906
-1.0071742790780074
-0.35724564635162087
-0.3060040351089645
0.07852658068328315
0.25784651117037066
0.2151557008786417
0.02537662003220024
0.016310744299611473
0.13135294247402762
0.10022225219257012
0.020840412464121407
-0.04712071251994665
-0.07880481710592868
-0.07441967685568245
-0.04741142179241713
-0.014168183940233893
0.012662780732093723
0.026849404290538746
0.028117872973005872
0.020025644550319886
0.007557039967158256
-0.0046543409128933875
-0.013187082395749162
-0.015983505425441077
-0.01223321126719047
-0.002384024398994116
0.011576039849657683
0.025737506551035065
0.034173954470175974
0.029484568658139133
0.003975017657301278
-0.04914335601706445
-0.13582211945996508
-0.2640822412573789
-0.05063141285483368
0.27007477121181905
0.4387603728916698
0.3730127644470626
0.18348920391222995
-0.19503158413382707
-0.5656387517051314
-0.8392896463812667
-0.6295336349169651
-0.282504837139037
0.8606846610803542
2.187937031699549
-0.6443394111759113
0.6701763189785359
-0.07860681063543425
0.2580028819466495
-3.722990628193336
0.6938958225846289
0.36613209270524577
0.8620814610982594
-0.8092251869974296
1.922002946226645
0.5257116692837646
-0.6506025581390695
-0.5627425992567141
-0.2204925919691539
-0.2290170962177107
-0.1409239736589632
-0.03068217156024558
0.10634868056824111
0.13504829381854103
0.15051278486334788
0.046533798941623475
0.09074775103642631
0.11167106735985789
0.09950413730894388
0.019442087730317522
-0.1666751239449372
-0.2770314109111985
-0.2927469527160042
-0.15387197536003785
0.028640704000321742
0.34797486733326216
0.4720793097603125
0.22105786642043407
-0.03964867840238561
-0.18761362879838356
-0.3182434970093907
-0.31614269322388566
-0.033555526848851006
0.11754072693024381
0.1592291715464856
0.13214769375183938
0.07777568460906976
0.024606924675866903
-0.01864160656659578
-0.06282884394102455
-0.13353019480547412
-0.06475187994207353
-0.09390482010632108
0.14100258163937815
0.20323380058645718
0.26119084821864313
0.09704992653434696
-0.07967847528955121
-0.4178739245875532
-0.6180040520788833
-0.3418175797330795
-0.04326259968281618
0.38368850463555987
0.7551083242242604
1.1667416336459449
0.803627916465097
-0.0011339021584415388
-1.0687782220204558
-2.0696380946720008
-1.4536427383666586
-0.6541843827445766
0.8222630936505296
2.04420018555784
2.4942650182376704
0.7615943845311802
-0.4694756742134886
-1.330115864668136
-1.6129449839235557
-1.2112101755604099
-0.005167338587080921
0.5751945334669613
0.7135697071559061
0.523389659010016
0.35142537556492875
-0.10225723062867072
-0.03272632777429851
-0.14513424912074507
-0.043100687697061116
-0.0008224966007069504
-0.12886267506374408
0.05828326708629476
-0.5332363918181651
0.03608535538062456
0.13878423856638575
0.3697194002070138
-0.06874466207009906
0.4216790311808543
-0.1681761433051485
-0.24970197890488002
-0.22678373007405495
-0.08800882834686476
-0.0062624342416468925
0.0526238933521549
0.11495488234022018
0.18381947607824048
0.22988503131660487
0.193375476656539
-0.0012278074898173944
-0.22103106546676196
-0.49917657252246167
-0.618642634511364
-0.3145470436161268
0.5027750721923079
1.512019917576382
-0.050867952793765395
0.1963955651327375
-0.20071519683145597
-0.8969336690401029
-1.5098807893903459
0.5978087262502618
0.506573894147855
0.5041223993598049
0.6450029126115064
0.5274405502793547
0.1006381994786461
-0.8989389446007662
-1.0980523059374878
-0.447540427188395
1.5858495065699083
-3.0113985241931953
0.5378646498763869
3.327490422238914
2.3124885184136184
-2.89762209357415
1.2167820298724719
-1.0141964429054997
-2.947319046499432
-1.9681590240420235
1.692673164095484
2.6724089222541365
1.5574867829845145
0.3904144722625425
-0.5551081162649345
-1.1246555144856956
-1.3881784494903622
-0.5445287462763302
0.13680845162292718
0.5207446500002935
0.5663181005189032
0.46448529063602634
0.1798719997490826
0.014579340919277551
-0.2000159964893401
-0.2884540487518442
-0.30474429955660726
-0.10655729377592184
0.06131131199734856
0.17159140993140917
0.21033757369007014
0.16990352984549142
0.04459850835141073
-0.16875511828480277
-0.467347304835486
-0.24078769018135113
0.12434997405888293
0.43383795263828023
0.6745659560909687
0.011201032418126684
-0.20380587566047234
-0.40920167690477605
-0.6131416578702541
-0.583739316532535
0.3393523952723269
0.21378091303594776
0.8565611558563229
0.8190843535079102
0.5931031639772717
-0.14518089701037196
-0.8627712117441975
-1.6957572869042763
-1.2081532208193828
-0.6118368306168211
0.746310209145095
2.4540084568121534
2.3081889325802236
0.44728095639628157
-1.0277988004592091
-1.752300216065921
-2.1607883939605803
-0.9732739140820925
1.052996459002614
1.6988020341487078
1.21306907942936
0.44171704886422875
-0.6103047813218729
-1.1748954289240685
-0.6901905384445433
0.030843323557222007
0.4136000422388202
0.5135308491525249
0.3965616616864546
0.12254419528117015
-0.25915446645228
-0.5023026288302835
-0.35288651911491725
-0.144923021885158
0.19100071577350086
0.5084564559185724
0.42424730233290303
0.1070700059906285
-0.1169850553470551
-0.3428465026071336
-0.45718090530208955
-0.11316003510070867
0.08132668711784354
0.15902876632687354
0.17620695119264962
0.19110990478489187
0.046254185332972444
-0.04028335351373759
-0.07354525592087234
-0.07293708220918942
-0.060523725883854476
-0.05086675871036499
-0.045570202980420055
-0.0338386553801555
0.0015176505500629817
0.07481506093804499
0.1883245977199844
0.12693796688421752
0.059542978922077626
-0.052316499776980024
-0.2410534997817253
-0.32010587024092274
-0.07724179146202884
0.12236886982489883
0.3242259072948957
0.1689571053036798
0.08003226926899612
-0.1404711298282824
-0.10760973339941235
-0.24434746716088881
0.0275954915328654
0.09307246173263693
0.14419278901474994
-0.021863868833868944
-0.0052855958028385445
-0.004651176019407172
-0.01643474891199804
-0.03394948667257577
-0.04695819403315793
-0.042896174768899495
-0.010011119005103179
0.05818726241586489
0.1587375100246632
0.07740055017362246
-0.009146736990862877
-0.12702807613460368
-0.09679450527156953
-0.12630860239076533
-0.007954607633374642
0.07860179014603268
0.15934896672130935
0.057634318404576085
-0.012032397281549362
-0.04611681229431175
-0.05025277754622568
-0.035165598881716456
-0.012396866462151152
0.008696949397338035
0.02219863578580522
0.02551469165299554
0.018676583742904547
0.0037714248808187064
-0.015199106647194616
-0.03224683841073953
-0.039688267926891986
-0.02938880016410325
0.004853534562719435
0.06431501585908593
0.1429958248947385
0.027419502519542487
-0.10053610780873452
-0.0583254115336821
-0.0569379755521324
-0.09710409444444028
0.030828490881665324
0.14332447159526573
0.05799912273460632
-0.01176315408550298
-0.06004174129134768
-0.08894730083128559
0.09285523907630944
0.07285449450179866
0.038291830087309305
-0.01946608789936871
-0.10048322242316751
-0.19342442016486014
-0.07640636286708175
0.07741052725018273
0.2907190692320902
0.17303422566682858
-0.0840204618940644
-0.10475786425706425
-0.12184119684167351
-0.16671036622904536
0.13808486203700246
0.1826128069737399
-0.030309251241409794
-0.0870708913714991
-0.1663613670123944
-0.04360010968925179
0.10300274542158647
0.2858505982373171
0.10353115091154998
-0.058704472270020944
-0.22299872903068296
-0.21006827372657225
-0.03188226715468445
0.1107862204718487
0.22568471102158438
0.12407101046298118
0.01703574059558514
-0.28493997316959796
-0.17029346573119028
-0.025589656167507652
0.16201336048320397
0.19946321793891092
0.0827558091600212
-0.004336299182347842
-0.08622540309012258
-0.18765575369972018
-0.12562404091291887
0.0953145856506516
0.0826537203829693
0.051348196627984455
0.017611687422058857
-0.006307308647968685
-0.014936058911729609
-0.009829375853042865
0.0021109144151302737
0.011416374280395112
0.009199276883860057
-0.009941228232464369
-0.04585222856193195
-0.0922343570172077
0.061999002103186165
0.0294890270691601
0.02022188806096799
0.03782499795587492
0.07779952887455518
-0.07154140202431424
-0.025618475997980835
0.0013048966531625358
0.0009093211867480433
-0.025938002775063355
-0.06849318046341601
-0.10850743295612265
0.07448030497668408
0.0960878422816211
0.1605839246457398
0.057734657962908144
-0.03510453617022015
-0.1459282829515559
-0.09865885833742213
-0.10512024547672474
0.03853121602800244
0.14999504969774877
0.05506813538794961
-0.01933275341461341
-0.05096054152474924
-0.025785549153308555
0.060542709996670635
0.002785127446929015
-0.012580942597317612
-0.005019475608352109
