0
0.0011006685293130536
0.00555516778833941
0.012275886484462277
0.020925800124811336
0.027956457895125304
0.027061233357640862
0.011164742937049542
-0.024520704712075132
-0.07946650649109958
-0.1463284522603044
-0.012284972773615288
0.13655100090346511
0.10911847087090933
0.10465427752524141
0.11204055708154503
-0.0856348055911666
-0.3028849368887177
-0.14385041494088066
0.0011823034275293541
0.15256538781685017
0.13272687910659114
0.15645583541620228
0.02466826585486792
-0.07571465377719386
-0.16625777656536878
-0.06888241014295761
0.0011353326590212425
0.03847570509654004
0.0469834404900147
0.036146433977340464
0.016873442518786953
-0.001793974274424609
-0.0142935564218497
-0.01859482780196554
-0.015321567024730965
-0.006668545916514644
0.004392375234025212
0.014495570101265703
0.02006350539123246
0.017640966425110427
0.0046326264210743385
-0.019619900518251743
-0.0528760672615185
-0.08984707491809053
0.0765997345911195
0.05299879930866763
0.04258751192835623
0.04378131792583147
0.05085267370915899
-0.14325958666741243
-0.14331066422157565
0.05077833061201682
0.04388156968807939
0.04307359607631598
0.053955001737464925
0.07785886321504074
-0.08875172134488299
-0.05262815922281552
-0.020884130988485697
0.0015652641808021055
0.013218742905398123
0.015678362350299863
0.012335743646347836
0.006815199298658685
0.0017892693453715775
-0.0015312438406164261
-0.0032395009646780867
-0.004126065039686262
-0.004934837062465159
-0.005783167228393169
-0.005967033509725095
-0.004246022945729803
0.0004506191498153222
0.008116947071778007
0.016918080906501314
0.02300564555172475
0.021229806761630485
0.00680900904691157
-0.022415396759416596
-0.06399535226676646
-0.1103184108289697
0.0495499358576653
0.02547941872496569
0.020435284375090297
0.025297779936107552
0.21673722396291115
-0.04001153853379699
0.017070704368984765
-0.040863878233847316
-0.020266455891766087
-0.29541328482222384
-0.2064869927513334
-0.06834790721152288
0.21040724831950336
0.3027735318933371
0.2411035837846756
0.20566745980155626
-0.07111327035471224
-0.28577616474338063
-0.33698681114620865
-0.10035872460182828
-0.013229316612627162
0.12698500132585014
0.15276603515256174
0.11045984708710067
0.04464035612882457
-0.012499097818533242
-0.04502155010911203
-0.05133604087460387
-0.038956531039464976
-0.01860229741183713
0.0003976236914831614
0.012516262345641559
0.016354174961537404
0.0135734220969983
0.007298797974229366
0.0006790556420599215
-0.004022316946007604
-0.005754921364747901
-0.004583597955796868
-0.0013854601150257264
0.002488153939818801
0.005519187049567788
0.006325353657177695
0.004011852660489924
-0.0014233649184773817
-0.008732974761849616
-0.015322850695604478
-0.01766292468230141
-0.012361482893201116
0.00219105155537424
0.024061813405309173
0.04669590740096247
0.05945870503353644
0.05049484810757219
0.011857581276393228
-0.05429471744673466
-0.13088231835994577
-0.18569143037132493
-0.17865496502849998
-0.07761991117498887
0.11980214195158878
0.3647533906223618
0.5455193582846501
0.4952906758493275
0.22416775354223667
-0.42893869276094826
-1.3400851719148108
-1.8633050104075113
0.16540679876590986
2.5765738050945366
-0.8151473319883119
1.109747905584973
1.9335484372362144
-0.48512869678869214
-3.346738532341336
0.578916911508648
-0.16820579665050434
0.3031492557878264
0.8334752278614308
-0.22200557993402598
0.35535192798291837
-1.2101591645499503
-0.9498091821475032
0.38576257562559796
2.2673268315571224
0.7504873272790515
0.6839695123302114
-0.8268228730079686
-2.115029867735173
-1.642501076240685
0.2743204438559432
1.2795410052819878
1.1405305956094298
0.6882787813489618
-0.030947827670969305
-0.9742760668620988
-0.6943540778355608
-0.12219097956223544
0.24153384175467493
0.3189147463311456
0.23500550465213907
0.09593104943684873
-0.02587724329687595
-0.0952694838250308
-0.10809478999954118
-0.0795251116868531
-0.031942887233276124
0.014114264779568314
0.04467569977744916
0.05336553359658468
0.04037222162405965
0.010957684722576792
-0.025694601443666462
-0.05755759416411839
-0.07183414419984142
-0.05924140147836594
-0.02105755177866922
0.021840247901846563
0.020281666876622632
0.09206997334152132
0.3253822446242726
0.393887152041714
-0.015180487796715589
-0.16333268363912187
-0.22292577486362572
-0.6534907046724127
-1.2078629319046277
-0.5787575653159852
0.31554785101299104
1.2254821392505175
2.2808805682617193
3.1614330491695415
-1.843009518038456
-2.0864863081043574
-2.1815156473251607
-1.645810077103109
-2.0438660777256743
3.553866471387031
2.8226801466711224
1.4116804436535197
-0.7829896887049722
-1.0631572599798789
-1.701321877512345
-0.4816548190269771
-0.2521758160774635
0.8892011754340586
0.9784487507024344
0.5606768791801009
-0.5189653986021192
0.10471364034539278
-0.2357879350171051
-0.1789417823011889
-0.27414047327355895
-0.13723623180267958
-0.23076383568506081
-0.07203926371408596
0.13390000905065613
0.44516301771304323
0.33000973066932504
0.022517267099482444
-0.10450676531062508
-0.1473318046595267
-0.06376737256845737
-0.05706624924528046
0.042395104851196116
-0.006526731939406631
-0.04338879467638584
-0.09851163463627732
0.009974301668894642
0.07506397915458685
0.09738085408641878
0.08154669139571688
0.034525692280546146
-0.03327215860711209
-0.10528110297950384
-0.15725701871690634
-0.16024035812459633
-0.09018937204786372
0.0562034727207475
0.24351659001808657
0.38445923777221724
0.33951631739054217
0.1347920562908313
-0.20250955717616295
-0.599203769164793
-0.4961702547939878
-0.42872805040293693
-0.2371598408398567
0.6936566098891295
1.1785391068081386
0.5806893006031698
-0.6167757445235259
-0.6098518621645929
-0.8515785704022659
-0.6252468515656288
0.575064659038176
2.258141214137896
1.957922909615522
-1.3207226843864754
-2.0358598685362215
-2.052373902137535
-2.241703925497492
-0.37013860426489825
3.9313302742677907
3.5695139582253614
1.244934449767293
0.02931370834222171
-2.1176206131615167
-2.935185052627998
-1.834192508240716
0.26518931614156266
0.9864303418692054
1.445892512799072
0.7405070171537295
0.22614788259491153
-0.3746953956223033
-0.221047832671615
-0.16247361782552178
-0.1236915239844492
-0.07968742408610534
-0.031755866109019606
0.010206550196434724
0.03780635724528575
0.047838126980610705
0.04192880183069775
0.024603606375404673
0.001541818968569457
-0.021254366285358577
-0.037636333535216476
-0.04169028183848311
-0.029237264935774346
-0.0008850532124525547
0.03376781422196423
0.05203969240552243
0.01598435373156086
0.07387881546338022
0.16649165674383998
0.03805867304868567
-0.1498293655204867
-0.2053022228255647
-0.2996957767836266
-0.3725583014198672
-0.15004081921300538
0.627441678856057
0.9792608317280563
0.8752863769022307
0.05472553268454668
-0.928027532591904
-1.6487489885961106
-1.3799155111222032
-0.505320399652509
1.0105550395915168
2.721375607890761
2.212511560927946
0.2777619503250987
-1.6177361280542337
-1.2073468679331232
-0.8804624078422366
-6.193767692993274
0.5168717090702536
8.421376885854837
1.4286345337851114
-5.348637633556602
7.969968269422593
-2.690462977022183
-7.40937705148889
0.8832347529351737
1.2913542081880234
-3.272980499213378
4.585617779276625
2.1775745734174974
-1.4134558080582424
2.8098935249312005
-0.39725496126717147
-2.7931946886687324
-2.085636267002867
-0.5938504009603897
0.6150291368062416
1.1017675327234429
0.9661942608594593
0.5374105798689571
0.08397516156998903
-0.23301115710551265
-0.3621067666990259
-0.3323348193919985
-0.21167053413993592
-0.06991405414672018
0.04428720168089563
0.11023406032395942
0.1296003591737253
0.11509307665288236
0.07982891464195777
0.031755542732922304
-0.02560894153733085
-0.08779123042352831
-0.14308893763340957
-0.16988721485487016
-0.14115285441496414
-0.03722003827170156
0.13561778391666082
0.32693513108386063
0.4330561212383974
0.3051306474644816
0.17820057101223952
-0.2826559045312485
-0.5318621953062882
-0.9078684381190495
-1.2326130469181218
-1.057965814378375
1.2459205637419775
3.78833639189465
-0.11177362494828828
1.8828276869908562
2.0343723637931035
-2.8895305184708424
-7.4311038487487755
-3.3486488750076764
-1.4941279821461348
2.7261759614584142
11.396341635449758
7.206554542354076
1.4044546555586956
-8.152020050882372
-7.72896953155313
-8.448930299503447
-0.6446546586953364
4.84999575127238
9.321809293983007
3.693601019106158
-0.45641002459352004
-2.6373577418704452
-2.1411717716466185
-1.1787766943491356
-0.5769662236937084
-1.1327624110311123
-0.07699841547367746
0.14346707313407442
0.986725377101148
1.081150379995614
0.682663879304266
0.16413805214088012
-0.2409984365688707
-0.4404531535994904
-0.4463926972934215
-0.3239655720359457
-0.14625184227184979
0.03163443454352287
0.17681323764994755
0.2671765568897601
0.27451104036461177
0.15244061798644046
-0.16438747394301478
-0.14918145659224294
-0.06445901955412196
-0.1431827899453575
-0.1761264687375849
0.4906484110075234
0.14741655624350908
-0.4974798543809223
-1.3451263194964396
-0.1424882838895275
0.8766928639246313
1.961602403918473
2.4495672263358186
0.02846068584042634
-3.145302278844497
-2.1097891799739386
-1.802823039335724
-1.0645519773921364
1.8459916833724364
3.6550593801233746
1.0719827571260083
1.0590113795681302
0.021509671972595498
-1.08306123374106
-2.364906138801374
-2.022790974087458
-2.035575646530448
0.435636328767583
3.341898970985841
3.3911060164904074
0.319696170132936
-0.34729733263575496
-1.6333884060710666
-2.7815270703189547
-1.322436310446467
1.6036849267158986
1.2501015295275892
0.40748573602531973
0.12614073315961488
0.05013525787962482
-0.22077133203847646
-0.34247800937507183
-0.22114772069638572
-0.0022735341208866425
0.13830379931617867
0.19948776369486765
0.15851725281517492
-0.02339709424279163
-0.19178324362772106
-0.187586560549731
-0.03763123416778223
0.049613164055016284
0.08188166077406518
0.07636899152465645
0.051773129666970244
0.022301529152000767
-0.0046304434231365455
-0.02705061822311556
-0.044885756532308856
-0.056402203549880334
-0.05678123048376216
-0.04027590493294481
-0.006195520548253735
0.03247637008209201
0.04036256204149764
0.15426806900434378
0.08451508054796077
0.1255522230483422
0.1763353747597529
0.16803660054186717
-0.30695371422479106
-0.7744326752257948
-0.67800214987271
-0.40837104737853935
0.2370616772990293
0.9776259922478993
1.5820986773538828
0.8415403283649102
-0.19609460363198872
-0.9294993517020934
-0.8706616727073829
-0.9158984647393397
-0.46274731720797785
0.0003483960014982877
0.22626745982736968
-0.12158465739354433
0.5656060739935577
-0.12298897003923541
1.451046718169516
0.5071215138248043
1.2595109774496303
-0.5830692077962256
-0.44952995144443614
-1.9081216268762975
-0.6876693946111382
-1.1644932407134045
0.25852021923545815
1.0831071817356852
1.1867127704008469
0.6783501256878427
0.18195061893044723
-0.2270860509898353
-0.42901247622057415
-0.4254218680150312
-0.2864040517727943
-0.10026813827057561
0.060976894502888415
0.1566663103395316
0.17678821162405853
0.13293783425852446
0.048099575700447414
-0.05039113486466333
-0.13407927903059877
-0.1751672573468042
-0.1502971556316803
-0.04865036967902367
0.11629778379379543
0.2956643523492053
0.40161213239321475
0.31824179236302547
0.13005300711684975
-0.2359314230658432
-0.5665283799100386
-0.9354939321454998
-0.712025184830126
-0.4157676127682024
0.18569685866286598
0.7597581742142688
1.7111312566083503
2.1492193581084837
1.7572201811430557
0.3729110390058701
-2.550372817240708
-3.8779217443322
-3.624728604861325
-2.374796165999479
-0.5268749144769335
3.676868645562704
6.663407411639982
5.75217366270192
2.4417936031909653
-1.371691582394197
-6.302283499606367
-9.077493479489922
-3.6552207309098397
4.3749207632279505
-1.1442423564748032
5.2772300453299446
7.911853672157057
1.4482010148095337
-7.36308648394811
1.362445573739551
-0.9373803131812258
-3.219504100175242
-1.8483946939912392
1.474793463199592
1.8639147017365183
1.7202006117664481
0.9878461962163126
-1.1524322906311597
-1.3279245604748113
-0.16493232193900326
0.14986140459836633
0.5185078018512409
1.1863954655202882
0.6067329762206167
-1.0834097302757224
-1.7863974744181557
-0.9902256315200076
0.4380452136908782
1.0031320236284984
0.8921441164319381
0.47704248549925404
0.040753965627625746
-0.2555356826643611
-0.36459653894892713
-0.3187085449145974
-0.1868237214361831
-0.03849798144039
0.07736722578356314
0.1383736470616787
0.14367178226526092
0.10477560357871911
0.03775865623345662
-0.040330831811947444
-0.11121996494742344
-0.1541629996856591
-0.14739265339074512
-0.07493510134885738
0.06119766293762155
0.22682958180977594
0.3456684647399843
0.3005294626781961
0.15025879254249652
-0.23865502840051844
-0.5538022595062915
-0.6053691030928562
-0.3155159113234145
0.06319964736336998
0.5029698453873522
0.5432420068187603
0.4406890340796223
0.14524355492844174
0.11228230406052797
-0.050678601041665924
-0.5150836098932247
-0.3593091485029106
-0.9140857671668788
0.05843694370917721
0.3456147374864786
1.0312970025947612
0.024597320963232486
-0.012226855005171886
-1.3263487374635243
-0.32635245874887214
-0.026075235679926298
1.5234325077613788
1.6286870799275115
0.7952734585779163
-0.9737574549978644
-1.4359801867359059
-1.7622345524368939
-0.8317244696942663
0.39517389984779144
1.020467972407031
1.0935152134472095
0.6803365679597427
0.1586461748255123
-0.23693105799893888
-0.41691263782386817
-0.4009143570154033
-0.2655860041943649
-0.0966524600950746
0.042531785294163196
0.12260552899571099
0.14384521679818602
0.12332464752322587
0.08127865681321826
0.03213706329485275
-0.01759373368619858
-0.06560133869567898
-0.10746180925126529
-0.13198377056674893
-0.12194111510053117
-0.06210855469520467
0.046298102927269366
0.1688135000333888
0.22508176763834617
0.2877165746504458
0.398305293257144
0.2017806361200166
-0.40636552390759134
-0.8332058390945608
-0.9604786216191622
-0.5533248199638029
0.08679174419358539
0.8347927499029308
1.4479880339771964
1.5026793690773932
0.7935544419903178
-0.3928556590066465
-1.75001523557145
-2.6160256590114925
-1.6901736318059104
-0.6463258958568947
-0.04986291323930918
3.6640740013139412
9.2324079979022
0.5140430310764993
-8.207573892059095
-3.2094063948630938
-2.3177525719740038
-5.227687246397103
3.7875930570909397
9.821051778024842
3.455628900112487
-0.9894773440481676
-3.2103859838997875
-4.296022286950648
-2.0430605084508313
-0.13324383848529492
1.151530265559601
1.4728020443207712
1.2889356047856142
0.6885479052649343
0.0615004895855394
-0.3641897008899643
-0.5208102712166972
-0.4558613358415669
-0.2710676203202604
-0.06877987961992758
0.08112972871563522
0.15151052832897194
0.15067200116256108
0.10635783690956575
0.049242753206942255
0.0014597674538630583
-0.027783796079994344
-0.040326264333872
-0.0434489634933264
-0.043599859743948144
-0.04207229134467244
-0.0342867529944919
-0.013086783813016766
0.024815075415774053
0.0712237688362532
0.10037945038948701
0.06712830215259628
0.11118903158389765
-0.032383647803340784
-0.21866489308718884
-0.0783637834746973
0.5916631438213086
-0.9715858568422561
-0.7100085680293708
-0.17098069810256758
0.8566285219669502
0.9108046229537294
2.450882042324862
0.29759757911216483
-1.679725218620865
-2.055903489178396
-2.7737826942422052
-1.952329126267915
0.9967984080974565
3.7705341836417365
3.569477371856683
3.9836479817394075
-0.35991750695237884
-4.184300457434138
-4.461329634946048
-3.549869755597583
-2.4943341677772457
2.8625410584212596
5.39323728725003
3.9437545164463588
1.2784795859551052
-0.5892408220258915
-3.0666495367716298
-2.7193817678589105
-1.7878046873466582
-0.18278403471162313
0.5852108500115115
1.3473496757634256
1.3350103395343993
0.8190775722607812
0.18400956953593522
-0.33459915093270504
-0.6487648450390121
-0.5740287826838942
-0.371544134437432
-0.10115882217037357
0.20139689887510595
0.3231937491197528
0.25807773091903097
0.1887018367933023
0.07693844367535355
-0.13293086874827711
-0.30030445709737213
-0.2701697938939929
0.14162492454731315
0.1547350639267116
0.02160148685390574
0.018189751818221175
0.03137181333970192
-0.255149501662592
-0.17588015466895127
0.10083619296820548
0.15860001727051515
0.12474884216572699
0.6744792863344397
1.052482906806198
-1.2880343636494889
-0.8383763284991638
-0.3981690230727664
-0.8707702191542371
-1.1014720365210393
2.0488541799965185
2.222247356931944
1.7143831815982375
-0.3079899840845191
-1.7159575076844742
-1.8844814130744558
-1.9724317031041965
-0.8717703345894984
1.5482342901519062
2.918156752568091
1.017302466354505
0.052374881524354946
-1.1982268085538192
-1.5754161784668916
-0.8946071069210829
0.7015552955058696
1.1762122953595968
1.2232953624400165
0.3032611561548839
-0.8975336135933282
-1.189711895412606
-0.8097810605486001
-0.3834190667301748
0.46010665144179375
0.8262199817921582
0.6680025219515002
0.3030193671725227
-0.04240799635699914
-0.2516166260773434
-0.30318363252417313
-0.23721334518336967
-0.11775072824626713
-0.003023365235434853
0.07099394187169121
0.09400104713590722
0.07574931196801533
0.036448519623325654
-0.0025835653166915032
-0.025614538782097178
-0.025872838797091312
-0.006047981338089867
0.023320462012615943
0.0470042775256544
0.04951630535082567
0.02047268195623188
-0.04000351304514084
-0.11760655644860955
-0.18435849872910007
-0.20557203126032342
0.046113561927884496
0.17211191408108434
0.33076870074328635
0.4300434710605227
0.33727650511642243
-0.09169804684633832
-0.5698370019995175
-0.5363650014942086
-0.532265951995837
-0.40859282895281535
-0.17243390841301398
0.33844248243414754
0.7746473645641824
1.0191464653241646
1.9878559144024737
2.107668992736018
-0.731297675642253
-3.5876395272194683
-4.71852995601883
-3.755052729736507
-1.6615508922802233
4.336311917319171
11.762408009114822
6.209990950539511
-1.2758479291182305
-8.90848966777588
-6.069744896046168
-5.228582893403967
3.332992055710454
0.29812069558985815
6.643750145273627
1.8543234555937596
-1.8342349981783634
-3.865784486331455
4.5552417036170665
1.714673650899305
-0.45914053967686247
-2.7754347648292437
-2.543511162121771
-1.7836032636681673
0.6580322898681528
1.8742768366542868
1.97581232005708
1.3464115373832903
0.1350684204395332
-1.385004877982925
-1.399189226243542
-1.1117472474555998
-0.32296570047046486
0.7555285639085193
1.8535880900348751
0.7914082982054946
0.05661970818296165
-0.5727283200150636
-0.9656109068360493
-0.9614805860569832
-0.11015204705974928
0.35148844451817696
0.48338985598124184
0.4002337394913013
0.22371580164351856
0.046711410647642296
-0.08195973203630404
-0.15290546318244982
-0.17901345183991724
-0.17570059329159554
-0.14744095611653918
-0.08597066816962586
0.019085418064818335
0.1610909844767293
0.2963332303796438
0.33212597233574664
0.1308394859393934
-0.06678476977422802
-0.0020313170165207487
0.04848759114352415
-0.2867452350109834
-0.8549338624632177
-1.3945378264006996
-0.3931484344293361
0.6181355846630658
1.7591521823590799
2.5268092597131044
2.198949988659877
0.34183843817704146
-1.994898234321151
-4.26180116201028
-5.271443461533913
-4.43287367953015
1.8038730467831154
9.952022386969189
6.895526200811019
4.291640940408915
0.9008949984851499
-9.163830745982324
-9.630474189899687
-4.549979022885254
-0.28424179583576276
3.9164606280493217
8.829736876606187
2.67047266432408
0.008788957921247745
-1.2640974773073392
-0.697355751295519
-1.0368690869647215
-2.4845744223973876
-0.7655710915569153
0.11992539218738914
-0.579463603747156
-0.16765946821522087
1.2005226402637825
1.5696851226561945
1.0332271746900292
0.023501866620197445
-0.9372369308264994
-1.0321484438522992
-0.7180562999154316
-0.09649818600554909
0.694940262584399
0.8722491925375254
0.3906931243623099
-0.05619089090327099
-0.4161179316667058
-0.6411919719011642
-0.24893083887816086
0.1039663243048914
0.2271509741840449
0.1827933356189484
0.060105196261970764
-0.05285091737139237
-0.09369054219808329
-0.04353436529956792
0.06298244890466848
0.13652949615075827
0.24242528741949987
0.22215698098083259
0.12682705958303897
-0.1416594321672312
-0.3908686122067101
-0.7128327312454196
-0.8874938948387584
-0.02291757489035261
0.37112203177748626
1.0945925385112902
1.3838713955366957
1.0851766897647488
0.09356810544998564
-0.7481218455660136
-2.523685934746746
-3.3428872874431006
-0.9142568567133443
2.590494694906769
6.410931026555053
-0.9182134757158126
1.5979947856132952
-0.5123234422617386
-4.445143733750583
-8.394494107079227
1.6654121211329649
2.046418341173653
5.304284490638142
9.410495137583464
1.877766211241914
-7.6872394107967414
-5.251436467357915
-4.197572188240726
-5.7215561738783025
2.1068762645983647
10.240248711340582
5.444619227981697
0.5733629973581073
-2.7373668146203225
-2.7281137129948125
-2.6182714653906904
-1.8871509741037231
-0.6497106809773153
1.016689488227768
1.6023547192145073
1.4059697641163407
0.756591532052347
0.07593950266597511
-0.3889775196151084
-0.5639555669635833
-0.498879583829778
-0.3019941555387801
-0.08235846653343208
0.08533251415768085
0.17110887147599818
0.1813398401087233
0.14145099641380462
0.07907421123116869
0.013697386165619094
-0.04532657439687355
-0.09425020910181568
-0.1280269638726737
-0.13574856817598868
-0.10202780617293529
-0.015468812895597712
0.11784024814581452
0.26093769170184844
0.339604091159451
0.24924910697461644
0.07767403941100147
-0.2598721862666014
-0.5837452566834415
-0.6259946880875512
-0.43376494521284575
-0.20710161364247734
0.23411249872241385
1.173030214616834
2.137065734707839
-0.5141391291112621
-0.1390735803955126
-0.3116037598334577
-1.0964562468096997
-2.145560720023318
-0.05359099016832573
0.20727441397521879
0.7805956990547391
1.1804472386822158
0.9553407329056207
1.4054174169372462
-0.6215944585806911
-1.2570133043604272
-0.8874704266274517
-0.022039435575113606
0.21140699925771056
-0.08242609809468575
-0.1735508551895481
-1.1687494402706335
-0.5193359240207024
0.04057060924238405
2.3515474043054994
1.7208044345725955
1.6901447320797318
-0.6948879107727937
-1.9241676358687716
-2.4178714871848066
-1.1452575340672575
-0.3265670085594747
1.1573922968299464
1.6661084676550713
1.2591912561924161
0.36975429067923843
-0.6714705408613054
-0.8533442488892807
-0.6603165648169902
-0.2352164683139178
0.4486551528185387
0.3978909544299859
0.1967109627300143
0.002506770256090334
-0.0528427180655986
-0.45418757465635246
0.10972620119814981
0.15835240319509133
0.027844272276318076
-0.12415941440951675
0.08370168738300611
0.05700269550016752
0.02434072481771768
0.03399067938390084
-0.2526672718175665
-0.37270488015024084
-0.07969659857440245
0.23260469687039537
0.30624955288069844
0.40425792169613367
0.3155035051767483
0.18605658440806566
-0.2239393688468041
0.1322569296727989
-0.1411959932660238
-1.2351177175413417
-1.9322671605059498
-0.0636132652490992
0.77748782803421
2.288684424928648
1.1261751733116279
1.4367468843405204
-0.31493353881588715
-1.4283635683323281
-2.398469688352407
0.04451196999987468
-0.5680917609618861
-0.43903179478466725
0.009868867739061662
1.1932528865139165
1.0043290359572312
1.6943182963955432
1.631549891112842
0.1596356653746434
-2.659696387409489
-2.4683057672956408
-1.6669263291306604
-0.7640167126342536
1.3599427497771504
3.1009237331872446
1.9586311389816569
0.6158120826110601
-0.6840238233435247
-1.860746349886544
-1.8660692340451266
-0.5566623751676322
0.37930966791383186
0.824352038722702
0.7769726882050172
0.47321483670782966
0.11750046158987566
-0.15703287386983564
-0.29504870407907097
-0.30136029012721177
-0.21352340716389834
-0.07773118372739456
0.0645261992696762
0.17829150367812746
0.22995027762755604
0.18171697907028075
-0.008663218776518794
-0.1811332752552507
-0.16199039968981194
0.046469144524003345
-0.3305561617325438
-0.2475421256848137
0.14327638500874287
0.2669800602964989
0.3024949123267184
0.5710541299695899
0.345153147007451
-0.3199652520683494
-1.1396673780579387
-0.5536912011451222
0.30251794197739584
0.5992757879844096
0.18982405571106215
0.575081177953065
-0.33202671131672506
-1.0377353027156344
-0.8970717487997378
0.4532170563969253
1.6608790209999844
1.637840174737888
0.37266259441279526
-2.016116358984492
-1.8015178379381824
-1.1802736789164592
0.14935740554256532
1.3529247473123782
2.38970138293015
1.1495862427044574
-0.5642579582819167
-1.7947744300186963
-1.5535014151050195
-0.14688652569203636
0.45808437520465484
0.6172352838803419
0.555084629165446
0.29965248297077035
0.03035027802936592
-0.14807478490512108
-0.20495694464808634
-0.16442596086896483
-0.0783825890179931
-0.0012141738720257012
0.02802928722751638
-0.0058919597263795845
-0.09456172446157478
-0.012690489671641575
0.0710765674511772
0.182500654355107
0.132838093296817
0.11576472324381815
-0.0888060088078029
-0.3060921757713707
-0.35787184611280526
-0.05942800751559153
0.1752631847190578
0.3225822561214545
0.5398747304368277
0.3661640328564331
-0.26248458479675546
-0.5865180586307249
-0.59735423952325
-0.6284187548389851
-0.17411015394082796
0.26351829705411506
0.914934298291763
1.2958378885375397
1.400192444857638
0.15085307132953324
-1.4972594192838986
-2.233285045241654
-1.6957181036115996
-0.6532812217401733
0.9198782493632595
3.0964604660484025
2.0307301438987433
0.03818070097485833
-1.44096209086721
-1.3972448344031438
-1.764528327695448
0.06297653495101858
1.47934679245034
1.4814720198126736
0.27237826846123886
-0.32139193955692125
-0.8095131318438554
-0.9872047410720132
-0.49819900376999443
0.1684178774498016
0.6422871606392756
0.6086267112497776
0.339945449785298
0.044075850252430174
-0.1594012669759487
-0.23432056239382715
-0.20368499495772913
-0.11838715067264059
-0.029602163736215423
0.02888312059433036
0.0469059096957451
0.034702389195720065
0.013842024742850886
0.006082155291849244
0.023246552888772365
0.06040329984770016
0.09387665562418482
0.08483598250104125
-0.01195353751848639
-0.03628747386987407
-0.21146235815331535
-0.33903483767450077
-0.4039315330466936
0.008616271699000089
0.4885742424917145
0.9800276864493719
0.9783034919697291
0.35637846618302754
-1.1813028013574156
-2.437549045019846
-1.08642213309914
0.10871128566142636
1.4181146723152764
2.037243352943249
1.9966535689606473
0.13725138244509133
-1.4299375810522688
-1.599616161660041
-1.3344818577698114
-0.771366340181972
-0.40977839336488586
0.8120391703001798
0.9816161626254684
2.067159737536023
1.8166908746400319
-0.4605193023857566
-2.023958652267959
-0.7731240582299855
1.6866503608428147
-6.670524801743115
0.3094008799858386
4.8711315630709775
2.2041642802481696
-3.0963079668419065
4.901395431966955
-0.10305872285973632
-3.7216432428863673
-2.715081462596885
-0.2510360991082318
0.9632722870772211
1.2581511684224687
1.11474300374542
0.662315895382566
-0.19943335272544566
-0.835395404715647
-0.6739208568357093
-0.38988708953844403
0.1081155172429001
0.6774937944617898
0.5324438787376268
0.0374725699396883
-0.08632086741794624
-0.3403871662672725
-0.42029220531153183
-0.1909186397802933
0.1254415346573205
0.1451151240139381
0.30714136100308403
0.053539716837798665
0.013780222698647718
-0.0018580723265565738
0.00035597056425421615
0.006635378615612113
-0.39346859354237257
0.0008365379525524374
0.0029501897170653773
0.032780519322294775
0.10557234154801441
0.2204951635085451
0.15432642333876836
0.06398818626482473
-0.10153026063594309
-0.3832438297078631
0.0053993302542405105
-0.1110864548093496
-0.07138216350566423
0.009604688202394407
0.21939331498959813
0.22440118635556242
0.051080616854321886
-0.12292919535714388
0.0344823938727168
0.024044524151059496
0.1367737669848242
0.07907307810918884
-0.2033959101418658
-0.5087809961670628
-0.37540860068964127
-0.09598266313785256
0.4514614204741178
0.7647535901531739
0.485539355450921
-0.01228314925590572
-0.40826917367563215
-0.6017772407529096
-0.474267596045757
-0.06380485116514754
0.23898407023845214
0.47501267088383486
0.29120518643778637
0.11838116484669058
-0.038160984791213146
-0.19347332500757325
-0.3683067290885794
-0.17369120282266495
-0.002663432409500969
0.16728320026281499
0.16301362325100172
0.2018410256099119
0.08167390281385305
-0.020350153932757735
-0.14031430680049273
-0.11441274622242392
-0.1657173939852518
-0.09597827491059625
0.11469958907450352
0.10075976419241126
0.10003085942428001
0.143114161943367
0.04712577206956651
-0.18477820728124034
-0.15947057133517178
-0.08879751485436345
0.013382888856861383
0.13091189183407562
0.24340316733730824
0.12594778750533742
-0.04691763906345903
-0.2931337272899723
-0.21444267439821804
-0.19228387359734767
0.2080774733005007
0.02566093293542253
0.48903630370963275
0.20582988653994566
-0.03794645067918745
-0.46793171573778564
-0.10576068976174226
-0.35607919326315896
-0.0034643839091388776
0.17860278637268684
0.41087213643638437
0.29215926226138417
0.19283747056732764
-0.1372290162732674
-0.3484818544820335
-0.4677946056406143
-0.28217187196946575
0.06146796916862565
0.23903784727734212
0.5213587306051752
0.3475881148524594
0.11160782871419521
-0.2329515726989683
-0.35197117610365597
-0.5043666353104826
-0.12193328812772113
0.19622313554754883
0.27399749364258147
0.3400110355691393
0.21075800418233756
-0.11682553915330508
-0.2610935355692687
-0.24357262259217366
-0.07620031085698074
0.045684868821963445
0.14208341737871708
0.0406053959934876
0.16655791537196132
-0.06489287475111775
-0.0520282651453019
-0.005165808213194436
0.058029149681667294
-0.08147714645245012
-0.03861241276807643
-0.020637874733080878
-0.026425730606353785
-0.048739046843794744
0.12130670940490454
0.08932159043473263
0.054386790048491146
0.009118538181706111
-0.056706159015174874
-0.15047148357108336
-0.07167016643083708
-0.010042285769207706
0.051968833320928186
0.13339346329034424
0.04810101692157759
0.00020555505680445936
-0.016702913672483624
-0.01642470306302181
-0.014466843265404428
-0.02181838922199099
-0.040160562496866836
-0.06006567243166251
-0.06308364580571164
-0.02769234706048321
0.06214306776588732
0.20840218440607874
0.19391218479226685
-0.016211589630327955
-0.06567995214949897
-0.1930688716476435
-0.21790543154924544
-0.13254859960471566
0.0964068663781044
0.11731930246323283
0.1773084374401828
0.10685297566833005
0.11084036516992622
-0.030964904273639182
-0.15467737598759954
-0.09805734769393491
-0.08666120658270042
-0.12528967814484648
0.002510319249084545
