0
1.252287257116044e-11
1.1963380109367723e-11
5.184456006032813e-12
-8.083071648668761e-12
-2.506690682736154e-11
-3.955416198340696e-11
-4.2956157809867836e-11
-2.716209983578444e-11
1.1186393103809586e-11
6.628176862606086e-11
1.206924179349136e-10
1.4720633191973203e-10
1.1656483428955547e-10
1.0693848508087901e-11
-1.6189697514709507e-10
-3.5487795338623e-10
-4.849795740221027e-10
-4.5158822769181616e-10
-1.7626340102470425e-10
3.457354376212238e-10
1.0003348628970931e-09
1.5419016798217987e-09
1.6379341304465346e-09
9.825036941224014e-10
-5.375537573062014e-10
-2.67498215918786e-09
-4.734758557738295e-09
-5.656715475836622e-09
-4.326069825116087e-09
-9.110800529004368e-11
6.6468577145713515e-09
1.402005444027587e-08
1.876354242762278e-08
1.7013278737840832e-08
5.862650892681103e-09
-1.4649368504351285e-08
-3.984771930681529e-08
-6.003428089532859e-08
-6.235174512764059e-08
-3.528624487201573e-08
2.4878624839803676e-08
1.0770440509240907e-07
1.8552611668389542e-07
2.1708726646350308e-07
1.5998287308274802e-07
-9.109193252729407e-09
-2.718583560457585e-07
-5.53138457447736e-07
-7.250854006024246e-07
-6.395002038095195e-07
-1.8908119872071919e-07
6.159576565904275e-07
1.5847106911944908e-06
2.3347832885895536e-06
2.369596894077976e-06
1.2568361996445359e-06
-1.1211975025426042e-06
-4.326968974891286e-06
-7.261059429337055e-06
-8.319802548189791e-06
-5.892919691766755e-06
8.467435658657204e-07
1.1081031806331358e-05
2.179469451544262e-05
2.7986097284349287e-05
2.397916347464536e-05
5.82918450600141e-06
-2.5728216805190295e-05
-6.29230179482625e-05
-9.069706297189342e-05
-8.989483781456061e-05
-4.4325636924282494e-05
4.953607658514914e-05
0.00017346120273279317
0.00028382127824975496
0.0003183447884918164
0.00021598193564162024
-5.2302782042804845e-05
-0.0004506405249154484
-0.0008582567978303
-0.001079685165958576
-0.0008976761981017294
-0.00016746329719840444
0.0010701455473627534
0.0025017858144974095
0.0035388733415593347
0.0034497424564153174
0.0016398838149642944
-0.0019720127522662952
-0.006613047578345805
-0.010541998209677715
-0.01135854834057085
-0.0068475784587393425
0.0037106026931201914
0.018072584394964352
0.02992515326960055
0.028718045646958106
0.0008223547038620957
-0.06804618890672735
0.010273228538380709
0.02926992394071373
-0.010385681211755931
-0.1005304212822537
-0.026963171528179165
0.02746009731095048
0.07889167553259331
0.1393577750457552
0.2163731507146685
-0.08367969576718633
-0.349668640522325
-0.3612279498728893
-0.09055345454719226
0.08706587095098975
0.5769142214689164
0.5509651504328409
0.1460944385395805
-0.3205115079952089
-0.522515422224475
-0.6941891498665758
-0.21322756655240302
0.39441244779219214
0.8293986706963447
-0.014751828349985794
0.12067446444857229
0.04802467087056622
-0.26101776713603386
-0.6586698434065623
0.19757651962935968
0.2580433746910304
0.08607545438818869
0.0579186102778718
-0.03862013866679409
-0.004454243502855475
-0.2289437711118109
-0.09116039026466609
0.0354805095960112
0.1752333383050664
0.14110121494179817
0.1288195071506686
-0.08311308036944422
-0.1267697043275411
-0.03383795123202473
-0.024390287629341628
-0.09920951840554083
-0.03800235820254744
-0.003961535606313851
0.04663866238437724
0.1526277142721048
0.13757076086607034
0.004192548645235762
-0.06474170173231027
-0.09990626424845021
-0.13617286102449788
-0.004200234856010741
0.07465240591820534
0.08962128177783997
0.03933515605900919
-0.070060748595842
-0.02635478592048485
-0.01233215192001188
-0.007102546903012723
0.01183861693592374
0.06591825321159245
-0.02730416709036747
-0.05646477077121689
-0.017983397058195953
0.08314531385450878
0.033529678697211664
0.012941146276507404
-0.0024599555488502693
-0.03560390357226401
-0.10384819728201485
-0.01568721089414977
0.030004323039539937
0.04201320895911257
0.0330354307688407
0.015643792711739313
-0.0006877039196970026
-0.010860077613458084
-0.013832840101859645
-0.011303531717121831
-0.00609970318262052
-0.0008512572849510278
0.002767866116189205
0.004212834842816788
0.0038223731517987073
0.0023872337038992613
0.0007363673540677989
-0.0005365555875173219
-0.0011726774247373321
-0.0012065321628054796
-0.0008483854917950664
-0.0003548901933437645
6.759840205750953e-05
0.00030922043323426365
0.0003566699707913169
0.0002639444652467554
0.00011312430637348757
-1.9919347500643847e-05
-8.721898832013837e-05
-7.663446974354415e-05
-8.690028492517595e-06
7.393942865998544e-05
0.00012122852655188762
9.269235859361406e-05
-2.593472783231264e-05
-0.00020987608199996143
-0.00039173771393469437
-0.00047310343423557014
-0.00035479885787508957
1.695165484598126e-05
0.0006005343810522878
0.0012264246778723783
0.0016077627156287756
0.001413819527896453
0.0004069797055343097
-0.0013869572533971076
-0.003539361869376937
-0.005196638323251296
-0.005254242743932733
-0.0027549092635712285
0.0025551156103281987
0.009694474823126936
0.016216490927291785
0.018569451567634076
0.013213381427067695
-0.001617666088084319
-0.024003266492123674
-0.04713648746471459
-0.059859627494414695
-0.04972266259320164
-0.008611080476320284
0.06016772643210659
0.13568142952550247
0.17712559763902322
0.12820125950969
-0.07111749267344107
-0.2677463306742655
-0.2789268249441831
-0.08244294795291784
-0.018239852913347333
0.1983379763377276
0.25626616439059413
0.22889166327973892
-0.03882659067522184
-0.13255435185592485
-0.26168401053373963
-0.0481271727094641
0.08390561595627964
0.11407905479588937
0.028001741204855258
0.01682957991632923
-0.12419611065882685
-0.198112922617779
-0.010076799516173353
0.22747020349064279
0.2903434578136867
0.14236905977154596
-0.05800364413282897
-0.3450928171641545
-0.33250488504518777
-0.20596650531436161
0.07238321244055512
0.3485978161044787
0.4568776369253702
0.20447353006494598
-0.03076265544099947
-0.2887519803187721
-0.40743937126254937
-0.40541589755333257
-0.07666780434917549
0.19860467209363633
0.43139045910964513
0.4005179089353581
0.4414372892943433
0.055838135689350525
-0.4579288748295331
-0.5634439596846366
-0.6501107423083253
-0.01824496994450454
0.106537166686497
0.33336894904895703
0.4547829987442745
0.8027596218860443
1.2281994361641049
-2.28990649478134
-0.8133610174409528
0.18934646365825825
0.4615078169827773
-0.6449029183182498
2.2154966328321093
0.17090684432673575
-0.6603882699586752
-0.34420310543676536
-2.100144262695285
-0.08812825402184533
1.3740120669403133
0.9658694807188649
-0.2857918746543815
1.1629983228131187
-0.22083352653165975
-1.00774744808382
-0.7487248640353429
-0.32490927770008415
0.07615559791365968
0.350236183972359
0.43937553099491833
0.2848177337715096
0.1875522054256697
-0.011668370068306755
-0.1296947317862806
-0.2204853652612416
-0.14622993295148468
-0.15041423230208215
-0.040733134982279214
0.014459500895914404
0.07688390162346086
0.020346999333283978
0.10987372268119422
0.18391193959529376
0.044394207529586414
0.05728129529668002
-0.03664746205923949
-0.10396322452157744
-0.19914271338596767
-0.14966117117229416
-0.15062239562107188
0.029019746243246144
0.23062142121026574
0.2861234785446672
0.20201153289363388
-0.04673528487523578
-0.11054651704627093
-0.24998000614829236
-0.11781214116806131
-0.14550514803709763
0.06149865496376836
0.11932449980486179
0.2555408876262706
0.09881048053047754
0.07308643911380663
-0.001880496040829778
-0.3059674831867076
-0.6154972945914359
-0.5074938885941551
0.426194763231981
1.7601714976651506
-0.37482503858105753
0.5201597805117889
0.15154962103869618
-1.110629488590617
-2.182686024263174
0.35031541651949794
0.20274325245958644
0.9108932720541556
0.9350278132679207
0.5764054588285406
0.33901991727244857
-0.05131596624684443
-0.9781713062902544
-0.639672211936696
-0.3580406323056
-0.11944600745653881
-0.1572904593903721
0.42309883463703213
0.592255050088608
0.33644489432266544
0.008102102113621326
-0.10172615054218631
-0.1670972826830016
-0.2130893805530303
-0.09330858740727345
0.13261560267440448
0.016548229862495507
-0.06711987590043425
0.08362399064292801
0.09856558371053757
-0.16895005470909702
-0.25061639430106275
-0.07644382967447215
0.007868447917417441
0.22258537871119094
0.5408850464492625
0.48883533321433015
-0.03629057000843019
-0.5308639373911181
-0.6432587188120047
-0.34206665527832936
-0.3093975352058672
0.03407832954023187
0.4779107307184378
0.760774228671552
0.32094206112357543
0.4771764874664719
0.049096894631920705
-0.3875147679564854
-0.8277549790002384
-0.771852407614789
-0.5907635936023513
0.06273765546607561
0.5998216598384197
1.0174385485192539
0.825580007657274
0.4078557288765389
-0.16978814420811653
-0.7068419201617999
-1.1948580304359742
-0.7538027154794594
-0.20447727300109592
0.5126833534480344
0.8828528869122658
0.9526023370396858
0.6869725451756687
0.1692709645363394
-0.5537175977160814
-1.1989967171460767
-1.5790103702357343
-0.5704339259240572
0.4616775062287299
1.391390312791353
1.8425449295519776
1.3246589912828055
-0.5744467110198948
-1.7360746515448382
-1.8267137540222755
-1.2288852416467826
0.5745949378650956
1.3530273317351837
1.4404452684949056
0.8515655534321551
0.040631676203447036
-0.879663367014772
-0.8695592356269093
-0.4731501515532244
-0.14115314343567964
0.21278462080002536
0.21660513394176267
0.21262846203881464
0.012020460042078787
-0.15613966206236984
-0.09191985194483708
0.1381850596966237
0.37835383968949265
0.37954744964742715
0.2181775332630307
-0.06333205210294711
-0.4018218503343358
-0.6593614023235422
-0.7881397535821097
-0.2292997092833713
0.2495431257080443
0.8877627985970162
0.8584453432287407
0.6150733345721275
-0.12201107499681577
-0.5352648724948987
-0.8490247108020067
-0.4623252979069057
-0.09974009668176471
0.2054597277531449
0.2956673974206748
0.2521502067481522
0.15328979748760985
0.2423452668240086
0.11360061448599279
-0.08106167761054565
-0.20940088721018843
-0.32874159954235255
-0.2592931014768355
0.030164958945046953
0.22012151049467582
0.22349513101695623
-0.03994137990545555
-0.2712637259218704
-0.21760550731098133
0.10788944153670944
0.6146250303840632
0.13702196089987914
0.4568860640393172
0.3479456538084432
-0.36307917024228537
-1.5339421021965174
-0.6646327477612797
-0.0959680415737204
0.14244976329013054
0.8452652898494419
1.332226608423478
0.5694858180039679
-0.4637488874507377
-0.5561771197983895
-0.605456698886987
-0.14332050384652895
0.13194073611693213
0.20153715967999725
-0.252927733287563
-0.25099200388597176
0.2677011173605392
-0.18710166259721406
0.5090712288461874
0.6652997828450395
-0.042630328829433746
-1.1750548215136272
-0.12039289459790804
0.11512329889827681
1.1137843045644744
-0.5502470483005002
0.2948570989969074
-0.16996801606170045
-0.3402621698603951
-0.9774202139495428
1.1918368206464136
0.0644001158186555
0.14271781934930727
-0.28304579354395865
-0.3482971346979693
-0.22313303853249294
0.48084119309978324
0.5069697274517629
0.3578751265495543
-0.2879770668193613
-0.5486846171637976
-0.5089677740864215
-0.0001919540392690358
0.0007239255510892903
0.35305428253616256
0.32264342942322444
0.35298142380020336
-0.1525149349895623
-0.23230241552410388
-0.15475516793711874
0.0008657953604939614
-0.03660922804900541
0.08412875289031053
0.1452466016943507
-0.03747025161175838
-0.2170117321501709
-0.3231493119821845
-0.07686850996367504
0.1897038187292884
0.5126355727829539
0.4831476839205304
0.250629790112335
-0.45506130513425025
-0.48767695884640117
-0.44861351155740403
-0.26665994921817415
-0.003987254213540989
0.3110941496809735
0.2341804457012337
0.2534340159388989
0.5533586289923061
0.2058626402793236
-0.006974799557900017
-0.34341336117574267
-0.43952588358215433
-0.6523580120922828
-0.22647660351408538
-0.09430960095768177
0.29066539518490253
0.5002853490671828
0.6774625236144405
1.301732448549064
-1.012405555487621
-0.6852376021185387
-0.525604886583815
-0.492664171362338
-0.8855564951042216
1.4329089367763255
0.7889152492506445
0.4485073591626898
-0.010858847065836933
-0.4965712349437017
-0.36913984989139137
-0.19795572989800292
-0.322095371409678
-0.028284476304727895
0.2505182459651364
0.3204783594497013
0.20568332044608856
0.13040533528779372
-0.088827816892906
-0.2408639917551969
-0.31191126160869054
-0.0786767242183868
0.09216706743275267
0.2373517001978777
0.18689151900465706
0.15623624192031957
-0.054905937678182554
-0.25652695932912317
-0.2586002090273304
-0.0632525622197296
0.1368279060687705
0.15312158746000037
0.19235122068959587
0.048701594699003474
-0.09937218330595364
-0.2874526405339443
-0.1610951492545121
0.027524052278878417
0.22135374524390006
0.36128563832877736
0.3950267726544502
0.09578177916683366
-0.3107015383033381
-0.7194343143491154
-0.7340525295514776
-0.4830704693021416
0.12995140409547437
0.9509836046366802
1.297635855852279
0.7080995228728166
-0.060060726650602504
-0.5762842111762903
-1.0453733764344202
-1.0096225803870378
-0.2776998397840913
0.4992914248653977
0.6040050980392518
0.39830726098928837
0.2626528794757129
0.1503893301503415
-0.03246454901307869
-0.22270621112744732
-0.3797284865577891
-0.2623867125803997
-0.21474144471013942
-0.16734698140686066
0.3467216851122138
1.5691588087836443
-1.1011356211159438
-0.11113829597673043
0.4592021515254434
-0.08026546544360126
-1.4063068142854713
1.034257365133265
0.029660663873704352
0.3973253125093069
-1.228606760959803
0.3882362356069359
1.2729545076019564
-0.37000097421361855
-1.158600477503915
1.0731605670749742
-0.1139554613418222
-0.9542975111183496
0.528915308765457
0.32495535002639786
0.033315421835085506
-0.13921779644106816
-0.17987150885162878
-0.07006727524905236
0.013268885992073478
0.09392146749712917
0.19113248174080716
0.11553552689444437
-0.13135285409247832
-0.15376539941427098
-0.15656499225147938
0.058432263426679225
0.09262154129453956
0.14761407073899513
0.021306352329653045
-0.09469714326161101
-0.21549706053376533
0.03809680473931957
0.2409829362092069
0.1657884318969785
-0.013292301274466881
-0.11439298019852066
-0.3416279800752366
-0.4826597751812024
0.08622689651714414
0.9880656093630258
0.032374844231860926
0.21063106545033028
-0.09414358362748924
-0.28585886547040257
-0.9317501014273971
0.050510908225036726
-0.014384293294232695
0.41248003872228645
0.043804290794659355
0.5276325898445771
0.42492105219872883
0.011860964723957644
-0.2925560713473912
-0.28223504677277755
-0.7180617672227367
-0.49669663483522786
0.15498883180368192
0.45937173096924777
0.6525118843108492
0.5518307646612124
0.34417127138311865
-0.1979981903677399
-0.678052868314288
-1.0321030901767707
-0.5038099292116968
-0.054110255897881085
0.5915232504899537
0.8726282488018096
0.9258562578975285
0.1455600609111311
-0.4124978067702096
-0.5870285426124131
-0.04445714310210914
-1.0135250809903764
-0.0415975938492938
0.41724593744985267
0.3846383886327217
-0.0768103672968359
0.9008367820591476
-0.032469165643960525
-0.45009010417955836
-0.5393222701162546
-0.2872770131069176
0.12713986156079238
0.329929581518623
0.3403963241852942
0.15959683177594586
-0.03321052297174689
-0.27318996458192957
-0.19474254457849946
-0.015244451842302173
0.07579095905859752
-0.08135743736292698
-0.023647838666388
-0.07907384853116586
0.01608261375599433
0.3007052110747709
0.3778609644309927
0.013765600516169546
-0.25174451122849006
-0.2864836300024533
-0.34642538062024286
-0.06364369921047948
0.3538146762531536
0.3116495254817349
0.014862532775155831
-0.14394092732597266
-0.1897593536907427
-0.16413165979214472
0.2803456977016431
0.48934153030186583
0.22127214315464744
-0.1323988203035914
-0.5248565037732467
-0.8393215067439291
-0.4942962099421651
0.12385830564779558
0.8050731069398243
1.0537147697846683
0.6452635278939556
0.02197783225446655
-0.466785298736755
-0.8925139821629533
-0.8700065582808437
-0.30252208644423456
0.2322410593123635
0.4541728167286559
0.5256954814811681
0.5929914356302752
0.3453177118133878
-0.19536523456062288
-0.4554286410517393
-0.6740254095417145
-0.469471264268262
-0.02343611033670302
0.5109207199843708
0.3828218481759045
0.41416106582542417
0.18159265634046284
0.019596066653828282
-0.35604822689368176
-0.4138220849624815
-0.3752593773546794
-0.20015312056372364
0.004880116225812745
0.35657159771783054
0.5542912084726588
0.24312778368254473
-0.006109545777499679
-0.09353555034559217
-0.1656736882446624
-0.17861224669160508
-0.06017184103483176
-0.08116556055843623
-0.24246832246018135
-0.2806283593829385
0.1093552958518754
0.4398869198676051
0.3952234416834553
0.20626479331850964
0.04471849025577024
-0.16117833641500143
-0.2951580655460758
-0.2169985602802494
-0.33477575056157066
-0.19480199699155898
0.10737310647583045
0.29881629868231785
0.49406069990703055
0.36586266791967625
-0.0675384115238248
-0.2349826609996572
-0.1896662443044848
-0.5822158755530668
-0.24172890748503273
0.22732242599378047
0.4321294004295961
0.1699961939113412
0.20944310765065918
0.08333817052074423
-0.1024456105319597
-0.2479268950766595
-0.2331969576785133
-0.09702719220880028
-0.0270498223755492
0.0356731683706532
-0.02038593828399064
0.09868944940999098
0.26820115329092103
0.3278621632131204
0.07715548639662095
-0.11559618898552153
-0.29444975939837
-0.49617425561602774
-0.5401126542513317
-0.03462440230366504
0.40089195110082476
0.9094106582218121
1.1832133811010102
1.0812636907304467
-1.518226111323528
-2.045490589663604
-1.1805937586438442
-0.4442090892006927
0.5458134155719689
2.567898921400082
1.8829849421319107
-0.03771989077572314
-1.114285051997781
-1.594561722902939
-0.9609930306608812
-0.051014143974251865
0.5808709996793943
0.8569869158255118
0.5445520853087792
0.022328670890910608
-0.33719427355556797
-0.3667824900345412
-0.29243047404153233
-0.12176200848853068
0.15933722561768351
0.3811114773294473
0.3806519774572853
-0.0038706377600658073
-0.3313135852837694
-0.3497885790589753
-0.18959523016455965
0.0361736088943607
0.22060419819949825
0.24463940233897838
0.1584979487470368
-0.030116486075955875
-0.15729370584743935
-0.09434601835882471
0.06693129999625201
0.030923908378920482
0.11367661307733791
-0.14476085509038505
-0.17288076188777984
-0.16725824496844927
-0.10072342660457094
0.06138050270488382
0.340884962479623
0.329612431772874
0.18331212498014332
0.03193982809401865
-0.1942845707209174
-0.1301156445637237
-0.34338651882039534
-0.5183839842248864
-0.2637929002831108
0.05208821158495321
0.24511243005778274
0.8531251665311617
0.6880746447223164
0.220745273307081
-0.19307491476518565
-0.4504665380964657
-0.8218686581838928
-0.27892614582776054
-0.05128701829217209
-0.023497988263010815
0.029639153122540774
0.18114843526858093
0.48083333259002564
0.4935671513767077
0.2623918748343197
-0.09502758437494456
-0.15779369978449664
-0.5517741633297972
-0.4947218737412898
0.04725485771917042
0.1817038297408718
0.08914395109550978
0.2061816442650572
0.20224095813673065
-0.04143348126828742
-0.04557586896964814
-0.13880697135653297
-0.05805378309255068
0.05309138129106652
0.0455190883940606
-0.03567500981842211
0.04731967676408844
-0.0772147411288157
0.00667763119596614
-0.10069753477647386
-0.0182579365115822
0.01304504513064504
0.3302451533494139
0.45402768195113985
-0.2978847196318449
-0.19074520440107945
-0.2520143986039527
-0.45884715906618545
-0.5418717020387541
0.5923375776125948
0.6261649098163862
0.5969659808891564
0.27999964881013417
-0.20210723434579467
-0.5457992981994925
-0.623010723051963
-0.44694408690648496
-0.16312648208756503
0.32885763540245233
0.5304063063966067
0.4928497394817852
0.18006434146390554
0.059431927525727485
-0.0740908309557143
-0.046309371302920406
0.16267300477259206
-0.1165941602647334
-0.9967411990572088
-1.2225768048459602
-0.4070071376372705
0.28603449461931807
1.829934393944374
2.4308393574424896
0.0708367520134474
-0.8760263817090046
-1.3610503730649843
-1.7478638497218748
-0.9168721543054896
1.378136605894181
1.0954203959800872
0.6546962184747845
0.08415600906244279
-0.4092907303550153
-0.23935180509390058
-0.017969362369581087
-0.12656249567034822
-0.29491224600967
-0.39694903229178224
-0.2672886179979913
0.2637568270819657
1.326026421106218
-0.42878051297398856
0.35564242624666265
0.3522952553080009
-0.20998348515852738
-1.0920483843606301
0.207997784804144
-0.5124017132512372
-0.3589145873421834
0.02789165982103466
0.41680633659646077
1.1242728887407032
0.768939093087359
0.06105592537490203
-0.5672516748741633
-0.9020572956638507
-0.8826500191344886
-0.3582999968721097
0.3167495758626531
0.8512262595784041
0.7650873266601973
0.34245574642918364
-0.19152907642317246
-0.4643436496615019
-0.5289932702993163
-0.4330072509522606
0.0009188016610498415
0.3755204577635737
0.5043227567383511
0.19265093169182695
0.025953487553537564
-0.22826064185206463
-0.2062520916903027
-0.1286319919128653
0.016060199406621057
0.07897884056040211
-0.052204862523762226
-0.06630675308007417
-0.24906315617262145
0.09211566786990151
0.20339446729483138
0.4659040335178495
0.1903072437550967
0.02954906896748508
-0.19058001384145745
-0.2301774037649735
-0.3952975977623583
-0.3122532176576252
-0.12544025061685848
-0.12102661853701475
0.22950564918503047
0.6194144850825483
1.0679837405219448
-0.09069190112006566
0.01655026605256989
-0.34384246831620224
-0.846713319003745
-1.4572188705982323
0.1829348419186842
0.32206663899078947
0.6266862012093268
0.696683526217949
1.1995432225651115
0.6494089831867889
-0.5595441161146605
-1.6773497644697133
-1.1105898286240752
-0.559497705467076
0.3949536657778505
1.0528479562791475
1.3286595422808207
0.48988927605781607
-0.271575948819465
-1.027151797268431
-0.6709820970181419
-0.07514015515408269
0.13812911031740682
0.1982942161060442
0.16681468053908483
0.10734962427840099
0.0580723140445366
0.2150178377338704
0.13105989954842162
0.1309027256933064
-0.06164624015792367
-0.49193937587197917
-0.7491832875286828
-0.15842501033306677
0.20441837803378518
0.6783048560239999
0.5770556526866375
0.5609758538993899
-0.1673388744256063
-0.6421389658893767
-0.9004980885087788
-0.3541264777936227
0.0167789241353062
0.44301035911938974
0.7286388440030416
0.4148457818252379
0.16408474403104661
-0.025072760462344006
-0.17447622803853108
-0.46740115062960297
-0.39309627060160546
-0.5138008667438321
-0.4673542471995552
-0.008381602691692283
0.5213842770083122
1.114714392914272
1.439946875252809
-0.1743326610910504
-0.5016467463035232
-0.7392539231304422
-1.2194644609375458
-1.3465148418933188
0.6151679612885277
0.8968805121562717
1.1449832752100482
0.537595386991051
0.13085602185901712
-0.34904843238904504
-0.6725025190200128
-0.8512621078066027
-0.08517810585381526
0.4720864296263341
0.5241040178672072
0.226752973225341
-0.22140481648783294
-0.18618497098843187
-0.20223992174505864
-0.1795341046770377
-0.0162073251628629
0.18161736414920776
0.2771488261723579
0.48438657316684103
-0.4396047496844628
-0.18870344345660736
0.1098000472522223
-0.08102369216438647
-0.2826670365824152
0.8226669334186327
0.4142153697567209
-0.4476496006867397
-1.2086240402251294
-0.4240767908110818
-0.1890707944650584
0.4036448907498189
0.9906027623259881
1.4743570716858447
0.1962578006241802
-0.44010306583707404
-0.9007171049407797
-1.0338871586356282
-0.7979526596956842
-0.031150226904944078
0.7277843163535106
0.7809143881782903
0.6014549775557971
0.3822757857937073
0.021547949127682087
-0.45177565711515644
-0.6252281348264014
-0.4442717488426918
-0.1693691581691974
0.03767735254078978
0.0961590946549734
0.3663284438370552
0.40153626555579597
0.3081679224819813
-0.07532544754883604
-0.17653410686465043
-0.2686329769099664
-0.24107116235981174
-0.17195597545495425
0.29070501704934953
0.33715466642838876
-0.0038534653864383075
-0.2688346075749913
-0.16579002498514936
-0.18419348046215894
-0.010569446128305904
0.25121197212366336
0.45976385155453153
0.2233426098031428
-0.09979165203336475
-0.3870458696233159
-0.328713319562736
-0.005872075261763319
0.1231997535843568
0.025230831799325604
0.08511992627566059
0.09510447307438402
0.044921360116344795
-0.08369156079624558
0.083152715645898
0.11684400201497523
-0.00481839810482713
-0.2877660188225233
-0.11434670999678287
-0.042259916756225945
-0.011985898011806067
0.03805381697496545
0.15253285354111287
0.14231732265672387
0.17561207614691657
0.18143956471701433
0.06645231724598834
-0.25822052753401004
-0.44765732014590687
-0.30145584569716194
-0.15870887680643592
0.08659042607936789
0.3537219467718772
0.5379292264693554
0.2814459706732787
-0.036053217962150615
-0.2839105687302672
-0.14896027034745812
-0.09721770718318552
-0.1412499321480184
-0.22298988956481616
-0.2172914416160126
-0.15665857852166393
0.12757403116097293
0.5576355865043857
0.7693587375269435
0.2941078672952141
-0.2290039828350127
-0.6132289271350297
-0.670635321641692
-0.3644213713142322
0.21701663339151198
0.45909824899676765
0.3997724832749856
0.10119042139960786
-0.1734485251040902
-0.1720930907493345
-0.05619777266145164
0.0020725206562970714
0.02342317030516723
0.023682587191445836
0.014631379631497536
0.004183271513814794
-0.0033563430185623564
-0.006639361484653018
-0.006295183276488164
-0.0038767912662639463
-0.0009925211870781396
0.0012238263718240068
0.0022874256469029492
0.002267818196518234
0.0015572537221670928
0.0006253766514217941
-0.00015845621932553645
-0.0006051393922984605
-0.0006994540975472231
-0.0005413810915307253
-0.00027280899693606753
-1.7974220672395942e-05
0.0001487741536804567
0.00020783593330044953
0.00018037030195285046
0.00010673478835119624
2.685482384988139e-05
-3.206408320191552e-05
-5.934622021038398e-05
-5.810278043116457e-05
-3.9197750563613774e-05
-1.5012672841441928e-05
4.97168921605609e-06
1.6066391284465995e-05
1.8076599788102005e-05
1.3711830671048791e-05
6.674393129316064e-06
1.4029623124346492e-07
-4.037825261551165e-06
-5.422387663342976e-06
-4.607616038208063e-06
-2.6553071579488034e-06
-5.920137561719798e-07
8.981167134109849e-07
1.560924360318986e-06
1.4935725844467805e-06
9.852226458125847e-07
3.563524880701111e-07
-1.5267781051302142e-07
-4.2715221765248944e-07
-4.6762592871372315e-07
-3.4741759088423036e-07
-1.6302349540189764e-07
4.484663411464295e-09
1.0907514273586682e-07
1.4124120134076014e-07
1.1755132647565897e-07
6.590633945686949e-08
1.2677285268598442e-08
-2.4955900589054697e-08
-4.098599374776502e-08
-3.83483825105629e-08
-2.472146460888852e-08
-8.390404682985996e-09
4.559232128565959e-09
1.1331286173103533e-08
1.2082845750370929e-08
8.79064958860557e-09
3.966402561980577e-09
-3.2290990371187875e-10
-2.9362321084006434e-09
-3.674190115772205e-09
-2.9954184218695055e-09
-1.6318851161464182e-09
-2.602608414907119e-10
6.887756670182939e-10
1.0744908496081252e-09
9.834949999639397e-10
6.19240400990648e-10
1.956682130304691e-10
-1.3335596371046403e-10
-2.9995786292219005e-10
-3.1183818876986614e-10
-2.2211558614495792e-10
-9.608265225370304e-11
1.3624971569421139e-11
7.879331888652799e-11
9.545879465384357e-11
7.623790401013171e-11
4.030387838667121e-11
4.999944461315051e-12
-1.889664402495248e-11
-2.8123800171196704e-11
-2.5191776100161598e-11
-1.5480446483506933e-11
-4.507826133170611e-12
3.841320479918108e-12
7.927017821767286e-12
8.04104136529114e-12
5.606477391185183e-12
2.3184820203097244e-12
-4.842321553739904e-13
-2.1059327308024907e-12
-2.47467281732902e-12
-1.9356336855854388e-12
-9.902934994908944e-13
-8.26519205226327e-14
5.181106232912903e-13
7.373658990994802e-13
6.468573709090255e-13
3.885721218699535e-13
1.0466792430475376e-13
-1.069178466280751e-13
-2.067671339610641e-13
-2.0478087336521854e-13
-1.3897867752952778e-13
-5.33164574045246e-14
1.8200317710126567e-14
5.84659767301944e-14
6.640198857350528e-14
5.140712872138869e-14
2.657879439541306e-14
3.270543641669044e-15
-1.1807787537088573e-14
-1.6976923259261464e-14
-1.426425899163658e-14
-7.410351630119091e-15
-7.334125689847531e-17
5.281481216675995e-15
7.71232705473585e-15
7.535060062436155e-15
5.762815250202331e-15
3.533996977748732e-15
1.7112890299990408e-15
7.139094046280979e-16
5.497552884915133e-16
9.640026919679873e-16
1.6150543281935469e-15
2.212926776609288e-15
2.5907188972271904e-15
2.7114524920991903e-15
2.631887388755385e-15
2.4503959460440074e-15
2.2610053892333058e-15
2.1256735354518846e-15
2.066746624474589e-15
2.0745389901285616e-15
2.122117373098982e-15
2.1800337661436655e-15
2.2264316189728675e-15
2.2510732173127815e-15
2.2542649141252136e-15
2.2428891741234972e-15
2.2258432959813667e-15
2.2105250386001775e-15
2.2010765350479376e-15
2.1982883354891178e-15
2.200583799976285e-15
2.205380111870524e-15
2.210263195241302e-15
2.2136785130513116e-15
2.2151001359394856e-15
2.21481697263761e-15
2.2135434224788465e-15
2.212040341375131e-15
2.2108607259477577e-15
2.210253613809712e-15
2.2101980596741388e-15
2.210508820871696e-15
2.2109544607680087e-15
2.2113464818273397e-15
2.2115823340597195e-15
2.211645827509292e-15
2.2115804640027858e-15
2.211453949700518e-15
2.211328193285667e-15
2.2112421304551787e-15
2.211208019868622e-15
2.2112174180281823e-15
2.2112514152747326e-15
2.2112903761141765e-15
2.21132032863353e-15
2.2113352412841116e-15
2.2113359874836143e-15
2.2113275373360317e-15
2.211315903273225e-15
2.2113058824195894e-15
2.211300007062291e-15
2.2112985868067574e-15
2.2113004283386327e-15
2.2113037594935923e-15
2.211306994452262e-15
2.2113091598016498e-15
2.2113099731568944e-15
2.211309677428203e-15
2.2113087721547876e-15
2.2113077634859894e-15
2.2113070039234346e-15
2.211306638830933e-15
2.211306637180037e-15
2.211306866007536e-15
2.2113071693134383e-15
2.211307425166243e-15
2.2113075712122383e-15
2.21130760223836e-15
2.211307550812215e-15
2.211307463251298e-15
2.2113073801302233e-15
2.2113073257376687e-15
2.2113073064837414e-15
2.211307315467249e-15
2.211307339516392e-15
2.211307365599014e-15
2.2113073848350745e-15
2.2113073937407576e-15
2.211307393332993e-15
2.2113073871593996e-15
2.211307379262626e-15
2.2113073727379434e-15
2.211307369115998e-15
2.211307368460141e-15
2.211307369885556e-15
2.2113073721833928e-15
2.21130737431672e-15
2.2113073756807303e-15
2.2113073761326312e-15
2.211307375866491e-15
2.2113073752290072e-15
2.2113073745553437e-15
2.2113073740688535e-15
2.2113073738524946e-15
2.2113073738745248e-15
2.2113073740405236e-15
2.211307374245854e-15
2.2113073744120435e-15
2.2113073745016455e-15
2.2113073745148475e-15
2.211307374475591e-15
2.2113073744153836e-15
2.2113073743606934e-15
2.2113073743265488e-15
2.2113073743160506e-15
2.211307374323788e-15
2.2113073743406516e-15
2.211307374358031e-15
2.211307374370317e-15
2.2113073743755497e-15
2.2113073743746874e-15
2.211307374370238e-15
2.2113073743649056e-15
2.2113073743606777e-15
2.211307374358467e-15
2.211307374358222e-15
2.211307374359297e-15
2.211307374360872e-15
2.2113073743622727e-15
2.211307374363126e-15
2.2113073743633665e-15
2.211307374363145e-15
2.2113073743627e-15
2.211307374362252e-15
2.211307374361942e-15
2.2113073743618164e-15
2.211307374361846e-15
2.2113073743619647e-15
2.211307374362103e-15
2.2113073743622104e-15
2.211307374362265e-15
2.2113073743622688e-15
2.2113073743622396e-15
2.2113073743621986e-15
2.2113073743621627e-15
2.2113073743621414e-15
2.211307374362136e-15
2.211307374362142e-15
2.211307374362154e-15
2.2113073743621654e-15
2.2113073743621733e-15
2.211307374362176e-15
2.2113073743621753e-15
2.211307374362172e-15
2.2113073743621686e-15
2.211307374362166e-15
2.2113073743621643e-15
2.2113073743621643e-15
2.211307374362165e-15
2.2113073743621662e-15
2.211307374362167e-15
2.211307374362168e-15
2.211307374362168e-15
2.211307374362168e-15
2.2113073743621674e-15
2.211307374362167e-15
2.211307374362167e-15
2.2113073743621666e-15
2.2113073743621666e-15
