0
9.28781265307773e-12
8.153159752001807e-12
2.3432006119607464e-12
-7.992502261092185e-12
-2.0387205557489343e-11
-2.9927678261324984e-11
-3.025551533532448e-11
-1.58618533501956e-11
1.4704659603180296e-11
5.576750544170336e-11
9.318255235931693e-11
1.063936787256551e-10
7.484149180658228e-11
-1.1906522471433277e-11
-1.4313670966927761e-10
-2.7999524196455396e-10
-3.5830257318930866e-10
-3.0548247250214376e-10
-7.145523518919645e-11
3.336244329757883e-10
8.094099234548805e-10
1.1624652108969686e-09
1.147561715835423e-09
5.584694736238239e-10
-6.477729256876317e-10
-2.2349200314998785e-09
-3.641885337646572e-09
-4.070707257254027e-09
-2.742309690112413e-09
7.085931659481173e-10
5.8133005115269566e-09
1.1016037682254204e-08
1.3809699269181548e-08
1.1419215112979137e-08
2.013621079645925e-09
-1.3843619601724919e-08
-3.208250156697317e-08
-4.5096945381433987e-08
-4.3440766957062226e-08
-1.9414877740288432e-08
2.8124393869759087e-08
8.939671285327226e-08
1.421770352532484e-07
1.5552522548320033e-07
9.997541721487219e-08
-3.7086951981671515e-08
-2.354274322630197e-07
-4.3286788727510317e-07
-5.315836124899535e-07
-4.256227834639726e-07
-4.840423989394699e-08
5.716181341926812e-07
1.2698167229829282e-06
1.7474822513578906e-06
1.6412080788720729e-06
6.644313466722254e-07
-1.2067410352490085e-06
-3.5692957346930227e-06
-5.544135631826041e-06
-5.932981194588526e-06
-3.623641122429472e-06
1.8119114823811095e-06
9.509490242775176e-06
1.698854335670879e-05
2.0436428903761637e-05
1.581417145263747e-05
7.155748525286396e-07
-2.3499245705866026e-05
-5.018808226282706e-05
-6.763418563412947e-05
-6.187517112977807e-05
-2.2280712078037834e-05
5.12741946230624e-05
0.00014224924713255793
0.00021591584643108135
0.00022591291407132884
0.0001303398493231535
-8.500810892004003e-05
-0.00038356529899682816
-0.0006665415555476169
-0.0007854665920519702
-0.0005864561783906666
1.7248225861628725e-05
0.000963884340696678
0.001988020775875955
0.002634256337007031
0.002373206571759399
0.0008221656070529187
-0.0019776924614713846
-0.005332483271766215
-0.007859465538157353
-0.007781724142499735
-0.0036188542053162682
0.004800507296153943
0.01524971921191078
0.022317463958305653
0.017309804012929135
-0.010953177455051569
-0.07458031392223609
0.015251584154371332
0.04995710800008108
0.024789129089118258
-0.06019433834777064
0.0007194942387116546
0.019554791484591057
0.014889166933827322
0.01154180309693397
0.03963870196720213
-0.06718513741388221
-0.07504016198282455
-0.15530026644812264
-0.09279332755915577
0.10431932011955272
0.39617700704008807
0.3094858327531347
0.1473156627408799
-0.18826711585402403
-0.3655434130542934
-0.5949055413900748
-0.21519035625229993
-0.10276222177242426
0.4970199758062834
0.5257987958378965
0.47137923705336127
-0.055144745304365285
-0.11694769178375293
-0.4266662862109469
-0.3102851412448814
-0.07326529712026732
0.02082830943972832
0.15549926846101747
0.15292389599643896
0.05817689014481652
-0.07754734687355581
-0.010412209296571448
0.08768215411544016
0.025978916268782824
-0.0035131764497916703
-0.02061015660570476
-0.04934957220838835
-0.1103583247376579
-0.015364893215448617
0.03473634204125753
0.04818963319089843
0.0382805351144271
0.018710257149528016
6.85438947970729e-05
-0.011789495419726537
-0.015533898674309862
-0.012960646643507249
-0.007211975903775585
-0.00127204054281039
0.0029159001646763276
0.004675087901317511
0.004340121184805255
0.002779527485880903
0.0009274102184404105
-0.000532922909946222
-0.0012905611104641298
-0.0013675413264676397
-0.0009898954645256824
-0.00044234697529804603
4.198370032138516e-05
0.00033530323594760413
0.00041630840068078494
0.0003377215143839955
0.0001826677212399967
2.7592162136377162e-05
-7.912336046257391e-05
-0.00012194344808199858
-0.00011096718849523465
-6.937381291501125e-05
-2.1399223991280374e-05
1.5607247649436502e-05
3.4072148663127715e-05
3.499050157406144e-05
2.449970500648394e-05
1.010828627710757e-05
-2.133049630548068e-06
-8.99868321210582e-06
-1.0114787251354333e-05
-7.125373092815981e-06
-2.5483861264523155e-06
1.2541999794323926e-06
2.7700685201857354e-06
1.6466998126522128e-06
-1.3330710979941756e-06
-4.541449272131387e-06
-6.010567102296185e-06
-4.103384866430357e-06
1.7438069467752396e-06
1.039488509708683e-05
1.878732372400479e-05
2.241415914847628e-05
1.670004812687441e-05
-8.498831881542516e-07
-2.8296279811206033e-05
-5.771567997014785e-05
-7.566925795074212e-05
-6.66305623560709e-05
-1.9410019055455634e-05
6.483772889353233e-05
0.00016604024229889932
0.0002441330109210329
0.00024720449009201385
0.00013019971688632657
-0.00011890279114329288
-0.0004540001089315589
-0.0007598533118520361
-0.0008687533301835317
-0.0006127164896632157
9.38891937171164e-05
0.0011643419711308617
0.0022822603590365825
0.002924211056919332
0.0024974734173182937
0.0005919105794951438
-0.0027119389723410433
-0.006597725709440691
-0.009488401814594276
-0.009381570339457253
-0.004588676082150475
0.005252236872299604
0.018231156810440543
0.029794071551605652
0.03346156317343179
0.022917892620681904
-0.004764009843317273
-0.04569676598822603
-0.08714002281338959
-0.10869949616623001
-0.08814020352167985
-0.011803320758791036
0.11250968949287932
0.2445463040160828
0.30814733099584846
0.20019004542183994
-0.1866259705113687
-0.131111580286087
-0.25033227975649824
-0.6778147559485208
-0.4638513274858313
0.19740323107011692
0.5189168521308111
0.8648909548159369
1.108638043486962
-0.5786478268284412
-0.7038795286268418
-0.6046733010678637
-0.6008535051990751
-0.36575279211245304
1.0736977391895006
0.7143483090100976
0.1483384396619064
-0.2544433446545055
-0.34532811992903434
-0.1811613143859763
-0.0042255359479904464
-0.027379036594771942
-0.029277889328242088
0.04022528085080503
0.04739220913178326
0.05878750441504494
0.12667657953111736
0.07927072901353284
-0.08202345303520212
0.021780416222587466
-0.04309533338159533
-0.111403617717714
-0.008323162741457274
0.057140289003190556
-0.1067347134569323
-0.0790588643359995
-0.03604522950742655
0.036020768314811755
0.12763659945090972
0.1970726830669552
0.17007422509124276
0.15140208416085754
0.04807768181944503
-0.4001921054809063
-0.3920333463981744
-0.24732865034582213
-0.01038778505599425
-0.07567453525080055
0.36924118172420173
0.29497213316948656
0.38977649381255075
0.03917046959715661
0.13184999377001216
-0.10971389066539979
-0.2828775073567295
-0.5561175107161853
-0.23229207051502565
-0.13452167607438253
0.18212386704413808
0.3988484326347363
0.39380100039034444
0.20967709126031164
0.03912207265037431
-0.1686459657276278
-0.28463777145756236
-0.1704588426858173
-0.2536030407273315
-0.11617365145565821
0.09989427791712194
0.274055525859852
0.2824625436648259
0.17672222181018066
-0.026570685494117778
-0.14313196611875187
-0.20825873874119222
-0.26083090622023264
-0.1310715495797212
0.163871412237226
0.41720406706059737
0.42740093104711396
-0.40361154966965807
-0.26670479480022946
-0.13924747751513042
-0.18240053367967224
-0.14667591749727393
0.6144506923265339
0.32820420535909756
-0.008829040918760087
-0.23135908987085868
-0.19519907592539493
-0.1613906056235238
0.018453726218338844
0.11091863397084406
0.10286381348530763
-0.0010726568353594337
0.017312917398984266
-0.01431706234144581
-0.06259690759420065
-0.09270321010491037
-0.07412692730392446
0.011713549716641505
0.16314669956733266
0.1519061313033253
0.122173583280568
-0.002576724795664049
-0.10512428326959714
-0.25574707036912314
-0.09451252169788071
-0.019764514107676295
0.2144805526597007
0.0928409327660747
-0.07254544030907155
-0.15558334001670074
-0.03062201446222116
0.012881430018034374
0.2564293163705599
0.14149340286476475
-0.13594358502352177
-0.22413643647009857
-0.008774423327564488
-0.0030601190410031536
0.263753472215398
0.2597144601065533
0.06653268338421826
-0.40169982793426057
-0.381671381038935
-0.25283989943665375
0.05587508565362703
0.2441356303331041
0.4092638344231456
0.21713666618267913
0.0853215191587679
-0.0160112657771056
-0.14678870379214193
-0.3706925512227594
-0.330012248045659
-0.03093619377133184
0.1560382785570675
0.28229761031349854
0.20096008172056357
0.14914827492667623
-0.060955649034855584
-0.24079839128910413
-0.2171557976437134
-0.022460988130188854
-0.0884190044313093
0.1558550519184362
0.48378852887200496
0.27415225501894247
-0.07963424192195072
-0.35464989875959807
-0.6851551132484831
-0.7615318796356184
0.150344737871886
0.5705086787314666
1.9606171070892473
-0.3047584195057435
0.06624302842733158
-0.6774565250586744
-0.6704451768815487
-1.5777454474203207
0.8285468047726621
0.4532903546190495
0.4313364010222597
0.47080351404738785
0.20943743981642
-0.0014099677988490278
-0.2827503903215852
-0.1918908994305093
-0.27827321259114446
-0.24579130072341737
-0.13237618562416867
0.08864843591247704
0.0877209903990017
0.14651745443802133
0.32450460458690467
0.2351620529693851
0.039437233789544085
0.05884502255359899
-0.1954014783705392
-0.3859895164183716
-0.31716594737087944
0.0832735663474273
-0.038014898556466344
0.11876892040004701
0.17212893420512354
0.12055133318731466
-0.09191645552000992
0.20054953392951258
-0.024211885967184148
0.1286194665960073
0.08904391103775335
-0.14988149703074224
-0.40005485166437094
-0.04906173110062546
-0.039744804414714986
0.1384840898240688
0.24808219652367636
0.09622004304402774
-0.07300932329129863
0.01561227421710446
-0.136045510096825
-0.20566535327198981
-0.26189868809744904
0.01721641929455852
0.12055861910636026
0.48099413450883177
0.6623369007373344
-0.23530011396572315
-0.14869393760228303
0.3913421537628795
-1.2941452725825457
-0.7996096420235813
0.5707174576456365
0.376869343023259
-0.4067985540988669
1.1519074761970436
0.49975646094917037
-0.017087314428008073
-0.33510649317462327
-0.4292762658616667
-0.4592761492810258
-0.3252866977586985
-0.04747661820170055
0.2265434711631113
0.39227909341902095
0.34986111747426946
0.17087757458317931
-0.11919979697516853
-0.14005617103610563
-0.14119231265300156
-0.1803765579752404
-0.10419481624917794
0.06375826337891989
0.12544551404859955
0.10361006187820068
0.033372894745435054
-0.046381571228314676
-0.1001721667587932
-0.10180821275491829
-0.039886171354804566
0.0769746943003265
0.21673070009300477
0.3253705804343022
-0.06390408787789366
-0.21339162561075767
-0.15909002165862796
-0.09117387596759664
-0.1439255011989513
0.000213158648821202
-0.10831086429113528
-0.11700354671978215
0.0920916879856308
0.568714615000071
0.47368241155456947
0.28002608570074605
-0.20061194689396686
-0.5719704722611951
-0.8020517086967114
-0.38494802878687734
0.2710217929422337
0.6269269308588579
0.5790038957769434
0.2234272192451897
-0.16597464027041522
-0.5428067915231841
-0.4819817312508668
-0.17319216481548266
0.17802538872728754
0.5417998415593966
0.6563874989865227
0.4330217215942247
-0.21997662850930794
-0.7575155156541502
-0.9574019345771632
-0.4994860366739978
0.020751276238445242
0.8433616105756314
0.7753539083746274
0.527780965411579
0.28216891408011546
-0.3021966113946234
-0.8449276985228369
-0.3828346953005105
0.08817784097355401
-0.14923817624960806
0.0768075046177354
0.21435579467102783
0.15957911567036087
0.024120518855297528
0.10654635821819129
0.07343949311170597
-0.04795407135809688
-0.06667615819053006
-0.017903588418396045
-0.1500371076649894
-0.11319663548357325
0.04801461641683758
0.09669246232171357
0.00219957369148458
0.1380307926768368
0.08197812695064198
0.02038844095032946
-0.04368099726736399
-0.0807772755740665
-0.22786917284639166
-0.18810656718582913
-0.04059948872427505
0.13980482921306203
0.25671243009363165
0.16736917630716003
0.06637174321527169
0.08294469752161485
-0.10748736861571749
-0.2609784706924549
-0.138231348310754
0.12024052849810259
0.01256251826970622
0.08632545364107663
0.1428719368748577
0.036510985434868214
-0.3311550829064167
-0.4234333244119213
-0.2895484892896304
0.205666588151834
0.749218772113392
1.356452715597308
-0.6302337870949551
-0.3145317429950997
-0.3986534635680641
-0.5339304506170888
-1.2909161648232954
0.8371072788509724
0.5970235646221298
0.5193617234328997
0.06483779637730912
0.39435600101887386
0.37264543242537396
-0.5966425697213259
-0.7168337828303137
-0.3437306103258292
-0.14911070783349054
-0.11318387062983547
0.6546625327851953
0.47785200502655095
0.07311778857794014
-0.07698710190955944
-0.1335094954365227
-0.09460749301162465
-0.18030563755839987
-0.016344536326436683
-0.02278527970201919
-0.009806763953813918
0.01982406159673352
0.06416170743350802
0.11489493134033497
0.15308361081980892
0.15033744815543984
-0.1241485295526182
-0.29321658740213274
-0.36319153153582817
-0.12289145472351944
0.04685164421405643
0.35580431540437407
0.5874469120514403
0.4934725456730339
0.007558398985280052
-0.5220427687592674
-0.6919766838744933
-0.6133324541953741
-0.3084785229207154
0.05697925009243502
0.7135399310472875
1.0178792171504818
0.5989890972538179
-0.058831823320567904
-0.38924489958039793
-0.6836234705648712
-0.8197643045273418
-0.2040187666453266
0.4570594072896127
0.5534776078634117
0.34736539474555383
-0.05747460412122119
-0.34076880513079577
-0.3826842607352289
-0.27556264597797714
0.46605734625824724
1.698157732480573
-1.152036747508624
-0.4737556251484761
-0.05300971248836595
-0.2566402329821835
-1.0304142918827304
1.6863833380447901
0.5370572059530229
-0.0725380037985557
-0.37896427566443497
-0.44941943227036085
-0.3617749421550618
0.011643810300269944
0.20934220305931395
0.37608829123050735
0.6559057035195797
-0.4089599169028227
-0.26929552911664445
-0.1537964355898811
-0.2560115722811368
-0.5316022776222245
0.6907499033658987
0.4882684157911299
0.12167482065866679
-0.1790604849071267
-0.21616704861442837
-0.21499034163794
-0.010727356756373355
0.16329956388510575
0.28357857151812793
-0.05865165362756356
-0.2541920549549068
-0.2749803924412679
-0.07782132434747029
0.18571045886298865
0.35507990591723226
0.24777306531377513
0.053626291470998184
-0.2605309028403859
-0.3383667366278367
-0.22038156155728944
0.06380495312848077
0.09380462300387897
0.24950514336304724
0.10092542970324749
0.20376069814900244
0.10506939745425936
-0.04073916426967663
-0.2501446740526262
-0.49123387807720287
-0.47638852851423596
-0.0737201862899735
0.46293933411058963
1.0546862314329377
0.16431746571163214
-0.0164190886879571
-0.3539289163547782
-0.5413292634403498
-0.8638144802211236
0.4238499983146714
0.5001850798536048
0.3636117586039746
0.013678968653576531
-0.1624142183997635
-0.19342494619742334
-0.11973753104562775
0.014182641224157263
0.16706382389823554
0.30726295395055897
0.019698143080945106
-0.28605712727811916
-0.3686523106407394
-0.15344179724022436
0.05932646381573778
0.37661923779262885
0.29027848012355917
0.05830699518237286
-0.10370680155945115
-0.21935501561086918
-0.13965908776983468
0.0716449810074891
0.15125787502489269
0.046034696683865166
-0.08065393139435463
-0.24573484724772277
-0.04712355744628805
0.13091286268438287
0.10845865265886631
0.09958639847365315
0.10473188857857475
-0.09146453406511114
-0.11650884650683928
-0.0025479779439258553
0.021976604163702285
-0.06109739082138478
-0.05628412981165014
0.04542672558771151
0.06354356327711828
0.02341515087303233
-0.04848588400910829
0.07193721589280479
0.004716905467086567
-0.03411480074973503
-0.031248681592753718
0.025529856694924087
-0.051620714810741916
-0.05084428650148337
0.03766180515579708
0.018767361372404614
0.08938432534597646
0.03660603085807469
0.038022222815210796
-0.13574889538342935
-0.11748961281860174
-0.14064530016292398
0.1612599577491965
0.15355992109377786
0.20026647007894724
0.06791189540374182
-0.06515774706590423
-0.19598376360140704
-0.2858677541888578
-0.2573032776960983
-0.0035143915089881615
0.18941757741747509
0.21342857236346227
0.5119912032357966
0.2663382839040195
-0.19947496251482622
-0.39564640686956726
-0.23411356917685366
-0.39848645915038083
0.07335691656991429
0.39005569749359115
0.3942093051211729
-0.055860862049699596
-0.30299558459284387
-0.5041108227469959
-0.04054548100615416
0.47295621714523606
0.9837390362966861
0.008222839131297668
-0.14438659459435013
-0.5348604119505841
-0.7564758765072421
-0.9153313906378991
0.35806201159236595
0.6650203437307557
0.7769006547270167
0.5790092682937957
0.042449659855431275
-0.1655565182508413
-0.4379222171559924
-0.5677770047160626
-0.49413789384251766
-0.0711316463501168
0.13113191956494155
0.39788669934655346
0.42660769727035863
0.28658055846943054
0.19537583310717463
-0.08125117498495844
-0.40885742597427455
-0.4536075541298845
-0.2548875171224695
-0.012202286589099174
0.3097955694068198
0.3626037889312185
0.19142597091417946
0.01918041599659317
-0.1572508166336066
-0.15892420347951924
-0.009928108224099405
0.07787394960377528
-0.2847413609054899
-0.061711961370646815
0.002461722378419058
0.16992320060982857
0.0936547449142749
0.40411938559277566
-0.09676641372368215
-0.2323848071305833
-0.2410709099714353
0.036118098160201
-0.035734461127505675
0.11758229713144829
0.07739400642460877
0.027980422625987995
-0.04684914693076409
0.03521490874685616
0.05656150982912563
0.003046239560354935
-0.13221004882928525
-0.14643211193253022
-0.02805502489161308
0.03826576165103119
0.063580379962575
0.24667800557790104
0.1703580837057926
0.005102093118426117
-0.07955470782472364
-0.0994379295251187
-0.4424795816379403
-0.46509759350063196
0.09697924831518355
0.304391645886663
0.5845990805085111
0.5105307228233796
0.4002025874049058
-0.2573945004666561
-0.7564465541943953
-0.9254437731002043
-0.29622100237833726
0.0939748698680186
0.6659653468568227
0.6409795665767075
0.3833595555442031
-0.036853869613797254
-0.2520652314355036
-0.5789496561575459
0.014630655724896626
0.14469401088854322
0.039489136049254414
-0.041757934481893806
0.001078130187273914
-0.0883135521520162
-0.12610969228644459
0.10334151038612206
0.23647580406349794
0.11998296352001177
0.004127690941260676
-0.058511757555618535
-0.21033402475402854
-0.18598560841845596
-0.11400623661433239
0.07478645587967617
0.23346819471400876
0.18457354083584143
0.11143866851504072
0.16031371826359497
0.05445636504350245
-0.48326156582589175
-0.3066141757412497
-0.02997006292391722
-0.02647858845973168
-0.04164213036625062
0.3825373449225413
0.28156345926421994
0.04998023122472283
0.037134900819438404
-0.04117398474377724
-0.07886679737571169
-0.15097216478353773
-0.2889144970020445
-0.26738615202218863
-0.007410438533374476
0.20468175108845205
0.288158749746555
0.3384302305193643
0.20727752080401904
-0.10104257506626603
-0.4181603111257158
-0.1910318149307969
-0.26204585184401585
0.1423736977655569
0.21216046389494428
0.3462315565920076
-0.056343592273017336
-0.0012685589293230462
-0.2985327992606236
-0.1589903456827409
0.00795607649732955
0.19309397434831255
0.18338552159613386
0.15856774224251252
-0.10830309936237352
-0.24560817291413756
-0.07571251359599948
-0.009420167075145655
-0.0454621188864997
0.024591896543583867
0.20834326982913598
0.10540306168681846
0.10493441567648824
-0.009904063158594031
-0.05130476415882926
-0.21366127266842172
-0.26353300235746424
-0.13817638810099284
0.04445943382833675
0.1657555858265697
0.2825081753266509
0.20775574606622846
0.5043355382198615
-0.5049533615891418
-0.11297983760073634
-0.1980940257555335
-0.3993460872194986
-0.50653922250684
0.7311334072360043
0.38162204599195243
0.1017497973626703
0.11568174597315402
-0.1926564253973866
-0.27310662139062625
-0.1940184082663658
0.175290316172074
0.38024319761084646
0.1942791552440606
-0.16950122677669516
-0.4496520234030817
-0.5358006254016053
-0.28271514071685716
0.2583233543656183
0.7965564319100059
0.5612478756963712
0.28043705721944934
-0.009982955093060736
-0.5277479573837469
-0.8894052289705268
-0.4588248336514511
0.28387745606036724
0.5463822769811697
0.6072281840030995
0.19143215048857998
-0.3495085805837812
-0.6500535740174036
-0.5412204500925033
-0.06785126449203442
0.6843592559401088
0.9589256031148496
0.309854106452211
-0.19316358170814882
-0.5333534199828208
-0.7000769985726228
-0.4451443610584193
0.14138593270133126
0.42961757857973587
0.4283037864644245
0.15710325222918736
0.026515555380671234
0.033441133737402366
-0.027579473572690055
-0.14357316497184353
-0.26213386627738744
-0.48004877091452614
-0.2492616116802702
-0.0028638171479624885
0.40369242711471276
0.6487479634918548
0.7149931638164555
0.2893586626354204
-0.002229319237621244
-0.9336932394172693
-1.2127397204834311
-0.6369778458342165
-0.0931290637614968
0.596770081436547
1.1989566410884487
1.192527534944289
0.3270694574864238
-0.3683941089186932
-1.1292621608021856
-0.9765100610747612
-0.4480014661383944
0.23436135361115687
0.5539290024941439
0.6561433280921505
0.29472423735946685
-0.011777391750497976
-0.20137415065820757
-0.2678810007523625
-0.24604793513116646
0.007130850783085555
0.027444404613308097
0.1523797099392723
0.12584076169136757
0.10251342664014425
0.05496983792951614
-0.015941547181063144
-0.2699553665313874
-0.22038971714789957
-0.136676749661952
-0.05976931637993429
0.17042694158872626
0.28118358701462426
0.1354253742953702
0.11153146158531317
0.10055238075019561
-0.07774659618501968
-0.043298161279317356
-0.015320287297543875
-0.17149063073493992
-0.21514973769123602
-0.1575983573864233
-0.11985024434110993
0.04576966405397267
0.11841468470823945
0.06415956970567259
0.19460455905555668
0.7390343415474174
-0.36203462244088813
-0.03904687795566487
0.14508853180703166
0.04499104257680383
-0.6178441508186573
-0.018950004226949264
-0.6192057854143003
-0.3847021435362642
-0.0379743592050533
0.669342251500165
0.8820169324258657
0.9897339071244288
0.6199253822341351
-0.7174619001279087
-1.3455516891761665
-0.9261096640098598
-0.3901002454582946
-0.11771969466963415
1.028834421064934
0.837764188841611
0.47464933740109927
0.031247137675580787
-0.28979804554480654
-0.5568312306881853
-0.27213573725575946
-0.13369654913737034
-0.008874655847992333
0.27541747384600934
0.32925351394011204
-0.009787346183028798
-0.085348311405617
-0.027196010357652907
-0.15339097255191067
-0.17309953734696482
0.006867129765142046
0.07085762072622966
0.0804877857765025
0.26235659015590435
0.20233264959212
0.4497383254246124
-1.069110391207025
-0.23350344596156358
-0.11567028768341565
0.22057542838367566
-0.08968492363367787
1.275201326153468
0.21976425933738014
-0.3555003000919873
-0.7252873123408221
-0.5065077218333602
-0.23795233954503342
0.014866251289887276
0.2282219540982525
0.572177217471544
0.5631281983346111
0.433803760551959
-0.6693248970376079
-0.46228639632454793
-0.08444156209818633
0.3415526529410281
-0.8603697493409338
1.2956668393390758
-0.5409201822267147
-0.26665010097427766
-0.5427219588328333
0.5776216868156823
-0.5846505240177535
1.2323354623165983
0.40932870041806585
-0.1545160288469618
-0.2167910873534919
-0.3480541191254678
-0.4838634638156151
-0.48940348458969285
0.05149604145061291
0.4206195113005713
0.5308042045085675
0.2871408351023104
0.1584538846043202
-0.23302966029583722
-0.5053433035557366
-0.502665913682488
-0.08407589837455227
0.27883624096841897
0.6980463299704616
0.6687574058940129
0.2836645221508909
-0.3341378523028766
-0.9879063248250658
-1.3731114373880517
-0.4744967530489359
0.3935309257158306
1.5108461780993252
1.6673837731639067
0.10599932785057785
-0.6829927956000938
-0.7149471866791531
-0.8343072532793617
-0.6409053462531
0.35458892857885604
0.5361733427819302
0.3560115173687126
-0.1071765954488187
-0.1877000447358836
0.5407077348751028
0.2563599962673192
-0.10086889759541288
-0.4057487753098651
-0.3178153005598917
-0.25641941783353317
0.00987847152813765
0.15605053952226455
0.27913556799743705
0.27121856155644314
-0.0035969559872124717
-0.12171091379236919
-0.1005236072558249
0.010337730455184815
-0.05748151153884536
0.02317896972773683
-0.012468331359316446
-0.011438510770788871
0.0036088822515564834
0.03789148843858666
0.12520301191480232
-0.07408265822063713
-0.2780893147332941
-0.19260383955955296
0.07497806657733173
0.3983527919595029
0.2161996051199649
0.12340513976313394
-0.12615154489913444
-0.20583882016340718
-0.39697459428716975
0.02854323044422851
0.21805042625805368
0.13914895456650056
-0.025185899743156638
-0.08319413274889498
-0.03967215915201856
0.10096209963381078
0.1340220259062139
0.05644386513534703
-0.12902474394793997
-0.20886038055980496
-0.15590561816441767
0.06854691176535661
0.1069736095892125
0.19447497370767142
0.1487234967053546
-0.034766653745494466
-0.18027364355848302
-0.12384310073871638
0.09687116654451323
0.051435031830695616
-0.0777666071850897
-0.0935400343411103
0.014782588960599264
0.06730547231505009
0.08809824231976095
0.10021929017123914
-0.0769742394154179
-0.027610859260098222
-0.13713265574041594
0.00992922789831086
0.030579884556416633
0.14193754232687392
-0.041456703381602254
-0.11043889158298643
-0.06352105454101604
0.09130445645662434
0.13540412984566735
0.03984310112289762
-0.031739040562603474
-0.11765983748875147
-0.051596522912749666
-0.057163862533638955
0.05452142963346023
0.08393100900879465
0.039952072246777263
-0.06387761962859458
-0.012489772676923623
0.008587649024004424
0.011865264303645814
0.007040002522580966
0.0006227170226717298
-0.003910213711789379
-0.005504722311035729
-0.00465771588744177
-0.0025393062577517517
-0.0003119649358313706
0.0012558605432282277
0.001892303113206309
0.0017245853849978696
0.0010906285220896323
0.0003540119883989599
-0.00022058400505531558
-0.0005147600699482829
-0.0005402990706174835
-0.0003880737434324871
-0.00017086671229065301
1.9747990964566752e-05
0.0001341297275576291
0.00016463536237443607
0.0001325754377090217
7.093651797969542e-05
9.809036161873736e-06
-3.1930204796995166e-05
-4.8384658315162104e-05
-4.370875087991874e-05
-2.712060957932741e-05
-8.167653750178277e-06
6.371599785746912e-06
1.3584399562234721e-05
1.3912307570347866e-05
9.78160723193223e-06
4.117816176333472e-06
-7.499152015556735e-07
-3.5960711176859166e-06
-4.275596528427549e-06
-3.372318608835707e-06
-1.7492050514108048e-06
-1.7675169825162708e-07
8.733161082870169e-07
1.2654125536717332e-06
1.1189194018876856e-06
6.773200196138862e-07
1.8669737954595272e-07
-1.8195558559853772e-07
-3.58478256002115e-07
-3.583883870413798e-07
-2.46576935046528e-07
-9.89405492859308e-08
2.5326892647694087e-08
9.605815728218098e-08
1.1085920351942643e-07
8.56556892628194e-08
4.299883262749161e-08
2.600058952399054e-09
-2.3772575818852178e-08
-3.304667201172435e-08
-2.8609961144983384e-08
-1.6881369744222943e-08
-4.1961949175131904e-09
5.138688117807694e-09
9.442858286749662e-09
9.221751847906792e-09
6.206273946135851e-09
2.3629913065775536e-09
-8.056425028948827e-10
-2.559339441092407e-09
-2.8709037486355602e-09
-2.172821143266964e-09
-1.0535756301506653e-09
-1.685314454482689e-11
6.44377455813545e-10
8.618313025966909e-10
7.306827575064144e-10
4.1985539834242463e-10
9.226213706564589e-11
-1.4378767356766282e-10
-2.483080740779755e-10
-2.370126026657641e-10
-1.5595815071916184e-10
-5.603931946162267e-11
2.4658510655568328e-11
6.803083761894648e-11
7.42612792139513e-11
5.504779938929559e-11
2.572621374216415e-11
-8.479485206756791e-13
-1.739721165858734e-11
-2.2442852255492944e-11
-1.863634590601026e-11
-1.0415708003860132e-11
-1.9654812216886128e-12
3.9950203253983645e-12
6.521540579607469e-12
6.087414562734952e-12
3.915344300531425e-12
1.3209158903793186e-12
-7.317463261214195e-13
-1.801539916365906e-12
-1.9158456248544922e-12
-1.389933665488691e-12
-6.229238389248795e-13
5.74648442206912e-14
4.708825221740868e-13
5.864631714545755e-13
4.77549800926337e-13
2.6055230649314117e-13
4.283111623927319e-14
-1.0745699545426276e-13
-1.6821393757596632e-13
-1.5337548006206756e-13
-9.533188802182774e-14
-2.8050195418495084e-14
2.4096663627244246e-14
5.040641315469779e-14
5.216397402164647e-14
3.783836061916667e-14
1.7803388529728787e-14
4.032961423241538e-16
-9.90381553433634e-15
-1.250890432769423e-14
-9.428291702893954e-15
-3.710728373175144e-15
1.892454707047809e-15
5.676050373563081e-15
7.128501407757808e-15
6.65303573163635e-15
5.105964620052526e-15
3.3632631882961886e-15
2.0401973688322306e-15
1.3952167583331273e-15
1.3804082768221419e-15
1.7689518076258503e-15
2.2915540766381967e-15
2.7360198680891914e-15
2.9924499727026173e-15
3.049941193591421e-15
2.963628844565103e-15
2.8132407777839842e-15
2.6692043320718395e-15
2.5741010202426106e-15
2.5396152251233618e-15
2.5542380299040775e-15
2.595373989510618e-15
2.640458615198996e-15
2.6739831853686204e-15
2.689739448732377e-15
2.6893398125679656e-15
2.678842328729787e-15
2.6652289266423906e-15
2.6538889662381046e-15
2.6475235878389643e-15
2.6462907068768667e-15
2.6486897996999604e-15
2.6526388852434964e-15
2.6563372862805037e-15
2.6587238142630253e-15
2.659536089320403e-15
2.6590989855183656e-15
2.6580076512962957e-15
2.6568426657969175e-15
2.6559943503023858e-15
2.655610930490692e-15
2.6556412282337796e-15
2.6559238535183666e-15
2.6562780064952786e-15
2.6565669839376377e-15
2.656724611795346e-15
2.6567499773116145e-15
2.656683745702322e-15
2.656580209733918e-15
2.6564853549911947e-15
2.656425571311223e-15
2.6564066205208146e-15
2.6564194156207393e-15
2.6564483077403252e-15
2.65647837577305e-15
2.6564998118764442e-15
2.656509101902591e-15
2.6565078097687153e-15
2.6565002248117944e-15
2.656491023323554e-15
2.6564836682506405e-15
2.6564797749746056e-15
2.6564792861339586e-15
2.6564811038445613e-15
2.65648381419135e-15
2.6564862441888133e-15
2.656487739063544e-15
2.6564881761099914e-15
2.656487807545281e-15
2.6564870441669637e-15
2.656486269015481e-15
2.656485728126552e-15
2.6564855041275142e-15
2.6564855504855852e-15
2.656485753453464e-15
2.656485992223912e-15
2.6564861791933524e-15
2.6564862750844726e-15
2.656486283445523e-15
2.6564862338157153e-15
2.6564861629686747e-15
2.656486100788572e-15
2.65648606348171e-15
2.656486053546338e-15
2.6564860640280707e-15
2.6564860841600274e-15
2.6564861041204e-15
2.656486117748055e-15
2.6564861231193053e-15
2.6564861215915156e-15
2.6564861161748397e-15
2.6564861099865714e-15
2.6564861052397453e-15
2.656486102885157e-15
2.6564861027784504e-15
2.6564861041273394e-15
2.6564861059766226e-15
2.6564861075658713e-15
2.656486108495018e-15
2.656486108716761e-15
2.656486108421757e-15
2.656486107891777e-15
2.65648610737838e-15
2.6564861070355655e-15
2.656486106907584e-15
2.656486106955443e-15
2.6564861070996395e-15
2.6564861072598284e-15
2.6564861073801856e-15
2.656486107437809e-15
2.65648610743777e-15
2.6564861074012577e-15
2.656486107353053e-15
2.6564861073124817e-15
2.656486107289391e-15
2.6564861072845615e-15
2.656486107292793e-15
2.656486107306721e-15
2.6564861073199108e-15
2.6564861073285208e-15
2.6564861073315476e-15
2.6564861073300985e-15
2.6564861073262686e-15
2.656486107322127e-15
2.6564861073190793e-15
2.6564861073176743e-15
2.656486107317747e-15
2.6564861073187314e-15
2.6564861073199865e-15
2.6564861073210207e-15
2.6564861073215934e-15
2.6564861073216948e-15
2.6564861073214668e-15
2.6564861073211015e-15
2.656486107320763e-15
2.6564861073205474e-15
2.6564861073204764e-15
2.656486107320519e-15
2.6564861073206207e-15
2.6564861073207276e-15
2.6564861073208045e-15
2.656486107320839e-15
2.656486107320835e-15
2.6564861073208085e-15
2.6564861073207757e-15
2.6564861073207497e-15
2.6564861073207355e-15
2.6564861073207335e-15
2.6564861073207395e-15
2.6564861073207493e-15
2.656486107320758e-15
2.656486107320763e-15
2.656486107320765e-15
2.6564861073207635e-15
2.656486107320761e-15
2.6564861073207584e-15
2.6564861073207564e-15
2.6564861073207556e-15
2.6564861073207556e-15
2.6564861073207564e-15
2.6564861073207572e-15
2.656486107320758e-15
2.656486107320758e-15
2.6564861073207584e-15
2.656486107320758e-15
2.656486107320758e-15
2.6564861073207576e-15
2.6564861073207576e-15
2.6564861073207576e-15
2.6564861073207576e-15
2.6564861073207576e-15
2.6564861073207576e-15
