0
-1.489819539135431e-10
-1.489819539129715e-10
-1.4898195391220345e-10
-1.4898195391150345e-10
-1.4898195391125602e-10
-1.4898195391184572e-10
-1.4898195391346785e-10
-1.4898195391592225e-10
-1.4898195391848243e-10
-1.4898195391994809e-10
-1.489819539189616e-10
-1.4898195391458584e-10
-1.4898195390701003e-10
-1.4898195389811026e-10
-1.48981953891504e-10
-1.4898195389177822e-10
-1.4898195390279138e-10
-1.4898195392534924e-10
-1.4898195395503572e-10
-1.489819539813585e-10
-1.489819539893928e-10
-1.4898195396456399e-10
-1.4898195390003335e-10
-1.489819538045587e-10
-1.4898195370723073e-10
-1.489819536549388e-10
-1.4898195369959366e-10
-1.4898195387545947e-10
-1.489819541720252e-10
-1.4898195451319577e-10
-1.489819547567261e-10
-1.4898195472592643e-10
-1.4898195427674585e-10
-1.489819533877076e-10
-1.4898195224163905e-10
-1.4898195125415564e-10
-1.489819510039552e-10
-1.4898195204228297e-10
-1.4898195460533353e-10
-1.4898195831498463e-10
-1.489819620085742e-10
-1.489819638565105e-10
-1.48981961876822e-10
-1.4898195482346364e-10
-1.489819432275455e-10
-1.4898193016710768e-10
-1.4898192122852248e-10
-1.489819232093408e-10
-1.4898194147133906e-10
-1.4898197646476868e-10
-1.4898202065566274e-10
-1.4898205760442594e-10
-1.4898206489846824e-10
-1.4898202173063174e-10
-1.489819200851849e-10
-1.4898177611266355e-10
-1.4898163619743894e-10
-1.4898157164729842e-10
-1.4898165801797407e-10
-1.4898194034352133e-10
-1.4898239322697789e-10
-1.4898289247610983e-10
-1.4898321896380032e-10
-1.4898311151479071e-10
-1.4898237121162673e-10
-1.489809955612124e-10
-1.4897929373423964e-10
-1.4897791509948437e-10
-1.4897772666439388e-10
-1.4897951212203627e-10
-1.489835372744359e-10
-1.4898911844041315e-10
-1.4899440827681483e-10
-1.489966307578582e-10
-1.4899291021571943e-10
-1.489816306874138e-10
-1.4896396346293012e-10
-1.489449076599104e-10
-1.4893304835596934e-10
-1.4893840710621818e-10
-1.4896833691189797e-10
-1.4902234961420063e-10
-1.4908780521561514e-10
-1.4913908780029785e-10
-1.491426979052664e-10
-1.4906918581929016e-10
-1.4891001554587788e-10
-1.4869391046823957e-10
-1.4849432443443155e-10
-1.4841920529276183e-10
-1.485778175855331e-10
-1.4902765921478807e-10
-1.4971607845184332e-10
-1.504422874217572e-10
-1.5087033126533202e-10
-1.5061619779072228e-10
-1.494091718078123e-10
-1.4729100966470647e-10
-1.4477672911409034e-10
-1.4287549464170164e-10
-1.4288010065121746e-10
-1.458944861032667e-10
-1.52180075456224e-10
-1.605379223345115e-10
-1.680519279475148e-10
-1.7052925994107462e-10
-1.6382560187900198e-10
-1.4591570905941134e-10
-1.1912146141963532e-10
-9.149080410404838e-11
-7.615515719910009e-11
-8.780861583234257e-11
-1.3637345376329015e-10
-2.1934053061333113e-10
-3.157902645040176e-10
-3.860161974557577e-10
-3.801885859605086e-10
-2.570355501080968e-10
-9.149867466182162e-12
3.1370451407981245e-10
5.959331495753251e-10
6.748681132656646e-10
3.936108491358741e-10
-3.1829660218516155e-10
-1.359975818367021e-09
-2.40947779834035e-09
-2.9541291595521628e-09
-2.4324847060336954e-09
-4.827093171229034e-10
2.7632431483637295e-09
6.458048721910818e-09
9.041367240164849e-09
8.59495009318901e-09
3.58024740841477e-09
-6.1829772434822734e-09
-1.8639415784392262e-08
-2.921353008274446e-08
-3.160164200475609e-08
-1.9875436389286603e-08
8.37858345750751e-09
4.882957044071e-08
8.862202892798471e-08
1.077632701701725e-07
8.483353042432488e-08
6.713707531446701e-09
-1.2013134200372607e-07
-2.614716670729858e-07
-3.560656525158407e-07
-3.3016261098992553e-07
-1.2658783044840967e-07
2.5745946207591335e-07
7.374655082752669e-07
1.132571899138474e-06
1.1987845173988328e-06
7.125724224423274e-07
-4.0709451223467083e-07
-1.9761005671220664e-06
-3.482020936525127e-06
-4.146093367072983e-06
-3.1524160694361307e-06
-2.8482252273793538e-08
4.922642700618807e-06
1.0321511312849044e-05
1.3767345669793759e-05
1.2428373261843843e-05
4.187214153733354e-06
-1.0900979455769573e-05
-2.9374698162688568e-05
-4.40948155532331e-05
-4.562827806904211e-05
-2.55654204486581e-05
1.8741591747069794e-05
7.952951883760686e-05
0.00013640701046176672
0.00015907410064530783
0.0001165033317469446
-8.19159568556812e-06
-0.00020122599005909813
-0.000407135189628066
-0.0005319164058673306
-0.00046698673223872453
-0.000134232938246364
0.0004578056349516238
0.0011678465189309535
0.0017144374289394131
0.0017332946185546565
0.0009087408284330321
-0.0008425195949193858
-0.0031954687685665753
-0.00533991841097373
-0.006098060538194303
-0.004291234719701655
0.000680369296428019
0.00820748312046068
0.016072761487665416
0.02061454656896752
0.017700090411970338
0.00449881346749177
-0.018355191590697473
-0.04505690481748241
-0.06450199733340281
-0.06275258842030201
-0.02846544187855853
0.03952315596808191
0.12467389349441436
0.18858238246475068
0.17351655415933284
0.013436449807643676
-0.14782075993743335
-0.33618140137367475
-0.33228651652490326
-0.0688108595754215
0.15672202158415352
0.2565726835210336
0.3231565754543271
0.2053377957891338
-0.10164532117982963
-0.25045409842558786
-0.1237952361143951
-0.011481261755527732
0.010791304206722791
0.09683919264047425
0.03832764109454412
-0.13371943242136833
-0.15397424153024733
-0.13451970118839898
0.017261108999168145
0.17715535120192485
0.3841757035199114
0.22893486944606828
0.055719977012825876
-0.22087231475598704
-0.2898904003666204
-0.4182816615445092
-0.235757200847731
0.0634520651444954
0.30288483407335526
0.49851603526829114
0.4382683042810682
0.07740852582982878
-0.2459725976763832
-0.38060282740440654
-0.529602627312748
-0.4309514882809491
0.038649761813781214
0.43536149605742436
0.5044188775280548
0.33682673146554265
0.14216316272933727
-0.15366551348222623
-0.2865805880424801
-0.2173394380759419
-0.0918167491938436
-0.009516226551015016
-0.006759805348304055
-0.056080935429087556
-0.0797509420311794
0.026731906943476557
0.16667719411989274
0.21620292177422543
0.20676551046804015
0.12117612927253228
-0.09557289224843776
-0.31411999403367696
-0.19470568843479288
-0.16626573130319344
-0.017545449714889787
0.0975461513884967
0.24327902295608686
0.08058176623651057
0.04779840488736087
-0.0510669238572285
-0.048620187189858485
-0.007665342471348884
0.19167835001140784
0.06886105264540053
-0.23883009500079447
-0.1600305199639209
-0.07937373545174718
-0.13770854957744666
-0.04380731907704859
0.30474620560359916
0.19712586551592234
0.08849826142093993
-0.010955076115192133
0.06544842342029418
-0.14664006747864175
-0.12376481784840591
-0.13538312968216984
-0.029504101504351402
-0.02650617796728211
0.07853850015464355
0.10739559534614361
0.08797858120751138
0.04539478682264558
-0.002658915035707548
-0.045640692100740926
-0.0765455219340302
-0.08761194008221156
-0.06807745692628454
-0.005644035057912824
0.10845971959049718
0.07275949355283166
0.07019354925717297
0.06700605264963645
0.01734358189764292
-0.1269889178046951
-0.00403595655521115
-0.02998867299293465
-0.19179274050019998
-0.0465878653809076
0.07119631796961462
0.0363891392924177
0.11661404055921502
0.15725760115608967
-0.02808908994741315
-0.05945650734775157
0.01528620793476823
-0.06827521303382347
0.022730809516058114
0.03200651392608375
-0.07489914712319924
-0.10382536673754304
-0.030775843209262996
-0.006820385307978788
0.03154220299241954
0.14871036699670237
-0.0038482143831303794
0.001549650446401913
-0.03697358698017436
0.049154825782751654
0.00443436050838064
0.15943864720814938
0.04449063698721972
-0.1950734787032677
-0.18529054613993848
-0.11583003570202455
-0.1417714921419895
0.004109575276926151
0.3914575103015249
0.2712241310361452
0.060902371839174754
-0.05847792853357768
-0.13300130808530922
-0.2185759033214276
-0.16276908065645737
0.0077602539590592694
0.09086344443546115
0.10410594262258509
0.0751074865276257
0.03144464016858381
-0.006518379718176712
-0.028501969581853786
-0.033362361085828435
-0.02586611145005113
-0.01292860103744608
-0.000626049410600077
0.007404530400845831
0.01020523296829399
0.008809716785998106
0.0051865582858441756
0.0012796831596817173
-0.001590358606065267
-0.00291022493226159
-0.0028379619745946705
-0.0019074431665290145
-0.0007240116056132853
0.0002504653005710981
0.0007888998139202564
0.0008835623458712843
0.000667928960067487
0.00032320234086531387
4.283138723389576e-06
-0.00019886764885359992
-0.0002654249954932975
-0.00022479637499489533
-0.00012899889200374153
-2.813559070880393e-05
4.4517857108085306e-05
7.669490195000089e-05
7.322856722451428e-05
4.8248073893615323e-05
1.7354440552221548e-05
-7.768291249144689e-06
-2.151634568327521e-05
-2.3820012302105737e-05
-1.8072171743233214e-05
-8.767484223808354e-06
2.7279504736343943e-07
6.73110684773088e-06
9.775114441143828e-06
9.557539060709655e-06
6.658046583854405e-06
1.7738257470308703e-06
-4.247206318374916e-06
-1.0157350728754678e-05
-1.4121836470672794e-05
-1.3895808366208139e-05
-7.542864837977353e-06
5.384876787159341e-06
2.26055924210142e-05
3.847074391291994e-05
4.4659681451581884e-05
3.2663046321188823e-05
-2.1352323968682237e-06
-5.5884082018692635e-05
-0.0001131955254682903
-0.00014798651718943845
-0.00013009919775158174
-3.779217764648613e-05
0.00012665086341879752
0.0003240860968198001
0.0004763902549326973
0.00048232557227293106
0.0002540101826145597
-0.00023202023845095163
-0.0008858559443359609
-0.0014827101878659456
-0.0016953979007304039
-0.0011961115109856305
0.00018246349584700444
0.0022716922184373633
0.004455404876539237
0.005714347098639713
0.004895458181106069
0.0012038904235080541
-0.005195430202195623
-0.012700023336016728
-0.018224692728919755
-0.017866285783341384
-0.00837159793968896
0.010831070446041167
0.03567750107133802
0.056540499249639956
0.059291144484374995
0.028847826364906466
-0.04524651826490532
-0.16289314447868974
-0.10973690910117957
-0.05818019343361397
0.025900214104566905
0.17222840495708625
0.19481999207805423
0.08500516827475023
0.012268192990711791
-0.0666137236618179
-0.19310386287296474
-0.19243335804728579
-0.06465976494022858
0.015264146074345281
0.0884610222505862
0.19769852273963673
0.17312284657440433
0.023429765340397726
-0.0646812836473097
-0.11943066207893775
-0.17291358078888416
-0.05088277034460703
0.03291377209138732
0.0766605396635869
0.08615558626191028
0.06926501546978053
0.03206113479292567
-0.02184682420818637
-0.08916601610338146
-0.16386669137530538
-0.03564286359281521
0.10853558468932203
0.0800842819130387
0.08384534446720733
0.11532058482870228
-0.038083582079106275
-0.19205628401799427
-0.15895124983019113
0.05686715200758054
0.05966205527342819
0.05898952650821672
0.06449033326752414
0.0815154620509981
-0.09057757384507213
-0.057199621144335626
-0.025525398765285073
-0.001433461794994833
0.01230236925352059
0.016203967724356023
0.01309146405195877
0.006639729998027697
0.00012610198936837847
-0.00429612609019252
-0.005770312557109331
-0.004523908927849255
-0.0014952764505146749
0.0020310511052080344
0.004717055264293164
0.005419717955078293
0.003455596887498527
-0.0010984352901186939
-0.007140691983683176
-0.012485348474702286
-0.01421656621291268
-0.009594195360618096
0.00254808089562664
0.020256475756281193
0.03737610215769172
0.043650887472624834
0.02650977236448718
-0.02553526756709202
-0.11877306823819679
-0.05103528979570961
-0.010914688778927532
0.01978055706710828
0.06101266256610575
0.12887395757561085
0.03165760985786673
-0.030721259585320012
-0.06384756945171045
-0.07400231662552316
-0.06384865807168912
-0.0307196401332404
0.03166745240984998
0.12889574572234305
0.06104461196416768
0.019813083663703216
-0.010898209793201776
-0.05105368927398951
-0.11883877737071376
-0.025644137332212758
0.026386115587930643
0.04356499139329763
0.03739261325027878
0.02042710684097865
0.0028784938868912243
-0.009173950217311919
-0.013861441845685649
-0.012408225232737694
-0.007541053911261754
-0.0020563089655890464
0.002088284566114843
0.004078250814666787
0.004075522972419245
0.002807731166131371
0.001132130915261168
-0.00028032594870641643
-0.0010864263105076764
-0.0012577222173902193
-0.0009739994660631619
-0.0004908386874929386
-3.212728815308813e-05
0.0002680968059754414
0.00037443797196792724
0.0003249522951892901
0.00019230597124780485
4.840657469743265e-05
-5.7739845425298016e-05
-0.0001068985201966891
-0.00010466956771143024
-7.062059329978113e-05
-2.7055167138266905e-05
8.946871105276266e-06
2.893689303399272e-05
3.2562078941017986e-05
2.4702161791831944e-05
1.2026088623178233e-05
2.553635961336361e-07
-7.272104212175483e-06
-9.767444321145245e-06
-8.30065220094432e-06
-4.7842485020274174e-06
-1.0674799635352111e-06
1.6170844830990676e-06
2.8114180923372816e-06
2.6904013462158855e-06
1.7748475071916552e-06
6.420521428247931e-07
-2.7496603232303845e-07
-7.69504081885457e-07
-8.42513058906451e-07
-6.260381879740653e-07
-2.9389801120594726e-07
7.858360800263208e-09
1.9629443091670127e-07
2.542692041702021e-07
2.1161804918841663e-07
1.1859667759936084e-07
2.271053877102799e-08
-4.508851946181876e-08
-7.397432624396996e-08
-6.923088192224504e-08
-4.4688031843916974e-08
-1.5270412566167154e-08
8.058502555797245e-09
2.0260310718298144e-08
2.1616732835998988e-08
1.5687890844481918e-08
6.99814213207832e-09
-7.288557134051399e-10
-5.43720937252165e-09
-6.767364089941661e-09
-5.545222748572612e-09
-3.089236492657369e-09
-6.183855903549283e-10
1.0913962466201318e-09
1.786462706856058e-09
1.6227322761511634e-09
9.66653346022631e-10
2.0362049770117566e-10
-3.891545761061589e-10
-6.893488179310228e-10
-7.107850187476086e-10
-5.491241570567379e-10
-3.219902416704538e-10
-1.2424172145852848e-10
-6.769592863982127e-12
2.3214636362447025e-11
-1.1607962507496708e-11
-7.668677943122541e-11
-1.406861509735311e-10
-1.840187154395922e-10
-2.0059583442829365e-10
-1.9476980634621745e-10
-1.7621213435021835e-10
-1.5508838823215993e-10
-1.388973524104863e-10
-1.3128184531486574e-10
-1.3236221670356797e-10
-1.3983546398908545e-10
-1.501713742527355e-10
-1.5955211499730633e-10
-1.6454202955622916e-10
-1.626781694688302e-10
-1.5316024793830588e-10
-1.376104142224665e-10
-1.2057644483836989e-10
-1.0923144602079143e-10
-1.1174881382376398e-10
-1.3421130589675924e-10
-1.7662639602471492e-10
-2.2946996836309105e-10
-2.7280151798600177e-10
-2.7993779593769077e-10
-2.2657635623729945e-10
-1.0407316645888756e-10
6.724444310515914e-11
2.312753985803371e-10
3.030002695114781e-10
1.9356087726032006e-10
-1.4820459635216838e-10
-6.886828094540743e-10
-1.2768464521628694e-09
-1.6505259109770795e-09
-1.5010907434781557e-09
-5.985720189685896e-10
1.0493528338107432e-09
3.063207998507527e-09
4.662927320586039e-09
4.819767425543409e-09
2.61894857776319e-09
-2.2233789882662142e-09
-8.854038211599572e-09
-1.504332084702046e-08
-1.748484674808249e-08
-1.2800074426343361e-08
8.385766951773079e-10
2.1906835403807078e-08
4.4334249067445735e-08
5.7857070008875716e-08
5.064250122431112e-08
1.4209392170262127e-08
-5.0446694276874494e-08
-1.278435354307558e-07
-1.8723366764243603e-07
-1.8889688513014268e-07
-9.850703318951109e-08
9.282055448052873e-08
3.4938349974728493e-07
5.826074687476841e-07
6.640087174477446e-07
4.653485947489059e-07
-7.802582257268782e-08
-8.98412448191726e-07
-1.7522960750728088e-06
-2.2383097825917617e-06
-1.9034139411597772e-06
-4.361700682670003e-07
2.0975868379011038e-06
5.068211774760759e-06
7.265297612791414e-06
7.157093738464625e-06
3.4588633303386575e-06
-4.090600117893207e-06
-1.4006156594984983e-05
-2.2774590123525362e-05
-2.5408827836982156e-05
-1.705018841014319e-05
4.562649370967146e-06
3.647164038991833e-05
6.892767502248539e-05
8.625338223835195e-05
7.112828735994556e-05
1.2170955616358348e-05
-8.700483832123473e-05
-0.00020086741934571917
-0.0002818280219897026
-0.00027089115550868833
-0.00012010860145102883
0.0001773772148104837
0.0005601008794298309
0.0008889043820916035
0.0009704154939547079
0.0006208699814560161
-0.00023775555184927995
-0.0014779139079396397
-0.0027099928670759883
-0.0033221081150952
-0.0026523772038407473
-0.00028551812824141636
0.003600492694303368
0.007979883656959305
0.010996118640142947
0.010400284266075728
0.004439516270150967
-0.006982464169133633
-0.021291884058786546
-0.032977275170780765
-0.034664274836837955
-0.019848014455359025
0.012976434630577098
0.05578890791151113
0.08776551803624995
0.0750573824904871
-0.025146075391163442
-0.05634948047288218
-0.05190436442986581
-0.024249560972750817
0.0430193152512349
-0.0017776404108031546
-0.08134285884084613
-0.09891930408814711
-0.15451022194805883
-0.16697924705589604
0.1007701286370122
0.4192326539228874
0.4806997390578006
0.3072378403537527
0.08289355373568598
-0.19329880835050953
-0.8463216413383869
-0.8755127380539703
-0.13534446857937135
0.2427932288684974
0.39156486027333953
0.6288575223229365
0.38325581638095074
0.3453397237611311
-0.14335950503588543
-0.46437115954881397
-0.2705927706102518
0.17436208481436452
-0.35008893313182954
-0.18549733283353145
0.018903364209175055
0.09693838686127547
-0.06176003789356112
0.050911871620419255
0.3236728924257575
0.3969202951553863
0.050298637484401026
-0.1896456026307414
-0.023940343432663675
-0.14549127824309346
-0.40367848409435064
0.020949355156140086
0.2253639918407487
-0.22585770173571432
-0.3269176869011027
0.13119226736259773
0.11790373061111077
0.7247133396194484
0.3420315437211345
0.06002090972181348
-0.30465082652237474
-0.36368347958680775
-0.9085826217331636
-0.07486195326977681
0.4708047854426863
0.5209885226023716
0.3056881198835744
0.0716460091276656
-0.3285815628627477
-0.43776932754109354
-0.19198189461709972
0.07702359473439893
0.23164857360831573
0.3135287099119523
0.13088404355608194
0.05486070216036715
-0.17249467312711822
-0.2212496630400914
-0.15393215688914094
-0.01014408298409711
2.8277457698602736e-05
0.09313704306925207
0.10273025474817005
0.06730449622108846
0.019985378642858664
-0.017492135889007297
-0.03595959732119117
-0.03626372866142524
-0.024910485872556443
-0.00975954807133011
0.003009190583230599
0.010236648756335572
0.01166729668148331
0.008960752965848815
0.004467010040838016
0.00023651596547455024
-0.002511797802237208
-0.0034668931425963093
-0.0029901582173199165
-0.0017562926673016749
-0.0004281196732125705
0.0005456140030556675
0.0009914965931600126
0.000964389676432544
0.0006464831169863516
0.00024372369565339662
-8.712579225162242e-05
-0.00026930290609791156
-0.0003005990685602836
-0.00022666641729309782
-0.0001092044783645443
-8.270907331974929e-07
6.800691586902633e-05
9.035473980026232e-05
7.631816561318251e-05
4.3634341606202224e-05
9.341741702141471e-06
-1.5275037084947623e-05
-2.6089976851050496e-05
-2.479313776754939e-05
-1.6229068522536834e-05
-5.730673522369537e-06
2.7189916646622213e-06
7.229270769257633e-06
7.821692809139414e-06
5.724128714719184e-06
2.5534980995297337e-06
-3.182571107364279e-07
-2.0883994351759516e-06
-2.556882114491457e-06
-1.972647960033192e-06
-8.143928601626623e-07
4.0278922467881073e-07
1.2540780879738545e-06
1.4691490145894925e-06
9.612424606428877e-07
-1.545705950423509e-07
-1.5513984826442428e-06
-2.7124061129595437e-06
-3.021854357302792e-06
-1.9508778255713218e-06
6.772590958415079e-07
4.418047647406822e-06
8.064776523231874e-06
9.78741272333525e-06
7.654616873911153e-06
5.113624133059421e-07
-1.101013441984948e-05
-2.376661610585033e-05
-3.219238243147699e-05
-2.9630926335269643e-05
-1.0977301643899092e-05
2.3908690899416205e-05
6.725271420115285e-05
0.00010260249132158772
0.00010789670264089878
6.307877013748881e-05
-3.885831600388315e-05
-0.00018084751943352005
-0.000316187998179566
-0.0003743601407923514
-0.00028194706837074657
2.890830371489971e-06
0.0004515343977618468
0.0009382640955749891
0.0012461675592582255
0.001121698188919751
0.00037940859182329683
-0.0009654284988328345
-0.002585343370977616
-0.0038177415888836826
-0.003794381812095252
-0.0017513636946145618
0.0025200618092932167
0.008204536364117021
0.013161256710148941
0.013972729564779745
0.006416138369018687
-0.013793518943238521
-0.050416986774439815
-0.10686663090993039
0.01241847374778948
0.0996716912327399
0.14192573106776682
0.12165148069608937
0.021506043583016762
-0.16715338143425326
-0.23491718020516908
-0.14876714411721784
-0.05444402275659814
0.11205281145867095
0.2067047179849387
0.25954740639430934
0.06339866265495754
-0.0261644254467676
-0.07918415322050654
-0.17192426550237006
-0.1660943808354489
-0.0931059087792258
0.0524575926012091
0.10942786565019781
0.13924251657749875
0.012043599535832518
-0.006317665838985341
-0.06417443455480522
-0.13066358699536912
4.007104647316766e-06
0.10595652611326403
0.13728648466635357
0.019485149960744876
0.062178194358138594
-0.026828938179761872
-0.12429028769648155
-0.07482081052400999
-0.07909346268900228
-0.09046730579051
-0.02167905873409866
0.03919541374662232
0.0066276893656826
0.1741997211615822
0.195361041560238
0.07325543935091604
-0.03762233650158764
-0.018417916931478834
-0.1653446264728784
-0.16743722513763934
-0.08867779504271776
0.04122743563177922
0.026170266263186272
0.09494589739473193
0.08847653370992371
0.04728953302277489
0.0025518718418738573
-0.02785851274771751
-0.03862016363892262
-0.03321642209262643
-0.019199711093278327
-0.004142785873015984
0.006815939376080795
0.011711620726912687
0.011207212060532443
0.0074198886464641334
0.0027228377493081226
-0.0010923956022708997
-0.003163562442170705
-0.0034869637876295484
-0.0026042750289118712
-0.0012338770943988056
1.7781055037679005e-05
0.0008040564549908338
0.0010507373080926006
0.0008791147129933643
0.0004963585006076902
9.937925024595964e-05
-0.0001828021530108128
-0.00030435045365174285
-0.00028635585255204016
-0.00018567724549589586
-6.407505472946011e-05
3.2847729830747505e-05
8.39318926920669e-05
9.00827980856116e-05
6.588463854073326e-05
3.002901811874496e-05
-2.0220573863069002e-06
-2.167152272968718e-05
-2.7346812670361244e-05
-2.241040345343114e-05
-1.2298859517653265e-05
-2.065843503337637e-06
5.05311850452024e-06
7.981824814011845e-06
7.345948918073773e-06
4.6529058515983e-06
1.497972474268549e-06
-9.654285562057531e-07
-2.223119312588014e-06
-2.3257305224702096e-06
-1.6654813127296265e-06
-7.284231688711399e-07
9.158423168941864e-08
5.81829981971675e-07
7.105516852154261e-07
5.703844076083125e-07
3.037883528935282e-07
4.0327317619910254e-08
-1.3899623654656245e-07
-2.0916511029170823e-07
-1.8838714885726978e-07
-1.1654269206696649e-07
-3.47894064019793e-08
2.7740831780306827e-08
5.860938794105191e-08
5.981877093732616e-08
4.18845282168205e-08
1.742972259855146e-08
-3.5252675003839485e-09
-1.5731491177582695e-08
-1.859582083223949e-08
-1.4656001108160479e-08
-7.639467831497827e-09
-8.641115649586534e-10
3.645914730386264e-09
5.316238291799202e-09
4.6689225238865736e-09
2.756995918093421e-09
6.410881833648864e-10
-9.440926291779673e-10
-1.699162348814347e-09
-1.6935386888538501e-09
-1.2083484179347288e-09
-5.710123803897503e-10
-3.614535479240053e-11
2.6710044796307956e-10
3.292307855318008e-10
2.194241997046307e-10
3.5066930898295747e-11
-1.3897417497005417e-10
-2.52217413502081e-10
-2.916793689889562e-10
-2.721518059467682e-10
-2.2138847557347137e-10
-1.6669035735752306e-10
-1.2655880674873948e-10
-1.081581238430566e-10
-1.0924520354557501e-10
-1.2232396761513035e-10
-1.3891204523452775e-10
-1.5254801836377406e-10
-1.600640382033063e-10
-1.6136404057786476e-10
-1.5832555385359052e-10
-1.53489413996424e-10
-1.4902386032745095e-10
-1.4618526380535612e-10
-1.4526125257308722e-10
-1.4583680386405173e-10
-1.4718171504766578e-10
-1.485940526658689e-10
-1.4960865091665348e-10
-1.5005520657268144e-10
-1.5000309226112254e-10
-1.4965170067555214e-10
-1.4922051755172702e-10
-1.488733010559048e-10
-1.4868748441266875e-10
-1.4866173406631992e-10
-1.48745293500655e-10
-1.4887196154135586e-10
-1.4898640777834335e-10
-1.4905743357160487e-10
-1.4907883790632547e-10
-1.490621703643605e-10
-1.4902661057169277e-10
-1.489901853036655e-10
-1.489645707058951e-10
-1.4895378374826622e-10
-1.4895574257120963e-10
-1.489651555189387e-10
-1.489763499977034e-10
-1.4898518114902923e-10
-1.4898976313345062e-10
-1.4899022744346083e-10
-1.489879410004627e-10
-1.4898462630419221e-10
-1.4898169398407211e-10
-1.4897991782883061e-10
-1.489794277298558e-10
-1.4897990580144325e-10
-1.4898084971706362e-10
-1.4898179635562807e-10
-1.4898245067096488e-10
-1.489827147309019e-10
-1.4898264509080893e-10
-1.4898237876360367e-10
-1.489820628819901e-10
-1.4898180860066322e-10
-1.4898167389376135e-10
-1.4898166834091811e-10
-1.4898176816201152e-10
-1.489819311358126e-10
-1.4898210623290984e-10
-1.4898223875355996e-10
-1.489822757734181e-10
-1.489821770820286e-10
-1.4898193327730215e-10
-1.4898158649283872e-10
-1.4898124294327303e-10
-1.4898106339258714e-10
-1.4898122086078275e-10
-1.4898182587918732e-10
-1.4898283691538642e-10
-1.4898399196339567e-10
-1.489848081441333e-10
-1.489846898158262e-10
-1.4898315545547204e-10
-1.489801406510964e-10
-1.489762719899781e-10
-1.489729597434671e-10
-1.4897215823799878e-10
-1.4897571892558037e-10
-1.4898441846797784e-10
-1.48996952178842e-10
-1.49009368824454e-10
-1.4901548157922975e-10
-1.4900861926558313e-10
-1.4898463281511414e-10
-1.4894540388922642e-10
-1.489014180021787e-10
-1.4887159104996752e-10
-1.488788405051581e-10
-1.4894111393285166e-10
-1.490596594241408e-10
-1.492087176196791e-10
-1.4933254042557048e-10
-1.493554582994183e-10
-1.4920760856155796e-10
-1.4886273549130938e-10
-1.4837644046087267e-10
-1.47906292948747e-10
-1.476933628441068e-10
-1.479918829834375e-10
-1.489515986984803e-10
-1.5048332276565673e-10
-1.5216420465555205e-10
-1.5325245055700925e-10
-1.5286776849867572e-10
-1.5034480386334198e-10
-1.4568579473256015e-10
-1.3994696041316965e-10
-1.3532974042901184e-10
-1.347606057794556e-10
-1.408696707280958e-10
-1.545225092878561e-10
-1.733693905093059e-10
-1.9113700662703546e-10
-1.984427093817922e-10
-1.8561369475750028e-10
-1.4728552403558212e-10
-8.754652701812543e-11
-2.3409677439041556e-11
1.606985073738683e-11
-2.8760566468047474e-12
-1.0482244024863474e-10
-2.877042885564612e-10
-5.083715017114713e-10
-6.800069988728058e-10
-6.895661097077764e-10
-4.3826376968900303e-10
1.0146565863457008e-10
8.310455675212876e-10
1.5011206078828342e-09
1.746926955356036e-09
1.2010680029934534e-09
-3.269539546507378e-10
-2.6541793289035694e-09
-5.097590912221373e-09
-6.520468430235772e-09
-5.629241962535127e-09
-1.5199466919810705e-09
5.650147661938736e-09
1.4124068847211305e-08
2.0482493518877547e-08
2.0363972829976404e-08
1.0067496124688274e-08
-1.1240243866639776e-08
-3.944967788634908e-08
-6.466463303109092e-08
-7.272062540165934e-08
-4.9687919348685294e-08
1.1127386396194812e-08
1.016845780092639e-07
1.946185115396349e-07
2.455091630019328e-07
2.048734555236556e-07
3.961268061456707e-08
-2.4116585181994596e-07
-5.661393827732824e-07
-8.008071019702423e-07
-7.771041320439458e-07
-3.5674537926780274e-07
4.833399084842427e-07
1.572764473165926e-06
2.5193640072050815e-06
2.773736691273028e-06
1.8087330300879283e-06
-6.078392016741703e-07
-4.127583992995587e-06
-7.656221651787459e-06
-9.45993597659601e-06
-7.6486239534497e-06
-1.0166594515542851e-06
9.96566084198644e-06
2.24111315918425e-05
3.103565951605173e-05
2.9371135843845216e-05
1.226580237584828e-05
-2.0812815492135313e-05
-6.283432375178602e-05
-9.828046004634725e-05
-0.00010586620096520352
-6.568230695142069e-05
3.0194282952354437e-05
0.00016683827534303095
0.00030056888583611575
0.00036378480130415413
0.0002843934197743652
1.8730350865981487e-05
-0.00041042327126809716
-0.0008865001408001625
-0.001202148402200467
-0.001108696137467278
-0.00041464698437358635
0.0008869169126196892
0.0025081046466790056
0.0038375621517676875
0.004055017301163779
0.0024158554536790294
-0.0013357657397993273
-0.006554577318628305
-0.011487681316342669
-0.013498883093442287
-0.009872126365193799
0.0008476697723599469
0.01729055944585711
0.03405392998863391
0.04155224493050427
0.02746219164800213
-0.02021202649852082
-0.10918731468289583
-0.039463600442038595
-0.0019021660113984072
0.020376861638237
0.048179061012028374
0.10142596644768151
-0.004947304685765716
-0.06327621763462726
-0.07363959425694078
-0.04347593684409883
0.012589572504800637
0.0724637091168014
0.10677013119089167
0.08106818176335237
-0.03876546529388753
-0.0783252679126796
-0.04573791994455453
-0.12520237257460085
-0.07604902909135436
-0.038970597461958356
0.05107441171940483
0.048100213874774325
0.17908640815084167
0.23396581091243213
0.16585946579881233
-0.09694847742305257
-0.2299043052146969
-0.28860082339290366
-0.29131993079831897
-0.014719633839069145
0.19516985289135325
0.20058745591402935
0.24687644336180786
0.14415015845876486
0.06275372284473744
-0.05551254461930885
-0.07376920254125581
-0.2313966129343397
-0.1194432883758508
-0.2684656196296989
-0.15421433984903568
-0.022024203973072327
0.27458076586659513
0.23045252199309357
0.2527416899922087
0.2437170902104903
0.20985447210187372
0.09808928852915082
-0.1470912130518868
-0.5185810038691817
-0.4907347486078349
-0.38979230677810295
-0.40250181390967765
-0.024669488863504636
0.6609526719472103
1.0988637823394831
0.5936770656939897
0.08413238442033852
-0.2327498046120491
-0.4361374619215814
-0.9974929671290031
-0.5064772711450876
-0.02960322541968551
0.28849783398960477
0.38698388779081266
0.43151753909443513
0.35930815719131004
0.24392417872618075
-0.11180315901758227
-0.3570115118890207
-0.3590654165972441
-0.36985112321492253
-0.20544459043496588
0.15410350834733635
0.346920933252768
0.402995287977741
0.3222315616678952
0.06736673772280276
-0.2247029279489505
-0.41803070047511687
-0.3501809257557565
-0.21446128545886337
0.04021146588875377
0.2915489733205801
0.4156070904462349
0.2595859857554689
0.026389097392561383
-0.12385854472323211
-0.25740009744683845
-0.2432549038675322
-0.13191539971907426
0.05649850418230189
0.13223600659822335
0.1265236913037353
0.07811223323387599
0.02119170414913404
-0.021874930755292333
-0.042195989467867574
-0.041652146551819175
-0.02809599108147846
-0.010595067129477097
0.0038861786785734736
0.01189814283096305
0.013290765947158136
0.010044689646704541
0.004867057171726332
7.735348238585704e-05
-0.002975673688927391
-0.003979381475403212
-0.0033748075029493454
-0.0019423911739172455
-0.00043359751626877765
0.0006533330510158589
0.0011362139922039356
0.0010896620042093101
0.0007267830226465599
0.0002802995989567633
-7.932007186376255e-05
-0.00027606884033350723
-0.00031808828818479103
-0.00026261574547747576
-0.0001756714649610439
-0.00010153350943247502
-4.9909299927262774e-05
-1.5870394537041725e-06
7.226741165353268e-05
0.00018562931547303973
0.000317998148591496
0.0004090997724107869
0.00037419090616303707
0.00014017550172289972
-0.00030580635288646283
-0.0008728216086297387
-0.0013513996450038304
-0.0014502776123609166
-0.0008950521160763854
0.0004249356347099895
0.0023063486902802862
0.004150380329813377
0.005029950563836059
0.003958522842632985
0.0003448566007919091
-0.00548295386239993
-0.011903558216703684
-0.016053649048413086
-0.01453472032045181
-0.004825837151117387
0.012848360299032524
0.03378677127650184
0.048044633988683576
0.0414082117736042
-0.0015637095693979424
-0.09292170535044404
-0.036497823041621004
-0.024685333426954784
-0.03831762295883945
-0.05013073083686218
0.16896191476489308
0.04260990561803922
-0.01694603362411867
-0.01175481572976147
0.04266951013976474
-0.07871257528049627
-0.004671355656062541
0.038568749639929824
0.032942357334522006
-0.02734347880796103
-0.13391747046985922
-0.06535863098045644
0.008152493951481822
0.11714070398937278
0.08409778432220671
0.11669085618025053
0.005557978701011533
-0.07236742733550092
-0.14629573323671277
-0.04271966619814216
0.02159390165880717
0.04283126428672975
0.02945629939388528
-0.00119743105317525
-0.02760262350161642
-0.02890737194103964
0.010640504244216612
0.09826210306462899
0.030920454144973353
-0.004023768158982352
-0.025677325663024504
-0.05487290895169959
-0.10946552234163325
-0.001361674630424007
0.06382436715445393
0.08491211746939058
0.06263745048718573
-0.0017916842874217014
-0.10623495430743282
-0.045803568084621986
-0.01115079563641763
0.011797745724851115
0.04030763135277824
0.09218237598676489
-0.016849906299561384
-0.07488811673462108
-0.0747602783784402
-0.01474078493259834
0.10039044652393854
0.05829076199644807
0.039166955142110424
0.018196032383839725
-0.029596272774801913
-0.12321149223500416
-0.07048495444401148
-0.06601756767591584
0.10665123420878801
0.06928668695458168
0.0418396197475291
0.036677755036512286
0.05611221883344085
-0.10632654215076325
-0.06188863735125509
-0.021810693767528883
0.00634690602757196
0.02016037772675903
0.02167728748196534
0.015494473095451681
0.006626536366662364
-0.0010677232723578759
-0.005584106941757727
-0.006675482597819829
-0.005263851907045281
-0.002715071150506744
-0.00024695752932020774
0.0013967201295403118
0.002003849645684104
0.0017644446812478064
0.0010633369253977552
0.00028836030487985567
-0.0002918574076902827
-0.0005679784181677912
-0.0005656014956815568
-0.00038774935119843633
-0.00015432092998639743
4.148922052257941e-05
0.00015244237341917473
0.00017510792770742052
0.00013484443528786428
6.731938214373466e-05
3.6013777864865946e-06
-3.783864116573686e-05
-5.226036240254957e-05
-4.508945684444831e-05
-2.6492114366783188e-05
-6.4639473233494975e-06
8.22425139945339e-06
1.4953463771542712e-05
1.4548342122963413e-05
9.755346131576564e-06
3.6805376893244445e-06
-1.3110198953927688e-06
-4.0606004200789375e-06
-4.5341026061785264e-06
-3.4196832558632227e-06
-1.6479658438562267e-06
-1.2857452886717512e-08
1.0257609260569375e-06
1.36276941280815e-06
1.1503766743672272e-06
