0
-0.0028382365003765428
0.11735767045736499
0.05015346630030262
0.004169669289908851
-0.01799978880754181
-0.019969051297546156
-0.0098275247014112
0.0026342091395218513
0.008869757945137356
0.004090237288158369
-0.011036186809472607
-0.029812374500307576
-0.04037950815126127
-0.02820843387391764
0.02000563954029618
0.11192051070412966
0.046070149643389804
0.010868991705250285
-0.013124726735188934
-0.04822153770971588
-0.11361096491361877
-0.020540477621603725
0.029674521986894697
0.044384150252318524
0.03599587084173149
0.017686093092504438
-3.2175129130243265e-05
-0.01106504160644662
-0.013800051357182163
-0.009993354247670876
-0.0031635552156625275
0.002949950351660397
0.005555152322029475
0.0035149781232302296
-0.0023830672439491564
-0.009576714428034434
-0.014333924066326628
-0.012861287797888076
-0.0028631796593396553
0.014725063128995564
0.0343794037823319
0.04572679350761354
0.035003348867294524
-0.011630571906910298
-0.10357542655156401
-0.04151638202738874
-0.0150999209428586
-0.003737187876014739
0.01944149529752343
0.08162349001160472
0.004145814956945621
-0.0021138614928335442
0.06134937708756023
-0.018308699174812794
-0.061921299592558564
-0.0938206078656032
0.06238370504318032
-0.013221788939472812
0.06478410217484257
0.08815573025438452
0.056139892850953395
-0.22312093479727002
-0.13201918655062161
-0.04552673317712473
0.06309076351031731
0.21399840383399849
0.21332842828588797
0.05052029638759006
-0.09737357479653708
-0.2557713139681513
-0.2416224903248871
-0.05694820113604651
0.10983014264668906
0.2756834332956495
0.25264699532903045
0.04130424699151969
-0.1682581452420167
-0.18876870083618666
-0.22600796349234423
-0.07272868037788739
0.09014237946918532
0.28550268260860195
0.1294347369653119
0.023360445770605028
-0.047320096673790515
-0.10794757105605625
-0.18571791823284142
-0.10150857980390605
0.13424908862687904
0.12083280078149272
0.06340858027538894
-0.030915153856764677
0.04505867273376071
-0.10073102454212791
-0.05760114740566978
-0.010551733911611263
0.05946522967897472
-0.02700582083779671
-0.05223530214248551
-0.00632452102589366
0.10833882108916286
0.07464386766408856
0.06183185591863648
0.030949426355289817
-0.05591219471015456
-0.22496723599364357
-0.08226091794788715
-0.010771133422200766
0.025336811907216632
0.0704649691352553
0.164839112875464
0.1336540145794691
-0.0183310607137297
-0.10541059477635134
-0.1541648038627121
0.005360308919979597
-0.0529587521577538
0.05265352518188707
0.11251803000154495
0.12434789655603674
-0.10797797203207059
-0.17501971298714764
-0.06252222026793765
0.04635360069351307
0.16697125982983216
0.10880132959174726
0.07309250495775424
-0.14578790270022124
-0.15598260534626604
-0.1633949039696278
0.03048666457125122
0.22703836353616924
0.2268358805425962
0.027176591510253017
-0.17673417093624744
-0.1873781277754455
-0.2005881585177627
-0.005105288982975065
0.21245376311960643
0.2593781726869394
0.1301801847872609
0.00598476348293513
-0.13862652330944406
-0.3241802089701708
-0.1560134768349427
-0.020667721512354634
0.10870230932939108
0.2601938832552631
0.25013103910876094
0.07559092704132261
-0.08374344332662591
-0.2552719859377253
-0.2598508507593509
-0.1016629282568402
0.033435429812554054
0.17047470610858395
0.33282029264863416
0.13096683544235113
-0.041749930565455395
-0.20473112596908913
-0.17979595693218037
-0.18064691349627002
-0.007451950413805409
0.151251168414938
0.3111750828216463
0.08403620472886086
-0.12700007484570155
-0.12637285231737308
-0.12140400505944648
-0.11746403971622184
0.08400434432395877
0.2841280808283867
0.08391747376587924
-0.11696497889918707
-0.11868779678471869
-0.11825049109384236
-0.107777418643001
0.12381906762753907
0.18604001537109863
0.08136269067998836
0.002347407681413335
-0.06688655706324491
-0.14545563698936392
-0.049363635722503366
0.013075569920677547
0.042374430416896765
0.04576236802416059
0.03339602235280108
0.014764149745546056
-0.0034245469543308002
-0.017534692892689996
-0.025978947344151408
-0.027827142110325182
-0.022003097071478916
-0.007639097276395486
0.014455729962787616
0.03989933348464833
0.05954494516000701
0.060160712645229666
0.02763170765758325
-0.047708526239733644
-0.16529485052755416
-0.11071476583096385
-0.05676552042546841
0.02984418872907552
0.17769492519649777
0.199636831830052
0.08627154954176973
0.007328062168941373
-0.07878950690184469
-0.2105342340649335
-0.20940545381230893
-0.0724153281979147
0.0259184611649082
0.12271260240880061
0.25144819648642186
0.22875608529952882
0.04898353199614257
-0.11107584520663466
-0.2795591144109213
-0.2751158376967874
-0.09778201702045056
0.07031777255794082
0.2548280431754882
0.27475931930169684
0.131176611391377
0.004786515081690718
-0.13618546485582822
-0.3214680279632019
-0.16442730528799115
-0.05475910401987116
0.03825565085800267
0.15321386849347954
0.32022469174819834
0.14790252202842247
0.019530204638615618
-0.09975299677783149
-0.24776272195310065
-0.2486970649712938
-0.10245439488557447
0.015449736897694395
0.14330165906896214
0.316549159533236
0.1523430505139628
0.041946540478875985
-0.045792195161447634
-0.15152389918754547
-0.308632882762768
-0.12972138498282976
-0.0019448551032812849
0.1070839027604754
0.23571066857699421
0.21308436982274492
0.048902138348362156
-0.06803836565567774
-0.1627609282301574
-0.2625480214185201
0.013527636670011691
0.059682355499092225
0.08200097775995806
0.09258507655060585
0.10286643946005757
-0.08083504576222132
-0.058241598750729554
-0.03320787529049876
-0.010732127913133927
0.005454981315336008
0.013933935545253445
0.015380456594399836
0.01168648755639688
0.005059251547983291
-0.0024974793878624175
-0.009249039556812867
-0.013551532233926777
-0.013770318177849853
-0.008584205457502162
0.0022497406973313156
0.016898413430664432
0.03072572810428667
0.03645480062435349
0.025673183943184394
-0.008350428287573344
-0.06728133042445648
-0.14516755849231214
-0.02828810313085577
0.10175347731167747
0.06235416296371793
0.06381862877980649
0.10550235702679343
-0.024031342298244378
-0.14283394988960468
-0.06916699726370155
-0.015607318386112633
0.014023648661860203
0.024078918836108
0.023621480101678628
0.021758226930998385
0.023549040761816076
0.02783156839525319
0.02763715132509497
0.013131211094278061
-0.023755562696381006
-0.08455382574783
-0.16133679560881578
-0.037461024126892915
0.10738695893114752
0.08914744944261968
0.11149592121575733
0.16182403518648505
0.013615730318314468
-0.16481499168476477
-0.19815176765008854
-0.09330727220422655
-0.03470074322702869
0.0121624983330887
0.08994465708387035
0.23550410842264716
0.06780009609311423
-0.018061058104484443
-0.04885473303693729
-0.06458349813664468
-0.106559693127181
-0.006202101150083895
0.0223658753825861
-0.015563795606960595
-0.09838070347940142
0.004658331009854494
0.1239998527846213
0.080612704032492
0.07989582778920426
0.11095270873358734
-0.0481916857968802
-0.22120520339404603
-0.22370678774651429
-0.05757531558834336
0.08791833528839273
0.22880432323709682
0.17695409659078762
0.13374732267559847
-0.10954474736107793
-0.16479090478591965
-0.2372885624026789
-0.1188386609368427
0.012117259644842875
0.18257373888430348
0.21253722689068974
0.10378942471707517
0.035130560157344955
-0.03348068002399481
-0.14928220763762276
-0.15192745776095348
-0.06097920237024235
-0.07000433663653985
0.05101265605752739
0.1462438162280936
0.06117444042662276
0.03072007899430902
0.07183373996852957
-0.017775104569827237
-0.05527989724237413
-0.064826368952783
-0.06898054395265621
-0.08228930240978519
0.09136712972067901
0.057551291345374254
0.027536445914896176
0.014039667347659334
0.02796579336189109
-0.12332124480247142
-0.036621450416599866
0.08682458162690534
0.04103168036223846
0.01526650393120196
-0.005030662991571604
-0.03620673708939129
-0.0938058609793508
0.009586146423892956
0.06534814192796895
0.06875381491984153
0.018595699237547687
-0.08273375121716747
-0.028673194062097198
-0.008208013534381326
-0.006827024181229314
-0.00915918309914858
-0.002958305396525279
0.016504913223605013
0.04292950075827276
0.057740026935445166
0.032298451655149246
0.13412415774728184
-0.06343613178677268
-0.1701110969824515
-0.16957607720679777
-0.01612485916971602
-0.039739449834451594
0.04052653194764026
0.09787136080851687
0.1787669619274407
0.08908056471341783
-0.010525334454506416
0.0017596793961121538
0.024947754008567424
-0.04259331854262671
-0.07978935172836685
-0.12359107572017414
-0.15865648994871953
-0.11950881183082218
-0.10625121237175285
-0.011543334121224855
0.24719014907983075
0.49947451743533067
0.7076520928800855
-0.4255522397696084
-0.22726995426006116
-0.2111311362387103
-0.43536061701297335
-0.6777533226276832
0.3626024193714709
0.23610994532513538
0.09479812124134393
0.2411086858044871
0.48968002767614743
0.7546293936150968
-0.5322324622108608
-0.37613249866932447
-0.36041859252984326
-0.5928920770577321
-0.2743727012251865
0.7021046029123803
0.32419063163207046
0.016495590202328127
-0.006316065009169567
-0.5801281250246489
-0.021822647389837888
0.4518020319094532
1.1196940755401548
-0.6279952737025944
0.14830739572476972
-0.005961582537531904
-0.4776927509404532
-1.1359804846222425
0.4907622904564188
-0.19825522857486852
-0.12334325139432381
0.4068043938576574
1.023440598835369
0.2433363813456462
0.04693228014438474
-0.1059304450456772
-0.6305390234223271
-0.959657764023803
0.10656275248681576
0.42961725013174396
0.3386403021644832
0.42178123517041416
0.11481559759893975
-0.3055521441908683
-0.5244798920400838
-0.5953067862569877
-0.1578259345845625
0.3288961028156101
0.9466285939481084
0.6871363973396072
0.4478170330228648
-0.1372968340105001
-0.8376956882735384
-1.3593515853610745
-0.699086685599782
-0.14298984416684124
0.4863288118261558
1.3511569314421044
1.52258237964437
1.3426072973427374
-1.554985331267596
-1.3717925873440664
-1.253277490871132
-0.8223761242074548
-0.5697525221870412
2.2960241790787306
1.7646308432293254
1.3487928519956656
-1.5466095665063035
-1.4024637252972543
-1.1325427577266116
-0.43649548349382233
0.01445797095847903
2.757551628350157
0.5062513518953765
-0.2644276999371021
-0.4974629221327103
-0.9038845074394198
-1.3074469798323616
0.5890486214531386
0.8005523802396164
0.22206828148552557
-0.2286429227097099
-0.2715051718446804
-0.31725215438610654
0.29189817054023204
0.4590315589361739
0.934726518709467
0.5530775381252703
-0.09618700651768866
-0.9700656095877226
-1.0741027609303517
-1.3965242966908837
-0.3023949736931834
0.6032426361879272
1.3600413681018004
1.3231314614026468
0.8650119663606197
-0.05846335358800403
-0.8705206473852946
-1.2842199256686175
-0.7986391322897369
0.7820790659402289
-1.0160734033182697
0.44977292190604656
0.8913389789659928
0.6287207372033881
-0.6594370852645749
1.2414840417768511
-0.10797304324825271
-0.7654424383992134
-0.9609099106810723
-0.46189686351129267
-0.16758480403019455
0.4622518795985775
0.7537813725810156
0.7634222484765133
0.4443601078947826
0.05116209545739561
-0.6170644834879332
-0.7503552942660778
-0.6634196037085319
-0.35741903880361703
0.07808671397941834
0.6249115848414084
0.6741524927823908
0.5661364450903831
0.1539656676898228
-0.1985509669748338
-0.5880421365913565
-0.5268091780527621
-0.30143579174400936
0.05009602134176985
0.3375833511344421
0.39954615019597
0.27796256176628287
-0.0010936328825605112
-0.23416112580124784
-0.23499555583617318
-0.022948933865603375
-0.012190698836124853
-0.0064747458671171945
-0.0006009989973107356
0.012998428445714017
0.03546099107454884
0.0537933514469362
0.23742367250480984
0.1413995124822901
-0.08309786322687375
-0.2730403403126162
-0.2377304334562384
-0.14928458012596516
0.05588239725704279
0.26417576202931836
0.16479004508965
0.029265201222346406
-0.10340318975683703
-0.03317356010275267
0.00293661032958446
0.13932941976593755
0.09508794359867367
-0.00967255476869536
-0.23680532718091415
-0.21631274968124886
-0.14017513945673746
0.03317491204107885
0.16432813528801285
0.313024158044185
0.1200408093456641
-0.0027175557179811324
-0.07101193670647774
-0.11757794170265887
-0.17699654508996696
-0.072153453440931
-0.00692380135642957
0.03313068420213026
0.07333760423839943
0.13922665145586546
0.04671356600752463
-0.0035523986368883836
-0.026262982833197765
-0.04663699655340401
-0.09289865808899152
0.011348451365903619
0.05281817623337841
0.03135981280650742
-0.04012278587828079
-0.13835744741589545
-0.03480709930123366
0.09719604139086438
0.07459376647413554
0.0984647362780329
0.15236043846969918
0.006765151052628904
-0.17093399856085628
-0.20413357690921125
-0.09712599596636508
-0.0319572056186075
0.026235662294582355
0.11719236619534341
0.2714003092428859
0.09942221778902799
-0.011068748339324818
-0.08947935962279445
-0.17041396444332915
-0.2810141736275206
-0.03297901261480046
0.17767153237506908
0.16390651030347028
0.13825170928267255
0.10576418154503826
-0.13730724323680069
-0.1993139798593355
-0.08653598781117196
0.00197693453302154
0.0755395854300151
0.14909136951229743
0.03879344735083255
-0.041504637151322916
-0.08167485849533682
-0.07509937228405202
-0.018322053111601958
0.08828361521917513
0.03887374440839209
0.02064834442435309
0.013876249393610776
-0.005864953038020298
-0.0635146204138947
0.02055075934038973
0.03522283756592621
-0.018120414555758028
-0.12471178866007603
-0.058422123507106086
0.013056181441898039
0.12058798218820557
0.08555795706436575
0.11422678056811811
-0.0032216755194629863
-0.08843618405030831
-0.16718375941323083
-0.061404706560516206
0.01579015649112264
0.060651731428829105
0.07558145198148125
0.06449032929606582
0.029245855847342097
-0.031300572121560816
-0.11977286624874389
-0.03756287904606719
0.017335059509468505
0.05093815274280177
0.07255043449810644
0.09375907432540391
-0.07192803405765064
-0.2089296225707128
-0.10022799644756464
0.06970491016495818
0.10957698880791254
0.2156541206447106
0.16932869489057817
-0.059438638929527304
-0.3029893015493354
-0.1847392498322809
-0.11119260871672891
0.1287774593590707
0.15710715417017926
0.1957741049544769
0.05737433391244601
-0.058886613896555376
-0.16485875249367019
-0.07697318019187015
-0.00929615792420892
0.030896839011772037
0.04399374404636714
0.03617736782244786
0.016459910798920615
-0.005951039452206215
-0.02329802866785734
-0.030053141348288192
-0.023378970308235058
-0.003767813014148819
0.024077560833056677
0.05062386559656131
0.06202884998438399
0.04259547832397226
-0.0207301247677965
-0.13281918168537296
-0.08583479137642867
-0.05808193504093857
-0.017700218714297444
0.06922145698356658
0.22858683042171044
0.0699921764055574
-0.016470666954369717
-0.05695128487562419
-0.08546569908704518
-0.13376112389404762
-0.023151423610839
0.039151172730287113
0.05874295240310524
0.04922975504707082
0.0263334589064777
0.0030835073481119313
-0.012724723768184825
-0.018738298021248576
-0.016626873639377916
-0.010015845572405997
-0.0026169719247113826
0.0029570650707762256
0.005592577456138751
0.005466424117485661
0.003527783046314211
0.0009502233234399124
-0.0012681525124667626
-0.0025010243699729157
-0.002524471608577469
-0.0014604090893473658
0.00029910932863337354
0.0021606839845283174
0.003411207276113048
0.0033556501835960624
0.0015397181895313405
-0.00196670449236977
-0.006322475784411777
-0.009861682113055105
-0.010398051340086223
-0.0059743759112718
0.004022581463304133
0.017679636828925926
0.029791058377156884
0.0320315426332153
0.014381032460571598
-0.032367339404804185
-0.1138033967238278
-0.030011681238285026
0.02436473328462069
0.05797164859454716
0.07954825449099048
0.0954164097409993
-0.09096115933273337
-0.07721011274576427
-0.05931980001611986
-0.029867579970478734
0.021462069443309206
0.10508293874823137
0.027742994901850757
-0.010427910984724155
-0.016779958910678534
-0.004669578358472683
0.009716684001162702
0.011240632001855468
-0.010606240991162995
-0.05935694510387269
-0.13135299135042425
-0.018273683554058784
0.08783467726658449
0.18868027700845535
0.07584974019178435
0.13171240531133507
-0.06393918897494115
-0.32349219493699377
-0.24192796352074214
0.006775736907870863
0.06433020698898434
0.1752558524772215
0.3717254544742557
0.0627783409685323
-0.16743936785510563
-0.15208987190185863
-0.12873796536248283
-0.12712007872150885
0.03758479463257372
0.16430978949844557
0.06003901353046208
-0.06850960244274676
-0.022204535672267125
-0.013831062628806361
0.13145568469734725
0.18007391154386157
0.09861102612241306
-0.13386378693550155
-0.31304219783887155
-0.4017106712422384
-0.1328300862907901
0.17438953951045338
0.3893166253767666
0.5454010965757118
0.4281197118930315
-0.016768896200213827
-0.6556787203693479
-0.7314359110648373
-0.4362315049395815
-0.10780436574234845
0.3470339237872227
0.8108681549719456
0.9152244735624052
0.22126832681892808
-0.36721133429162517
-0.7626441599285659
-0.6425319758186487
-0.6120231776397924
0.0018494062757025665
0.5202599282451527
0.6584885079832298
0.4693497251054841
0.3067351702334707
0.023655497121588886
-0.1938308070163047
-0.3677932544397948
-0.4635115681451577
-0.3388298702882196
-0.32369804879139236
-0.23696329406506658
0.16342201713239304
0.7110719092080938
0.9644378123721252
0.5657541527196879
0.04160951144472304
-0.5536905763268029
-0.7678669165702303
-1.0811182123047114
-0.4656103782691933
0.2087133596032976
0.9232359104349194
0.434013285076059
0.1983584073599444
0.5314730798356655
1.2088579051937118
-1.284369086631355
-0.6707647621863515
-0.18969341417498845
-0.7274301771251951
-1.1905129542611128
1.2702615822535988
0.9951303847002676
0.5337869482686052
0.37479744695664347
-0.49518259568769585
-1.0005901499159129
-0.7672416874189326
-0.1102821597960281
0.9719575862381811
2.2046144258993716
-0.3399723114319572
-0.38869944334265427
-0.5892241556255328
-1.4316706749394128
-2.004750151146259
0.9875452983989996
0.9450427239457282
0.8500787499251452
0.9483238453977352
0.8746711285039587
0.45036115187310327
-0.6477267355561954
-1.369705893342911
-1.5688749278307714
-0.7164559215064369
-0.2857240819340824
1.1910274059693113
1.8186765162809333
1.432957203482471
-0.26565663314982796
-1.1165489007299751
-1.2507037310925961
-0.42011396808836826
1.661816034591612
-2.05107520543184
0.4570946523120351
1.0336000728728394
0.31497798115524595
-1.5103907425955327
2.479190810239016
0.14722199700028457
-0.8652162874178394
-0.8857554286526163
-0.7587454854790688
-0.41842583130613215
0.2978030204412188
0.5983627096655614
0.6676008640938395
0.603825589410796
0.3888926032641839
-0.0991102350633772
-0.4344337820726651
-0.7719029745933587
-0.7807003413948428
-0.20775729964726022
0.11589286615069279
0.42804629133539573
0.3640782926372748
0.685667152997834
0.4326391595211924
0.11278331197297556
-0.26811588127988273
-0.3469480401191337
-0.7352266976561902
-0.7657927083991025
-0.2726666837682033
0.18955146254641908
0.8958843562662587
1.6932956123795924
-0.23781728140643713
0.01589728193810847
-0.6610518312985525
-0.9543354299279964
-1.2685945861139682
0.6922037656549747
0.3037283961026723
0.7693295493792217
0.6601977574218731
0.07198779487796955
-0.187453238335666
-0.3790588123470575
-0.39412778451423436
-0.3136645636761683
0.019726530689173957
0.20997599985277302
0.09674850893014575
0.1327241510190821
-0.04216671550171225
-0.02220991226960953
0.1514834960223958
0.18943938290312187
-0.03609575599540893
-0.07066800364219131
-0.05022347557418991
-0.072353184724942
-0.17246555543354328
-0.11033491359945241
0.029578577712179987
0.023426859686296566
-0.11881542276321116
0.012362837149783975
0.19021624694583503
0.32113951307519445
0.0257751612299915
0.03650224613496564
0.01225753269044216
-0.0327205364732823
-0.2929828924205305
-0.13702444151789595
-0.08113388471435365
0.023025762029627923
-0.01402517902239012
0.06579538598334442
0.1465238300073033
0.11559230563676914
0.0456796560692254
-0.015592828549276988
-0.04732602257850176
-0.05002883555759345
-0.03643668971623841
-0.021772973255280676
-0.016040540692058843
-0.019827117103148363
-0.024042347019137614
-0.013135503447131176
0.02935823171789061
0.11466354008647331
0.044019066823524806
0.007074374187438679
-0.015853298474679103
-0.04838699375636143
-0.11148903872011695
-0.017983055516414017
0.03002238591403594
0.0402784381822807
0.026901826442301605
0.00577032547360708
-0.00974324730266516
-0.011828586224884047
0.00019843556571910755
0.019809518172130922
0.03460035821709124
0.02900240830197963
-0.01186063730536645
-0.09784655088013329
-0.030162460109941804
0.0002982103932805631
0.011916862578245813
0.02886188177375833
0.07627106630248318
-0.02447986387208412
-0.05934646309110721
-0.02362569540773536
0.07747517485905728
0.02957434971572853
0.011271172864019699
-0.0021948812397527442
-0.03422822254657483
-0.10222962227494564
-0.014450414589539915
0.03058317749805277
0.041964563655196366
0.032574213690874945
0.01503460990145834
-0.0012313657676377534
-0.01122368234494733
-0.014000181539344273
-0.011325627478486342
-0.0060540902293292655
-0.000807923702102829
0.0027656786550376566
0.0041523587489314725
0.0037140131920577126
0.00225251678132499
0.0005966722947040153
-0.0006671302987953483
-0.001289374761773788
-0.0013118739929948071
-0.0009479373116377644
-0.00045297067167222773
-2.9419353619717774e-05
0.0002168912555945862
0.00027426452667948906
0.00019420966773845812
5.216800127260391e-05
-8.479951155694054e-05
-0.0001758447089105954
-0.00020944204342751907
-0.00019621303486050667
-0.00015748020115679526
-0.00011468796403115321
-8.267090082700303e-05
-6.745545917952558e-05
-6.761563218462032e-05
-7.745461860669952e-05
-9.034972754274319e-05
-0.00010115754596493405
-0.0001072745050868726
-0.00010851595369542487
-0.00010628536301805975
-0.00010255343334268294
-9.903525862525498e-05
-9.674939107074979e-05
-9.595604352644712e-05
-9.635445716048355e-05
-9.738270883479056e-05
-9.84888485103904e-05
-9.929934853537595e-05
-9.967005141842391e-05
-9.964688302817502e-05
-9.938172149773896e-05
-9.904612561324238e-05
-9.877061049127037e-05
-9.861902340113349e-05
-9.859311907949741e-05
-9.865481673707652e-05
-9.875270465947844e-05
-9.884296761924128e-05
-9.890025968573397e-05
-9.891882467856456e-05
-9.890709653811552e-05
-9.887985792508632e-05
-9.885129896243808e-05
-9.883080999348739e-05
-9.882181618754312e-05
-9.882290024858326e-05
-9.883002281687275e-05
-9.883874505415673e-05
-9.884575955271037e-05
-9.884950620619209e-05
-9.885001703092714e-05
-9.884832146848912e-05
-9.88457589976108e-05
-9.884344742995473e-05
-9.88420155368799e-05
-9.88415863737278e-05
-9.884192453951199e-05
-9.884264136140742e-05
-9.88433728175861e-05
-9.884388469029485e-05
-9.884409869429374e-05
-9.884406011937659e-05
-9.884387815593352e-05
-9.88436672396043e-05
-9.884350732849017e-05
-9.884342902222041e-05
-9.88434200371339e-05
-9.884344450532858e-05
-9.884346557036225e-05
-9.884346342677325e-05
-9.884344379736374e-05
-9.884343487772318e-05
-9.884347367578512e-05
-9.88435854933058e-05
-9.884376299830602e-05
-9.88439533783794e-05
-9.884406230008129e-05
-9.88439804483789e-05
-9.884363144529852e-05
-9.884302960393526e-05
-9.884232509508287e-05
-9.8841807612054e-05
-9.88418432888039e-05
-9.884273766452334e-05
-9.88445494825749e-05
-9.884691850365331e-05
-9.884900014992974e-05
-9.88496009956338e-05
-9.884756475397064e-05
-9.884236385680429e-05
-9.883472441348494e-05
-9.88269959750319e-05
-9.882293581413861e-05
-9.882667425052537e-05
-9.88408956123528e-05
-9.886467602795093e-05
-9.889184442836988e-05
-9.891097815960288e-05
-9.890798412824874e-05
-9.887149415685859e-05
-9.880004906846206e-05
-9.870856928607278e-05
-9.863050899206873e-05
-9.861212684749656e-05
-9.869712097760647e-05
-9.890360750987202e-05
-9.92003440266941e-05
-9.949347717831728e-05
-9.963645402431274e-05
-9.947165755627683e-05
-9.890166134468044e-05
-9.79721795616944e-05
-9.693262143597104e-05
-9.623140870434147e-05
-9.641049812794218e-05
-9.789258581837541e-05
-0.00010070357220340116
-0.00010422948528079861
-0.00010714765550804785
-0.00010766720162618923
-0.00010413984515217493
-9.595498301526874e-05
-8.44429021112421e-05
-7.334574062962433e-05
-6.837320446762709e-05
-7.553075362063285e-05
-9.833166383887114e-05
-0.00013461908086211122
-0.00017433785267391555
-0.00019990551825574814
-0.0001905082839507559
-0.00013048308953830145
-2.0026709763508818e-05
0.0001156949337377301
0.00022445488120553176
0.00023699455485164472
9.12674093951991e-05
-0.0002327999210069023
-0.0006790531523456976
-0.0010985325554792769
-0.001268989933073663
-0.0009618086448122862
-5.081672046115648e-05
0.0013663936256820518
0.0028872932633444864
0.0038268722727197277
0.0033930134870711836
0.0010172483441516884
-0.0032321390826969983
-0.008311680778558327
-0.012152716121663035
-0.012100523120400317
-0.005928531033473795
0.006702365755810065
0.02273485152241447
0.034761684206424476
0.031252123004564245
-0.0016921305643228832
-0.07725445442646929
-0.004310975091602557
0.015536041600172728
-0.010648365759099748
-0.06772973496031769
0.06501892873348727
0.010075620511032526
-0.012712534200102099
0.009916595702546284
0.08196071229040441
-0.002730714145174886
-0.059487852275356266
-0.11052276545933173
0.017749075131209404
0.09701550807550424
0.09908830425299035
-0.00153725581322758
-0.023963025504938517
-0.17655260394240757
-0.053731681888856984
-0.03585768201835697
0.1071178230551095
0.20943010832481027
0.10338265465287486
-0.1842471127033605
-0.23277801435913825
-0.026884608410089262
0.04316407376299201
0.17969361093868438
0.1762063084777238
0.2195559584011196
-0.10236510560047095
-0.3888646963714041
-0.21569124425776934
-0.1318593815241802
-0.06848621478324324
0.04108753556463335
0.6363465688245461
1.1099094759658727
-0.9976333164765419
-0.5854680077056867
0.030892288594771024
0.14282821972507795
-0.7372012277792156
1.1280934405813987
0.4992322371385546
-0.23973804295915427
-0.6750528548044039
-0.3542091038952478
0.01741266395986726
0.16709995386329743
0.23232806275852233
0.1320630270692202
0.1413773709938079
0.07703797206921667
0.09741569047648037
-0.08459362472782583
-0.38081808917195964
-0.5067196178527056
-0.16705617516526966
0.548751504688623
1.3654516811756132
-0.5758970006533877
-0.1049737228780448
-0.1997604692386652
-0.7658480861515204
-1.2325423921690946
1.0239638159324664
0.631647934912615
0.562367984353832
0.08167409337476342
-0.07371092728077941
-0.0848323803323596
-0.21168655209195356
-0.3390931006926967
0.0793078253215779
0.06838917604187687
0.16418458099664793
0.029653083062281007
-0.34717307339141457
-0.4739822772199959
-0.19556623592105257
-0.15483909436957966
0.3337099894177188
0.8130590126403752
0.8352753269919582
0.3544732409053365
-0.029681079919224394
-0.5842500357417273
-0.733019123915392
-0.7551100930826162
-0.5216537368974298
-0.08858835223341974
0.45353185534011947
0.4889398088854339
0.5728930910598754
0.7446751358523648
0.28044559661837604
-0.30428059341314956
-0.6083347589617729
-0.4734195187536762
-0.3115154771802911
-0.05156153527371718
0.28420891198861975
0.37494371922468994
-0.025089248837477016
-0.32396401391960294
-0.3336666290666746
-0.11172724790983775
0.40131573607866244
0.9564497867979178
1.193664772382874
-1.1294535962227545
-0.6806675095442841
-0.48421223153842124
-0.4642633307582912
-0.6201461335105534
1.5613387081496843
0.6664179966965886
-0.09340163377604219
-0.5203124684805032
-0.45421934361890176
-0.38661406896985734
0.32782268385702745
0.45952555026086733
0.49795380297635033
0.2607372042169319
0.12443071143828222
-0.7255729251519888
-0.23814919671291143
-0.45040289134168904
-0.4690672468547063
-0.08824205346184896
0.35879785251932184
0.32710295005011963
0.7879233792688888
0.5794543467188844
0.1969326463643111
-0.1736210743465398
-0.7883974844128807
-0.8677956762321657
-0.3336896739064501
0.017898051727456437
0.302422302527387
0.49970655969595285
0.3931704487712036
0.3161777574540203
-0.07949507044547396
-0.2278727366382543
-0.23007447935994876
-0.22301093699053562
-0.14659617742101003
0.28287901628083706
0.3907943316381039
-0.04472866200592193
-0.18652705567883987
-0.33741152864226265
-0.3483086988372677
-0.23964014246503326
0.3640121528715665
0.5926858937587959
0.4957640689429897
0.025924502196273107
-0.1501941472713661
-0.21694790489059543
-0.36142188373418316
-0.32697261093617375
0.018245625523147787
0.09048823819608265
-0.02271254417060684
0.007739916085443634
0.11500729440585722
0.20042092219226185
0.3077613134613587
0.2142491650208254
0.04103139463249483
-0.31950309586290077
-0.36799167290388063
-0.365946468047247
-0.11843265805927033
0.02253542905737647
0.33591149337996956
0.5000113304567795
0.16386981636066658
-0.06788051479996535
-0.03228709282890753
-0.19064015729987482
-0.40470816601057463
-0.116357402948218
0.06221559076653953
0.1454407181892327
0.16175223348666165
0.1380310180529215
0.0878983618066004
0.008084611920925688
-0.11663541857414123
-0.1028412251535139
-0.15707194401054064
-0.06852075724275777
-0.008878079759956765
0.06051898932961917
0.17696376804521266
0.164629403499874
0.027346572780640992
-0.05141946283822327
-0.10174251560114056
-0.15665966966687173
-0.04213410615895319
0.028944059734657118
0.05737859913222912
0.053896165110519714
0.033365997536973835
0.0094625943117778
-0.00866427412037852
-0.017312407834565138
-0.017250750244962015
-0.011778090701795595
-0.004728940943399734
0.0009618312325749768
0.003904858747996312
0.004193955143272121
0.002890348083054563
0.0013450572899240227
0.0005968743663647889
0.0009939396634456564
0.0021028258742885188
0.0029054433523979157
0.0022342913404496934
-0.000654304887604036
-0.005528092792297443
-0.010860727581376597
-0.013975194634722148
-0.011810197390145246
-0.0022961440707974265
0.01394093229930033
0.03211502340804378
0.04279324489776522
0.03302801985435748
-0.010705850393004441
-0.09833107546102525
-0.03204080991140242
-0.0037852200017797484
0.00454411669885493
0.01814206531797601
0.06438324952301562
-0.032719369371140665
-0.057507166145002876
-0.006347725668871779
0.11050908411818264
0.06945586125313945
0.03706640853617089
-0.0232629926997476
-0.14274787816592796
-0.13921393878818483
-0.012529187373266502
0.05473384443388835
0.09174422471845775
0.13133060484520817
0.0024932118707864073
-0.07421925205282834
-0.08801652166121714
-0.037017350628581885
0.07313615218187028
0.030315073980280747
0.01680464203357585
0.010821206623410044
-0.010883838753652007
-0.06954747374521905
0.019202402336081042
0.048218374383241426
0.020417069268151157
-0.05118293031854254
-0.14522545333859202
-0.03595988067083669
0.10063243803529859
0.07967116966983698
0.10161482867842456
0.15072358773728348
-0.0005647948207162589
-0.18198601813259277
-0.21374373805274002
-0.09749589802578458
-0.014165029136659683
0.0700749072326099
0.19187766366221745
0.17770082510562227
0.0348967276079621
-0.04978521325714807
-0.1042697276659189
-0.16083217552025905
-0.04581552722407309
0.026873421935547714
0.056922370328765196
0.05425924923637893
0.033497168471256125
0.008622399833942671
-0.010484933965072642
-0.01925691840330298
-0.017823162283192813
-0.009428857261248189
0.0013166347819341259
0.00988435953720204
0.012846344560249903
0.008576795182786718
-0.0022497173807108357
-0.016406983876313484
-0.02836532850185645
-0.031388553955693094
-0.01968046730588021
0.0086545445287382
0.04869993841684056
0.08730041733577762
0.1047285209161109
0.08049400747007686
0.0029100254492713394
-0.1200741542410529
-0.2533800505478205
-0.3363465148575798
-0.2979734735556671
-0.08665513678047647
0.2911636348347836
0.7360566701031982
1.0417176489043978
0.9179240895484058
0.05600210815742101
-1.7756346755669161
-4.637610103125727
4.232686526554944
0.004839758150982778
