0
0.0002153538757551679
-0.03707486181594626
-0.0919175067745784
-0.17294619916269355
-0.07464982745254024
0.021858393081758635
0.1422181739412847
0.10904851327242862
0.13317017561449565
0.009502952372015054
-0.0808435694757598
-0.1635366948615338
-0.062327034553160396
0.007689978048752851
0.042638327005818814
0.048203350730146664
0.03539114173240539
0.015865538042896917
-0.0014790065522172784
-0.012002001239925869
-0.015027912106499387
-0.01247209284396177
-0.007187848568710206
-0.0016601605696356084
0.0026477224268991045
0.005302434835181561
0.006487992665675211
0.006484460597734919
0.005317921776778518
0.002745592764244813
-0.0014191207042214898
-0.006796427379750329
-0.012017964981693408
-0.014701941723518264
-0.012055153953776638
-0.0021240272441130307
0.014588093113615743
0.033735980023031374
0.046766087195016355
0.042257622366835196
0.00917266933599389
-0.058623816898878835
-0.1581426883759663
-0.07542715695813729
0.012300244011223148
0.13047721334647752
0.09905499642480255
0.12569190319389414
0.0032679631735806434
-0.08720331912942676
-0.16967828565657508
-0.06538804323257981
0.01235731828971342
0.05914650281447138
0.07679226531761939
0.06923354534662786
0.039522547870328106
-0.010594451004442349
-0.07862166152578533
-0.15838212312835886
-0.03844455234301093
0.09648043390379155
0.061244523628394894
0.06491931848563982
0.10702058340593867
-0.022777105689517574
-0.14119101853104907
-0.06567992858435569
-0.009089801510539596
0.02328625082458898
0.03352565525327351
0.028534211989674065
0.016641040493604386
0.004717425444788597
-0.003386309006331221
-0.006957782441802283
-0.007453230258594571
-0.007030820453968065
-0.007180055926375405
-0.007901628526691505
-0.007684078064204344
-0.004290955355199211
0.003864981948067758
0.01620500792645511
0.028928035895414053
0.03503452085105398
0.025838001741883578
-0.006113565002496852
-0.06346958478818372
-0.1412609577248126
-0.02640736694675259
0.09955611053311858
0.055078914832843176
0.05251165831787833
0.09382479585895512
-0.030160469154490867
-0.13688781300556324
-0.04692784764143215
0.02128211252246773
0.05514368604147156
0.049584905965911405
0.007248525821487059
-0.062212497349030886
-0.14373392995242976
-0.019841999037467053
0.12476260056653755
0.09805943943156017
0.09722578270407879
0.10910404578325154
-0.08459056207391277
-0.2989606461681625
-0.1382213224136114
0.007379326345909628
0.15805845297687363
0.13592857280152457
0.15557985041848654
0.018320394407979824
-0.08754397180319783
-0.1811711440393732
-0.08163014656317262
-0.002124049566733328
0.051707049195813384
0.07956869091803408
0.0825358996921039
0.06005609405667507
0.009814528352304374
-0.06937198198647065
-0.17326050942640295
-0.08917501361186007
0.003329556119913585
0.12748608288343313
0.10173272606034439
0.13287239005138587
0.013212065585621146
-0.0768872526039225
-0.16215896846336333
-0.06433355087025797
0.003797857133505807
0.040099951644671485
0.050680561279838776
0.04514988882541569
0.03190920149322548
0.015309689503821807
-0.00455922540372839
-0.029833196985878104
-0.06182334332734746
-0.09854043383057798
0.06591079932466067
0.03968095040064025
0.030044536594100824
0.04033264648317322
0.06840995732902978
-0.09261792519357119
-0.05185476090147653
-0.01745353330529453
0.005743005156347661
0.016925097723835904
0.018468920807335695
0.014236356314125424
0.007883624963176761
0.0017984529473437521
-0.003109861406913885
-0.006907866259099353
-0.009799137452717993
-0.011402056293529727
-0.010524488148812293
-0.005623751741632398
0.004129133918025059
0.01754972662542922
0.030496551486827218
0.03593011303368522
0.025413466872475872
-0.008010911126908927
-0.06634302218299035
-0.14396813804364925
-0.027397537724379976
0.10173513027217358
0.06106413485382725
0.061397948162921656
0.10275938692900793
-0.025679118476516098
-0.14173030607799528
-0.06409918250962013
-0.006652266187014503
0.024802291495302407
0.032507477533587514
0.024261542838195597
0.009877571837980869
-0.002072818564537898
-0.0064469243888584
-0.0024213396623761234
0.006796850524952049
0.015201447147621339
0.015915639350123953
0.0035231413731419657
-0.02366611481505142
-0.062132845645880404
-0.10329006655106455
0.06419007467069525
0.05014242691567275
0.05816634027989852
0.08249829015266279
0.10838342319741806
-0.08341063926079492
-0.10910929300375038
-0.17432136443575105
-0.06977781764425965
0.027166647168308546
0.14533476490135983
0.10958331526471446
0.13192352290777087
0.0075707577747489655
-0.08264560034147246
-0.16488307569432756
-0.06328847125355676
0.0069126358879381
0.04199594636222038
0.047957983764846134
0.03606677722701958
0.017980237977123923
0.0021796453237668875
-0.007491780363629621
-0.011304302219656955
-0.01183614858814777
-0.011802724676565063
-0.012350427766156597
-0.012380165317932618
-0.00911686791204103
0.00023527173546299403
0.01627760268638573
0.03546452927084139
0.04936541275031271
0.0459264449825721
0.012961856903042876
-0.05680992303553864
-0.16088229496215617
-0.08452327397510907
-0.0026745763131679496
0.11352290692063174
0.08746519120927854
0.1285319112487092
0.02770038152841617
-0.04079480708999776
-0.11224440987059792
-0.02121450810422437
0.008360620267109294
-0.030161699650250832
-0.12442860268749123
-0.04680512219999035
0.037227477715398465
0.15809433029120898
0.13200386283739152
0.15553181506234548
0.007521487764647202
-0.14187623465180246
-0.31843522340849006
-0.13284157289026963
0.023543537602297996
0.17425423129460793
0.14694897849305832
0.16153186579585285
0.02248714041537578
-0.08172405487541143
-0.1728483556280491
-0.07397388642631243
-0.0017365664845618142
0.037565990178072696
0.04741704976148986
0.03746813897307702
0.019010133656160697
0.0013194487638738212
-0.010221637862912488
-0.014224745565747076
-0.012188348067190645
-0.006942230390146903
-0.0012757992060316197
0.002900993901324142
0.004808515751746539
0.004609647694995427
0.003015271960513881
0.0008911737097249069
-0.001010890912877296
-0.002172423046433889
-0.002323057177821806
-0.0014221766429058848
0.00034021237192297354
0.0025176239553291943
0.00440084313098802
0.005103804844815449
0.0038001402924966983
0.0001071223265359478
-0.005482586805344208
-0.0113177668465341
-0.014698350924078434
-0.012571364646235096
-0.002828560472533302
0.01406468346513284
0.03369088218295617
0.04732891055058585
0.04332069031297345
0.010368230786990245
-0.057869455733485384
-0.15845367407372443
-0.07722517011648675
0.009092419762795205
0.12666468140080211
0.09618428949766242
0.12571629823172875
0.007823519564035293
-0.07778419128103138
-0.15728351170086025
-0.05447689677703392
0.015483035591076952
0.048447195477273025
0.04978758580111685
0.03065715122771708
0.003903995251746612
-0.019068899273054263
-0.030154522629424464
-0.025470027406931568
-0.005928807890840418
0.02226208009554343
0.04741922382110067
0.05316200507243433
0.020784676124594347
-0.06669904949460082
-0.01964314605564758
-0.037534279386743
-0.10712765407065009
-0.004064832831110274
0.10205131286458605
0.04047715762099216
0.032357862532132915
0.08633181522070399
-0.0018435036819446097
-0.04564514527687321
-0.06155337149557925
-0.06264084668190505
-0.05453005206021301
-0.035482595247404054
-0.0009468020135649668
0.048737539666324874
0.10014439002815663
0.12144588191896197
0.06305104018732377
0.06585920193352005
0.0764919689953726
-0.13376938933189778
-0.3519444118637854
-0.31502529864780754
-0.1161600629210395
-0.02715264731006654
0.2671624002827697
0.6332473315983902
0.6655712305643962
0.08716319329603127
-0.42265160656129
-0.5815432293518346
-0.6562563560008846
-0.43341515110547096
-0.022130886233222107
0.7114778104595341
0.6911014403188565
0.379360737341614
-0.05139595383573205
-0.11710278954548058
-0.39193579634524034
-0.26267461170958256
-0.08276369654886222
0.06163286244706523
-0.03270734870442889
-0.08914398863666724
0.030360544296579046
0.09660271109468661
0.08040909421224003
0.12216787847339286
0.10931041671985571
0.06562241656809582
-0.04640235824194981
-0.11185139045423552
-0.04236270512684763
0.047096130196059446
-0.14115175989200646
-0.07303346197451348
0.023480484468580726
-0.0442233049560191
-0.04371349659144706
0.06709544857851044
0.12324775146340335
0.1390665575895941
0.10146775809652629
-0.027326045269818928
-0.0978842335294254
0.04454456998563881
-0.020463016636965686
-0.2729240542652272
-0.04552666314839715
-0.028682838279615357
-0.2885221837203195
-0.09560851743485425
0.4414226416208309
0.5464781314282614
0.36173452301393716
0.1570145002473902
-0.23596721776419505
-0.5732176328753381
-0.7486216138713697
-0.36310104261123866
0.07481611369221672
0.5166018164835342
0.7218810328686402
0.4069997165465298
0.012450159774655205
-0.30174365459762376
-0.4357690764741347
-0.31692922976152343
-0.06776980770115369
0.21503243092064098
0.26903153522310647
0.26584089344356954
0.008562988558161526
-0.269634694982401
-0.5070242845114056
-0.2195372380280737
0.08445547308662758
0.48217774240626204
1.4152151435962865
-0.9202851200369502
-0.36576687563392807
-0.1782867335959986
-0.005735398436085932
-0.8708797400020962
1.2303035617438836
0.11820029681667506
-0.38574788195300114
-0.2718486132199095
1.0511864737573242
-1.2443969530097085
0.19841972077962491
0.7283933461454997
0.295864015068648
-1.1340275936907507
0.8342694058649831
-0.15957473456390964
-0.6262477983181288
-0.6350591145073866
-0.03880058448434191
0.8876281384406938
0.8059855086914753
0.4880738154691247
0.018503491842852753
-0.5702478699130806
-0.8426865090906088
-0.707302080780661
-0.18756001851349205
0.37195992922825816
0.6688979574761146
0.5937370024426809
0.39003111068791957
0.04089118085084799
-0.31404583465065666
-0.5402431574471249
-0.46634990966952455
-0.45786418915001426
-0.21920504733060756
0.1742940441329858
0.8254533737815429
1.7656578521858037
-1.0715172576551435
-0.04026795308954255
0.061455905178570816
-0.34633100289712054
-1.3679029646040206
0.8031430787932162
-0.31470380704463036
-0.32314298859102436
0.1999292031196099
1.6372247025063391
-0.9194786840603734
0.7069668873511489
1.591315583674841
-1.849516080884616
-2.3952254630238987
1.6320590553023389
-0.0064145800462686985
-1.0755277794209113
1.6990571964426693
0.7905076836765438
-0.15641227171637692
-0.5285340138450662
-0.525503664582652
-0.3327487700234235
-0.10303624131899762
0.04283120280859959
0.3960152074809582
0.028796278302706497
0.3651813150833634
0.16412122895698159
0.12186675235805115
-0.1062321236168325
-0.07040492649206966
-0.6883218607247755
-0.4166641796825372
-0.04248156436880854
0.30255394775728706
0.5112804090219779
0.6672538453734655
0.22289911268223386
-0.4017642587895587
-0.6020285445005242
-0.5650389597434728
-0.4551115475546653
0.3826717713260165
1.802535251541626
-0.9659420126713152
0.26886438271641167
1.0655014691715416
-1.8311088836774065
-1.4677706386655403
1.527226172442221
0.33525549248159436
-0.4750717073616474
1.6317357590965005
-0.044671879395567035
-0.4190194703832735
-0.7807051767367864
-0.7525551426521087
-0.26814145919523086
0.21923394729235604
0.496978778410876
0.7379609886305172
0.451126678292853
0.05647345196967425
-0.30791536229681293
-0.552300258862398
-0.3903906511167542
-0.1005840100332172
0.09441821402256849
0.22653416764998527
0.36498458803206985
-0.008033794831497671
-0.2204327284169215
-0.2278999750994432
-0.025845384880594274
0.14368163367352307
0.39136769194137705
0.3899705245207149
0.19705384429250625
-0.30972396741585445
-0.7926571697276893
-0.42327134544377487
-0.2752824540402474
0.05113474318170354
0.37787702513745575
0.8856365383736919
0.4599912621385231
0.06563666722883528
-0.24242091520043887
-0.27521648442896846
-0.4490003755091229
-0.32660587467787106
0.022547296623612757
0.03489542695112764
0.03740217854525153
0.01108580386812909
-0.05639924906864001
0.1819701126806449
0.5961705514161504
0.5629156103176646
-0.22463492131534435
-0.3226169017097153
-0.4880481230681522
-0.6330170857152881
-0.3978149713286974
0.6483623519534031
0.58222934556536
0.2899097521358082
0.03537444960070325
-0.15513798039483526
-0.29111642626313344
-0.20432383131621282
0.06731826144420926
0.09182070896576418
0.04873106072023302
-0.07076097684225427
-0.0669531762940075
0.06399352730804671
0.12601788568737618
0.12106970339719342
0.05038205452969599
-0.08071845791102929
-0.2564283705842067
-0.2463298341029794
-0.00738545654332305
0.10648690726901203
0.32989156661176944
0.27258465215465183
0.11393358672321051
-0.19119443639499784
-0.29688144449991033
-0.24750400793375998
-0.06404940898385782
0.059093180611297244
0.14644057779150377
0.22720538860080555
0.12128360521509797
0.03134090893200059
-0.05629977849029193
-0.16324196258773088
-0.10737783477390889
-0.09331106089079341
-0.10889390197500344
0.07079897946106531
0.273887217363518
0.12072855502620312
0.01640502465707382
-0.05026804475285342
-0.1013463538939029
-0.1610035239728121
-0.04756658299462445
0.03045161830380678
0.07338782756966596
0.08599348133054917
0.07237091955352144
0.03297668674239424
-0.03499536266315706
-0.13439498963725208
-0.06407059606519831
-0.01639075015356128
0.022182394149675096
0.06767655083441936
0.13409046576894573
0.030080393303819047
-0.041513472237303034
-0.08125040619421776
-0.0893878483179474
-0.06327543475747056
0.0023367149970730822
0.1118383620976222
0.06367151587849058
0.04616316116140055
0.036600562728367245
0.004568246680816334
-0.08113588881181963
-0.04409301925544381
-0.09311148678924477
-0.018789959440817832
0.004893342876185728
0.014257752773068963
0.04664633878134478
0.1308893145438181
0.08026435184636001
-0.11011995247500257
-0.06114840455786154
-0.003984073411884266
0.02713447671489903
0.001846679586149187
0.09944624725971339
-0.08697679658845253
-0.1486282097766535
-0.06227889432828482
0.0045753397856782025
0.08522462421584574
0.2043482307320059
0.17136528260263043
-0.020291691843683023
-0.18716994277011983
-0.14546176228249078
-0.10099574815650231
-0.044098747828099936
0.048493947651263955
0.20573375215284004
0.05188720931705253
-0.002091003400795625
0.037567812566554865
-0.050898692325700684
-0.09886466577442644
0.060515213352370194
-0.00036142698599056315
-0.09851232875433488
-0.03867207119450072
-0.01526652061669505
-0.01758323167578103
0.1634188517329229
0.12918803123690129
0.07123548399970765
-0.026098550582520138
-0.17852071114620063
-0.193430603492199
-0.06452242685168362
0.027576773833761597
0.10842485549035068
0.19958627713573734
0.10987654006116364
0.03225607014147145
-0.051884743276873126
-0.1626029388438801
-0.10959844143599612
-0.08368055801976525
-0.05521621643632157
0.019371104232741566
0.18494081727991202
0.07293631149689955
0.08952791482400063
0.010490390720771634
-0.015566699074369373
-0.056550051719362726
0.018351215834600716
-0.045203855422943466
-0.0733227033597746
-0.05629901939487976
-0.14898012415215942
-0.0798771600432636
0.032125365883285156
0.25700727360365017
0.23449551536885915
0.16293163847520006
0.000564577784792313
-0.12049253588961177
-0.27221848968211204
-0.30836291114012837
-0.04976650208343718
0.11797923997958652
0.235025875696127
0.15107256496816462
0.10948797385092408
-0.06281978438669994
-0.1580482256899212
-0.18455098784056875
0.038056791835234485
0.08280002372216584
0.1176268000787822
0.10756706692910882
0.018724976961855176
-0.17529707114636062
-0.08609433342979374
-0.10529854373333998
-0.004358721562298427
0.05979888443469829
0.1347546423116159
0.061526277367801696
0.06604440140459782
-0.04444982093272829
-0.0797613742583473
-0.061402858833109294
-0.015984293243733166
0.030604512496159326
0.0573022793022111
0.05047729575024601
0.005646742199737121
-0.07148054287924718
-0.16528949606634022
-0.05305731972398518
0.08904305321458775
0.07763192356918278
0.11423439625526337
0.18137426948248664
0.045333828792982124
-0.13412054001198692
-0.18977235052712885
-0.13383440347239248
-0.15114887746002947
-0.0021433271541616604
0.164698839542849
0.19485585374380984
0.11055036139488085
0.10037692902715463
-0.08070392615599518
-0.10116759136691096
-0.03585981150391025
0.0530659085449785
-0.06746629256105187
-0.1912999496316239
-0.0714214217687438
-0.02774010927415228
0.036913125468773025
0.21628951951229777
0.38139572092173724
-0.03190854910313211
-0.22507946274096596
-0.22974493313505756
-0.095828527830859
0.11976841130845316
0.16106897751625762
0.17799340121810459
-0.06946742758098569
-0.206733157927776
-0.24102375384405897
0.038571363023897604
0.055510856612832934
0.23582381251268456
0.1977204929803598
-0.05450663209544648
-0.12953923665988035
-0.04164518751652872
-0.0001276920346523889
0.0003785160287062152
-0.014370709175447654
-0.19835050814632027
-0.0920602981667521
-0.035645905617380055
0.2138885490679723
0.2659727639237577
0.2863013173752773
-0.0017971042312067262
-0.30334547370397014
-0.3291489850911628
-0.1723739498739067
0.10833217292579674
0.2959023797434248
0.4139611686647725
-0.07751468211420158
-0.48713536091452186
-0.4992063314650519
-0.18763738555565226
0.16069346847352375
0.8173663051672997
1.7901508090311344
-1.3801789343077335
-0.7994649839001108
-0.38555941182995557
-0.23759081260063178
-0.6234105890071194
2.2138283980755764
0.8423661524171749
-0.3612623236945466
-1.1966172975378655
-1.013423598350418
-0.49622761774126495
0.32198905257607646
0.8150982179398487
0.9045727949685858
0.6119891269182045
0.04556711965748629
-0.5718031803164846
-0.6433976894885721
-0.3310546082258221
-0.5038640996297614
-0.12020799120035479
0.35262573204072567
0.48977017974524867
0.2481493200182683
0.11299323847749139
0.06614959670763362
-0.017085836270585502
0.056494752760296044
0.24399487587540422
0.1247199509313517
-0.44070699474885844
-0.864257554890208
-0.6122032961849984
-0.22563358597662836
0.21960243432188317
0.8275456290143959
1.1979404495187949
1.1736985244104485
-0.15786184132918787
-0.8072493714714377
-0.9890769201616458
-1.029536620384398
-1.3137869824605275
-0.09743735988678455
1.0188442625771599
1.5795030516521962
1.7751509841779283
1.400742984601057
-1.1037601759601186
-1.539854014187896
-2.0075157160684616
-1.3920453161602602
-0.5288413287060649
1.9391056984853017
1.636013946536541
1.3129192072966087
0.34701748803700294
-0.886663211275872
-0.9722415864979902
-0.5667222746529528
-0.10817505820032823
-0.1483030486318769
0.276997374268452
0.24072002874716633
-0.1079366511964998
-0.18897340815760535
0.16189752999243157
0.6550878594090495
0.3253010345268589
-0.06839532996516103
-0.22059796692092026
-0.4435345829428014
-0.6307843079212796
-0.2349114258874607
0.33289831067199094
0.4831556156825454
0.4196132353936466
0.31706812339123275
-0.0832674968334146
-0.2584320663522215
-0.4754726772583388
-0.36300573009141246
0.10505285449127942
0.006939743450043294
0.2530139169675547
0.15596716274856923
0.20142999446384416
-0.17237053501104888
0.21892689837235574
-0.08613773901474556
0.22509765065822956
-0.1334682105759928
-0.21875110966129643
-0.43725155888648465
-0.1379228092748882
-0.22360264670468608
0.4203297804598848
0.4882520156817304
0.4204009388579928
-0.01474278837717184
-0.11529217025764679
-0.4204169316089825
-0.2741483099939731
0.009416433534646456
0.17041198886802875
0.21362394354224498
0.006454958823449252
-0.33261811556966164
-0.25345356399892344
-0.2012331197450633
0.15053174615780787
0.4667330896319098
0.7274879470714751
0.4265941382103783
-0.0017251074617225437
-0.7316908144913086
-0.88633766320111
-0.6922560395319408
-0.2686438030124052
0.5422854255063775
0.9138845624379477
0.7666586169727606
0.32008248260601896
-0.11690785134352771
-0.5145558320183077
-0.4636632132525301
-0.31200516207205764
-0.31738293727364053
-0.030979419440851436
0.08622358212589563
0.2212217183826348
0.35494141469818496
0.4126743682575854
0.23302932196509157
-0.036748890038656445
-0.3196961836613395
-0.37091650602810183
-0.1354762544800466
-0.11508951745238076
0.0486600219801093
0.17338899533472787
0.12143355780946448
-0.02152146820904822
0.03161013947945519
-0.04894739994585217
-0.02235306057788899
0.11680072666967513
0.1392035263533296
-0.011639347561988053
-0.005848301258275191
-0.10999966948834254
-0.17041983820791878
-0.20163880714831475
0.01639904499994286
0.1315154268279022
0.20547656756107774
0.0983242976148128
0.05625016242052773
-0.09377894693192666
-0.14273395727625302
-0.09430346934371124
0.04075580453921401
0.04833729177848288
0.1124447824264295
0.01558070930179588
-0.06059537120944808
-0.13397077051704304
-0.020777982888587548
0.06457342525705974
0.10860008935213647
0.09797351182076537
0.020438546942082327
-0.13199965871289604
-0.15881692220163782
-0.048143032439096504
0.022354139692300327
0.08039016421563543
0.15159081022683712
0.05278850241523467
-0.011056003776231572
-0.04517856810757117
-0.05961207231446746
-0.06259241443886834
-0.055583421116269315
-0.0319097880877441
0.02047768122875954
0.11317116455671834
0.05068732499161387
0.02570345890745744
0.01811307480313316
-0.0015396056704259414
-0.06517249365116963
0.0012128058622689014
-0.014943149274639267
-0.10821014733950447
-0.055077386229820245
-0.01882578820862516
0.04144220490491536
0.1599214532170144
0.15478397479934794
0.02377595169152646
-0.05350122550394423
-0.10749011891034913
-0.1680424445005335
-0.05548771972916053
0.023346199727144506
0.07329953503764831
0.10495104766699555
0.12785478853378499
-0.05390191340808473
-0.04219964085952973
-0.04190312056239914
-0.056384033598639374
-0.08389059434665058
0.08364740549481917
0.059095373744428484
0.056790014989126045
-0.11117463077055266
-0.038027706133631635
0.075539273931057
0.02021210673172433
-0.021805069629405645
0.12522988621102218
0.034816840865030514
-0.11580798770808882
-0.13939058335129167
-0.03429839635857163
0.015898255898395126
0.038305138546071225
0.06336521563849988
0.11693009156204488
0.01446810033880361
-0.0408858493004824
-0.05636398359152896
-0.04510034768358859
-0.021248553287930152
0.00359248437848172
0.021908491901766625
0.03003362981243639
0.02703238100356991
0.013639979487405933
-0.008196358516131165
-0.03524837714339705
-0.063020441801227
-0.08662971251276677
0.09705869786534595
0.08657820092082248
0.07380720192743147
0.04450655308981824
-0.017641082237253275
-0.12426695453089312
-0.07520014775213937
-0.054016615583279
-0.02859092958227499
0.04271728158699854
0.0005763582176404898
0.0727141383573809
0.06392638165652963
0.15129380322919375
0.08681747156685875
0.007881424608406818
-0.14648829317629494
-0.21806970470318854
-0.21649434045880747
-0.1160553735002577
0.1357045585169986
0.2001447950535323
0.3269297165982282
0.1386389057203958
0.026491655700863075
-0.24169121561820303
-0.3055016718596696
-0.19545344766475684
0.07688372268163877
0.11880049466495973
0.14812103377784572
0.18185018366982555
0.027483946868196513
-0.11955021167669867
-0.07223221592226507
-0.04474438783883215
-0.04540639234035718
-0.07266064334178851
0.0846843370073445
0.04348874731821639
0.020375662433061065
0.02609884634688732
0.06197904969788742
-0.08073724921175865
-0.018746612984752557
0.027342013233484997
0.03782127501140824
-0.0014739500382881924
-0.09547661902672462
-0.03796832522690672
-0.012243520961260225
0.005328263979733705
0.03951532689873775
0.10986424169219393
0.02583991265623645
-0.014870515841763013
-0.02434341645261111
-0.01947385471204909
-0.015793612610717395
-0.021955418655196023
-0.036451743788473864
-0.04754998570107119
-0.03671838827790644
0.015038200047223413
0.11949644454132778
0.07459396835625995
0.06148327874076549
0.04705173347748627
-0.008036571764159601
-0.13777014971255144
-0.15929902263542392
-0.06563978466684857
-0.02566569578213185
0.007917313252610305
0.08475962246458495
0.24157694638860855
0.09051213460556592
0.015281244035894495
-0.02338302945163385
-0.07480487157998322
-0.18245813519668552
-0.17063626687083247
-0.03838919835979215
0.03712644200054183
0.0891790250570389
0.14624359022469066
0.21890040271940717
0.09409446361988145
-0.06056559981681064
-0.08352514035817608
-0.20166541362061155
-0.21499451313179171
-0.08982333694270397
0.03622460716371249
0.038219787965697055
0.18185669809619473
0.3026869374241178
0.19408711021172295
0.008855273888839865
-0.1252945181290763
-0.28133944108832076
-0.30842598365534013
-0.21646279261407403
0.024206411782255407
0.26798957999140727
0.3701909364192154
0.16385982886567413
0.0464400621724077
-0.01927031575988233
-0.2914919381826018
-0.22967311462295323
-0.07674614426794711
-0.04985262119358733
0.05825310297801891
0.26956161949786933
0.20851650266814434
0.09316564148214536
-0.06645728932240118
-0.26307425860253847
-0.2843253363451314
-0.10821987272583687
0.09410728878915292
0.34872801973049194
0.2672030102426024
0.03943274442101333
-0.1644775417258419
-0.18369187784394106
-0.2522247054148321
0.013147165755535194
0.2184084457114149
0.19080248711234402
-0.02722040130122656
-0.18581352841750273
-0.23643528199014877
-0.14242885214812975
0.10795059240803369
0.28841904389202566
0.5273116991897856
0.3130734433687751
-0.08340239355991565
-0.5726828374205929
-0.608079873494193
-0.35969435578252923
-0.11371191518318621
0.30003180707092525
0.6609089373467346
0.7078762036813163
0.1055569492738417
-0.362789552991848
-0.3761123408139632
-0.4416032044425641
-0.2614127277327405
0.08813320888321134
0.5614702776081574
0.3379843907071206
0.21463006440911148
-0.19610005301665712
-0.6628471026478105
-0.5336077355757495
-0.1444145518824749
0.35765679112606785
0.5830554192214613
0.8745573231387076
0.5049617663992908
-0.09280547336376638
-0.867745964241462
-1.0844445846334128
-0.6757804459064534
-0.23800045462227318
0.32412807644714636
0.9146485942901202
1.1547442132378885
0.7153293520434816
0.09844689244802896
-0.7270822146563904
-1.2519545926099
-1.1453126922756225
0.002766511600779136
1.298718946848154
0.12777986194442162
1.7221526729045558
-0.661989163691337
-0.7478321688483474
-1.628336507091127
0.438050118665001
-0.5892863781260894
1.8285642414900203
0.7664655255289164
0.410267483307316
-0.33286984226617466
-0.7901129251101832
-1.0641426185212817
-0.7879867533746432
-0.11595794145003306
0.643799301969566
1.3701349865570518
1.672364554883486
-0.7341348885821154
-0.606153754723108
-0.5141366991603663
-0.9746045952206485
-1.404675464741001
1.081506654232154
0.8345292360667464
0.8095184008358153
1.7138987240572738
-1.4127896451561914
-0.7818587574452929
-0.617305339049442
-0.723667730962019
-1.2820123809761736
2.321406682634304
1.4502026255126081
0.7868219060293464
-0.05706031533349103
-1.0818647205845418
-1.4138234199431596
-1.029698658591707
-0.5297461369637161
0.22309654863827405
1.2075137118144654
1.5253631800620389
0.9046276336374832
0.06017865050286035
-0.4739959501122766
-0.8551548951436542
-1.0194298934771453
-0.7873491835860308
-0.2186894635136383
0.17138181227616167
0.54520892123224
0.8525912543939195
1.753450569109793
-0.21567295441097276
0.7836395534729119
-2.032809174044081
-1.1768718783774352
-1.6152847599308031
0.8466858296801395
-0.08494342473661097
2.310021210456882
0.8621078310080386
0.04337357957975775
-0.44174976907036023
-0.60766238520602
-0.5045615738412857
-0.533540723217005
0.01257666559707134
-0.23248159609892283
0.06770974964866623
-0.10359587524625434
0.6133499419375449
1.2910383734097939
-0.5224692298907372
0.19890084327178317
1.0022288215653572
-1.3729622336329546
-1.7166995402787706
0.7103913674374749
-0.0034586841719741867
-0.6474512683475203
1.0499518037211768
0.5445578494931688
0.20881745136341992
0.09218060715705899
-0.0811236519177879
0.12098446510538015
-0.10440354883874946
-0.3299532594191996
-0.6422021693450081
-0.41095031526700454
-0.2946441292257064
0.11695503295409913
0.43337974252264805
0.7883036065242279
0.9843634740867799
1.2799479292172207
-1.5731031844344785
-1.051474920041742
-0.5705559375721257
-0.4172850035150939
-0.7298047741026947
1.6724413705319934
0.8245711181489251
0.1455739787922126
-0.21357830114810875
-0.5909378525887772
-0.20704993425064108
0.2574479689982435
0.2893818768897932
-0.0296045429378908
0.0023920052876736392
-0.2710667829559046
-0.45197941442297257
-0.2892683159975745
0.1028716462225235
0.41292800085442927
0.6965828455052472
0.35175933810327314
-0.08448902462368592
-0.31469443110513756
-0.4434664891870784
-0.5391401796989278
-0.21021825398977767
0.19426304227861318
0.3614701707755661
0.37893126250659465
0.30086741935026956
0.12943354331194107
-0.1833480333467139
-0.3157020502949687
-0.34757913445685623
-0.13499217684289364
0.10405592523519035
0.1893114769866671
0.1670002095387849
0.09417570491585843
0.024905515438170937
-0.19848375543091792
-0.14935377984253323
-0.018196510576345064
0.18637549346606574
0.03699198613967564
0.08905888207893364
0.08661448954962077
-0.026763626908032842
-0.09353025858348123
-0.1277886871153668
-0.10554303946454453
-0.16369061617287592
-0.009825757107597912
0.05814422005965625
0.1268248357216513
0.24327117360544856
0.19932950605461283
0.12999508916308333
-0.07239873510494323
-0.1312583015671027
-0.3535668206230553
-0.20212630048280536
-0.08071418312791409
0.06354195457470159
0.1219694322804047
0.1966645580314103
0.17204632066797312
0.09375181861403788
-0.040049199607079616
-0.07398451330466466
-0.08028201402027159
0.06191747748230768
-0.11266015432440026
-0.03908007858960981
-0.11356480382272899
-0.09448321459342082
-0.11318799153965999
0.10729502648961814
0.23024451201074356
0.28641603667324467
0.2651684803492491
-0.08023991444980497
-0.21401846562169682
-0.39234492574372926
-0.24093348106348386
-0.1448703068469522
0.14496702486653945
0.29147733356512223
0.34525565058315544
0.12337940945049038
0.0012328160741688304
-0.08002494908878818
-0.19385421458730623
-0.20421821769995255
-0.14550015663361274
-0.012907624541123755
0.03419687744748856
0.058009815411516855
0.12235998402069258
0.2739055905119864
0.33060950202241635
-0.3189661553430845
-0.3062537517388007
-0.06820768907173173
-0.0347156480916216
-0.22301426283219997
0.3599939549307918
0.3107240239118687
0.022506091532201306
-0.11571294813503015
-0.1145299558171131
-0.17607323386479554
-0.08776966710682195
-0.021898587819410453
0.05798125669325177
0.18592770989294094
0.18227924991250655
0.04684381975736769
-0.04045004864110315
-0.11170698964016132
-0.19938040604667945
-0.12559310793257525
0.10348334009533518
0.09673856041382602
0.07226867111552052
0.04987779347972311
0.045067543347999485
-0.13396323748579375
-0.0866507735586192
-0.01918510001382567
0.056283554923491616
0.12224911657096053
0.15743694958076462
-0.05922788413998202
-0.14211484575215896
-0.09170267245039
-0.08994239254647872
-0.1010386722863114
0.12149534564141973
0.2233107097123823
0.03703834951660649
-0.026413214875644294
0.01947748305583943
-0.05973197959480979
-0.11187700832507154
0.01086886950713631
0.060311018922972984
-0.0013099080855014688
0.0032199089941299646
0.06910469059929325
0.01121445292307271
-0.1359799221743704
-0.12119846711350232
-0.08300452303420354
0.03940504474962425
0.09294385076193777
0.2987960010274661
0.24697411264901403
0.10111062999857583
-0.1863464608654738
-0.25349278292860117
-0.512151796121682
-0.5451263699837879
-0.1239013905370683
0.3552303264252784
0.8291547699517907
1.140597244405945
1.0463322460490123
0.07125078136538518
-1.8014658221932678
-4.635701215646547
3.9147190815390083
-0.004323664506111753
