0
-2.3545097091378528e-08
-5.700647173261494e-08
-8.177527316303983e-08
-8.059953970898277e-08
-3.899968233197684e-08
4.5986535488093975e-08
1.576591245098458e-07
2.564733675688582e-07
2.8626839831931373e-07
1.9229978530282638e-07
-5.09592585396495e-08
-4.1027897738593234e-07
-7.759451912160914e-07
-9.714345394033655e-07
-8.01630333550696e-07
-1.3818752105230085e-07
9.784601758173981e-07
2.261062312719502e-06
3.173853971390197e-06
3.052345102089491e-06
1.3560774352176868e-06
-1.993035813264001e-06
-6.303852591618473e-06
-1.001012532133517e-05
-1.0934438258379602e-05
-7.006537239898968e-06
2.6542109229361937e-06
1.6614333250805593e-05
3.0489513592291463e-05
3.7392503733277364e-05
2.987450714462805e-05
3.2701434367963235e-06
-4.038778493566908e-05
-8.948226204952273e-05
-0.00012297416324927475
-0.00011530183889154846
-4.635335075730014e-05
8.545881727150113e-05
0.0002516632622018903
0.0003903137807149193
0.000417087809403596
0.00025385422825679023
-0.00012922846804079672
-0.0006709769793427079
-0.0011965020180805324
-0.0014373989785019126
-0.0011097445913685557
-4.5014312893126406e-05
0.0016598803323618413
0.003536276528650801
0.004758937306453471
0.004345758290522149
0.0015506928645465043
-0.0036315868163329245
-0.010033119369098044
-0.015207136230702304
-0.015891299235228175
-0.00914126999719781
0.006035416928024172
0.027060775123128676
0.04699083927316625
0.0554146093497798
0.04158969274127946
-0.000431872731182261
-0.06606245893299519
-0.13631018355318186
-0.17881834790062118
-0.15624614295773687
-0.04232112253386223
0.15751415823067239
0.3876966458589317
0.5356509107814253
0.44487209688495094
-0.04888850963557901
-0.6644924404004358
-0.8214983412526196
-0.807148939531355
-0.3825560184651098
0.3664687133935996
1.146355541470809
1.1680505905118599
0.48688817586752664
-0.2069864416572061
-0.5445207832105528
-0.7978151345080449
-0.7946065900926188
-0.2568951070907359
0.21829079156990341
0.334970371258289
0.4452494176137092
0.4893582395476082
0.34983039625982193
0.033163242301219344
-0.3189203226287066
-0.5973502390633986
-0.48829126447113014
-0.04611288526736929
0.31421332281098424
0.4063330620453304
0.25261670693337346
0.0667558925079527
-0.15338203475599638
-0.2216819679292488
-0.1532330217813215
0.045880774197026304
-0.01678412429601631
-0.12280517169886314
-0.05173572549785455
0.2074793397854714
0.44737999012275614
0.24039359108994357
-0.051898020370569564
-0.46013445087013294
-0.5866943575023621
-0.39411756248984253
0.18943839810747168
0.8477917349083113
0.2468626526029904
0.2114075839231331
-0.08092100259663373
-0.2864872309040175
-0.6709148034647998
0.11554971406885921
0.05247689374409901
0.14958411012436001
0.035769561560082146
0.14343974883230248
0.09476842218793399
0.09430597497346023
-0.07061982691357108
-0.22324321670793928
-0.18823803029225
0.015488872765120919
0.17736253522417153
0.09339760838932887
0.1629755611694171
-0.012741190272771492
-0.2295809071944744
-0.2778544160346146
0.0583784470861106
0.19816845604413472
0.1574799405684279
0.14336860302850207
-0.04788087673347536
-0.2275240208198032
-0.20812432163346034
0.001864674264640285
0.199834321374443
0.1870555190501491
-0.034496884505648785
-0.06378565893545181
-0.09997462821077936
-0.14067933834504237
0.018686265580236387
0.1834470055423915
0.15700152552817975
-0.06089555341885875
-0.07327623494324276
-0.08282423142961862
-0.08854262376860354
-0.08460968701636463
0.13747277471029615
0.18434793840497404
0.056360897770438435
-0.05425105367240306
-0.1616017944554712
-0.08209978736090441
-0.03048865723429084
0.1823476994843716
0.15001176517876819
0.07121491754687309
-0.24842502989987147
-0.19417302075514967
-0.1421004023211462
0.1365804911573254
0.2671360772824948
0.2624634561216961
-0.08141649520270154
0.01730588377595616
-0.46516035404000505
-0.14834036671155143
0.15839903063035596
0.2553217359710579
-0.052924281868138585
0.23697566013287213
-0.07548959731648011
-0.19293243800809967
-0.11597383466927363
-0.04003497698127443
0.04443293148070631
0.14800974121830368
0.07673892787662533
0.027980217525587527
-0.010095664184022246
-0.05508001880614962
-0.12456349817649381
-0.03057599417089133
0.023550143153723446
0.04297416388498354
0.03842628349645396
0.022176696677915456
0.004540546576844696
-0.008083339925616865
-0.013471653562559631
-0.012583203683316814
-0.008018838432213182
-0.002576789215206901
0.0017030051391897603
0.003898594892151042
0.004081950977417519
0.002929869074459472
0.0012893799138298898
-0.00014990377811836142
-0.0010136482252802415
-0.0012441049593700008
-0.0010020488557123052
-0.0005364907833473098
-7.467160220503178e-05
0.0002407829789459685
0.00036525723042761196
0.00033006778554747366
0.0002048216877960168
6.166011207975097e-05
-4.8159934829108096e-05
-0.00010258014295407127
-0.00010491002414603548
-7.350579247628048e-05
-3.0554779158542054e-05
6.221935849423869e-06
2.7450699971965715e-05
3.1997965884862555e-05
2.4378453942000887e-05
1.138600996383636e-05
-7.538699572277024e-07
-8.069672057274296e-06
-9.327339882612818e-06
-5.635944955464165e-06
4.015692847402279e-07
5.6606916759494895e-06
7.4156056522066095e-06
4.143252220685828e-06
-3.845503622462617e-06
-1.4086868103028873e-05
-2.219373017258985e-05
-2.2876699277335966e-05
-1.1826833683158412e-05
1.1840687830788923e-05
4.336515055623277e-05
7.151908169176951e-05
8.040454875408656e-05
5.452987825717052e-05
-1.3392865477760019e-05
-0.00011416099573677613
-0.00021708644355511886
-0.0002726616363999552
-0.0002260252319456701
-4.087122162654471e-05
0.00027190920167732076
0.0006322141820865756
0.0008900394604693735
0.0008588259663340201
0.00038617300266717574
-0.0005512393739642671
-0.0017612409731972898
-0.0028057914262182067
-0.003074105127771713
-0.0019832871231828158
0.0007184499649174464
0.004635989277630632
0.008547439834450528
0.010527983954783372
0.008492982889998824
0.001136210406461714
-0.010970185348968918
-0.024564074563078603
-0.03374283768296969
-0.03136216763767377
-0.01190507307266135
0.02468683066615468
0.06945435174001968
0.10288748226111183
0.09710850561278565
0.022535543646957833
-0.14196656526320742
-0.19847734220215016
-0.12325820676954184
-0.06763359740984916
0.03218896180861706
0.238621393874449
0.19479083244673365
0.11151212153140563
-0.03618909644275102
-0.1019396902716139
-0.15311854987839377
-0.0534553033721256
-0.04847009251240431
0.042724816066732556
0.028266783966587973
-0.061892003033183846
0.014480096693127754
0.10074240258848603
0.03107181111532397
0.023215308882401874
0.07585452491618393
-0.02903181560805801
-0.11976667286680105
-0.026573369873575135
0.026397745152973412
0.026683232152433713
-0.02414816196025492
-0.11147977705043909
-0.011619837386087038
0.10193228096041536
0.05130345910866295
0.04821601841623442
0.09116074371646607
-0.03318236562253819
-0.14483428038177373
-0.06374894497358455
-0.004025950692451701
0.028909990039669063
0.03771960211352945
0.03017341754545476
0.01545342679194047
0.0011590373218285579
-0.00825318259019784
-0.011581807856521936
-0.010001058388208412
-0.005800901036017671
-0.001261594843028295
0.0020482160259214476
0.0034962020566730863
0.0032463148569415842
0.0019352651540025256
0.00033170007613154306
-0.0009185179065664982
-0.0014287549399636917
-0.0011086036591098412
-0.00013915541376811755
0.0010848193283658943
0.002039346811396252
0.0021930462717526206
0.0011747088293490066
-0.001030808387634437
-0.003917188361464759
-0.006417226821123308
-0.007090408722836717
-0.004590335807126337
0.0016435247557379268
0.010672831436193308
0.019663129015406587
0.02418389009713246
0.01946742379706647
0.002567234048235123
-0.025124476948624394
-0.0560381624408421
-0.07658713444126526
-0.07045478335391579
-0.025301166035341473
0.05824523521695808
0.1580836248325179
0.22655109697252693
0.19450413269645048
-0.014752944193849135
-0.2638343222172562
-0.3783066636683845
-0.3311980225714124
-0.04248054692016249
0.20425031642691932
0.3328397492662999
0.4439393372892726
0.7943682426503254
-1.0062805420030552
-0.5831093204174522
-0.1770080254773293
0.16891450891595006
0.21164653909423714
0.5026191991013645
0.3831574965949643
-0.010795984592579473
-0.5329647972940407
-1.0064652806387786
0.38975865102004686
0.11878251459562784
0.2671657261344742
0.3179935391358477
0.12679835389115643
-0.09112953911199966
-0.1595133191365965
-0.12910440662339787
-0.061187764351567066
-0.012679716788368968
-0.026562635564007692
0.07147022952791464
0.07144703845324617
-0.025062842102702924
-0.009470623993117364
0.13050704075734115
0.00932918588870782
-0.15635090825788078
-0.1472244700982312
0.0580382994522898
0.0801117570377363
0.13492924255105432
0.030207979630623397
-0.035410374516486307
-0.07003225129606075
-0.08420015916257786
-0.08673352151010365
0.11753353277146339
0.12773428188117844
-0.05434160224992134
-0.025454996822389657
0.0186485962277231
-0.1168251231691055
-0.02631312095581692
0.09442190886922124
0.04582687754410476
0.022438739088937208
0.012405345185689606
-0.0007140935775828266
-0.03427407427945533
-0.10223726814825121
-0.011768948503405617
0.03812365024127202
0.055701288809357465
0.054148251782601915
0.04898279894236616
-0.1440346114337733
-0.11074542048170295
-0.041130630149394214
0.06690368951536983
0.20342377898092046
0.14454637921608895
0.05544579221161226
-0.10069601851724429
-0.14982516618634348
-0.29496637212109383
-0.11044538944873349
0.05410753685328357
0.2604555877035374
0.1638224236792841
0.197153173701827
-0.03669371659844977
-0.16280091027332252
-0.22440246435971664
-0.07050628955685133
0.05410350697552677
0.11404508760849143
0.0844325536579824
0.15049597444423699
-0.09191935699340739
-0.23449153288462876
-0.054820774913863925
0.08245100243455353
0.020415221381236547
0.0013127764262333482
0.056952461274772596
0.0008422599831115896
0.024217035598899348
0.09735425016648638
0.17671003872359586
0.017284487672803873
-0.21207614964267713
-0.31484684101626226
-0.2602106901084571
0.011669904381343348
0.17190503307152655
0.2775887799079792
0.34806051559156326
0.15229226575050892
0.013352010047809143
-0.17040295775228856
-0.2941833871755652
-0.4164964303060434
-0.14060864636722978
-0.014491756128817847
0.25087299588748097
0.35192032201028123
0.3628890848672062
0.1169280044824572
-0.19626971706432472
-0.4177392276622773
-0.19899604933920806
0.016162267251461464
0.0010665842410394124
0.14555626690159648
0.24895261051897677
0.11235155654192343
-0.06501044568745719
-0.08369092455165662
-0.1382772737659656
-0.2122361549779218
-0.07763177865793766
0.09832039083103362
0.14139732085364579
0.2579170464789327
0.22766314348706643
0.006619217348567129
-0.26002819609453914
-0.2189459843707637
-0.29133935529061084
-0.06465769679021363
0.10302344776219453
0.26783659757715494
0.2807815724327428
0.1724779309802539
-0.05190885380088133
-0.20646701938863826
-0.3113016510424413
-0.17956717605105324
-0.011380174043194614
0.2027970897715986
0.2718830152332155
0.1931484773384196
-0.053329551749225594
-0.10171848305353033
-0.19052230151736937
-0.1505629503297204
0.0037953422668805035
0.07694909383691668
0.08792718095598011
0.06250051200351583
0.025077675204119083
-0.006888509935616517
-0.024910486524069273
-0.028348546414990912
-0.0214937853237228
-0.010313055921416611
6.893589530039486e-05
0.0066708219326273716
0.008797751752143021
0.007415336128893065
0.00423539856594075
0.0009055294937655674
-0.001482825045578363
-0.002531508548535173
-0.0024057829182526926
-0.0015761862998882393
-0.0005598498391142858
0.00025778825329956465
0.0006947650193764848
0.0007545875456216138
0.000557028512883723
0.00025810804632251885
-1.1816723342167788e-05
-0.00017921113581496363
-0.00022937248545642667
-0.0001894000675444731
-0.00010445713469370955
-1.7200236416086372e-05
4.4397734561360504e-05
7.018377098360137e-05
6.436402308586147e-05
3.9053326477778236e-05
8.003913586056211e-06
-1.7639109711888027e-05
-3.115834768694593e-05
-3.0296636867351247e-05
-1.6514556085057486e-05
5.741045558261657e-06
2.95493077887287e-05
4.618877944568238e-05
4.663724110298678e-05
2.43510782449439e-05
-2.093324867928016e-05
-7.96185330968004e-05
-0.00013096433573263818
-0.00014633609960213833
-9.825140404747743e-05
2.5726797028348432e-05
0.00020824394312029396
0.00039336510429941883
0.000491608477973585
0.0004044190551663274
6.735729061440387e-05
-0.0004983969518904676
-0.001146783879214321
-0.0016063161894037182
-0.0015409960204130675
-0.0006783461243327877
0.0010196190364872419
0.0032018872884307576
0.005076223042189718
0.0055444810266659485
0.003567785977146425
-0.001284925145208329
-0.00826927477846705
-0.015148849696474474
-0.018435272524058015
-0.01439861946656614
-0.000815649987502851
0.020942715337820238
0.044255213783766865
0.05699219282681526
0.043448337241635604
-0.011395204716584315
-0.1161735978857318
-0.06791272819038444
-0.0495738938199158
-0.03201777559564326
0.0195138103515149
0.1361079064049325
0.13610790609997073
0.019513809531895583
-0.032017776653605085
-0.049573894696335614
-0.06791272840757871
-0.11617359705607301
-0.011395202738395518
0.04344833999644513
0.0569921954287299
0.044255214872108393
0.02094271352570882
-0.0008156554600943089
-0.014398628004802466
-0.01843528168908017
-0.015148855335822414
-0.008269272073732927
-0.0012849105953824057
0.0035678120692739603
0.005544512497677813
0.005076247503879603
0.00320188861885163
0.0010195831565559881
-0.0006784231278733275
-0.0015411000666167372
-0.001606411698247222
-0.0011468188271342354
-0.0004983189652116657
6.757532857155679e-05
0.0004047509808038586
0.0004919568158932474
0.0003935677133634064
0.00020811638848874334
2.5140302976500435e-05
-9.927418489052822e-05
-0.00014754435622197596
-0.00013187027283205743
-7.960021257832762e-05
-1.9463231553960196e-05
2.7390949995480482e-05
5.066005471942759e-05
4.978254789669643e-05
3.0693924362561774e-05
2.4508582515950906e-06
-2.5192179938060974e-05
-4.321223895880598e-05
-4.4406733722459784e-05
-2.4884385558334738e-05
1.3816751992797116e-05
6.263895448546414e-05
0.00010441491547206516
0.00011651911252380687
7.7830394041437e-05
-2.0635466516701532e-05
-0.00016446638555346559
-0.00030924679150864096
-0.000384725475496121
-0.0003141189828733321
-4.7929216405726585e-05
0.00039592671039857347
0.0009018024190232036
0.0012565055705158067
0.0011976394912642074
0.0005142699251124928
-0.0008193017799319928
-0.0025233605295065
-0.003973301961447811
-0.004307126201555306
-0.002712155538456371
0.001146451280254538
0.006684536966958542
0.012155632795516779
0.014840818728146443
0.011830221269394803
0.0013546114566669023
-0.015671185585930024
-0.03453617037063263
-0.04686538985257181
-0.0426871373105905
-0.01460882533057182
0.03660027055282497
0.09672005851593503
0.13547925133789965
0.10892241337098281
-0.03224232985979311
-0.12957148926057835
-0.202796925565671
-0.23977999016798224
0.005225140567465369
0.6037232793324383
-0.36198368795940067
-0.016210812316569918
0.09442983541130857
-0.010483460658504605
-0.3510621813607404
0.8143209448224319
0.5998055659585686
-0.6869267185462206
-0.5166020476956281
-0.3124438146987029
-0.2383077609901419
-0.20850663740257044
0.8825505463963129
0.5222235749029284
0.14882337922055777
-0.05901544092980895
-0.16899030562996228
-0.2643419524941563
-0.4085969147625416
-0.21947811135026732
-0.06140082719941267
0.14114471775366544
0.27460894830689386
0.4025403827944775
0.13903995873039246
0.03861586619320827
-0.19464297456774854
-0.08236793265564703
-0.14006885188901047
-0.04774001973236209
-0.23086206414462465
-0.25659836080302956
-0.04617629738024517
0.29992810174529505
0.47190552114831197
0.5264284282986175
0.07795931905939375
-0.49114379193147173
-0.6075360470375785
-0.4836161491095684
-0.10713607161061632
0.5505901735430117
0.7131068746139121
0.3771661266037671
-0.09547947571239558
-0.36715467408947594
-0.4994908651217692
-0.3275985749779089
-0.04615973114740255
0.18598854948830068
0.2251999300300198
0.3157755843258808
0.2679829045155473
0.05063510002705939
0.0016472808562589876
-0.1469120177028285
-0.43840186979775786
-0.46760706339806635
-0.17354510946715182
0.1461409567808103
0.4028333022814133
0.47812114621895474
0.39349221657814215
0.10066023472190551
-0.30349902440191356
-0.5433866443328365
-0.32581474675249256
-0.11051154884693264
0.10038286057818872
0.15277828931764065
0.3177503943630722
0.2658356351144559
0.048198702826468647
-0.11005459381115788
-0.2050528707859206
-0.24331504697368242
-0.23216694373365557
0.023163942159198377
0.3148734740409819
0.42443672481816097
0.11794094949533111
-0.04945840030572402
-0.3194111104740587
-0.31202067580653214
-0.2119895268393184
0.03334860970939784
0.10183143194292768
0.2739889288359991
0.20844059030340178
0.12403679757908143
-0.005171806370573316
-0.04088191590615101
-0.06102333551056919
-0.3367104639631073
-0.31354465721126534
-0.0035260508404845394
0.21026078792401076
0.35944725575329356
0.2741513250253599
-0.02733071214441358
-0.13874120064084483
-0.2576814791031455
-0.37532828519057665
-0.07122383148172652
0.28287622278745606
0.31163544262934306
0.22349457845256065
0.003992963260919933
-0.18102081003339351
-0.17375525739055128
-0.21006299480053195
-0.10875171451843897
0.13133276702751545
0.3265673164652009
0.09986815954967955
-0.12716676490702863
-0.13845522013746211
-0.12437742915896055
-0.08184460404039633
0.1847506691853853
0.2622762311948875
0.12986557288117323
-0.035391951336406546
-0.24831576122167245
-0.3049294764541734
-0.17712775678745474
-0.01737030485093062
0.22633792202053443
0.39028093082497134
0.27823640688177753
0.056086516198483434
-0.13874827404121245
-0.37627544996303947
-0.30989749614976536
-0.15938223903053914
0.09243600524931901
0.2887965694051865
0.27973611750993355
0.10318124374729838
-0.02611193116070302
-0.11680276981998305
-0.1924804928378952
-0.07966339848333949
0.002300308742178479
0.04614596286117155
0.056069237996406375
0.04342890852706383
0.02139931648328578
0.0006994461258748094
-0.012563681637084594
-0.016956885315249685
-0.014379457989366958
-0.00821581882787438
-0.0017232544271329638
0.00293989147194126
0.004983177505075658
0.004726848244537344
0.0030928177603563194
0.0010953093951892418
-0.0005098965521447811
-0.001366566286105618
-0.0014825475669686305
-0.0010937059599073866
-0.0005066786312603349
2.2716181084507785e-05
0.00035057994269700504
0.0004487004015484557
0.00037086267172227065
0.00020596438998832012
3.740067983197076e-05
-8.09190341403206e-05
-0.00013055198392261804
-0.00012124721667838281
-7.755170775806383e-05
-2.5721222287508258e-05
1.5094501235620395e-05
3.621337094647794e-05
3.828388198314233e-05
2.7656134607255824e-05
1.23077260332337e-05
-1.2415947981277189e-06
-9.427551776709851e-06
-1.1667351259737461e-05
-9.446427265863815e-06
-5.0956488780867875e-06
-7.53968596384927e-07
2.228114005534019e-06
3.420137375175736e-06
3.108018349266646e-06
1.941757611342665e-06
5.989455266209042e-07
-4.367918320957427e-07
-9.554905886752193e-07
-9.858720693225683e-07
-6.986447345210574e-07
-3.008657331282563e-07
4.238885502137331e-08
2.445342247063372e-07
2.959404457682939e-07
2.3856397140293605e-07
1.3323172174577432e-07
3.2480771570669993e-08
-3.432921157405769e-08
-6.2898717902333e-08
-6.626453344122896e-08
-6.269844928309127e-08
-6.438273549357021e-08
-7.075265651172502e-08
-6.857166775843943e-08
-3.878160138632214e-08
3.188976243382233e-08
1.3850058430383615e-07
2.4995763385270117e-07
3.1102389189447343e-07
2.5786184114989044e-07
4.6407447393499254e-08
-3.13397520554631e-07
-7.309908953011374e-07
-1.03346286673796e-06
-1.0036546964974023e-06
-4.6212061151255097e-07
6.22153955591477e-07
2.0301887195190596e-06
3.2559056370128034e-06
3.5890835695248357e-06
2.347075666008338e-06
-7.726233210051748e-07
-5.322589588559447e-06
-9.89069535046331e-06
-1.2236137191741104e-05
-9.912816570429764e-06
-1.3557102981991926e-06
1.2836429658925892e-05
2.8940229609027284e-05
4.0129030465036027e-05
3.803597214057668e-05
1.5983378564406764e-05
-2.674589345003759e-05
-8.10953652340865e-05
-0.00012702528016228862
-0.00013701368409233374
-8.527719885456086e-05
3.851262080781135e-05
0.00021516736819454627
0.0003883033020010457
0.0004705350628048682
0.00036854071808497857
2.559951311145648e-05
-0.000529216807928222
-0.0011455718413092384
-0.0015555371649023134
-0.001437280481516491
-0.000542138263619948
0.0011409050514584196
0.003242922235024841
0.0049783123532711115
0.00529351932691605
0.0032360850277346497
-0.0015097800613139434
-0.008089601990443254
-0.014215982340749457
-0.016476659110347357
-0.011422706827800862
0.0025846557598149826
0.023120366530634796
0.0417003690038669
0.042836910717330264
0.004716580955015663
-0.09851931968164904
-0.09363639529206168
-0.005395639733344616
0.14553730488182423
0.14440636919124789
-0.014727918909341865
-0.12407298436914105
0.04409476900383279
-0.057459210681334805
-0.14985686726484132
-0.13343506248055972
0.09958093826707244
-0.1538417297862099
0.17077996154161793
0.28651082254692495
0.3450892233971541
0.0410608025854916
-0.16885313426443782
-0.4355080731732951
-0.28524268538074365
0.0040953225447802255
0.41268124193704436
-0.22649095369588385
0.15691186382501573
0.05064932783436384
-0.05978031079391897
-0.30769355557591316
0.5431702079766201
0.09357641434733363
-0.08818589198933954
-0.05486105143789482
-0.06275302296739681
-0.1531975810403508
-0.13864803564698014
0.0023283423013552985
-0.08052471680370618
0.07608850360693903
0.12919470286402535
0.110490276395466
0.2140726850549142
0.19552456573244179
-0.016152641327515226
-0.29641967641213085
-0.29967652071733486
-0.23935765305147685
-0.08140539087451053
0.04589467015434558
0.42908471186655806
0.3422074882413011
0.025033098162306165
-0.12595810662741924
-0.152450100819652
-0.11921629820888201
-0.09587760986591702
0.05858607740004302
0.10546347679405746
0.029793633947680566
-0.16105167736573678
-0.042371016994741585
0.02013087594808338
0.060880876781676044
0.10518655345912026
0.1629306955158616
0.0276278947042541
-0.11841714408460383
-0.09455609782069274
-0.11160238123383343
-0.1652678652326675
-0.03613004418990576
0.10372043431783314
0.28033187971490725
0.30905353939991786
0.19235077633189432
-0.27371859588944386
-0.6876758778869845
-0.43334073077735713
0.5187681552914182
-0.4032814367815606
0.8048879347715526
1.1060069570542723
-0.18052106242776045
-1.1590698769787606
0.07654038172032505
-0.5232957993973489
-0.34665556876152237
0.4735125799029163
0.43305755603013596
0.42251803487685513
0.09972382633627473
-0.12079260735372656
-0.2599506335967676
-0.1541383915334283
-0.2332022841452008
-0.1055319292055001
0.044899449070542705
0.2500101669846235
0.14249553686955482
0.14102676715030488
0.04162658983575128
-0.18228403582858116
-0.17259770312930323
0.023973892298826092
-0.0346784684212323
0.019789700496111038
0.16833954853876867
0.004477589746016967
-0.06640414160618895
-0.02756805278992456
-0.05189224385697087
-0.10441919640820037
0.05275683662138825
0.05369391312023627
0.12165118569601534
0.0644832597537726
0.07449478014584994
-0.06668213741977856
-0.17974877342238663
-0.07923115429219794
-0.16848472376173823
0.15948824245364063
0.11576201313657344
0.10668344715913608
-0.07343795047394773
0.15500043985568257
-0.04005316388382429
-0.09453601917811279
-0.03827509566331445
-0.08594080708186459
-0.031841373397689325
-0.050224587106330064
0.0989773470949024
0.06067748883402042
0.07419834175968192
-0.03533146867867287
-0.06189778772779896
-0.01931708733443324
0.06188839427588073
0.14099976430771977
0.17674845936489153
-0.06059418202973379
-0.3770312378995549
-0.3470294264096072
-0.11516832508281184
0.1903338566363672
0.43531039063196797
0.45695235823977476
0.050598208041711855
-0.22803071289070156
-0.446575758691185
-0.2737821218109898
0.03884917930056788
0.26515577455050626
0.20207846791678064
0.061791844616211365
-0.1363545278921411
-0.17125527088242956
-0.023191577788576286
0.12362228892771594
0.07833153646852804
0.041452967871489436
0.005093759081533308
-0.04401489344024441
-0.11958186764990816
-0.030881285583931863
0.02012313445181081
0.0387408389202406
0.03506998781295979
0.020462633242160806
0.004422890024287487
-0.007142336605605392
-0.012148540879997836
-0.011428450199872514
-0.007329812771598437
-0.0023971037325597852
0.0015043297173509146
0.0035223563364198125
0.0037105818365301964
0.0026773127679734824
0.0011907108872319897
-0.00012046083247592968
-0.0009123424887844171
-0.0011289343475508796
-0.0009140353439772891
-0.0004931218045151716
-7.308505903185126e-05
0.00021543983803653431
0.0003307984559177187
0.00030062659198431987
0.00018778641670547742
5.782858847453164e-05
-4.243438309050639e-05
-9.264293516045614e-05
-9.55234910353039e-05
-6.755945064912907e-05
-2.879870867939245e-05
4.706954429718072e-06
2.4439631955420588e-05
2.9304489533409597e-05
2.3244937904156185e-05
1.2162599920990514e-05
1.3578377530400098e-06
-5.902219318627397e-06
-8.655696686589667e-06
-7.699223094782198e-06
-4.693610373398378e-06
-1.3285112405362515e-06
1.2150838128389433e-06
2.4462457926921124e-06
2.463596302635155e-06
1.7077787074917896e-06
6.98162719272547e-07
-1.5820031614477753e-07
-6.52186700525252e-07
-7.646914876005484e-07
-6.020160443914742e-07
-3.157045693364297e-07
-3.790850389440308e-08
1.527791865546562e-07
2.3511987442006793e-07
2.28487760748886e-07
1.6875697325906054e-07
8.810212980386982e-08
5.1469141562155985e-09
-7.365685379385624e-08
-1.4509730053810822e-07
-1.9899220392177218e-07
-2.1323302424426834e-07
-1.5857932409213304e-07
-1.3765294216005504e-08
2.1352325803922976e-07
4.6894081485593564e-07
6.486979298249498e-07
6.216991332282323e-07
2.794586308331619e-07
-3.955841708632446e-07
-1.2670848031128925e-06
-2.0217018961264135e-06
-2.220504090438192e-06
-1.4426220465030712e-06
4.963688524333069e-07
3.3158264241354632e-06
6.13806312104549e-06
7.574200077756618e-06
6.11195047005073e-06
7.894019909040224e-07
-8.011328289422599e-06
-1.7972172664829964e-05
-2.4857752322436823e-05
-2.348977783476997e-05
-9.75174238254819e-06
1.6766051959255714e-05
5.041300287943403e-05
7.874532205227916e-05
8.47155861403443e-05
5.240194159958557e-05
-2.4491978597819322e-05
-0.00013394714715725875
-0.00024092153176408647
-0.00029125625891224775
-0.00022727028273130832
-1.4142695227174125e-05
0.000329657348195997
0.0007105398718210527
0.000962311927159798
0.0008859354744943131
0.00032854699943215843
-0.0007144138708036941
-0.0020108808746403576
-0.0030691734082628286
-0.0032295739464464073
-0.001891790388856328
0.0011550110419171007
0.005402870699396018
0.009459363152552972
0.01122260994639489
0.008508951918028085
8.71022015265508e-05
-0.01315509693155263
-0.027411307186030916
-0.036138307124927736
-0.031714519622180644
-0.00865054479424116
0.03225923477965015
0.08021315220447703
0.1129658434720676
0.09936030482973086
0.006388617593283646
-0.19062842223140755
-0.2982794640683804
-0.1002875979608467
0.03894381097779801
0.16264075305364206
0.306147396225222
0.28433308019965237
-0.11222329108298247
-0.31039713833727045
-0.14021015034893294
-0.01942214129853121
0.057031068199346134
0.11994537515394325
0.021556494309188372
-0.1740104152354913
-0.20387028989204797
-0.021941228974876742
0.18493950841921386
0.3843819115306376
0.29520011339926955
0.19870423441552795
-0.2347736270838802
-0.5101965904635175
-0.47489748556020306
-0.3017070098407996
-0.0966915478764079
0.4693717130662334
0.716795685898639
0.5172475232664524
0.07450915023822273
-0.2668832709505028
-0.5900604604051828
-0.5661578819809394
-0.22412088093136695
0.2579697441751914
0.3385435966931094
0.28375791800946526
0.13781069674176266
0.10428682847333053
-0.05539855791792802
-0.0070878139035783294
-0.0182296466029851
-0.1299960005979653
-0.5364123997016589
-0.37867602222503033
-0.15938976640626157
0.4250377661562505
0.8438840691410824
0.699754466049706
0.120047075952345
-0.42117800860224963
-0.8584022510539359
-0.8860372165265605
-0.12754799834378727
0.4647630134820251
0.7816116267927925
0.5158911243295549
0.12898163700784804
-0.3624258639047701
-0.37785582114233457
-0.3523099895239234
-0.11632540202689369
0.11369204470813375
0.332828549970558
0.13751454249448347
0.11568585948822663
0.0436243523290926
-0.10842402625406787
-0.16433117665924818
-0.12931215984534356
-0.18226749179985743
-0.0773733868302463
0.04445346381032076
0.23764043491223097
0.7342313911723558
-0.46625468894224303
0.005209709521359066
0.10054444146630191
-0.22646783457901104
-0.8033638246842567
0.5691449415372049
0.11386474432315079
0.06469349625069044
0.05124713286439852
0.08695777697994342
-0.035589949755866136
0.05854322542645702
-0.06394201156120174
-0.03204349143298759
-0.058553356483585305
-0.13255088519891547
-0.21928819252899673
-0.06882539474520685
0.1678612971914243
0.31986111841213294
0.3815645574591514
0.10929218140296386
-0.16726407820876807
-0.3216714678443916
-0.4041830514776785
-0.2228485056654431
0.059688786280076206
0.3123566187543289
0.21061335683565402
0.2103183201846821
0.13027648095667926
-0.05101366443811588
-0.18466310473612646
-0.1319413171946292
-0.14376655913937644
-0.24635804433756436
-0.03733086394792391
0.30779517980367427
0.6230068830862198
-0.26014340966634086
-0.11844612384010003
-0.1362201019122795
-0.30185723701248274
-0.407234144879445
0.5472068179149008
0.5440658501664393
0.344153773022673
-0.10767249504864528
-0.464441996635708
-0.5534979266570798
-0.3594299937372823
-0.02384615548086897
0.535720839559872
0.5954625658999354
0.3975071810636263
-0.06237502319511815
-0.4266873101451582
-0.5533093907916788
-0.2902435402965544
0.139880442109363
0.3402065443436743
0.3283065835757079
0.12180538709971188
-0.07076625898865706
-0.25055938151400214
-0.2227792359176679
0.009768328294949051
0.04933993437244386
0.10084368697114944
0.166474740658981
0.04104505965293901
-0.08911960878037341
-0.043051074521391744
-0.03934456368690433
-0.09036128821776288
0.0012401011746396011
0.0425660856220066
0.04753399707167257
0.03237473949623489
0.011379856269586298
-0.00579360386144901
-0.01482325374096537
-0.015781981852572784
-0.011337439114044029
-0.004892856654852129
0.0007738787414590989
0.004155744283106737
0.005020420630844291
0.004012611998354892
0.0021286518761997127
0.0002748933440583628
-0.000983073229670825
-0.001472370519154377
-0.0013229262370031622
-0.0008159653018647706
-0.0002408548958267224
0.00019807295358629406
0.0004139907520983069
0.000421491792980808
0.00029479244520983356
0.00012269432596167054
-2.4461062403916326e-05
-0.00010994557540430713
-0.00012975145039361455
-0.00010182359528008146
-5.240127069194514e-05
-4.789689440407674e-06
2.682964256720271e-05
3.8470322336667885e-05
3.383985409786927e-05
2.0357882953880822e-05
5.4792346968062674e-06
-5.643610177443104e-06
-1.0921629875410113e-05
-1.0855582721436754e-05
-7.4287328451442185e-06
-2.943951599472921e-06
8.117552849946308e-07
2.935023888711719e-06
3.363296486861562e-06
2.5855331215745876e-06
1.2871903749201827e-06
6.431306580184036e-08
-7.294901680070443e-07
-1.0042736054081673e-06
-8.649686369016707e-07
-5.070926918024727e-07
-1.2251320667099063e-07
1.5904100704796237e-07
2.8761139027476635e-07
2.792914629487207e-07
1.8695009009657787e-07
7.023947123271028e-08
-2.5497183963199137e-08
-7.810968154330582e-08
-8.702994058622368e-08
-6.552286235496258e-08
-3.146967992357845e-08
-9.673660680368278e-11
1.9797436038954888e-08
2.6225037598217668e-08
2.212752804047742e-08
1.26480797810085e-08
2.7192025097367916e-09
-4.397970181913052e-09
-7.516753360431267e-09
-7.133084691070073e-09
-4.652916489075697e-09
-1.6195910510920367e-09
8.178706256948935e-10
2.1182438155974933e-09
2.2936476681275398e-09
1.7025444102640207e-09
8.10763356040399e-10
6.8117460448212145e-12
-4.908742655128178e-10
-6.39583031208964e-10
-5.211091908692061e-10
-2.7052169906931095e-10
-1.4480310350676826e-11
1.6517177163921135e-10
2.404693002051615e-10
2.2625797533869228e-10
1.5984237807725573e-10
8.110518034069564e-11
1.9123883589504093e-11
-1.2927963707925158e-11
-1.6047707805282395e-11
1.1182778941309172e-13
2.3431158206499843e-11
4.400920879817005e-11
5.64359853864583e-11
5.983014850403779e-11
5.6450639081715974e-11
4.9838981289965765e-11
4.324390328005626e-11
3.8715834066218854e-11
3.690761537150605e-11
3.738420602047401e-11
3.915787242997367e-11
4.119916812740534e-11
4.277325945219718e-11
4.356086795258949e-11
4.3605219501664153e-11
4.3165442926939095e-11
4.2556486397832244e-11
4.2030415692841805e-11
4.172090421727063e-11
4.164501170230613e-11
4.174065748321203e-11
4.1915002218932936e-11
