0
6.404170374015699e-19
6.404170374017995e-19
6.404170374019932e-19
6.404170374020346e-19
6.40417037401815e-19
6.404170374012909e-19
6.40417037400544e-19
6.404170373998132e-19
6.404170373994678e-19
6.404170373999017e-19
6.404170374013535e-19
6.404170374036985e-19
6.404170374062994e-19
6.404170374080231e-19
6.40417037407511e-19
6.404170374037176e-19
6.404170373966078e-19
6.404170373877607e-19
6.4041703738052765e-19
6.404170373794104e-19
6.404170373885091e-19
6.404170374092695e-19
6.404170374382292e-19
6.404170374658756e-19
6.404170374778217e-19
6.404170374590673e-19
6.404170374010352e-19
6.404170373095272e-19
6.404170372102091e-19
6.404170371474939e-19
6.40417037173534e-19
6.404170373270128e-19
6.404170376062625e-19
6.40417037946665e-19
6.404170382159586e-19
6.404170382401568e-19
6.404170378650729e-19
6.404170370438e-19
6.404170359220943e-19
6.404170348783725e-19
6.404170344722645e-19
6.404170352739985e-19
6.404170375895341e-19
6.404170411563901e-19
6.4041704494305895e-19
6.404170472109866e-19
6.40417045960972e-19
6.404170397671226e-19
6.404170288123269e-19
6.404170157319096e-19
6.404170057383655e-19
6.404170055484143e-19
6.4041702094597685e-19
6.404170533903259e-19
6.404170967867705e-19
6.404171361056768e-19
6.404171496032324e-19
6.404171156400802e-19
6.404170234062229e-19
6.404168845340854e-19
6.404167403921182e-19
6.4041665895737215e-19
6.404167167596088e-19
6.40416966130279e-19
6.404173953671676e-19
6.404178973343372e-19
6.404182668680061e-19
6.404182449866494e-19
6.404176152843912e-19
6.404163352920422e-19
6.404146583649457e-19
6.404131805305126e-19
6.404127456523958e-19
6.404141734107346e-19
6.40417841311784e-19
6.4042324199443345e-19
6.4042871966268565e-19
6.404316195052988e-19
6.4042901617638035e-19
6.404189984331701e-19
6.404021996486574e-19
6.403829626475269e-19
6.4036935256269255e-19
6.403713427319254e-19
6.403970072340649e-19
6.404474394451089e-19
6.405121613860343e-19
6.405675710912515e-19
6.405809565245279e-19
6.405213289071773e-19
6.403756947925654e-19
6.401659045250515e-19
6.399581084030485e-19
6.398558696567609e-19
6.3997084220103935e-19
6.403724416083425e-19
6.410291193896156e-19
6.417653080016291e-19
6.422643506516173e-19
6.421426630390382e-19
6.410999239826897e-19
6.391154077401093e-19
6.366204838949049e-19
6.345484405996879e-19
6.341658720336238e-19
6.366419385490806e-19
6.4241562924579675e-19
6.505556060089515e-19
6.584238037427922e-19
6.619848803278768e-19
6.569838848460023e-19
6.40915708216277e-19
6.152753096512881e-19
5.871427367689436e-19
5.689357057976417e-19
5.753880700005537e-19
6.176330624176903e-19
6.956267214451625e-19
7.916819657172203e-19
8.689445008768015e-19
8.784300519238978e-19
7.76124101805734e-19
5.47557659796633e-19
2.320869865729366e-19
-6.526005362322017e-20
-1.8742582985661526e-19
2.747584380706727e-20
6.691818492660133e-19
1.6691780794627709e-18
2.7426106766322855e-18
3.40309697711364e-18
3.0854503048194406e-18
1.378474111302429e-18
-1.6830121285062713e-18
-5.376451072337377e-18
-8.248452737863221e-18
-8.406854009643498e-18
-4.1985340392016246e-18
4.837149731430031e-18
1.7049197049704077e-17
2.8262945328870154e-17
3.2372608625547666e-17
2.3229437858257553e-17
-2.3529992318632312e-18
-4.130906491853376e-17
-8.220295917353259e-17
-1.0600619147510818e-16
-9.106813944287481e-17
-2.2263908770194203e-17
9.776410470783892e-17
2.395957505846548e-16
3.4598927858205014e-16
3.4394261128844474e-16
1.7152233369418323e-16
-1.8518978142215915e-16
-6.573681108660603e-16
-1.0793346237307085e-15
-1.2139919352676345e-15
-8.282152700114807e-16
1.8995351814328125e-16
1.7058020367475676e-15
3.2611608834364704e-15
4.1124535144362e-15
3.43148534607249e-15
6.644784069716378e-16
-4.0357367435863575e-15
-9.474901245131555e-15
-1.3401403492038632e-14
-1.300219460789364e-14
-5.963235287306884e-15
8.100462278685517e-15
2.6335424021274706e-14
4.21762550608367e-14
4.642667365876382e-14
3.026456041085749e-14
-1.0193162974142246e-14
-6.911010843551554e-14
-1.281652218534768e-13
-1.583352497158866e-13
-1.2798604618635115e-13
-1.694702153785886e-14
1.6689461545631584e-13
3.7519520376059517e-13
5.194971001690407e-13
4.915388408611474e-13
2.0511363875814732e-13
-3.4864510183902787e-13
-1.052003518913593e-12
-1.6451658845164233e-12
-1.7718496270151561e-12
-1.0988640072651256e-12
5.062841167239022e-13
2.793604116628021e-12
5.031816156715452e-12
6.089384228079852e-12
4.759836901322339e-12
3.1284388646757467e-13
-6.8694966376549916e-12
-1.4835275099244012e-11
-2.0113540428122038e-11
-1.8543150073652867e-11
-6.922849370739049e-12
1.4853942362446824e-11
4.1950362196969996e-11
6.410047107436077e-11
6.751729409840277e-11
3.964357803655483e-11
-2.3945993820594247e-11
-1.126438958543849e-10
-1.973118170047544e-10
-2.3388471633303727e-10
-1.7642295228054238e-10
1.3358898965234938e-12
2.816131228087433e-10
5.857878016710331e-10
7.778278458069058e-10
6.980059574131992e-10
2.2786274518498194e-10
-6.274611280033447e-10
-1.6700170562698926e-09
-2.494689513066858e-09
-2.5685983621360592e-09
-1.4195534899394383e-09
1.096014816073776e-09
4.531560595472379e-09
7.727966883389491e-09
8.971181659390736e-09
6.514832830484907e-09
-5.778869226668382e-10
-1.1502647711470463e-08
-2.3099761060236095e-08
-3.0044209609421754e-08
-2.6213090010162725e-08
-7.239975008879405e-09
2.6313717398889698e-08
6.637512700376057e-08
9.697853209950929e-08
9.755229053105271e-08
5.038350586078685e-08
-4.8993425538801516e-08
-1.8190694320769528e-07
-3.0232048524321014e-07
-3.43636661181853e-07
-2.39583533757449e-07
4.293644334250863e-08
4.6827989852913175e-07
9.097288944419496e-07
1.1590773664215983e-06
9.819406809274778e-07
2.1806985829574733e-07
-1.0966441390091547e-06
-2.6340124313871758e-06
-3.765626984775637e-06
-3.6982951751973745e-06
-1.7692936418897203e-06
2.151301069428035e-06
7.28733038005918e-06
1.181314108453874e-05
1.31441420951908e-05
8.770028049778e-06
-2.46497763310482e-06
-1.9006324085487204e-05
-3.5782087432477176e-05
-4.466092067372124e-05
-3.6683559583780024e-05
-5.997592036616685e-06
4.5454995701679767e-05
0.00010437064814880651
0.00014604568224644985
0.00013993342272204998
6.130626082466498e-05
-9.318111985062793e-05
-0.00029143262767871965
-0.0004611567571487727
-0.0005021600259768487
-0.0003195210731743409
0.00012658991083847938
0.0007693483596820057
0.0014063876289488809
0.0017210138524893957
0.0013721892664209708
0.0001488949180192933
-0.0018498217776766618
-0.004083038538200489
-0.005577740355109839
-0.005158609362603683
-0.0019146781737741138
0.004184703846004252
0.011732094240098176
0.017674464796255472
0.017734623814451577
0.007579450094992197
-0.01545606834387589
-0.050655400818450325
-0.09304302082752461
0.06593674515965844
0.03607122263159327
0.02512867253475694
0.03606465566120452
0.06592691846386799
-0.09305043973980306
-0.05065422625663143
-0.01544211501918901
0.0076057110877422495
0.01776619939674158
0.017697940540134585
0.011730716368885574
0.004144681121719091
-0.001995805472779977
-0.005264364082935254
-0.00566998717592435
-0.0041082885892582575
-0.001756694907031965
0.0003831581404162988
0.0017139498182773133
0.0020641206940344415
0.001582424700455582
0.0005944886092009002
-0.0005167814763852808
-0.0013864461553140096
-0.0017129220605880365
-0.0013028319436333062
-0.00013512863644460035
0.0015638361081028816
0.003275749307365911
0.004237958410513111
0.0036356564706719456
0.000943498635716722
-0.003658479484779366
-0.008958379464663971
-0.012696517639542283
-0.012062146674967144
-0.004777857171040296
0.009383096319408967
0.027073203912416313
0.04046406333969107
0.03755457356117896
0.003932273137441424
-0.07445115188582024
-0.20867077612700724
-0.005837591382819029
0.12959144094488895
0.19328478729205031
0.18002338420445446
0.08692678809042272
-0.2786676161890029
-0.28984549436725215
-0.2950894687556337
-0.02296473929516203
0.20212949619142165
0.4376199146872875
0.30273439600648944
0.16997351431486393
-0.22722796695012232
-0.3731832115958803
-0.3438115710985591
-0.18656613087520166
0.08592347472396834
0.2876459562342979
0.4424217401879862
0.16797362039333077
-0.13125137259482486
-0.260176253547464
-0.22211668867367038
-0.20828058619953535
0.00563287868047846
0.25346071956826105
0.16608884537235047
0.15857410130283317
0.022945754087629958
-0.07023021957137349
-0.16252614300213464
-0.09470677504269101
-0.09527552600097598
0.025628804360544807
0.07572549291479075
0.0748613338183204
0.04703948398702022
0.013295155384312467
-0.012581522756025702
-0.024993479605110717
-0.024901171307030276
-0.016929563334833468
-0.006496037582745746
0.002203229448004496
0.007063280593942446
0.007959394693627959
0.006056433898378626
0.0029694094714348405
9.25207956465055e-05
-0.0017558659074775962
-0.0023777572198833774
-0.0020299012501616906
-0.0011769622861492982
-0.00027038449169024844
0.00038747383929490023
0.0006828513419484151
0.0006567885877442266
0.000435478770376128
0.0001596464643948876
-6.466859078767616e-05
-0.00018643745409424971
-0.00020534979040503254
-0.00015328308960691237
-7.254080418397212e-05
1.1681498728943172e-06
4.744249434169676e-05
6.192835299535553e-05
5.178332200197414e-05
2.9216833904248215e-05
5.827601833068387e-06
-1.0788861846724869e-05
-1.7938500205811193e-05
-1.6868673701964253e-05
-1.0931672534217963e-05
-3.7663288915216433e-06
1.941898762479129e-06
4.948182461152256e-06
5.307405926413482e-06
3.879716731799768e-06
1.7665682952666968e-06
-1.2136350706358596e-07
-1.2780869837526186e-06
-1.6114508666320372e-06
-1.3198918787372467e-06
-7.238354340761386e-07
-1.2097715251297592e-07
2.9819841330911914e-07
4.7044122673377117e-07
4.3273043080598405e-07
2.7393302410279097e-07
8.803648027722826e-08
-5.703948179793635e-08
-1.3104831386933865e-07
-1.3701238504193666e-07
-9.806214768547694e-08
-4.283855681398993e-08
5.4616999324392665e-09
3.4320049592961224e-08
4.187798512860775e-08
3.360156635384108e-08
1.7886934575216288e-08
2.3660775206145053e-09
-8.192374010135843e-09
-1.2318526201045256e-08
-1.1088074198079631e-08
-6.8519769428171424e-09
-2.035013602093831e-09
1.6474353338602448e-09
3.463752444590213e-09
3.532922022940954e-09
2.4750345157410333e-09
1.033889604007741e-09
-2.0037293933898004e-10
-9.188601159689097e-10
-1.0869546978636966e-09
-8.543781258081481e-10
-4.408025151165011e-10
-4.166111042469662e-11
2.2388987770074855e-10
3.2211170256956245e-10
2.83830578364926e-10
1.7111070299585835e-10
4.642768270018147e-11
-4.696213238519141e-11
-9.144620565155854e-11
-9.11216514380796e-11
-6.253588405360247e-11
-2.494912707618197e-11
6.664639804956873e-12
2.4698320205166653e-11
2.8552909300107133e-11
2.2220494506317873e-11
1.1330691988496764e-11
7.939978940351061e-13
-6.429170792384607e-12
-9.460277526317763e-12
-8.912289617388238e-12
-6.061323812108455e-12
-2.1760674731482263e-12
1.7944997475139728e-12
5.185342587377836e-12
7.398551112162215e-12
7.735906922316664e-12
5.47175016070644e-12
2.30345901416847e-13
-7.443937960680749e-12
-1.5603146315423875e-11
-2.0868569215875337e-11
-1.917530865687661e-11
-7.367405329083313e-12
1.4675284440998706e-11
4.215146739213955e-11
6.479088084651333e-11
6.870653085989999e-11
4.11294153460796e-11
-2.264067350153218e-11
-1.1221723204084481e-10
-1.9847063266494916e-10
-2.369920172856743e-10
-1.8110513965307939e-10
-3.554445185049564e-12
2.7878565526902096e-10
5.876067608107779e-10
7.860957327449801e-10
7.123985571801807e-10
2.4485033801661947e-10
-6.147377873102984e-10
-1.6703002122742676e-09
-2.5153888366755154e-09
-2.611364809090173e-09
-1.4761218700459122e-09
1.0455092543989937e-09
4.515525729778396e-09
7.774312551226188e-09
9.093275844575176e-09
6.696472756110225e-09
-3.9165388827082737e-10
-1.1400934205829313e-08
-2.3181750959272312e-08
-3.0376123989276854e-08
-2.677641944156014e-08
-7.891421026997118e-09
2.5844053663306425e-08
6.642421650682922e-08
9.782328308566719e-08
9.923822074883022e-08
5.2568004326960355e-08
-4.709753549136093e-08
-1.8140150844693017e-07
-3.0426165669214956e-07
-3.48487879789899e-07
-2.466431109925139e-07
3.586579769995193e-08
4.64676304768676e-07
9.133806544866188e-07
1.1723960577133965e-06
1.0039735929657e-06
2.430167689649119e-07
-1.0793861528583728e-06
-2.6374113141437297e-06
-3.7999975912222486e-06
-3.764675984146087e-06
-1.8535506785100146e-06
2.08031531216245e-06
7.272302056121195e-06
1.1893955858204248e-05
1.3336603258086531e-05
9.044090211409545e-06
-2.1970136182406352e-06
-1.888005538581917e-05
-3.594198594776037e-05
-4.5194285783993687e-05
-3.7544310700253155e-05
-6.951560098932059e-06
4.4823837766451935e-05
0.00010456071562835168
0.00014743997105746818
0.00014254376896744183
6.455207508053367e-05
-9.053058948694931e-05
-0.0002910291327812396
-0.0004645033965439259
-0.0005097842082137039
-0.0003301482789390361
0.00011645391694534678
0.0007649838976481378
0.0014132955634616644
0.0017423326770947389
0.0014057772040875283
0.00018532059830267552
-0.0018268624671940869
-0.004092676631736539
-0.005634146510323504
-0.005261131143505065
-0.0020395578187370074
0.004086032145575008
0.01172346941422938
0.017812402537740996
0.018036213267424033
0.007991046313411937
-0.015073465689426135
-0.050507191999996204
-0.09333832665353789
0.06508597660557822
0.03476178460005543
0.023739565186278334
0.035234146633068494
0.0663885873192679
-0.09077364554268913
-0.04662942563674611
-0.010634854844379066
0.011287723453662035
0.0178695721806759
0.0121207807831799
-3.110898570306905e-05
-0.011526065026741465
-0.01602717882173538
-0.009689167639544305
0.0073065484187409815
0.0297698682738996
0.047604687620144984
0.04755456083374111
0.0167987224163666
-0.05215958486446657
-0.1568233077538333
-0.08238478336295317
-0.003578742202072677
0.1089659093819556
0.07962887573618975
0.11922728605637964
0.02028544706916416
-0.041996904542685745
-0.10340234071240198
-0.001152037111358708
0.03592468041175824
-0.005002204930962818
-0.11699374048346045
-0.07429151185048928
-0.03825286522989839
0.03247344570250804
0.16981415985242374
0.18586697121822407
0.06815771957081529
-0.01704194403397333
-0.11391779976834052
-0.2625509192267137
-0.0860213162303578
0.01603539529116025
0.06539899687438068
0.0962536690389014
0.14321206786026086
0.03094315246905875
-0.03132811161729203
-0.04947728823075661
-0.03952122915824355
-0.02050630749517078
-0.007749128690242169
-0.008193475585605271
-0.01871888206613357
-0.027479169845067684
-0.0177970879179741
0.026340925732089453
0.11463050337334289
0.046396692157747235
0.009694808817737557
-0.01583980196971135
-0.053220345175383696
-0.12145850929191757
-0.03048872864632956
0.020492430963069942
0.040835426739396066
0.04352002768118359
0.039612278004441996
0.034229833167555984
0.02540737241606341
0.006144746013693071
-0.031214035330243514
-0.09004649998325456
-0.16620683954667173
-0.04840766841497712
0.0771787930746524
0.2196772315287603
0.17719955928619757
0.13547185447145563
-0.12652562505034518
-0.22548148342051696
-0.36231743136552086
-0.11667835895000574
0.1486070177192331
0.27396112017897434
0.28624387752066716
0.18668022457896472
-0.05054278531618293
-0.26825999154430186
-0.3097126558643171
-0.203235884995893
0.04484301646030414
0.2466899664492635
0.22192720079417538
0.1856362741763461
-0.058328058272726746
-0.11596835975644333
-0.19548516050864972
-0.09811334720517338
-0.012461000591565033
0.08486293084569174
0.02268191609642066
0.025513033314587416
0.10430879380103393
0.05087449821855752
0.03793799231365814
0.0252550097384733
-0.029620210212947334
-0.1588617841938995
-0.17412723425475504
-0.0622993411762017
0.010684374483014451
0.08867572179495024
0.21056909846979355
0.19741496194292474
0.04640098268029924
-0.06591703492906915
-0.17260171339437422
-0.30238264322948166
-0.06884212613508742
0.13283452507799293
0.12088846376872936
0.11701189272998322
0.13646757083051114
-0.01742306150342829
-0.15281570937002836
-0.08423652324743892
-0.02597134243074299
0.012949439911132711
0.030574451794169153
0.030874849185115558
0.020933270562760495
0.007976974120957998
-0.002704212516058098
-0.008574058912877276
-0.009568324215279046
-0.00717882390144377
-0.003405405456970803
5.7827235044765424e-05
0.002238878469779044
0.002925060110209223
0.002449561561371664
0.001386301654083427
0.0002819892448244698
-0.0005046963373514815
-0.0008459830722793341
-0.000799888335647017
-0.0005235392364322143
-0.00018734685845674397
8.331586138911387e-05
0.00023060893708746062
0.0002568477185779817
0.00020050272033133503
0.00010941610649308185
2.11648847829217e-05
-4.516626499200694e-05
-8.671067926255616e-05
-0.00010832176120630114
-0.00011331822026212766
-9.820075657226424e-05
-5.395549416974412e-05
2.6288391624476764e-05
0.0001363899516518468
0.0002484880340069845
0.0003125463833641148
0.0002687027842640671
7.281137851899258e-05
-0.000270715541511139
-0.0006813690736976021
-0.0009971892117358713
-0.0010069590147056583
-0.0005254661791988904
0.0005007979190708218
0.0018924787758417393
0.0031936752952809156
0.003740717310518663
0.0028739196077829563
0.0002677221925419557
-0.003723227159439071
-0.007882496968896485
-0.01033911058205081
-0.009361891426640718
-0.004822103464967767
-0.00020607608922096885
-0.004819730778047958
-0.035599034522578316
0.08225427041149748
0.11673257336645183
0.0334109415595988
0.0029352613689172104
-0.18957675557234036
-0.13590442921100843
-0.000124217999236196
0.07973797552336694
-0.01616436996940042
0.19860247794390773
0.003918851680190198
-0.1381599147736738
-0.19210560607250293
0.044721421275246254
0.13795170527413034
0.21573376785247594
0.1747111139020054
0.09475547806933184
-0.13812850326160098
-0.4054524733830733
-0.3344273390617109
-0.08887782451026954
0.42263598885608084
-0.27677869786263815
0.33578540515353916
0.35238488678101443
0.013209610898592017
-0.2997591365875498
0.34604599756010235
-0.14604951889799622
-0.27662225686709974
-0.12647174667567188
-0.14067107415016328
0.0759270164303513
0.15179152578052596
0.13425754176475652
0.07331763152703968
0.008918790717993036
-0.03536879358032485
-0.05227633523891195
-0.046358358284308385
-0.02785334036941517
-0.007232804053402541
0.008217040038824782
0.015517659152397636
0.015346116308548978
0.010476645724925213
0.004140046469592135
-0.001155615978883245
-0.0041444583270456425
-0.00474301069445814
-0.0036429449821705584
-0.0018112118114196167
-8.766026451756068e-05
0.0010300658987010562
0.001415990122986493
0.0012185781601168958
0.0007136526661482606
0.00017161610305293801
-0.00022487269356737837
-0.00040562822481374694
-0.00039351485447136516
-0.00026314234231466745
-9.859591389853438e-05
3.626393816634097e-05
0.00011028716405579309
0.00012273431595114577
9.233851155078495e-05
4.431245733842344e-05
1.0678244301247297e-07
-2.7897150563903837e-05
-3.691728207659447e-05
-3.1112922883270126e-05
-1.77384809086982e-05
-3.7446445243707673e-06
6.27747353866816e-06
1.066138077633141e-05
1.0110759894645697e-05
6.609569252377843e-06
2.3331987368941183e-06
-1.1001773486561063e-06
-2.9295444018242767e-06
-3.1735496650882213e-06
-2.338347989898732e-06
-1.0807272822786706e-06
5.201630220050434e-08
7.525271083836222e-07
9.61110432438966e-07
7.933905846841088e-07
4.398684244441617e-07
7.901910886356145e-08
-1.7394441368803274e-07
-2.797639677983209e-07
-2.5948260417433274e-07
-1.6573654164313422e-07
-5.4738914098438725e-08
3.2562572473647206e-08
7.764777375834735e-08
8.196238444460874e-08
5.9134455818101645e-08
2.6250716740968802e-08
-2.741739867982459e-09
-2.0231447847300535e-08
-2.498918605007073e-08
-2.0207329655143012e-08
-1.0880505802545997e-08
-1.586244931393213e-09
4.789225876978835e-09
7.329831584275468e-09
6.65174418150193e-09
4.148509695869359e-09
1.271005816980402e-09
-9.460342973524006e-10
-2.0538443156313203e-09
-2.1143585045250118e-09
-1.4933383999265412e-09
-6.347349381969847e-10
1.0646279139961445e-10
5.422499532284626e-10
6.489036464073225e-10
5.140455349276414e-10
2.6842608327098185e-10
2.9313141378003604e-11
-1.3112379354845556e-10
-1.9175468709170104e-10
-1.7033196172630987e-10
-1.0367305044246176e-10
-2.9175941697181986e-11
2.705706528994524e-11
5.420997663077624e-11
5.450897180313481e-11
3.7732998869857834e-11
1.53838329731933e-11
-3.5389060215918467e-12
-1.4426325051267367e-11
-1.687837877212819e-11
-1.3267380418338943e-11
-6.95802492613085e-12
-8.721732440840153e-13
3.2697731103500815e-12
5.03121199637337e-12
4.881072930372221e-12
3.645771328675856e-12
2.043477606635239e-12
4.491708905108995e-13
-1.0809216427987953e-12
-2.5975793118577503e-12
-3.993418917647405e-12
-4.8333393338834905e-12
-4.3973692543394435e-12
-1.9774381914950165e-12
2.6368212510843938e-12
8.661767739710198e-12
1.4074166255595742e-11
1.5882005697172996e-11
1.1062454653862363e-11
-1.92802893033338e-12
-2.1500096400075985e-11
-4.1875276419409995e-11
-5.349608662942448e-11
-4.554791527494184e-11
-1.0569775107368294e-11
4.9911294637327064e-11
1.209082261852861e-10
1.7354405937786781e-10
1.7122158145479122e-10
8.31809063648281e-11
-9.694994827787652e-11
-3.3385669821100945e-10
-5.437449726369126e-10
-6.074962680294064e-10
-4.088692276961239e-10
1.0654348494652349e-10
8.68610986964004e-10
1.6449396018068892e-09
2.0612182608293947e-09
1.7033128060342936e-09
2.9824468020594585e-10
-2.0693488313847906e-09
-4.79135390678332e-09
-6.732027826448167e-09
-6.481461815283533e-09
-2.89127572430653e-09
4.2076396164855355e-09
1.3353382980528978e-08
2.122680564596593e-08
2.3209245168221698e-08
1.490440950262215e-08
-5.565978390061379e-09
-3.517499695468544e-08
-6.463511956912983e-08
-7.934142994716601e-08
-6.348281682720628e-08
-7.133868646878464e-09
8.543745780495889e-08
1.8963489439290394e-07
2.608561748151527e-07
2.4486175369744485e-07
9.891128072795383e-08
-1.8049867618459405e-07
-5.331337514090017e-07
-8.277109960238624e-07
-8.853587396688836e-07
-5.401458841889545e-07
2.7163307741319913e-07
1.4207279085804253e-06
2.536632037685937e-06
3.0501423831128345e-06
2.3585435293954998e-06
1.0318541680930521e-07
-3.5121041862268663e-06
-7.494990196331374e-06
-1.0095997158089318e-05
-9.231215256294994e-06
-3.31517336326231e-06
7.668502486202067e-06
2.1248267498974618e-05
3.2238616572528906e-05
3.372033130980826e-05
1.9444098968598405e-05
-1.2700875732111253e-05
-5.724450841977268e-05
-9.943142157727518e-05
-0.0001171032126499553
-8.732162251013364e-05
2.779624277376254e-06
0.0001438077991511966
0.0002958199111835567
0.0003902744266358419
0.0003472093710094994
0.00010801896433971742
-0.0003232700503055586
-0.0008456297679321075
-0.0012545147726557315
-0.0012825704474769127
-0.0006949037717062716
0.0005763858294094606
0.0023019642163580275
0.0038960443617852172
0.00449868959556017
0.0032413317415063434
-0.0003289131121416149
-0.005783120736293722
-0.011508559949422938
-0.0148164629493578
-0.012648146204535488
-0.0028871910898176294
0.014000472815221127
0.03358562347263122
0.04713201307174222
0.04297830845831794
0.009851140977192502
-0.0585301814649829
-0.15913980477328105
-0.07773392363452697
0.00899967521844357
0.12716527804193214
0.0972694497412053
0.12708521385795826
0.008860257189033036
-0.07789122078078123
-0.15925584848830845
-0.05853898486720195
0.010001221208601342
0.04329537666951637
0.047552772660457245
0.033964080763889536
0.014129612712708697
-0.00321114546997318
-0.013525085891841739
-0.016133566999108395
-0.012872284724411397
-0.0065495058380272515
0.00022538787187583484
0.005609793243591602
0.008569753334746938
0.008659119734578101
0.0058272574730803455
0.00043818817600086465
-0.006502288821230193
-0.01310276657796729
-0.016628626628282246
-0.014108189327615917
-0.0035931349061787033
0.014153632910185406
0.034119053635812885
0.04645270988099894
0.03756725289738097
-0.0068039257723973515
-0.0971237185139331
-0.03549690637947709
-0.012758333256521471
-0.008504200950857438
0.005642849739032015
0.060314323789143864
-0.01831875719174858
-0.014642059596167628
0.07228943834637382
0.027573595323087056
0.02271953198194409
0.021260236450390838
-0.01317675469885142
-0.10812319684166212
-0.07524036084349937
-0.10735049776473266
0.01909506157642333
0.13652857722787592
0.07614030144635366
0.05864834066981943
0.08916528062889721
-0.04231260289093292
-0.15548675101957724
-0.07193139714092603
-0.00806393659252165
0.028675119509442494
0.03978186016043791
0.03280879171924515
0.017434884333012844
0.0020842485488647114
-0.008024676476239225
-0.011281535904364178
-0.00894016592666584
-0.0038226897676442244
0.0010044435744743531
0.003257884560949115
0.0020431840141691402
-0.001963833897882614
-0.006728749736066609
-0.009443158364034242
-0.007453728700394813
0.0005707676695589161
0.013492019266514919
0.02699831406581641
0.03384191615659425
0.02537745572197267
-0.005654084562696057
-0.06178363745808029
-0.1382093956450451
-0.022393173395255435
0.10332463591963047
0.0566548931949103
0.04975350526068646
0.0853959988686323
-0.04359679955850641
-0.15178114628187467
-0.056891246072021256
0.023950104670350934
0.07634312696389109
0.08927207241069107
0.05562619468433556
-0.02625422568053709
-0.15008781611057262
-0.099748405946835
-0.05005505964761016
0.028525997017423324
0.16206501478700433
0.16503924241222198
0.035431485941928464
-0.04453376370669341
-0.1021373476567751
-0.1650855256248978
-0.05349933660500067
0.02386762093968392
0.06821674188156304
0.08558703679648794
0.08103289088126554
0.05508327915272373
0.004139855797116052
-0.07550684863272046
-0.18221819125882113
-0.10526336871202299
-0.025476506854620044
0.07899345119836762
0.2238935542048801
0.21118021040279153
0.026697638991828962
-0.1547685291021267
-0.15872144888909864
-0.19922118417779705
-0.07166460921239752
0.04650484708396535
0.18743153572190208
0.18055010759634524
0.04163191449586709
-0.03255417287238105
-0.06254308993060616
-0.07905770277346978
-0.11386695582099127
0.007986388757876342
0.07254473928998806
0.07769229231924071
0.03151601885407268
-0.05025835634422465
-0.14707062505854845
-0.03686460357335264
0.09956993018031504
0.07370037252126146
0.08550692788014712
0.12302640352492185
-0.033660170830157245
-0.20485721155216075
-0.20302028456246984
-0.027640048290640137
0.13416925777309577
0.10164646756416315
0.09198284488534075
0.11359266198655138
-0.03609242774214678
-0.1679248189238322
-0.09546467862073624
-0.029729840082876546
0.023137175684709053
0.060643204557434945
0.08057335308650494
0.07795541689826008
0.04456434824309005
-0.02817028977822301
-0.14380398468977706
-0.09554003571120984
-0.063865578140463
-0.01913629988003952
0.07101565432481301
0.23186275398552028
0.07315353319889477
-0.014406181021018157
-0.05623843913151424
-0.08578150352374792
-0.13448948393672613
-0.023683523830516334
0.039183978204103055
0.05934804773852792
0.05005898971020217
0.026811185094204625
0.0026346952784038207
-0.014392758934119855
-0.02137880569204329
-0.019328210475975542
-0.011319528865150995
-0.000948939182980213
0.008574139717302007
0.01472764561879639
0.01570310415768833
0.010536385136968852
-0.0004523343620481933
-0.015019055210680457
-0.028586270242556302
-0.034664876686208025
-0.026607473971522456
-0.0007671939802781414
0.039535549898203244
0.08052616150604122
0.09661930096944886
0.052528102869472744
-0.0909704509966574
-0.16910891351891194
-0.20592558313897485
-0.010688787057950108
0.22102600657810081
0.30360847708300265
0.25922831840795213
-0.07925796026236809
-0.46058871018232234
-0.40778182947731667
-0.21894996503194106
0.018475568335644572
0.6016648578030104
0.5835250530819381
0.15369225457823316
-0.16107922025711385
-0.27612499455911255
-0.5158971384981632
-0.1818933906646683
0.06701593792984636
0.21682887383372318
0.08573417053247712
0.10398233907821616
0.09462226127671874
0.06118858069548305
-0.014928533947195387
0.03214128502116265
-0.03426888689881011
-0.23852840255660918
-0.1811111143762521
-0.03456674706430637
0.050977145094429535
0.13434216503966523
0.266634402296652
0.07749122203472705
-0.030924087491467522
-0.08062004494757241
-0.10731898717504883
-0.14741711046541614
-0.02718972403191096
0.04257713832573236
0.06590868378416363
0.05659536070164922
0.031590944202949486
0.0054276703929280615
-0.012900909936226715
-0.020415374273655282
-0.01871705765031218
-0.011732549550450513
-0.0036033972519734256
0.002695876336992663
0.005859412167388156
0.006043787488221716
0.004280671454390271
0.001832419835929048
-0.000287241608719602
-0.0015386267333975148
-0.001850642537386663
-0.0014710588152969178
-0.000772240807883303
-8.932315001573692e-05
0.0003706015334804768
0.0005460284773109886
0.00048674997874307874
0.00029745477867261657
8.49233740145662e-05
-7.603604732442773e-05
-0.00015417180578058157
-0.00015553674725764325
-0.00010790006074179225
-4.411244040256535e-05
1.0003897187993206e-05
4.112597592178046e-05
4.7994026434517906e-05
3.737396906697917e-05
1.9000103614489504e-05
1.4495361085501678e-06
-1.0107389027726874e-05
-1.4268162892554752e-05
-1.2451670634312592e-05
-7.4195587922696086e-06
-1.921939860947428e-06
2.1559264422827938e-06
4.063878056457645e-06
4.003892781173933e-06
2.717422435913059e-06
1.0560614972212953e-06
-3.2445278184071927e-07
-1.0967851167859373e-06
-1.243464331095153e-06
-9.485302452577842e-07
-4.661382207481149e-07
-1.5556353987396908e-08
2.743951382458103e-07
3.722953321498488e-07
3.1814945595450645e-07
1.8468219033866038e-07
4.264368294664914e-08
-6.052697263130518e-08
-1.0693320354365328e-07
-1.0295174115979219e-07
-6.832955149377707e-08
-2.5115861862694074e-08
1.0058878669758095e-08
2.9178688051308636e-08
3.2177878193538525e-08
2.4041703625719695e-08
1.1396817413379379e-08
-1.5790934092943516e-10
-7.419793061970079e-09
-9.700988943496982e-09
-8.119375682008976e-09
-4.586800354133904e-09
-9.213222240470238e-10
1.6852596196239072e-09
2.8090383780804532e-09
2.6441673840742933e-09
1.7153286586430989e-09
5.927333848850771e-10
-3.024054956818815e-10
-7.744968870550829e-10
-8.316996517395649e-10
-6.085490147822918e-10
-2.7759193305336284e-10
1.8377656567256463e-11
1.999184782212497e-10
2.524467469187022e-10
2.069641221861096e-10
1.1364883897992859e-10
1.916604916272032e-11
-4.659333723449229e-11
-7.367286755164102e-11
-6.783406807799579e-11
-4.2987250108623504e-11
-1.3861189470607603e-11
8.890269604027812e-12
2.0513789016850673e-11
2.1471721171375143e-11
1.5382414977752196e-11
6.732847807103916e-12
-8.395413889183634e-13
-5.36909529080001e-12
-6.560899476267364e-12
-5.269145163572611e-12
-2.8087488009469577e-12
-3.761212649342938e-13
1.2803808950589238e-12
1.9292590356992174e-12
1.7382377095101532e-12
1.0753447027356963e-12
3.205870302392568e-13
-2.5694439545673864e-13
-5.422489537625731e-13
-5.536850395545571e-13
-3.882678570460905e-13
-1.625300238629961e-13
3.098424344973764e-14
1.4376675412149947e-13
1.7029870332382715e-13
1.3398324170997907e-13
6.922586720666524e-14
6.665182825252343e-15
-3.499756244176449e-14
-5.044587031220354e-14
-4.44901125131609e-14
-2.684832837163621e-14
-7.313497755962391e-15
7.327681171012752e-15
1.4306965915704783e-14
1.4261954991810004e-14
9.786435253344716e-15
3.9031412785603055e-15
-1.0363457933406817e-15
-3.83839228017931e-15
-4.4142480310777795e-15
-3.4019401149634684e-15
-1.7004027197437053e-15
-9.334561022679392e-17
9.52808992327429e-16
1.3178412819814278e-15
1.1380747356766258e-15
6.696485999307716e-16
1.64643493387284e-16
-2.060331467906585e-16
-3.761285777774956e-16
-3.662684272320662e-16
-2.456180442687949e-16
-9.248823273288441e-17
3.344281430642091e-17
1.028956535918103e-16
1.149553831219951e-16
8.693973613857336e-17
4.2302833059623744e-17
1.0679349266445121e-18
-2.515629566336704e-17
-3.370531439321031e-17
-2.8404740045918034e-17
-1.5993844408048086e-17
-2.9540046855917703e-18
6.417639615002445e-18
1.054595799511519e-17
1.0069306287996644e-17
6.827543457762096e-18
2.847051421562982e-18
-3.5964487029922866e-19
-2.0768013447047925e-18
-2.3160152537030488e-18
-1.545484604127143e-18
-3.7632040022338645e-19
6.804996664526228e-19
1.3366919394217085e-18
1.5347740727009847e-18
1.3812251162558384e-18
1.0530659874958677e-18
7.167525682207162e-19
4.801506667412316e-19
3.8041858426284544e-19
3.9838833857004477e-19
4.85229185862258e-19
5.885682667454992e-19
6.70122673723898e-19
7.124623399482428e-19
7.167867366944048e-19
6.957089411386444e-19
6.651307843198509e-19
6.380764252048386e-19
6.216879449217869e-19
6.1715852373390215e-19
6.215451776845095e-19
6.302055082991151e-19
6.388694491977715e-19
6.448340379555594e-19
6.472307318491909e-19
6.466225303121917e-19
6.443026675321526e-19
6.416231623346927e-19
6.395516351065189e-19
6.3851075385268675e-19
6.384465754623954e-19
6.390204073127781e-19
6.398189976681826e-19
6.40510780722029e-19
6.409192671515791e-19
6.410211243882496e-19
6.408972037698501e-19
6.406690663356731e-19
6.404461259172963e-19
6.402959923291037e-19
6.402387419072534e-19
6.40258114401477e-19
6.403199283520997e-19
6.403893215010779e-19
6.404418717590671e-19
6.404673783633149e-19
6.404678197926304e-19
6.40452263864557e-19
6.404314365207851e-19
6.404137682418271e-19
6.404036082432215e-19
6.404013671701215e-19
6.404048355318288e-19
6.404108349512793e-19
6.40416565097991e-19
6.404203380602852e-19
6.404216961306909e-19
6.404211027244778e-19
6.404194595823964e-19
6.404176646051222e-19
6.404163332753745e-19
6.40415710455941e-19
6.404157301495271e-19
6.40416150245158e-19
6.40416692694157e-19
6.404171434112398e-19
6.404173955404762e-19
6.404174433946194e-19
6.404173470734332e-19
6.404171895623386e-19
6.404170424506849e-19
6.404169477937578e-19
6.404169158453018e-19
6.404169335389386e-19
6.404169771262147e-19
6.404170235041544e-19
6.404170571818692e-19
6.404170723159621e-19
6.404170709913783e-19
6.404170596625058e-19
