0
-1.0887089638752035e-17
-1.0887089637950163e-17
-1.0887089635634465e-17
-1.0887089632067487e-17
-1.088708962828082e-17
-1.0887089626013092e-17
-1.0887089627263518e-17
-1.088708963345791e-17
-1.088708964441319e-17
-1.088708965749376e-17
-1.0887089667486858e-17
-1.0887089667675634e-17
-1.0887089652276327e-17
-1.0887089619830191e-17
-1.0887089576432774e-17
-1.0887089537114662e-17
-1.08870895236203e-17
-1.0887089557588865e-17
-1.0887089649828975e-17
-1.088708978870561e-17
-1.0887089932847084e-17
-1.0887090014273695e-17
-1.0887089956455254e-17
-1.088708970706361e-17
-1.0887089277808548e-17
-1.0887088775836588e-17
-1.0887088406321638e-17
-1.0887088428249645e-17
-1.0887089058019708e-17
-1.0887090338079878e-17
-1.0887092015041398e-17
-1.0887093492840507e-17
-1.0887093927590477e-17
-1.0887092499620446e-17
-1.0887088831479992e-17
-1.0887083430632121e-17
-1.0887077952997316e-17
-1.0887075053485646e-17
-1.0887077657452587e-17
-1.0887087676004706e-17
-1.088710447546956e-17
-1.0887123712612549e-17
-1.0887137321918303e-17
-1.0887135329898452e-17
-1.0887109662764218e-17
-1.0887059227983162e-17
-1.0886994504836885e-17
-1.0886939096677088e-17
-1.088692571637503e-17
-1.0886985352261943e-17
-1.0887130995530658e-17
-1.0887340791838924e-17
-1.0887548586104245e-17
-1.0887650811427511e-17
-1.0887535813795521e-17
-1.0887134183228955e-17
-1.0886477480048613e-17
-1.088574128765825e-17
-1.0885242277262006e-17
-1.0885364038179328e-17
-1.0886406879292757e-17
-1.0888391492737893e-17
-1.0890886458210191e-17
-1.0892958434784726e-17
-1.0893340798275103e-17
-1.089086440908851e-17
-1.088509036888746e-17
-1.0876950172454143e-17
-1.0869082068501601e-17
-1.0865521534869067e-17
-1.0870523515610614e-17
-1.0886592890981735e-17
-1.0912234234919356e-17
-1.0940366886845391e-17
-1.0958572588733085e-17
-1.0952117324995484e-17
-1.0909868379998333e-17
-1.08318710520298e-17
-1.0735814395210385e-17
-1.0658554709707418e-17
-1.064907734007279e-17
-1.0751395866124485e-17
-1.0979975631652122e-17
-1.1295454243824887e-17
-1.1592796800568918e-17
-1.1714940670130314e-17
-1.1500000349610427e-17
-1.0858248286473736e-17
-9.85821698438132e-18
-8.784783961664528e-18
-8.124352201516293e-18
-8.442113405441292e-18
-1.0149242499392648e-17
-1.3210866926724361e-17
-1.6904352703974106e-17
-1.9776233743686923e-17
-1.993430917852234e-17
-1.5725499627566072e-17
-6.689308765326187e-18
5.5230234155224255e-18
1.6736564954072923e-17
2.08453464508092e-17
1.1700661566191561e-17
-1.3883542790272186e-17
-5.284090488634576e-17
-9.373471249935074e-17
-1.1753571504041188e-16
-1.0259314506388715e-16
-3.378300665673263e-17
8.625019958260716e-17
2.280833491663077e-16
3.344718095201149e-16
3.3241218644530087e-16
1.5997287126087944e-16
-1.9675851124899264e-16
-6.689469759474452e-16
-1.0909041965105395e-15
-1.2255260912518954e-15
-8.396901752910068e-16
1.785463315757758e-16
1.6944425789614008e-15
3.2497940401007407e-15
4.100995820889298e-15
3.4198496648380384e-15
6.526147389005099e-16
-4.047795062575769e-15
-9.487005602353387e-15
-1.3413296326906756e-14
-1.301357310579679e-14
-5.973874345402403e-15
8.090554010314612e-15
2.632587272509716e-14
4.216629402155047e-14
4.641529306471201e-14
3.02508639072022e-14
-1.020945069134826e-14
-6.912814546727319e-14
-1.281828155419973e-13
-1.5834915320457372e-13
-1.2799294664102977e-13
-1.6945134477203496e-14
1.6690377963206432e-13
3.7520567167137523e-13
5.194987887951583e-13
4.91520141279366e-13
2.050662515517316e-13
-3.4872015553432645e-13
-1.0520909907065382e-12
-1.645235555509034e-12
-1.7718625108875646e-12
-1.0987864745705707e-12
5.064606560514807e-13
2.7938444462981396e-12
5.032033182752267e-12
6.089451788925307e-12
4.759629266546218e-12
3.122979692853644e-13
-6.870313829736048e-12
-1.4836123976202724e-11
-2.011402671956997e-11
-1.8542829351283388e-11
-6.921416957593849e-12
1.4856420125531992e-11
4.195326529512693e-11
6.410261000389628e-11
6.751716552722015e-11
3.963992351824106e-11
-2.3953425521895153e-11
-1.1265364033407665e-10
-1.9732042009252233e-10
-2.338872814500725e-10
-1.7641471634540754e-10
1.3571316473886195e-12
2.8164444534583255e-10
5.858196141894383e-10
7.778447492294425e-10
6.979909620387649e-10
2.278047202795886e-10
-6.275585680491955e-10
-1.670128774652318e-09
-2.4947687461739407e-09
-2.5685872126496894e-09
-1.4194049973547186e-09
1.096307184379112e-09
4.531936259244932e-09
7.728289050174623e-09
8.971260502456597e-09
6.5144882562031885e-09
-5.787308719600759e-10
-1.1503864980393859e-08
-2.310096844814994e-08
-3.0044806363701746e-08
-2.6212427614272582e-08
-7.23764905964126e-09
2.631752620298149e-08
6.637940230294867e-08
9.698143770993283e-08
9.7551599498743e-08
5.037747113062639e-08
-4.900493159388628e-08
-1.8192142592352424e-07
-3.0233253502180545e-07
-3.4363892752329854e-07
-2.39569221162349e-07
4.296990428592865e-08
4.683271319392102e-07
9.097746167827749e-07
1.1590981678021369e-06
9.81911845139802e-07
2.1797678519192714e-07
-1.0967928666197585e-06
-2.6341758213978975e-06
-3.7657330260890015e-06
-3.698258321740081e-06
-1.769049115177877e-06
2.1517533021031852e-06
7.287888009057098e-06
1.1813590475278192e-05
1.314419895477064e-05
8.769436519490017e-06
-2.4663023817925963e-06
-1.9008154774648035e-05
-3.578381552822274e-05
-4.466163499016255e-05
-3.668231966365875e-05
-5.993874635999666e-06
4.546079658558194e-05
0.00010437688305155124
0.00014604953041080613
0.00013993160236461504
6.12963788654509e-05
-9.319887260317526e-05
-0.0002914540707927117
-0.0004611734650618097
-0.0005021610162634408
-0.0003194967348054177
0.00012664228500196636
0.0007694192315292111
0.001406452808153652
0.0017210379133498178
0.0013721364849391508
0.000148746704207009
-0.0018500477731981887
-0.004083276087579705
-0.0055778790958430245
-0.005158523569094815
-0.0019142798000154168
0.004185399905332901
0.011732917740037062
0.017675083871308245
0.017734614718462875
0.007578452700698536
-0.015458136141098974
-0.05065814126494882
-0.09304547380708307
0.06593595537549062
0.03607345063335211
0.025134571938730872
0.0360734501280294
0.0659359543021539
-0.09304547545908169
-0.05065814328297256
-0.015458137961127442
0.007578451970582183
0.017734616050216135
0.01767508785424098
0.011732924027595099
0.004185406808005418
-0.0019142752816238783
-0.005158525030956236
-0.005577889297937943
-0.004083295096791307
-0.0018500713559630728
0.00014872749906420568
0.0013721336558591083
0.0017210623605899576
0.0014065083213228844
0.0007694964912446449
0.00012671584417022532
-0.00031946527244822355
-0.0005022115898382448
-0.0004613287685174794
-0.00029169835821641433
-9.346340552501054e-05
6.113021490567371e-05
0.00014000279208950485
0.00014646075791337
0.00010512285686001452
4.6368184745514657e-05
-5.278559464612797e-06
-3.662308295091327e-05
-4.566847798631747e-05
-3.7979333268324846e-05
-2.2000299415619213e-05
-5.242876876803047e-06
7.70190287064819e-06
1.5303786702718617e-05
1.800913618052867e-05
1.6808707412220276e-05
1.223590262858426e-05
4.2357491073618e-06
-7.099868744411514e-06
-2.0357147123777786e-05
-3.1894609453782034e-05
-3.595965534854559e-05
-2.6318073726302798e-05
6.832740415942591e-07
4.247406759214585e-05
8.76314261809632e-05
0.00011621412904357794
0.00010461786842545731
3.514421280923111e-05
-9.174916559630933e-05
-0.0002470429316048588
-0.0003708201925526556
-0.00038384149219805683
-0.00021539222911684945
0.00015689112200437545
0.0006679044831801509
0.0011463678793282898
0.0013375938523925732
0.0009805846389696377
-6.700599223771396e-05
-0.0016898485115920388
-0.0034221957465970405
-0.00447397006348152
-0.003931746330361607
-0.001137002037444234
0.0038420525573337914
0.00982355304428651
0.014450349264633077
0.014673375495136018
0.007858622106506102
-0.006665969513508816
-0.02613264753124659
-0.04370003540805593
-0.049482442685813796
-0.03373754148112488
0.008030901951704793
0.06931888869484332
0.12843304545144116
0.1484562277413341
0.08325444078149537
-0.11055387726901912
-0.25851281689204425
-0.15532252787943607
-0.15953652627789894
0.0006386661382104734
0.2112155141741468
0.3510295238825517
0.07250533012269007
-0.008831317606109331
-0.11328284884137432
-0.08623418122184377
-0.1828398425700442
-0.0538338640820082
0.06354829749251648
0.1483771436621086
-0.006002468522083579
0.0037907992689016237
-0.01309248192899493
-0.04515770127922224
-0.08132859559705342
0.08652837132374488
0.06134926052986803
0.03957618327213591
0.011715496550252266
-0.03494172205696374
-0.1122027433765817
-0.027056179722273168
0.020439946638645408
0.03672265971549414
0.032206296468985804
0.017964507107797737
0.002942228347664676
-0.007512219576835018
-0.011696839612344079
-0.01059573830505359
-0.00651457974954484
-0.00184658197917831
0.001715951275534785
0.0034536603423431017
0.0034859742461847364
0.002424097341881221
0.0009983481714250938
-0.0002143428651670372
-0.0009146427869352557
-0.001072573923807686
-0.0008381350297862629
-0.00042852687040712255
-3.578655628841913e-05
0.0002238358387801771
0.0003182884588159174
0.0002787894100619407
0.00016685690977225043
4.399973385749412e-05
-4.7458197912299395e-05
-9.052889930067548e-05
-8.955225016459288e-05
-6.100956479383166e-05
-2.392509326693095e-05
7.0002053358758896e-06
2.438504399030873e-05
2.77812579496146e-05
2.126728902190816e-05
1.0513976326699257e-05
4.314177875551097e-07
-6.082733354005018e-06
-8.30773827468792e-06
-7.1250215238422496e-06
-4.154908347253296e-06
-9.799967851541624e-07
1.3344807123859004e-06
2.3828154306484517e-06
2.303115158682661e-06
1.5345159676141799e-06
5.696924355687782e-07
-2.1843339680764559e-07
-6.489981141145066e-07
-7.190590427547021e-07
-5.391684641856906e-07
-2.5721831516276876e-07
1.3896760727650675e-09
1.6458764808836932e-07
2.1652673299338684e-07
1.81872079999499e-07
1.0323240951985508e-07
2.1283555881798545e-08
-3.7205415362804703e-08
-6.26120643088428e-08
-5.916380707325972e-08
-3.85331853934282e-08
-1.3463766251616857e-08
6.5969715373013775e-09
1.7233075508652457e-08
1.8589241083049207e-08
1.3650742816860788e-08
6.269315560490505e-09
-3.561314094412926e-10
-4.437257925232954e-09
-5.6358954347311746e-09
-4.636904754494832e-09
-2.558900096839043e-09
-4.4613599235196875e-10
1.0298083307233397e-09
1.642575201090803e-09
1.5180999607718472e-09
9.659575741536628e-10
3.1538559324851847e-10
-1.9460176683431058e-10
-4.566087904329658e-10
-4.800086002678987e-10
-3.451357155182079e-10
-1.5217434317028147e-10
1.7371618903967835e-11
1.1923301153613104e-10
1.4650478576449302e-10
1.180767840093232e-10
6.326994517446749e-11
8.86235517145741e-12
-2.8326948155810868e-11
-4.3025005581315474e-11
-3.890875214607952e-11
-2.417150658564746e-11
-7.30939422140984e-12
5.63916950613628e-12
1.2073788620829582e-11
1.2380304849069761e-11
8.713753120408752e-12
3.67661098896979e-12
-6.570481905499228e-13
-3.19424157353315e-12
-3.803580111676369e-12
-3.0030828921603067e-12
-1.5601432324847128e-12
-1.6065050054182066e-13
7.749543469462874e-13
1.125294014071828e-12
9.96068903909523e-13
6.037002222201702e-13
1.6718090095835522e-13
-1.611564472904477e-13
-3.1865895202562595e-13
-3.18954348527923e-13
-2.1968659701267986e-13
-8.837558196266338e-14
2.2264344165245e-14
8.532453541718035e-14
9.861541568881443e-14
7.627088865516459e-14
3.834604725165226e-14
2.388863942920096e-15
-2.1110944053996376e-14
-2.940065129647931e-14
-2.5481396785631378e-14
-1.5059181509471724e-14
-3.772201740505128e-15
4.542381516682237e-15
8.383516258430912e-15
8.196363354896981e-15
5.518715611198398e-15
2.1001936458106347e-15
-7.211263307014537e-16
-2.2848143184841736e-15
-2.5651521868760022e-15
-1.946048192563216e-15
-9.508847669552248e-16
-2.809114624127804e-17
5.611608365915019e-16
7.556243731995486e-16
6.396512821869182e-16
3.634162452411261e-16
7.191434849102067e-17
-1.3834979820587992e-16
-2.3164597532425226e-16
-2.2183986635605931e-16
-1.498547348252663e-16
-6.097331331836082e-17
1.08835648700789e-17
4.956155701198109e-17
5.5185201944197243e-17
3.8140484006483925e-17
1.2067588852053215e-17
-1.15875942851038e-17
-2.633671119313638e-17
-3.085146578699827e-17
-2.7482727339342548e-17
-2.017625510746801e-17
-1.2656569302786692e-17
-7.346803746120579e-18
-5.09106002359946e-18
-5.4711124893972366e-18
-7.400425453672908e-18
-9.708406922758482e-18
-1.153629949240303e-17
-1.249043793856054e-17
-1.2594193700732079e-17
-1.2127525681397112e-17
-1.1445447332475742e-17
-1.0839759827283203e-17
-1.0471276469929228e-17
-1.0367783796280438e-17
-1.0464232611699386e-17
-1.065711696146121e-17
-1.08508736086522e-17
-1.0984764034156492e-17
-1.1039024471243249e-17
-1.1025980277428072e-17
-1.0974417425188645e-17
-1.0914560890756771e-17
-1.0868121198779476e-17
-1.0844651561556134e-17
-1.0843033942527809e-17
-1.0855747002410184e-17
-1.0873563360986382e-17
-1.0889053695148892e-17
-1.0898243092100557e-17
-1.0900581656369042e-17
-1.0897857593777427e-17
-1.0892780159237789e-17
-1.0887795818478712e-17
-1.0884421493179458e-17
-1.08831133012515e-17
-1.088351531862786e-17
-1.0884871133276095e-17
-1.0886409463944447e-17
-1.0887592000493817e-17
-1.0888195400025642e-17
-1.0888261664118387e-17
-1.0887980569588746e-17
-1.0887567237409285e-17
-1.0887178090960548e-17
-1.0886881853780747e-17
-1.0886678702794656e-17
-1.0886545687411317e-17
-1.0886481523084636e-17
-1.0886527792001558e-17
-1.0886754208641541e-17
-1.0887210275174622e-17
-1.08878612080213e-17
-1.0888538426189092e-17
-1.0888939231556808e-17
-1.0888701776607015e-17
-1.0887557494757242e-17
-1.0885526441006932e-17
-1.0883081275490398e-17
-1.0881179816003097e-17
-1.0881074270285777e-17
-1.0883862791199823e-17
-1.0889856167374585e-17
-1.0897965478598197e-17
-1.0905425141979293e-17
-1.0908182497844737e-17
-1.090214850166894e-17
-1.088519255579823e-17
-1.0859329966742008e-17
-1.0832135619792215e-17
-1.0816238020334934e-17
-1.0826028905687319e-17
-1.0871593942585991e-17
-1.0951242719489373e-17
-1.1045506451676796e-17
-1.111641337188215e-17
-1.1115462226428566e-17
-1.1001413007548832e-17
-1.0764825513105935e-17
-1.0451169300585804e-17
-1.017028680446336e-17
-1.0079624971857913e-17
-1.0334273619651352e-17
-1.1009166136438367e-17
-1.2015625631059121e-17
-1.3050102053635941e-17
-1.3619048221540029e-17
-1.3171868763636961e-17
-1.1339151156221778e-17
-8.219883183006628e-18
-4.6045439877941406e-18
-1.9869043742209003e-18
-2.2360812453725068e-18
-6.893264784919144e-18
-1.6221852639243796e-17
-2.8335972297886274e-17
-3.8882370877224433e-17
-4.175363448901908e-17
-3.1079865174679175e-17
-4.259336627914066e-18
3.4862378910483907e-17
7.414536775909299e-17
9.432385559350017e-17
7.436466643584055e-17
8.069055010784032e-19
-1.212090765603569e-16
-2.5967820399512013e-16
-3.5591024920195385e-16
-3.3796457150126944e-16
-1.484128429594463e-16
2.1893581493681397e-16
6.862440482736257e-16
1.0812333656050407e-15
1.1672695966194488e-15
7.226265505300929e-16
-3.4159016904822947e-16
-1.860534673338353e-15
-3.3495811604543974e-15
-4.0575462871274006e-15
-3.1821679335793445e-15
-2.358270866364505e-16
4.531515894178106e-15
9.827392428723596e-15
1.3348674017083551e-14
1.2329978153906843e-14
4.638193343689461e-15
-9.809294470242862e-15
-2.781371590433588e-14
-4.256671410431638e-14
-4.491051228737635e-14
-2.6487359112761445e-14
1.5677257549662143e-14
7.458411721946429e-14
1.3092054837183148e-13
1.5543096097522873e-13
1.1756336344678336e-13
-2.2652332739211403e-16
-1.8627904175991868e-13
-3.885258221060232e-13
-5.166955676290125e-13
-4.646272537678563e-13
-1.5336535100979194e-13
4.1413851951626757e-13
1.106938750497675e-12
1.6563364851725446e-12
1.7083431204261573e-12
9.486276152574997e-13
-7.195568891562147e-13
-3.0014018274324227e-12
-5.1285594108409214e-12
-5.962941764276298e-12
-4.342983042221412e-12
3.5754681340576924e-13
7.610198852148088e-12
1.5322063030977058e-11
1.9959131225182248e-11
1.7451463702155197e-11
4.8878592657149805e-12
-1.737688327097922e-11
-4.400112885768877e-11
-6.439434828617557e-11
-6.488970570309182e-11
-3.369374398021866e-11
3.22142147428832e-11
1.2050143022659239e-10
2.0064794652873588e-10
2.2843096620581092e-10
1.597651076390325e-10
-2.749174436523897e-11
-3.0988984334038213e-10
-6.034811196437934e-10
-7.700752375495068e-10
-6.538584522139276e-10
-1.4795232769378584e-10
7.245110260379977e-10
1.7463267335493402e-09
2.5006138793807002e-09
2.460363959232592e-09
1.1842389373061557e-09
-1.4162034240928722e-09
-4.828091937318617e-09
-7.840973432203756e-09
-8.738448227841272e-09
-5.850376555848055e-09
1.5971950318679277e-09
1.2580440793540159e-08
2.3738829266391336e-08
2.9674958804580294e-08
2.443223419833644e-08
4.1058135184669914e-09
-3.004211247118121e-08
-6.920524530409639e-08
-9.699425138302811e-08
-9.311229961598747e-08
-4.108968194515277e-08
6.137822954284357e-08
1.9307336786042483e-07
3.060583251650989e-07
3.3379205901824607e-07
2.1312442078517435e-07
-8.26141050591022e-08
-5.092946810318881e-07
-9.326440642996588e-07
-1.142094333691413e-06
-9.102708541412445e-07
-9.529155876557548e-08
1.239688411006409e-06
2.7385907731465373e-06
3.7578743864272977e-06
3.5168318543478244e-06
1.4027210023880017e-06
-2.629772233959747e-06
-7.706849313703485e-06
-1.1932741641203916e-05
-1.2730797107193116e-05
-7.718095663657229e-06
4.007756081733009e-06
2.0564566041205185e-05
3.659687730200527e-05
4.38992475203269e-05
3.380582465587343e-05
1.193803886691815e-06
-5.093546849354576e-05
-0.00010822012024200245
-0.00014542159089181672
-0.00013254959456819945
-4.688404996925661e-05
0.00011160778274456628
0.00030708599791676926
0.0004646778024594523
0.0004847184900666849
0.00027747569769350454
-0.00018686597629179316
-0.0008287335179406404
-0.0014348799843743377
-0.0016858599469914666
-0.001251745195382048
5.152518143973707e-05
0.00208709402005054
0.004278966729943622
0.005642034624081859
0.005031770192102559
0.001618130661476752
-0.004520045327177984
-0.01190450843791872
-0.01757678604273141
-0.01771362701684313
-0.009058155729213205
0.009029213759869387
0.03248692347922709
0.05133724816498668
0.050284319700282416
0.01167848692556402
-0.07942749268396537
-0.02940539087534876
-0.03132363178954649
-0.06329617242799994
-0.09107250141464829
0.12519118202735252
0.021404938394150645
0.01980998329676596
0.12198339755368892
0.10697808450361852
-0.06434048247692138
-0.039509268251574914
-0.06184254612633344
-0.15879310641373026
-0.13509308825214159
0.026941094690255542
0.15999810945243567
0.09998747911275783
0.074303136733795
0.09433393918280981
-0.04556512167271719
-0.16312897677979898
-0.07998767774030961
-0.013824346228135841
0.026296315862328168
0.040505627735806626
0.03553723226180585
0.020800594404902516
0.004847029264223586
-0.006757270054130147
-0.011948690048876649
-0.011461942605552751
-0.007544984598178554
-0.0026908329560014336
0.001233468383313082
0.003339574406920125
0.0036347803993545063
0.002690026294296276
0.0012542194787631485
-4.509092261510612e-05
-0.0008530985032378583
-0.001098361993154719
-0.0009110938219767919
-0.0005085360999241735
-9.527358772711929e-05
0.00019590601534169529
0.00031904869536910745
0.00029747326297145465
0.00019105939486993318
6.414888926408711e-05
-3.6156021635984634e-05
-8.834860488045351e-05
-9.382355134411652e-05
-6.803116870667866e-05
-3.0497448579477105e-05
2.761497986114834e-06
2.2944637346177685e-05
2.856058416367624e-05
2.320810350422412e-05
1.2584509430217833e-05
1.9383817451798464e-06
-5.402272124918569e-06
-8.362422876840198e-06
-7.627809488356045e-06
-4.784446656233785e-06
-1.4934289098168471e-06
1.0546146684312305e-06
2.3380050646900753e-06
2.4210066656018374e-06
1.7185937104146133e-06
7.382486747443716e-07
-1.1225832221075952e-07
-6.154021018457084e-07
-7.418627068100123e-07
-5.905476303250378e-07
-3.106569828626463e-07
-3.6688586270707666e-08
1.4810227799873052e-07
2.188445799518712e-07
1.9536468832789382e-07
1.19588385378026e-07
3.4351087352862305e-08
-3.0293397960102094e-08
-6.175022177868184e-08
-6.239888924879483e-08
-4.335177009165418e-08
-1.7781737506693106e-08
3.942210777892355e-09
1.6458514285771495e-08
1.924588287949906e-08
1.5008204718832946e-08
7.64692248160832e-09
6.046492701360075e-10
-4.039815162139835e-09
-5.718831159522808e-09
-4.997933123297416e-09
-2.9833106698370897e-09
-7.783089656267672e-10
8.595776228677061e-10
1.6278939017713641e-09
1.6064188135464835e-09
1.0919085677735334e-09
4.258731941607791e-10
-1.283512891210104e-10
-4.3900744259487105e-10
-4.986780070829881e-10
-3.8093346463864406e-10
-1.8764723581869163e-10
-6.834387950619695e-12
1.0970406040371744e-10
1.4923399077964073e-10
1.2771123773891576e-10
7.426943218696248e-11
1.729568737939587e-11
-2.41470632243415e-11
-4.2839953050131025e-11
-4.1309310475290936e-11
-2.7459803163713694e-11
-1.013425122748991e-11
3.988371872383808e-12
1.1680904063627641e-11
1.290650720221637e-11
9.658319094379932e-12
4.592221748129059e-12
-4.4884115860579605e-14
-2.96553863220283e-12
-3.89062253401579e-12
-3.2656223448910487e-12
-1.8549759712098875e-12
-3.8597336390529963e-13
6.646379289984108e-13
1.1268900874273421e-12
1.0766756714895248e-12
7.198233290129617e-13
2.780721082250937e-13
-8.724275724360526e-14
-3.027300844787352e-13
-3.7021258103483385e-13
-3.325341126989065e-13
-2.3784841130882e-13
-1.1692756682729808e-13
2.048820116252936e-14
1.7286932565376434e-13
3.266844572714227e-13
4.409869963757652e-13
4.479966654336053e-13
2.7562453566335736e-13
-1.1096544187080194e-13
-6.622628241186939e-13
-1.2142862614624697e-12
-1.5008545229502044e-12
-1.2261945230957202e-12
-1.9584553454649603e-13
1.5261144318840563e-12
3.4966319811327863e-12
4.891113650732626e-12
4.688335610054144e-12
2.0601764508747756e-12
-3.10740892643745e-12
-9.743056713969396e-12
-1.5429558195235632e-11
-1.6813854080620547e-11
-1.071641860568354e-11
4.200862827806049e-12
2.570622059001952e-11
4.702564680576215e-11
5.754474593913626e-11
4.581064770230633e-11
4.689577885602239e-12
-6.261048181692177e-11
-1.381180213309847e-10
-1.893854618351705e-10
-1.7707756379743809e-10
-7.035876346204156e-11
1.329769963656996e-10
3.888016108579339e-10
6.015061650616559e-10
6.412377132662304e-10
3.88016915468427e-10
-2.034029755140245e-10
-1.037860562764304e-09
-1.8451863567446431e-09
-2.211767166525423e-09
-1.7011231489193046e-09
-5.574062368811808e-11
2.572142919515244e-09
5.457731986969096e-09
7.328535272611618e-09
6.673573247809128e-09
2.349590820778766e-09
-5.642086780140467e-09
-1.5491857209014526e-08
-2.342406636992673e-08
-2.441656310782997e-08
-1.3952202514741847e-08
9.46190036195409e-09
4.1803275030490604e-08
7.231516004889669e-08
8.48988425148241e-08
6.294676688155753e-08
-2.768303015297376e-09
-1.0526216545318867e-07
-2.1537150339144958e-07
-2.8325265971293917e-07
-2.509420015814926e-07
-7.62083835924203e-08
2.3750294045779944e-07
6.162562042757858e-07
9.111471615328469e-07
9.281718184807716e-07
4.976578930760726e-07
-4.2799467175438354e-07
-1.6800010176433205e-06
-2.830775151992757e-06
-3.25443601479701e-06
-2.320156603377072e-06
2.998236454451015e-07
4.292763313012884e-06
8.4877766730272e-06
1.0934774467296784e-05
9.413230366928246e-06
2.3695277650639744e-06
-9.930293693656015e-06
-2.4475462283549123e-05
-3.540111154840079e-05
-3.5221993997578705e-05
-1.758084151706434e-05
1.8963914592475835e-05
6.737443217282237e-05
0.00011068001774368999
0.00012457507423327803
8.513963322908867e-05
-1.9149070763064712e-05
-0.00017454282724419017
-0.00033413026647200237
-0.000421706546012594
-0.0003523233405007251
-6.907032484750252e-05
0.0004126234165847304
0.0009706472158080115
0.0013745503226654276
0.0013363849823573874
0.0006195089619404866
-0.0008145877698829888
-0.002671705529480427
-0.004276130559701479
-0.00468181761766446
-0.0029826515742047643
0.0012132108885916887
0.007278574305738974
0.013253800985593374
0.015973782916733684
0.0118012910073902
-0.002082702351025274
-0.02619453876769928
-0.05773094476216621
-0.09077435402979357
0.0818542725385298
0.06548145175620325
0.06054427027100599
0.06138651778167026
0.058056271758210355
-0.15916175136425337
-0.19436175663854488
-0.04256765518144856
0.10958785779534412
0.07894263632367919
0.07888310541330058
0.11374232268025604
-0.022924119286040715
-0.1456178951994928
-0.07127480092692681
-0.013457562265367106
0.021229791658877922
0.03355965107750889
0.029556748453133126
0.017290454146937115
0.003992157953578736
-0.00566635065745411
-0.009966983519689441
-0.009534512951332506
-0.00625282061088192
-0.002203462071983442
0.001059709751294454
0.002801720355041264
0.003034291868067981
0.0022371684264383836
0.0010359931171897685
-4.680492663849006e-05
-0.0007172808765089551
-0.0009178736913716585
-0.0007586214138778063
-0.0004213352633375477
-7.656412695186095e-05
0.00016544416822369005
0.00026697298020812786
0.0002479601124006191
0.00015860711650366675
5.261112052761463e-05
-3.0862604541472624e-05
-7.405606735347392e-05
-7.829369769863071e-05
-5.6561019606831495e-05
-2.517271542258928e-05
2.537401304096069e-06
1.9279459871512953e-05
2.386099673017174e-05
1.931945535153498e-05
1.0421553159784277e-05
1.541802308665166e-06
-4.557532881672315e-06
-6.995664266806329e-06
-6.356938971352191e-06
-3.970537915727728e-06
-1.2224550033468196e-06
8.975561019249276e-07
1.9590885875448148e-06
2.019867847557418e-06
1.4284792156618782e-06
6.088486436312172e-07
-9.961785042679448e-08
-5.168286965751671e-07
-6.196538782825383e-07
-4.914915696309234e-07
-2.571387950800154e-07
-2.8672353330992716e-08
1.248279363401623e-07
1.8302896266265122e-07
1.6278193428179654e-07
9.92113836772607e-08
2.805134558632143e-08
-2.572130084014182e-08
-5.1724610027586476e-08
-5.2048801422967204e-08
-3.60239346969024e-08
-1.4651602083507774e-08
3.4396337367948436e-09
1.38134536606948e-08
1.6069609896164576e-08
1.2486483031616248e-08
6.3267680941475895e-09
4.5830605466307274e-10
-3.3955859584950905e-09
-4.77358609632694e-09
-4.1569873957492765e-09
-2.473263617521413e-09
-6.422473478745149e-10
7.091837145106659e-10
1.336510337452741e-09
1.3145196667431675e-09
8.966672203492708e-10
3.6854390774938786e-10
-5.6830816405726984e-11
-2.8384597938167297e-10
-3.25481762497617e-10
-2.6074589226479017e-10
-1.8154431301886947e-10
-1.482693812033859e-10
-1.6625052204088242e-10
-1.8771548133677187e-10
-1.3728315254026157e-10
4.6749046580848545e-11
3.681595960201049e-10
7.42287165911401e-10
9.967133766426415e-10
9.15750377507237e-10
3.2891609680918267e-10
-7.75788187188871e-10
-2.1546001551339995e-09
-3.2824119812538104e-09
-3.4514714002293796e-09
-2.016684238207784e-09
1.248809047383383e-09
5.798963363706034e-09
1.0135981360926156e-08
1.1996984468426797e-08
9.02596297356343e-09
-1.1869187515716125e-10
-1.451409444930821e-08
-3.011343837265845e-08
-3.9927388468551987e-08
-3.5760888472414537e-08
-1.1552182012750518e-08
3.2401536058342126e-08
8.58996709682101e-08
1.2811710226845553e-07
1.317004672161892e-07
7.245927292468213e-08
-5.6876722550033336e-08
-2.3325356117967986e-07
-3.970534138449688e-07
-4.602525683587736e-07
-3.333135068427222e-07
3.1567999169891454e-08
5.926807844529888e-07
1.1873968175592082e-06
1.5421334081838736e-06
1.3427782931227512e-06
3.659653445703296e-07
-1.3581746059996097e-06
-3.4137253069114482e-06
-4.9800344837049334e-06
-5.001225107038608e-06
-2.5700193587078003e-06
2.5388865098455054e-06
9.361949432922857e-06
1.5531587797804815e-05
1.7628021887682823e-05
1.2253876094860652e-05
-2.278527547793603e-06
-2.4123088833395893e-05
-4.675860687719065e-05
-5.948897414495462e-05
-5.0291168853712523e-05
-1.0970236861732546e-05
5.6580159788340115e-05
0.00013545523722032214
0.0001933571703361329
0.00018957747143008775
9.017708038293662e-05
-0.00011135867780219615
-0.00037499167811862806
-0.0006068421106334864
-0.0006742034389559501
-0.0004484077218304759
0.0001294177827054069
0.00097882122423167
0.0018387985747015528
0.002291612109440208
0.00187767216457832
0.00029772692512125315
-0.002346592014907195
-0.005370115772833764
-0.007502917851155726
-0.007176289295866766
-0.003121399426066764
0.004833360458960747
0.015044694403638871
0.02381728823997274
0.026044105789733162
0.016918217318489186
-0.005507649938071869
-0.03769210518419509
-0.06918628552433799
-0.08388299316904739
-0.06498315961482784
-0.0036125315877475308
0.09064336924957232
0.18071525782527975
0.19889926594096002
0.05332673303690602
0.04534933576439218
-0.10458139317014405
-0.22864783930452634
-0.2893751796033623
-0.17149344458223256
-0.09316338090133897
-0.03658967773363618
0.20790148654001325
0.3951612184567535
0.5890490443248105
0.148406604238488
-0.05917678140798534
-0.41930177974679095
-0.520786623584813
-0.510684986165066
-0.06893533931109576
0.3910432794276452
0.5002665108087485
0.30321541880878844
0.03220905928462307
-0.10378363947217853
-0.31513280930126164
-0.21844531894609145
-0.022950635067840574
0.07708898704096236
0.10190480963726585
0.07980868116339801
0.03890472538369037
0.0005394714137377135
-0.02367021565991559
-0.031258256665859435
-0.026015226803408533
-0.014377418001682022
-0.0024002345021445393
0.006001588342711232
0.009486311071686196
0.008752920572720589
0.005568367560423805
0.0018204721052670829
-0.0011176433139955116
-0.0026281749107177226
-0.0027646898910597155
-0.0019892612415693157
-0.0008785417313235022
9.80547010568991e-05
0.0006853184510371374
0.0008431527315550689
0.0006800780133035679
0.00036481626823058625
5.157364349781983e-05
-0.00016271097587789948
-0.0002475601625962073
-0.00022405186174849116
-0.00013931193313122922
-4.225246459696582e-05
3.233638469657568e-05
6.944844532067693e-05
7.127496155137406e-05
5.0205362269282096e-05
2.121852108183302e-05
-3.7390431124910113e-06
-1.8364730582908853e-05
-2.1892380693555974e-05
-1.729786213979287e-05
-8.996820081524127e-06
-9.389922965184215e-07
4.45230936157941e-06
6.475251963541461e-06
5.736098360580997e-06
3.479746211599118e-06
9.66991531996923e-07
-9.244583261101048e-07
-1.832982478564663e-06
-1.8362705307923844e-06
-1.265755286307178e-06
-5.100735586898942e-07
1.271294577565104e-07
4.906703361919356e-07
5.676932976717799e-07
4.394075453384608e-07
2.2121775639151266e-07
1.4179305756135925e-08
-1.212434207199662e-07
-1.6912385963227364e-07
-1.4668256198928883e-07
-8.67437394093141e-08
-2.1769223218098007e-08
2.613086963339236e-08
4.8290848675241745e-08
4.725401568838168e-08
3.186297068126281e-08
1.2188777069580368e-08
-4.0606182735588754e-09
-1.307603730814239e-08
-1.4703002600845743e-08
-1.1147677550152228e-08
-5.421956884388503e-09
-1.083676367502958e-10
3.2875381838595116e-09
4.411121745662217e-09
3.74655701341061e-09
2.1577896263297265e-09
4.796613327656706e-10
-7.317261101641535e-10
-1.2700471826798272e-09
-1.2146308891031114e-09
-8.008141370231264e-10
-2.892620700065118e-10
1.2461601369237661e-10
3.4763429578998424e-10
3.8034542084968334e-10
2.824416666724651e-10
1.324216850679408e-10
-3.794220287728659e-12
-8.88001770941423e-11
-1.1489659961286881e-10
-9.558114811644506e-11
-5.355488992935429e-11
-1.0263476506822517e-11
2.0329089047371344e-11
3.334706309985954e-11
3.11855768678257e-11
2.009346348561767e-11
6.809398132182408e-12
-3.719291777048323e-12
-9.221436210742407e-12
-9.827382147687227e-12
-7.146364046892051e-12
-3.2215657285855137e-12
2.6636892652237825e-13
2.3902565080314738e-12
2.988776576661735e-12
2.4355037093823167e-12
1.3259712823422318e-12
2.1045220371386188e-13
-5.61007721029248e-13
-8.742073017095548e-13
-7.997842128158637e-13
-5.033042305212861e-13
-1.5877021536866008e-13
1.0873500650886787e-13
2.440862100456354e-13
2.5361250149363045e-13
1.8055395067176366e-13
7.802227550347827e-14
-1.1186212053749126e-14
-6.414713303269228e-14
-7.765825413026338e-14
-6.199484624316378e-14
-3.275582993888701e-14
-4.044466397572696e-15
1.5380099439767612e-14
2.287147583292508e-14
2.047625918573107e-14
1.2572300890674507e-14
3.647402712141903e-15
-3.1404741299479943e-15
-6.459542517303954e-15
-6.548791528652728e-15
-4.566578421511383e-15
-1.8917751938350416e-15
3.871851857478024e-16
1.7050427939585485e-15
2.003831968941069e-15
1.5646469709449905e-15
7.954661065719366e-16
5.73341575776368e-17
-4.3098367593199433e-16
-6.089645423268007e-16
-5.350842226573407e-16
-3.248793175733929e-16
-9.39637795095157e-17
7.8050858202573e-17
1.59158084641017e-16
1.574533751555249e-16
1.0388191294955917e-16
3.419728483513406e-17
-2.3953334033565214e-17
-5.667310003191092e-17
-6.309892600388196e-17
-5.088382059308476e-17
-3.0682854428291884e-17
-1.1728097958282445e-17
5.27559494637107e-19
4.722812299452579e-18
2.5097481722404365e-18
-3.0680171522262766e-18
-9.035470758843323e-18
-1.3388691877215183e-17
-1.5363080728149577e-17
-1.5216625603407646e-17
-1.377389864389731e-17
-1.1960849064915912e-17
-1.0478836840121488e-17
-9.668413789797802e-18
-9.535641724137244e-18
-9.87304742195679e-18
-1.0402741176396573e-17
-1.0888931096906298e-17
-1.1195988106053524e-17
-1.1293952610047025e-17
-1.1229068357800826e-17
-1.1081375935557693e-17
-1.0927341814830008e-17
-1.0817326800924772e-17
-1.0769469855077938e-17
-1.0775865739648514e-17
-1.0814595095626061e-17
-1.0861706297821169e-17
-1.089943055159228e-17
-1.0919451939857873e-17
-1.0922028861727916e-17
-1.091276444339317e-17
-1.0898896430352661e-17
-1.0886439942542587e-17
-1.087876083032439e-17
-1.0876499090919142e-17
-1.0878370401157106e-17
-1.0882273330244762e-17
-1.08862447111151e-17
-1.0889021026805987e-17
-1.089017545275229e-17
-1.0889943666850727e-17
-1.088890704766054e-17
-1.0887684423381137e-17
-1.0886725351724712e-17
-1.0886232102903321e-17
-1.0886187405752587e-17
-1.0886440462349703e-17
-1.088680300982879e-17
-1.0887121784937438e-17
-1.0887313461405577e-17
-1.088736494804927e-17
-1.0887311676311354e-17
-1.0887208731360479e-17
-1.0887106457087377e-17
-1.088703649889036e-17
-1.0887008803068429e-17
-1.0887016484550398e-17
-1.0887044155344033e-17
-1.0887075845695361e-17
-1.0887100197521493e-17
-1.0887112312461051e-17
-1.0887112906902355e-17
-1.0887106026515625e-17
-1.0887096561994311e-17
-1.0887088413668586e-17
-1.0887083639005489e-17
-1.0887082487850659e-17
-1.0887083988389351e-17
-1.0887086698851377e-17
-1.0887089329688033e-17
-1.0887091089781032e-17
-1.0887091750079104e-17
-1.0887091508596572e-17
-1.0887090771822845e-17
-1.0887089951403903e-17
-1.0887089333886824e-17
-1.0887089037311117e-17
-1.0887089036287303e-17
-1.0887089222589895e-17
-1.0887089469327297e-17
-1.0887089677365159e-17
-1.0887089796044822e-17
-1.0887089821176728e-17
-1.0887089779280552e-17
-1.0887089708037388e-17
-1.0887089640440689e-17
-1.0887089596229671e-17
-1.088708958060188e-17
-1.0887089587933035e-17
-1.0887089607505218e-17
-1.0887089628719643e-17
-1.0887089644357836e-17
-1.0887089651591093e-17
-1.08870896512504e-17
-1.0887089646223383e-17
-1.0887089639798692e-17
-1.088708963449338e-17
-1.0887089631551432e-17
-1.088708963102326e-17
-1.0887089632187995e-17
