0
-4.959896891023211e-08
-7.515308624746199e-08
-7.848868613400331e-08
-4.506560715572656e-08
2.998051668267527e-08
1.33824875001692e-07
2.3200643819717545e-07
2.7285265697693467e-07
2.029545494032746e-07
-7.520245819976765e-09
-3.3644092940167694e-07
-6.904589790450344e-07
-9.096750512966466e-07
-8.078121715521335e-07
-2.487060724578647e-07
7.575035720422491e-07
1.9744508230756823e-06
2.9247202405073866e-06
2.9852134265038216e-06
1.6096645187055887e-06
-1.3575539200386322e-06
-5.377996177444362e-06
-9.081637815018145e-06
-1.0459374947024803e-05
-7.482206223175888e-06
9.103869333084106e-07
1.372565975461289e-05
2.721506938163126e-05
3.5122075367006906e-05
3.0309758811974675e-05
7.76702890541979e-06
-3.16879223009754e-05
-7.842734314928637e-05
-0.00011364531374526334
-0.00011329835522210111
-5.691445475026543e-05
6.0244965581164126e-05
0.00021571762753746238
0.00035512201778810685
0.00040043070717441274
0.00027469889979103365
-5.9387371796396546e-05
-0.0005581193719947032
-0.00107127834541031
-0.001354345102683976
-0.001134270257326299
-0.00022748126600844883
0.001317708891185088
0.003110308207811321
0.0044104175489804165
0.00429133023921993
0.0019877805116083605
-0.0026332207749625598
-0.00863980704625006
-0.013876234083867763
-0.015314386833409176
-0.010038577190790363
0.0032546972315144872
0.022683182278764164
0.04226547669032172
0.05250275591143643
0.04303787519377484
0.0072857690245618275
-0.05211141066558377
-0.1192405729527169
-0.1651613901860499
-0.15494296801249222
-0.062237988948013793
0.1109219016623531
0.3150050689382899
0.44306981594518347
0.3385706951151702
0.22547596816960574
-0.04230760372078055
-0.7245628709828318
-1.5515366746905457
-0.5157172559472634
0.08760961517614066
0.5750979543570125
1.3703988776414995
1.7181915282762303
0.45425772045881346
-0.5494070877041916
-0.673873782747081
-1.4132792651286232
-1.855325518438841
-0.42634965358496957
0.6778119848147827
0.9857596880207591
2.0080380069718142
1.1089774462373145
-0.7662029867266081
-1.2947945516372432
-0.7259560533291944
-0.8084929691150935
1.0735803927795855
0.9456264436318812
0.47257357744824485
-0.6137778853287545
-0.8861263235046944
-0.7996787882715772
0.3098168619649496
0.6009923275564499
0.48079325106971643
0.15341256814722054
-0.019293060554014387
-0.13690468087943522
-0.15944008743914329
-0.09282753242331793
0.030956665198547482
-0.027459319611122603
-0.10117431525130087
-0.009729348982480896
0.0420108105263099
0.06023731712405257
0.0561955737852367
0.04046173998188569
0.019577509741017133
-0.0041056233169115075
-0.029894772580581902
-0.05513708754621101
-0.07263045848830725
-0.0710035598302452
-0.039120446075976555
0.02590019906652423
0.10917254554026395
0.17055628133486236
0.1431109827855071
0.14026927755403176
-0.12821571131282042
-0.33509253778073006
-0.3157362655614963
-0.05665096170963264
0.10350620634808061
0.2616479680273305
0.33309386216583137
0.037886628034448845
1.4966924844865896
-2.3636958699516333
-0.8032365597519892
0.3270356590049151
1.1602250118318942
-1.2275817159091196
2.142029152451982
0.5299936402652509
-0.30563955701576845
-1.260906563488836
-0.6187377812747433
-0.1884868031588361
0.12640515422559212
0.1252829591440081
0.4794728536653829
0.4902972806511403
0.25300447733385156
-0.16210575483887443
-0.5093615445809521
-0.35498801418097864
-0.06290901603460236
0.2122417982995572
0.5227665062161222
-0.07985743258494837
-0.15248445336956212
-0.26471750423783674
-0.20140983802165993
0.03417576596600503
0.6162697216130263
0.29500738799429044
0.0022599167117321652
-0.33329367604958093
-0.5663036981381793
-0.31953892708266834
0.017608910748142515
0.2740810926866513
0.47144017530072807
0.39960706247012123
0.20656456452318617
-0.19109615344356784
-0.2788632090900695
-0.30644542812997916
-0.4554173040197455
-0.2245986790444875
1.1609746528997058
-1.0804224974149108
-0.1312524400135307
0.7777953493677863
0.7275032449064874
-0.7121913978616077
1.121792167789815
-0.18260123097363934
-0.8606927730505519
-0.7141668545426526
-0.26733232497835396
0.2494032151855191
0.4858569494381559
0.33747703209965346
0.1056714603331893
0.06728563605163645
-0.13952352059941306
-0.11341307404247056
-0.07740699004066373
-0.06286231773324749
-0.09572002739324023
0.011514783397983291
0.061237189035348395
0.0669916746241819
0.0471501598346293
0.01882986261058962
-0.0059935220180117755
-0.021552379361066472
-0.027082473840174426
-0.024536420073943473
-0.016451256536027758
-0.004806926460964627
0.008900822853656587
0.022749450669533638
0.03342270116075532
0.036062344531537525
0.025540663368383055
-0.0008510787025489766
-0.04010986186516137
-0.08119374686929307
-0.10560393257000006
-0.09247351509183882
-0.028506958273502202
0.07891870011449528
0.18944069755341347
0.22370414679847897
0.2690615893945317
0.19993824555832934
-0.08884920792322515
-0.6434292850385036
-0.6194718929500134
-0.2717292491313928
0.02689080488137108
0.33853974972876766
0.89904066049424
0.46166524087671557
-0.13561945446634763
-0.3702991744440296
-0.20598580594418064
-0.045743626702351596
0.11762791766406253
-0.056844317032119986
-0.2318378641359435
-0.38444014283537603
-0.42007863647711047
0.19370361196530356
0.7809259355939735
0.6120388976140831
0.2761907558939523
-0.11791045593971973
-0.5126449671511569
-0.6556287087778336
-0.25557872991262676
0.04415504541307206
0.2674283259909091
0.28619793363958734
0.19126480195576318
0.06479962011065304
-0.03715820081500471
-0.08971266766907741
-0.0939360676373842
-0.06629680565183096
-0.027570913112130693
0.005380470024258224
0.0236161832457936
0.026268498003651348
0.01818424945642987
0.006598523554010657
-0.0019358660715284774
-0.0036627412530348628
0.0014589660429298191
0.00999648438143366
0.016295163517817124
0.014530181421369012
0.0012169523584849172
-0.02240636621338488
-0.04900026322307251
-0.0657742930377989
-0.05797123782125912
-0.015242166967544534
0.060258588374459236
0.14659548289774302
0.19900801322854406
0.15418843063349322
-0.05703486638972303
-0.29092709511098036
-0.3717853498986463
-0.279860853573035
0.24860154560787412
0.9094474321776311
-0.387435035534307
-0.13497190839743373
-0.04071151632770283
-0.234750543741635
-0.4770697382366642
0.8343926098024304
0.457713537479756
0.10880294468105417
-0.32449489104037715
-0.5578104250445202
-0.28388871947784916
0.044764718684141176
0.21795608618997828
0.25605912218690025
0.19188528765186164
0.054829380148685526
-0.13715909222724837
-0.17714285584673017
-0.06360383227019846
0.005716539006933341
0.037255796763168175
0.04152168333309831
0.030579737489372007
0.014983452661866318
0.0016334716915271626
-0.006768244501370535
-0.010787315194097006
-0.012467680510579024
-0.013474985793089905
-0.013870060941255874
-0.011944559061377553
-0.005192803253936168
0.00789627658189159
0.025902603269267934
0.043307786723892766
0.05100834096036314
0.03905838142684627
0.001424692966168051
-0.05852539546219596
-0.12412810817834066
-0.16597828222880096
-0.14927977523168312
-0.04843332587183604
0.13383783157769985
0.3490589833323903
0.4959113517531846
0.4315916359827928
0.005029397622375895
-0.49315572023421966
-0.6786598720277636
-0.8402517131368606
-0.744483455223693
-0.08694936877048169
0.8185588305062819
1.9397618194785127
0.2521976275135039
1.5265634159138515
0.5925695025383839
-2.1340223629888695
-3.303009634116525
-0.3177979447216684
-0.7096186631187084
0.7856786306852088
2.4754011971589414
2.141361208644727
0.5194513647214443
-0.7302340832403431
-1.5599955849131293
-1.0123312559567
-0.49057934180380053
-0.0664333653524461
0.35481040893626287
0.4150661663660075
0.4502805684601316
0.22797665956571816
0.09582361373432052
-0.047711614630050976
-0.15933684337273996
-0.23945300249855275
-0.11244375206453017
-0.007451605125026262
0.054803362839358584
0.06758448758381237
0.03752412094858464
-0.019528187891822795
-0.08390368074797405
0.06261366578207062
0.032409189127739164
0.029271735968513995
0.04803575459021471
0.07710389511496674
-0.09652343262904889
-0.08119341403139829
-0.07589936137864772
-0.06941918776884477
-0.04477444497348638
0.011379943316273239
0.09691840579923248
0.18409617911203865
0.21582867451503732
0.11213444902692658
-0.012351613935385657
-0.22300133573499892
-0.33913259911939814
-0.31642181224238514
-0.045513593770302264
0.03034717272284815
0.28253508456288523
0.45874796368926507
0.25114558788295743
-0.11940342868589199
-0.09938038006707503
-0.18258061322605568
-0.2825724441119715
-0.10720868995297109
0.05793395972371166
0.15496209531727653
0.15022570945017882
0.026889740028266693
-0.021830370839981916
0.003692012711642942
-0.09110602035781733
-0.09424653301913379
0.012845675473264864
0.05352026618864324
0.05234245894104156
0.031068597515254887
0.005700649731312202
-0.01444881133110239
-0.025735178522363567
-0.028039815623245274
-0.022625221439703753
-0.010885427488974664
0.005661263594566634
0.024440274971449103
0.040774213885689366
0.047752622806794286
0.037821111080450685
0.006216770392901359
-0.044618252242925635
-0.10152910399767179
-0.14052816825949252
-0.1322514651175245
-0.05368651473366669
0.09574051715108234
0.2786801741081646
0.4121759916584844
0.37487069114208926
0.03259555977690218
-0.32108119560090664
-0.72086996016769
-0.899328672553434
-0.28591830152725084
0.3577218636345486
0.874297465073948
0.8408436255375642
0.7189439907927833
-0.1549818245069076
-0.7357065403864
-0.8057967789023907
0.2918940783930473
-1.299175902845324
0.06133893520140788
1.0842506170585218
0.49981956758314455
-0.5972601451665589
1.2132705692785173
0.0665165299362507
-0.7690217645933908
-0.4523145037067265
-0.12531263548617083
-0.07884424261798059
0.06154916003554755
0.12927161540012208
0.19613809004040922
0.1467529650493525
0.05616825225248407
-0.023836941221087118
-0.06842327613774551
-0.07524402456402383
-0.055665699575336174
-0.025546960015792358
0.0016712020529985655
0.018422293863300687
0.02328938655606334
0.019210462602398483
0.010936569464919893
0.002806957398267881
-0.0025729545602028014
-0.0046392809193887274
-0.004385222788712532
-0.0034605732575802243
-0.003237086964326805
-0.004140128951121079
-0.005431687709488515
-0.005507891917573816
-0.002648267601013993
0.00398060077954287
0.013397526290777336
0.022378025058342584
0.025932205640157722
0.018906697042049895
-0.0014652446298742238
-0.032780269477010904
-0.06568002098003517
-0.08453315821838042
-0.07173616881799073
-0.015759711830826927
0.07855851591795282
0.1807318435604245
0.23071226118849636
0.14428338177556269
0.029255897705276628
-0.19013107267294788
-0.547560027646892
-0.4172043637654482
0.08739627575490179
0.2959006706170096
0.35098774980294195
0.5772460673442473
0.2612885342813162
-0.5505529826335583
-0.6398283742415577
-0.3994832121317845
-0.025261674187318003
0.6793833723068563
0.48925357860996427
0.14543884774385113
-0.04420927565101288
-0.18927562515324248
-0.7917496919356627
-0.12305158424680607
0.18676552517598313
0.3441021311494463
0.1756465984992815
0.10999289074930316
-0.03485234018833442
-0.05458365085952658
-0.1537627750763636
-0.13741113968508856
-0.0037900524898359326
0.058531636179097284
0.06883186601005492
0.04934478762222176
0.01994252891889815
-0.005508104921329237
-0.020252938365146148
-0.02354787858307775
-0.01835201063825058
-0.008917833688401053
0.0009437312603918049
0.008641474002257477
0.012788498153878823
0.01281363337760133
0.008645172898484318
0.0007407080763937978
-0.009545389038106974
-0.019546363163298684
-0.025275769965796266
-0.02224754377343191
-0.007262153231438942
0.01918410494076204
0.050751440186624024
0.07462605527188028
0.07359546554804448
0.03131730233878106
-0.060053807623567816
-0.1923127601151007
-0.13730996241861365
-0.05017017790212482
-0.08123431911619325
0.004774301089664574
0.2071593134383405
0.27246125735191745
0.29036416793379666
0.3083375489333921
0.1663348921997268
-0.25409628391271155
-0.7794476423490354
-1.1109972552821716
-0.4263036293567521
0.1762666621444889
0.9982277698731723
1.2520981951016954
1.1964651381757887
-0.07787993732395232
-1.0034967612871857
-1.251088317840989
-0.8384042007912587
-0.26894596461824977
0.47940000228167445
0.918640267802888
0.5893313669658444
0.20147331402039864
-0.2011323963753075
-0.2458015586860585
-0.2111468572918842
-0.19550408293248378
-0.08661626373074022
0.058776693366313575
0.022367564465582506
0.020227398188613552
0.09136274669131945
0.08366484396603818
0.04140265816389883
-0.002981186053763971
-0.031792372872568475
-0.0404495255922179
-0.03312335906892896
-0.017731646639286332
-0.0018981420132219865
0.009340966007633044
0.014096233463189192
0.012985311563495042
0.008001310691285774
0.0014762545256553053
-0.004551584996080558
-0.008552272165861581
-0.009489260485616872
-0.006820609536562623
-0.0006758748894034785
0.007812590101940365
0.016240580664425054
0.021060076812948175
0.01840055381418033
0.005645513844984126
-0.016573139537824515
-0.04274789106470937
-0.06232265931345316
-0.0619950306825159
-0.03091711437175282
0.03190397874526689
0.11008753236102611
0.16543524967328216
0.1399294480483463
0.16626051544011
-0.013832714876330596
-0.4278878078410689
-0.6555671817219013
-0.02475743249575082
-0.026063169502419267
0.45685588140460937
0.7119189538342758
0.5731146835581848
-0.38333718320972127
-0.41885153238135503
0.0025204645664252453
-1.3523618572702532
-0.06927204364521522
0.905305269838448
0.8363290970823529
-0.43257796594118386
0.699589086920015
-0.2097504193933145
-0.8297019807479004
-0.4313177661569663
0.1318702496988829
0.43018317046740995
0.25162106172019705
0.1907319732393311
-0.15910208263548445
-0.20612576764683976
-0.15523815729223894
-0.0024124775361605375
0.0673727485729396
0.07751576759653109
0.05412661980380407
0.020112562328558934
-0.00873957988564131
-0.02482679968134962
-0.027385711760367266
-0.019898324919035804
-0.00745425627548328
0.005133939534983825
0.014237670900500196
0.017590532040173693
0.014206715608317095
0.004440306773041913
-0.00969925940011427
-0.024221908036810395
-0.033336679220303894
-0.03067615347688327
-0.01180397756438525
0.022349997059468895
0.062192920616142545
0.08790010245506336
0.07115300384471321
-0.019013187128287454
-0.006909482246059884
-0.09976639878436332
-0.07970845477750321
-0.10187068690872517
-0.1014631195814081
-0.21065316525863131
0.0165541922857359
0.1764553444356692
0.39297493986205045
0.5101502380892016
0.3083883003569617
0.14747500265300817
-0.36988768912653575
-1.130163989535577
-1.0590934096659699
0.08969691822208245
0.4990571873885128
0.8151140336806821
1.2608075783465063
-0.03621726626487758
-1.0837448545313844
-1.0326463214368513
0.43510757249939364
0.32410643871766226
0.7445353449819667
0.5386167169358552
0.12214501696998609
-1.2593895109728226
-0.8724850898759642
-0.0544076243305086
0.3956739417695672
0.39119985510789934
0.3102533395831189
0.14328539561567727
0.05195962874182001
-0.05309715517638657
-0.1155963451210426
-0.12309671709442163
-0.08993795444889757
-0.04024338294504617
0.004584682637726217
0.03220049021449901
0.040118636851577634
0.032960814737644735
0.018411261316818906
0.0036669188282388316
-0.006665489473392332
-0.011083359573462776
-0.010522488580255956
-0.007143362000264858
-0.0031492050423487915
-6.777943590210854e-06
0.001805390827566012
0.0025964914286231893
0.0030021326871570555
0.003487388441410047
0.0040105623183028325
0.003975451651700832
0.002507368513558042
-0.00101795188308493
-0.0063703811830573874
-0.01204817204019896
-0.015333412006043946
-0.013029850170198785
-0.00289302658398562
0.014540063162883959
0.03433653431688514
0.04658115403956837
0.03754096257350581
-0.007177479065732433
-0.09804679412507865
-0.03700618642758182
-0.0145647294557981
-0.009937947481569917
0.005503585423099642
0.0623033194943554
-0.01394743276184915
-0.008689071771721794
0.07777008607571989
0.029637622291302936
0.018656066583669962
0.010460100700174708
-0.026933193770760092
-0.11459370854906953
-0.056686672219872634
-0.03935223381743531
-0.03569316840570369
-0.016413636913241995
0.036128882374282995
0.1141122869451888
0.17508486307316268
0.14161095391721534
0.11230442234667888
-0.016139285228809194
-0.12006771526803227
-0.2207664225793836
-0.2666443855156242
-0.3346417195644253
-0.4563358434090373
-0.4680097635974499
0.5246431944578672
1.486254388819689
0.8223403933400746
1.405964231112882
1.0716890556050938
-2.237832914515201
-3.116983788086408
-2.3982186488930317
-1.3677620515775988
0.48273171433447576
5.005033187176722
3.931641185570068
2.505993233737799
-3.323495303147922
-2.5464423961247538
-3.0434325708288066
-1.1534596563086958
-0.13824485988124208
3.831067282606419
1.3966174043365622
-0.2929379132184891
-1.0658849704477895
-0.5673795667985505
-0.0660927447116268
0.15139502612916372
0.1840840244433197
0.11480235399475253
0.006620897944517664
-0.09861464809456313
0.02186038320855799
-0.023410219709243698
-0.034424768293105
-0.014947801351588312
0.030270976106427972
-0.10416096920494188
-0.02623048050365519
0.04999388290322056
0.10083108905060134
0.09158738427305294
0.17951512141410575
0.1222274583905131
-0.10973725485811206
-0.3206653940798564
-0.48488125024867357
-0.556879294799939
-0.09997217414136077
0.4712367317498025
0.8495802769810764
1.2177637477472987
1.276180139878384
0.12540101394096745
-2.0098504694308774
-1.653519081656133
-2.0010738304132323
-1.1388888751043311
0.22378039544353973
2.937954796210042
2.580466435455464
2.885974172158291
-0.4878289802453237
0.15642197011466002
-5.218091410406079
-2.5336401449041155
-0.821627072553051
1.821096451876706
0.544450052628751
4.383263711968938
0.9025155034071888
-1.2850659358443113
-1.507314252324565
-1.3523824849008923
-0.5718178819283246
0.185789651778195
0.5889526296768581
0.591538754028325
0.3782578948472957
0.11268914391856516
-0.09527077550383711
-0.19771149886269013
-0.19773714572175427
-0.12890455893113956
-0.034494267853042625
0.04735620031863227
0.0908526738089299
0.08351382264903662
0.02370665338552393
-0.08289328033443058
-0.02698276091808802
0.00015884797859210619
0.001066036136205049
-0.035413958498160904
-0.14334127836476399
-0.18972157701334602
-0.0833543744463194
0.4215407806948854
0.7335447592782652
0.8517781750322682
0.41702786416238813
-1.2204787162778012
-2.7380282990758666
-0.8131864402557
0.4428026933570905
1.5913619193333017
3.145108540732423
1.0689697806951188
-1.4561080601090943
-2.4019201922094204
-2.0278412273252284
-1.0317693272996065
2.4499274939222495
2.39950439127794
1.2720813615417172
-0.20673721199034184
-1.378881205740357
-1.7450369571057638
-1.053537293280385
0.16760022510209632
0.6118828377714113
0.735166050010156
0.6644941678347521
0.3091859012784755
-0.10024401449164394
-0.2352740431936974
-0.2592154724420085
-0.19694145784056333
-0.09939521220247577
-0.014262140914000737
0.03138495419394078
0.035759279716336856
0.016978395391508878
0.0016813608807149016
0.01178754060520886
0.05304122544067723
0.10838830887721432
0.13855330100257118
0.09107727307470923
0.11716591888743032
-0.007055578337754947
-0.26144107235096453
-0.5740819964956398
-0.8347485408417841
-0.5358460545456928
0.16199753183555843
1.156671213498378
1.9545314150385005
2.0798206894837463
0.7686299577961245
-1.2573794721468454
-3.1827447202200454
-4.533759003837419
-1.940672185496816
0.5266522592089241
3.2716103704995914
5.426907302238474
7.387715136453221
-3.2646915286979326
-4.4155706191187445
-4.516745325194829
-3.4758276391176324
-2.0714838314901574
5.642887171104441
4.183282357298645
2.232929496622456
-0.2935636089539287
-2.86088980778068
-2.2155030100083764
-0.8481633200159089
0.11068340653950276
0.7223992775894801
0.8003768510223619
0.6294427129022212
0.2819481598444044
-0.04152377705481041
-0.235446853872403
-0.2803544318486787
-0.21420843548590324
-0.09862295873259203
0.008991840623259589
0.07197707549928084
0.07948681362836549
0.043052039335517676
-0.011522893161461082
-0.05388336026165739
-0.058716306936238576
-0.014306662497467237
0.07088189353403397
0.1652203370269025
0.2166751098321149
0.16289261871540497
-0.052132361533727654
-0.259349046495386
-0.6523200536146079
-0.7912399773071275
-0.22999369689180554
0.4363349151099746
1.1192939812746772
1.6071466738657245
1.5854334125187457
0.12251124052910842
-2.1930768989447307
-3.508342938031276
-1.6184459794689354
-0.18963744957031903
1.4949451662034174
2.9077744459460773
2.847522492849181
0.8913680158270718
-0.6205881180685477
-3.27327523964801
-2.191766409458494
0.3403557354786881
0.3995118628811483
0.25777209396559136
1.7544073774648248
0.8407732260267358
-0.8675584821490876
-0.9152770222110553
-0.41265214626031904
0.16282926546125703
0.35591719904711916
0.31275709065259466
0.1575854723627174
-0.023526296097499618
-0.18682144849398494
-0.12389319491965398
-0.048550823149165694
0.016961966822805045
0.05276736954013738
0.048026993279379995
0.0039310909868893445
-0.06627403073956516
-0.1400241201373516
0.008816863009563275
0.0013365159822360821
0.04347770920529225
0.11735119815646224
0.17766092913236972
0.1565186582072992
0.1780418691663423
-0.019144843378687954
-0.45753192289727973
-0.5042006881272257
-0.47297559462951017
-0.2524452751656816
0.04166851505493909
0.6028044723136017
1.0816147821123638
1.1729636703394777
1.0634009683931414
0.34381547020126874
-1.2335084393314977
-4.200884140287427
-1.887184681335725
-0.44918466548042435
1.3637070544211207
2.9529941040137473
4.408939016347392
0.7373277342062563
-1.7644627554418133
-2.7840505215560523
-1.9841683636308083
-0.39187158413386564
0.5459765933901843
1.2173956153088967
1.0275755440837027
-0.05430701734944892
-0.5508692112825785
-0.31909857054739754
0.020014747752435353
0.05804134792148594
0.17750942140862996
0.13286223028866373
0.03743377763316234
-0.04080876087937048
-0.07464332592028444
-0.06658781058645044
-0.03532056627505444
-0.003100641295678214
0.013474345140733637
0.008463375798404098
-0.012545313618586748
-0.03508248725053452
-0.04123799640231992
-0.01702440770656663
0.03961442750419996
0.11207116008498613
0.16202572183210187
0.1322112480286668
-0.044387971225755794
-0.23094940578019202
-0.47366026344715445
-0.19492158345252109
0.2033794767778384
0.5282046550010274
0.3827868064452494
0.36276273314029334
0.06673528356115345
-0.6817534794245224
-1.6131920127025543
-1.0085628687895285
1.2763609922965566
3.5653235796699887
-2.0816442809825095
0.3178675009640961
0.6951569410363496
-0.8134720983946879
-2.8051999188365846
2.4306459568074605
-0.08351670096623204
-0.8503413555941437
-1.1663944301130418
-0.009161830028472867
2.4756108663322576
1.5119832794354642
0.48720012656406064
-0.1817138393956641
-1.5186384856287811
-2.8367857142921205
-0.6191020332536346
0.7265506887789235
1.2266116282234394
1.040233905740735
0.541791629061847
0.029073329318654754
-0.3209153176144703
-0.4492501349910824
-0.3816506532307807
-0.18522002387262132
0.06786927545182364
0.12156280327805498
0.14218142368889503
0.11503831140587371
0.037758443755915146
-0.08522271674838536
-0.04543253869613632
-0.031231647324491702
-0.028573495583138476
-0.023067300416080034
-0.003693921646239217
0.032586623481797784
0.07693245857921527
0.10740469287213704
0.09213873602584191
-0.0025441739675160424
-0.00045291188140350104
-0.1038322903054067
-0.28691098348715754
-0.3003299510967159
-0.2904500790991674
-0.23336956942899015
0.22303202748288653
0.9231716205958871
1.393583985441132
1.0772196938982723
-0.18033665956654343
-2.006738647903833
-1.578575580545571
-1.547100414577899
-0.4548662156721364
0.7460308533349529
2.101816775698889
1.0485383878169547
1.0532727207887864
1.1555416323905006
-0.17280927694803155
-1.267715720068695
-1.2619018080955295
-1.6878358762179089
-2.1560309681082446
-0.14624617202952214
2.289070874417408
2.150618453484351
1.5157605322688699
0.6267040106602553
-0.5200401489271661
-1.8900226091294605
-1.4763385441975378
-0.5715195340462174
0.10818002035715985
0.6282885433033256
0.7834631028574387
0.617183382991793
0.146687517216399
-0.08421491231470091
-0.2173188729107375
-0.26357282563293627
-0.27167912274317974
-0.09600539583991707
0.026058940679479312
0.08322883947634384
0.08736124352714943
0.06313557879622447
0.03583364295569535
0.021541443241239213
0.022207381247803734
0.026181440954252413
0.013464619635837184
-0.036109969726289735
-0.13426049976520915
-0.07802599151039005
-0.04834427032850434
-0.014500785897329607
0.056550653510850604
0.1890227062418029
0.18946953937001504
0.04411381149921135
-0.0759995606038665
-0.20364760055927283
-0.16245496608520152
-0.15788010268910244
0.023894953489390542
0.208791883315254
0.2228076103356778
0.08071464307074605
-0.019563006490179082
-0.09499698357665959
-0.16969743731189685
-0.06546309167234632
0.005188606439159879
0.04117040178549888
0.05029918931644298
0.044095842517154954
0.03249989363626351
0.0205639498319108
0.008095782528092807
-0.007962228717846959
-0.02959212423256232
-0.053979587408070566
-0.07195075207283425
-0.07012653514402736
-0.037394237002756764
0.025174682846313145
0.09352403615996417
0.1128870159310817
0.19757589337481918
0.24182191073619946
0.14268970284232313
-0.16791988184735068
-0.48996457184958525
-0.5322605983040947
-0.31168928881750085
-0.18150366635237328
0.3139674200638651
0.7717609407294999
0.6709971405188188
0.3435305199256457
0.3883061125180623
-0.2709101385221813
-0.9001941002594228
-1.069646941126354
-0.596980455388298
-0.34206981497664163
0.5436876971503128
1.3300840195727723
1.0147828063173046
0.25820128599568387
-0.23128755132759096
-0.660789361126724
-0.883695741225925
-0.326203507263455
0.06539754181325602
0.2440818868247071
0.24997531883985097
0.17856222215239026
0.14370058467447527
0.04694102074043464
-0.04080271796046805
-0.08446132984170174
-0.079827953410811
-0.042964255399684424
0.0016553267638925084
0.0313004063767429
0.03209893250903154
0.0028701304352348554
-0.044238299486282336
-0.08644612903258668
-0.09672527796030422
-0.05387098754763817
0.0449502580221325
0.17219369628138334
0.2630918723498899
0.21887990824854414
0.12306344332099067
-0.13051121289731188
-0.4043724033926787
-0.6897966644915785
-0.29636105946079905
0.3345050676992209
0.3943423085546542
0.6627705006770408
0.2693041387747118
0.07493764923061237
-0.7229572418026677
-0.36953937900032713
-0.32854688379334096
0.33251375598747623
-0.25642544807661555
1.4239842127459652
-1.1252291382129271
0.18001780537367623
0.8214242324728984
0.705037504339009
-1.8049613083155565
0.14459504516666127
-0.6907558922861661
-0.8704077237531483
0.4802072763068366
1.5967492596221184
1.206509498809581
0.29097329241001835
-0.5021451318523792
-1.40220945928411
-1.2401725185197152
0.01260040373997579
0.668560417151242
0.7097282538687834
0.5521034203720774
0.21202424979540696
-0.30938781522506165
-0.621219645165742
-0.326376545435233
-0.007174845495415439
0.1776677720012957
0.2834924880210828
0.1635447783467888
0.054523165226796656
-0.030146047327114237
-0.09784529677060845
-0.16777173377578147
-0.06012016220945326
0.012182180737686113
0.04684559649925079
0.05084215217757497
0.03618438340253004
0.015214955231426934
-0.0028346546790837205
-0.013288340520374503
-0.015661062077459768
-0.012200607100970458
-0.006153577907937869
-0.0003761373021642872
0.003415049380327177
0.00475855911178181
0.00412943831646766
0.0024457220089951466
0.0006184751498476968
-0.000730368131988563
-0.0013561147781453087
-0.0013292620117393032
-0.0008978533013011584
-0.00034496951197619634
0.00011239383314592663
0.0003667157303607295
0.00041327155293831183
0.00031385447064352656
0.0001530787624548776
3.614714804706526e-06
-9.208452799147127e-05
-0.00012392290905935988
-0.00010542591792230938
-6.0847595274404214e-05
-1.3667266670837283e-05
2.0447409844507052e-05
3.565710374567442e-05
3.4162102009471e-05
2.2563563605635175e-05
8.188839914365528e-06
-3.460082691290222e-06
-9.751856789881324e-06
-1.0692020962750824e-05
-7.952847088728839e-06
-3.7397572405344054e-06
9.218815334874685e-08
2.488070920423512e-06
3.22820415929697e-06
2.68988813763378e-06
1.5105082707370285e-06
2.9326299925216657e-07
-5.683732323308897e-07
-9.363217979405372e-07
-8.771593303384002e-07
-5.661955007402993e-07
-1.9287358995512873e-07
1.0349345787191027e-07
2.58753416603833e-07
2.7631545325391035e-07
2.0127438445321027e-07
9.103944693148821e-08
-7.089967302611436e-09
-6.696050722503648e-08
-8.3954020411815e-08
-6.851856705806499e-08
-3.7377214392054335e-08
-6.008793524496768e-09
1.5721833008296707e-08
2.4578092701123697e-08
2.2526634675213452e-08
1.4213137148520809e-08
4.529763683407598e-09
-3.0008619925999088e-09
-6.8211205531346786e-09
-7.102432395037745e-09
-5.056795195152413e-09
-2.1766886279693607e-09
3.333288062775641e-10
1.8264893940649778e-09
2.210639867377226e-09
1.7732887591305315e-09
9.525188994938019e-10
1.45081980586911e-10
-4.021393599135029e-10
-6.140747168113623e-10
-5.477748057739616e-10
-3.26098640929265e-10
-7.523414317157086e-11
1.1587303227706622e-10
2.095773675641609e-10
2.1243175906580524e-10
1.5691179513947044e-10
8.17686448773923e-11
1.7640683417914115e-11
-1.952081597455678e-11
-2.8031690707395776e-11
-1.5760297182625555e-11
5.834311943968354e-12
2.6594334446698714e-11
4.0352780083078354e-11
4.539082413272235e-11
4.3340141899016453e-11
3.744360228369694e-11
3.0952330111608935e-11
2.6108890874790973e-11
2.3818406653977085e-11
2.3857507179741437e-11
2.535843381037622e-11
2.731628753598294e-11
2.8952748313239492e-11
2.987556132994054e-11
3.0059065221030525e-11
2.971755838113268e-11
2.915034737905688e-11
2.8617195373945436e-11
2.827184413449012e-11
2.815301100008203e-11
2.821455984319041e-11
2.8371050870723814e-11
2.8538817630103537e-11
2.86614050519544e-11
2.8717179887110535e-11
2.871328779864518e-11
2.8672855784847283e-11
2.862191127014394e-11
2.8580200880050116e-11
2.8557339636307986e-11
2.855353369428251e-11
2.8562971570113392e-11
2.85778463542198e-11
2.859152294616586e-11
2.8600176687215328e-11
2.8602953819715675e-11
2.860114661366896e-11
2.8597002251463648e-11
2.8592671397136962e-11
2.858957301222899e-11
2.858822061352903e-11
2.8588394680248994e-11
2.8589480322438168e-11
2.8590804223020637e-11
2.859186605315281e-11
2.8592430955579192e-11
2.8592505281665222e-11
2.8592246024311154e-11
2.8591856538792173e-11
2.85915061043243e-11
2.8591289653326188e-11
2.859122547377786e-11
2.859127765509375e-11
2.8591387190984686e-11
2.859149886127135e-11
2.8591577060445423e-11
2.859160969666235e-11
2.8591603326628608e-11
2.8591574262164984e-11
2.8591539901092084e-11
2.8591512903303022e-11
2.8591498983144635e-11
2.8591497678368927e-11
2.8591504762697383e-11
2.8591514946064196e-11
2.8591523914880755e-11
2.859152931849978e-11
2.859153078129456e-11
2.8591529294440454e-11
2.8591526404867894e-11
2.859152352878296e-11
2.85915215580684e-11
2.8591520774735578e-11
2.859152098696829e-11
2.859152176295439e-11
2.8591522653676983e-11
2.8591523339247906e-11
2.8591523681233e-11
2.859152369917838e-11
2.859152350649543e-11
2.8591523240623207e-11
2.8591523011347e-11
2.8591522876720674e-11
2.8591522843962926e-11
2.859152288587609e-11
2.8591522961966845e-11
2.8591523035956024e-11
2.859152308554369e-11
2.8591523104228798e-11
2.8591523097534102e-11
2.8591523076868187e-11
2.859152305380638e-11
2.859152303642004e-11
2.859152302804656e-11
2.8591523027987176e-11
2.859152303320707e-11
2.85915230401395e-11
2.859152304599328e-11
2.8591523049338366e-11
2.8591523050052113e-11
2.859152304887778e-11
2.8591523046875212e-11
