0
-3.622786838494143e-05
-7.187668740280865e-05
-9.277345059455056e-05
-8.005729276333146e-05
-2.0484980936746333e-05
8.378193277133253e-05
0.0002073009569752507
0.00030037422319942054
0.00029946195450092014
0.00015046177928777318
-0.00015915086614955932
-0.0005700174181635847
-0.0009384261912483788
-0.0010581754872802404
-0.0007259235518016226
0.00015693868769177532
0.001474897169704013
0.0028309516623703256
0.0035788709070195372
0.0029969913017030268
0.0006000668855571713
-0.0034843753412999666
-0.008223181688899963
-0.01166094905343437
-0.011348032706734415
-0.005260094095775652
0.006959094236298965
0.022857112151017593
0.03675704660318231
0.04069311139672227
0.027022010185131715
-0.007604982278687605
-0.05808275256454148
-0.10846508371840738
-0.13359875165608215
-0.10640378160816562
-0.010679369075505868
0.14331912066119812
0.3060060877159835
0.3852829894572044
0.2589717325231991
0.004406485259623671
-0.46030047564473836
-0.7360250303089906
-0.7198821311156338
-0.2134116612762302
0.43528298304430774
1.2668679267067644
0.64658368769582
0.6252479469378425
-1.0603773416325586
-0.751708962898724
-0.6162958442697116
0.19688854966383584
-0.0202048592737745
1.0646986128284273
0.21124773131156926
-0.40578918693998556
-0.40089936795773085
-0.175871565076308
0.08202623369414974
0.19692254651630295
0.19669343461952188
0.1051340526089078
-0.06157330487306518
-0.09250244974176033
-0.1756901112202821
-0.09194962419976012
-0.012573260381492578
0.09748454461577212
0.07218486865444015
0.1360360931145974
0.09845602097459752
-0.046781141709174766
-0.11703510318244201
-0.13363880866543829
-0.1157676554312098
-0.07845083293147323
0.16440939050483766
0.19405956752768477
0.18214339391259254
0.0914250857216996
-0.11615741163604168
-0.26611790198632945
-0.1580958750746957
-0.1589288619996388
-0.0063860159715561126
0.17641034385620136
0.2602852317909672
0.09011602565073737
0.07258331459069499
-0.0245309976539864
-0.0617350042457002
-0.10967066077042761
-0.029013300631766097
-0.05406906561340772
-0.18443889320224957
-0.18713612675044056
-0.009094718320695328
0.20303067457436286
0.48214074085741626
0.42737746370585883
0.005118706779297411
-0.43447283807689885
-0.531958098015283
-0.4964775982861702
-0.09876195521741843
0.5161092168751782
0.6019615036499444
0.38427131438144474
0.04640348968212996
-0.26368749007003783
-0.6097397568737176
-0.23783142811039842
0.44569028202976296
-0.31928151445779196
-0.05699808260967589
0.12071832538840752
0.0843031305449165
-0.34309213841254904
0.7934508578391666
0.3760383566864077
0.2316458223052016
-0.02703177115418389
-0.34492296031526204
-0.9682277954703363
-0.8090916164047763
-0.24885341962190832
0.21426228388832524
0.8839486263653779
1.1769833316424723
0.758305582608478
-0.07575108406921469
-0.5598914930851873
-0.9828934592429868
-0.8006684023447465
-0.17025692520528635
0.27556771964080734
0.4110581407299492
0.3710829938188639
0.2963012128577748
0.08883631298928685
-0.010313762633541274
-0.02002952958270903
-0.19926184205862002
-0.21813970252732018
-0.13038430396108677
-0.15552941314787677
-0.0755303847563641
0.15451173112588495
0.18631807251548313
0.2568885891377901
0.17367814384313013
0.11222610802631358
-0.1727693398652863
-0.32730023672952085
-0.37708642249844726
0.08535555335740716
-0.09987535289694474
0.32617931291961166
0.22018980592708412
0.01629193636750615
-0.08607200579792855
0.4773753005463395
-0.5535311559226763
-0.045200844220861396
0.14985481095565542
0.009568371190809359
-0.4486876890480549
0.23139968032320668
-0.06511054727832416
-0.04259469849392266
-0.01723470632039876
0.2617382611379579
0.3977783183621772
0.1448483634893108
-0.18038410695578827
-0.2747251443246881
-0.42097704710022643
-0.26702895974098706
0.18079898677785777
0.3488188561882944
0.27695987261673816
-0.001189074444500415
-0.07147836380508707
-0.1423805107255851
-0.03994227262477914
0.0015645362200086058
0.14977067009379963
-0.01686074874234237
-0.10222768696265161
-0.08887127362740277
-0.13875736262566601
0.00034633858099674764
0.18336795360865102
0.0539430252563406
0.03205985758958461
0.10732510020139964
0.04022436444001309
-0.0284770676837987
0.037813736159481436
-0.01052345772718367
-0.1938709070711673
-0.2957901411125583
-0.46794957915962876
-0.04948158177783641
0.40264735184707157
0.8825105477476609
0.7183809669592341
0.38349473104830634
-0.662411983725434
-1.312934242283396
-0.960958313029286
-0.27714233006775774
0.3650629736460326
1.0248605492796914
1.3158271155090508
0.5465062964200752
-0.29625556306803075
-0.917376907981424
-0.8543579647452542
-0.6178148042659692
-0.05758975445299596
0.4345004829337559
0.8923081765405476
0.5330880552280343
0.1270665780420845
-0.40781036729081865
-0.38616737175693505
-0.3220050974256548
-0.09732913498236612
0.0558537920416762
0.15624425057911312
0.059767689590807783
0.038828611927847846
0.1616211082873918
0.07705381754647307
0.008273294517586625
-0.04496551887650505
-0.09738667831721985
-0.16683531344118913
-0.06496196581392152
0.006784736799114849
0.05499820851114059
0.08775757561495445
0.10721449498519414
0.10513085809402163
0.06395768540861277
-0.036209100648809965
-0.2070852158067813
-0.24245990227004666
-0.11418334354696758
0.022981601418490195
0.218250848249832
0.3081187415887945
0.1029208730315255
-0.017526960865805408
-0.0972665065019479
-0.18923313786069038
-0.13785269706247796
0.03455100040855672
-0.06666563481649397
-0.011956577694731811
0.04165620942962637
0.13622262851749506
0.0993757420980733
0.13591731863132314
0.02718429490025567
-0.061651401482628154
-0.16909154507894802
-0.12454880093259105
-0.14074221189160108
-0.21514612141956388
-0.14114305942480126
0.274732334753618
0.997398303716899
0.16009386297615014
0.2817073877490992
-0.2954783475470811
-0.7592366049422671
-1.5927533239246658
-0.37356314561641907
0.18245983002983063
1.5399828444097943
1.4540059217995371
0.5076972043230649
-0.09351458460361711
-0.6667664180686214
-1.3564795049169343
-1.03551831108462
0.1616981604153399
0.45448856339977617
0.5821519703713681
0.3411718014726216
0.11904116512860818
0.044965233230201664
0.16725460048767932
-0.1425388894513108
-0.1653299348906021
-0.20015664923985388
-0.1307028181960092
-0.20184166736001075
-0.0115201989539285
0.08152410787719201
0.1382933508867053
0.2155601174587832
0.14555128578114018
0.12579268921955306
-0.07801132998692865
-0.11763094065782607
-0.24184652574382992
-0.0770191595406802
-0.015044409810186387
0.1878605319451295
0.001537219612830382
-0.29625563076795214
-0.24354825062670665
-0.020214781082679545
0.3285646000907948
0.8796414052783983
0.4403009229131928
0.18506291588777293
-0.28115972590043037
-0.8484925769275447
-1.2414222567651823
-0.7991264481273144
-0.1141878113839632
0.4725458188884327
1.3459491675753072
1.7008440021293263
1.6797296420231702
-1.2087056914224967
-0.9930137301307499
-1.2989932027005497
-1.6191341073744696
-1.039680681363599
1.5513577339148563
1.3856121599007827
0.9034499761335366
0.6584040052785197
-0.12805420840564724
-0.5522193156144007
-0.9702801747287086
-0.7271920477033427
-0.30281620389654795
0.30602467180937043
0.5666221377833363
0.5690834770054138
0.3840723342540841
0.03770198096218486
-0.28876129758762376
-0.43875222144113135
-0.4524871673982861
-0.14551825984305133
0.09702781361812489
0.5100496571002802
0.32946623884174564
0.1755869605254997
-0.15279882998545363
-0.2720853874364968
-0.4006593427167976
-0.1474912855666105
0.09071625685788179
0.32264828046461
0.3506272019385202
0.1618804891899512
-0.07098267120548905
-0.17949550844492748
-0.38413425975496823
-0.2831767465341839
-0.2535631217534788
-0.06668242301283792
0.48548077929582856
0.765633110961016
0.8832887938482412
0.3158873813528311
-0.6400950742099728
-1.2030231043166932
-1.4531417368396908
-0.9227865412711451
0.3540004391212481
2.141756262510143
1.4887741374051393
0.8435798544080125
-0.36208488437855363
-1.0576479893567625
-1.6306714945099416
-0.6190892043228284
0.16214237360300732
0.6411322497544523
0.6618318245694902
0.33205413222135216
-0.028134634130682394
-0.12103523814277811
-0.08437378336011062
-0.08731939763971733
-0.11777003149293797
-0.16883063501888124
-0.02995805328687414
0.11492900408231163
0.08327949013950753
0.08698868980539268
0.1267861846570193
-0.0090893727846436
-0.14120780345868536
-0.09191980824435972
-0.07809914261392918
0.09339602442175043
0.026161528277574467
-0.06891818244881537
0.021185335815909756
0.10636105800363752
-0.010418764637019762
0.06594170816217565
0.12516749531211233
-0.04291472333522615
-0.2419147725056145
-0.2647368816018685
-0.095270730302589
0.08252932604729915
0.27058179235223206
0.444090571504579
0.3484295052787354
-0.0891545919316061
-0.33414760413409983
-0.6144185744027231
-0.6983017606815054
-0.09280238481234743
0.7349248973225011
1.521513012856258
-0.6263676910058364
0.15179439283500756
-0.32422937492526194
-0.8573061203465286
-1.2575229424002201
1.4585141883811836
0.6527761146412092
0.44699935578099304
0.11674492270130316
-0.29172127411892074
-0.7254667609691503
-0.4847511883870215
-0.19623665553880265
0.18916332425677057
0.37373604106036673
0.4760446171584299
0.19471173438245393
-0.014285994919267459
-0.1412796369057655
-0.21027267578629597
-0.25839255688425955
-0.11710819498839456
-0.002283269034305571
0.08466984597186426
0.14718196286707486
0.18135325704817745
0.16775999705436742
0.07192762334245414
-0.14545500838888042
-0.11164277684776305
-0.22449719094067064
-0.24186612389379974
-0.08305083656767433
0.1562786520738456
0.17929508188181215
0.26094004356043465
0.2274685866916814
0.0494262276168115
-0.14985385649515412
-0.27366441315031687
-0.2267638021004715
-0.0940431350324108
0.07124137023331795
0.2487277676141978
0.2452047237306417
0.08724473380289466
-0.18393886186845773
-0.3154234083613798
-0.2469210521070146
-0.120911058246639
0.10010854510950126
0.4133507086073415
0.5614276552311354
0.43426706546011845
0.09341978673482698
-0.5840993747384369
-1.055885444858696
-0.6782680534179808
-0.10241018556667492
0.49175084189558604
1.1347157009870434
1.003662088987357
-0.018928452306163905
-0.7502502354290198
-0.8799419163784764
-0.7292654509991956
0.382399602320178
1.1529521535965634
0.09844518350757986
-0.048765628079444755
-0.13554788492743738
-0.5776311427914627
-0.751690903046232
0.4008782504377443
0.5554043162463015
0.37662881421518607
0.09463737451147802
-0.10534114557091295
-0.0758861568359804
-0.2876017582097794
-0.20548414580031302
-0.07023898556822597
0.11004410819969312
0.15725212030090935
0.11311631918909532
0.026760065016718577
-0.055865626876532494
-0.0989120158592882
-0.0804298625960156
0.005608951772446156
0.14838839562791903
0.12114803753692512
0.08548475491507977
3.942263583237235e-06
-0.16779588404814677
-0.22993360295699553
-0.17144407489434393
0.047209567300882056
0.07814646030855756
0.16783458114302197
0.13882567722222688
0.17813205897169862
0.036924439085000475
0.04263432088389819
-0.0795278597380083
-0.38208834329947877
-0.27613451106578646
-0.12495711922209268
-0.05419753567124167
0.22386309654431436
0.5802879647124349
0.44553379288674666
0.002028862051723568
-0.2026329084443153
-0.426902968010145
-0.503358237493587
-0.41801881243936845
0.08944689294830446
1.1043092518665678
-0.4966081211589639
0.5237362960986413
0.34515187158485927
-0.3084033873071323
-1.1512570701537996
0.6898348957731748
0.10136923423234658
0.20443086210883332
0.5725851541585038
-0.15206245274850083
-1.0475737571999166
-0.9145857436771802
-0.3030011004897992
0.6335894839693397
1.06691804878152
1.431488855335222
0.3986025646625147
-0.4968051583472184
-1.3825424180522936
-0.9560002273819436
-0.40715688874435096
0.21529744918673466
0.58807750892624
0.6615242567054499
0.39698845895080725
0.11735404614477896
-0.11547964046539366
-0.29542498812983997
-0.4489392037516788
-0.207651368679041
0.011026697547134567
0.20951167970449333
0.2034554738717726
0.20954356997532983
0.035121691668294076
-0.12576965346950858
-0.28979484451309123
-0.07845968507892992
0.08698225604464882
0.18789193131496473
0.2089839586416176
0.14014189303049338
-0.2192190827694255
-0.45510006278815945
-0.33806599075671895
-0.03143680159170243
0.29097782399084027
0.6239584602088599
0.7183292766595623
0.2878077272852313
-0.5614380336787048
-1.2874410825657376
-0.6744260450149482
-0.020165701708793886
0.6422356914274497
1.0963678163235977
0.6897134586161046
-0.5016505684778556
-0.6797151389569258
-0.5068434419191422
0.3225642502572106
0.5085510887870963
0.16544484904953072
-0.1638225286946727
-0.49818988596744024
-0.8171590082476808
0.12703179718988858
0.7828201750982811
0.5661310488326925
0.23511491863373313
-0.11383808233580166
-0.22440785232196328
-0.039525451039993324
-0.2550604427900446
-0.48304572763581144
-0.23653391172439484
-0.14247518050515165
0.018673102008709204
0.4563100712584457
0.9124642015933985
0.4225577729097345
-0.09184804212967694
-0.3953227159190289
-0.48601549785225845
-0.537495466767459
-0.25495788544519804
0.1413574569994242
0.30390049782247575
0.3254706035799279
0.3012242543136318
0.09884152111479091
-0.054885819911082365
-0.17026114307426046
-0.2792435947784937
-0.2170494172585403
-0.008727671043364854
0.13522414500922864
0.21518616894695652
0.23547727466988433
-0.0002455096981103742
-0.08801234497635488
-0.2178076573358786
-0.16733015689125594
-0.10046613423067244
0.026214770056721442
0.04935981232328018
0.18133142138240485
0.19582969925610985
0.22324925550264263
0.16012734191038142
-0.1071351422018054
-0.2692179027749806
-0.36084446514866114
-0.3388486074120267
-0.08012959550941978
0.19774530959511252
0.29813142090896316
0.19995889272368272
0.21826685185592937
-0.019135916844933223
0.025918712739249818
0.019420473136942625
-0.013028154398554587
-0.24820805390267703
-0.2300847227392787
-0.2457437463582995
-0.1181237743238758
0.18349775167834312
0.319959402706082
0.35473722666846097
0.13268584882099518
-0.12808312018041873
-0.23041619505695982
-0.1836840630577203
-0.1889596492841055
-0.031019735916855203
0.11961022630584157
0.09610983959859322
0.12138011902602527
0.19684319953882834
0.09899150642803431
-0.014322484979371547
-0.18962648685733707
-0.26079259814747285
-0.23613443661615868
-0.09545472241651859
0.20103818534618
0.2952784609242145
0.21286333829287246
0.15196769372600127
0.08513819533093867
-0.22598051422458487
-0.2085181721771105
-0.2579646030247974
-0.3288453749962218
-0.14257564804104564
0.1873880022028725
0.31991190234426725
0.45243917441054565
0.5032381784400021
0.3201998263163385
-0.08169849794454778
-0.6632247000641049
-1.302908790541697
-0.5610944754248762
0.11705665656208288
0.7581609697600935
1.3937777810897474
0.9984433140232528
-0.5420871244523852
-1.023630620364858
-1.0896330638920437
-0.5952952572788225
0.8089807865882654
1.0700088209725933
0.5127986448081496
0.029668699425829455
-0.5101521601798309
-0.8327885581154828
-0.22776869013760764
0.27257980766292234
0.2943890158169305
0.10654119087574249
-0.00320361797862439
0.04875586081827924
-0.07488206075827271
0.05900983762863202
0.05305544631041343
0.08499252362246046
-0.08183580225952346
-0.08553496771589864
-0.15354007101534875
-0.09481972730538128
0.10119895521399595
0.05883336355555479
0.005697633776756312
-0.03882307751895319
0.1273989586944789
0.08551373585367038
0.1991119128603946
0.025232305827725947
-0.06882373593028729
-0.2875298643772467
-0.3950158601931769
-0.3158971151540803
0.047154621624839146
0.3817415850069811
0.5298268918489502
0.4617540156963499
0.2728393625478715
-0.19248115890728335
-0.694918175590885
-0.7484555467353375
-0.18107621485211967
0.8782784073974492
-0.6161705063168076
0.3359352935611777
0.5356808626111157
0.14335290212134666
-0.9504468248994118
0.8628994500451157
0.11399768434427573
-0.12675624147369757
-0.22108582229724896
-0.13007550014853037
-0.18445997736628492
-0.06526034112115042
0.0012134234981366263
0.034368204274367854
0.0805118098901807
0.19069220553092592
0.20217687058020567
0.12923603694805824
-0.03411607191955925
-0.10090836075721894
-0.2730598653420493
-0.32619578234152236
-0.20484540775477159
0.168222654845676
0.2705951352817354
0.3544375745501175
0.2266585616766594
0.043361468699755386
-0.278784771448096
-0.2383507733986844
-0.12082227421779432
0.024568229845348823
-0.003429083923381608
0.040271650281423745
-0.16644003813152852
-0.1350030895969176
0.40730078690950094
-0.3083325527148971
0.28910471788187697
0.5050413968400875
0.3919968349389699
-0.41853061816341225
-0.06988115048788679
-0.6315235653848582
-0.4634165037399981
-0.2069636218372034
-0.008255770328182916
0.6315613739823699
1.7936070987947155
-1.915256576191333
-0.399238093374809
1.3130730499787981
0.4763418086340645
-1.545544279815105
1.5626926621895065
-0.07936567347917947
-1.4942552047184252
-0.6053078055596002
0.3800460809042082
0.9565455487933319
-0.31730214519738476
0.13236885003867166
0.251301422440076
-0.07235708194414142
-0.42053812858951833
0.7584882162051492
-0.03247272838027499
-0.3120268135223409
-0.18778858072916826
-0.12647122085175042
-0.13437491029507576
0.04642246120117195
-0.07460649580069459
0.037902072167979285
0.11295059176884473
0.24216928266673693
0.25789554789843394
0.1264689253233934
-0.04085112277111338
-0.16206559110075236
-0.35131702711003543
-0.28869409352790565
-0.0022220584845536683
0.13309932096893198
0.1803771857663949
0.016107112025030075
-0.09640590578632764
0.07145986241978136
0.3021419959232822
0.3335509304618544
0.07512895394175817
-0.36393878997217965
-0.4416039772491621
-0.35609889646633447
-0.2361504268857725
0.24661719703305865
0.6466869543397679
0.3060797428442429
-0.0786102597039659
-0.2746272144479345
-0.31561644873413464
-0.09295462790616354
0.2586942947522889
0.7795009288780105
-0.292273948412357
0.1093310933363901
-0.2895364978117448
-0.676545152414165
-0.9456434900320805
0.4834105798993136
0.41928373990476075
0.8399784692823806
0.6414644379986354
0.013597529313707507
-0.34816224344532304
-0.6016902490535149
-0.7056911825283617
-0.17638541164213317
0.3325634751359017
0.4248356016827407
0.3399577847444652
0.12925918661262753
-0.15979925290697422
-0.08726358179096666
-0.21567102114942588
-0.10338967202912605
-0.30298185088651963
0.031928184031105776
0.13239389250368644
0.5982417154849511
0.5891304580236949
-0.16996804892062195
-0.5675712910008408
-0.4762798925207759
-0.5287150500223707
-0.3110193747795305
1.0226511222634773
1.122841617183108
-0.37956406853959446
0.31887542731853136
-1.19438774159912
-0.5269780103137209
-0.06622418461559632
1.020737834731708
-0.22739188232951224
0.8155871359137178
-0.24762602615469737
-0.6365540983875295
-0.3827864199046693
0.08102386309768395
0.726835381296435
-0.06842040414908218
0.07702253133746491
-0.04662943948219308
-0.2337421494593823
-0.6575902256391599
0.32827181877090233
0.1788336671912131
0.13918262093872952
0.025711746980691293
0.2146975439967375
0.24334728991110968
0.024332082360798174
-0.32956005472494565
-0.2781804933502444
-0.4342674196937823
-0.36022355966151864
0.21494706876309902
0.5632635112902225
0.5226104220887144
0.47486854139090917
0.14964086192694895
-0.3441852277740068
-0.46902176683087365
-0.8104619532620495
-0.6517085453174134
-0.18533430622801816
0.4362905121325672
1.026485697509766
1.0921216224304429
0.3920444304014576
-0.25641386941903943
-0.7245045408713916
-1.0932442664822553
-0.5787694417640645
0.11211157735632465
0.5850841104147353
0.5270291326179889
0.25907334811771154
0.0942324399102984
-0.08743571818299023
-0.24359604608027058
-0.15983083664578923
-0.03420691652764501
-0.06425865514593546
-0.04105447136588499
0.048744472660475484
0.014796060726055908
0.05262260213488361
0.13510537216710664
0.209936661805775
0.00573548034609186
0.04717011463949588
-0.12371687320196595
-0.32579539864578433
-0.12415355503953576
-0.22900486977013415
-0.11133774212131214
0.166800298266366
0.5149702598509598
0.1813134369533993
0.3353382076232443
0.07376181565484556
-0.15084335521036304
-0.48682867206878666
-0.439473503075438
-0.24094303451927093
-0.04437961651104636
0.2562703202071146
0.3882372608657345
0.25724705548378346
0.11439654807004673
0.14249470605940653
0.06473008395774274
-0.4285321936734332
-0.24416486046161712
-0.0533030958983002
-0.07074179738069293
-0.25184769279581454
0.293425598450466
0.27444446806987877
-0.01053788396642929
-0.10122620662051127
0.007146024464818295
0.058141608954230505
0.14098713364732693
0.30993779058029824
0.21523419390299758
-0.05774650259838511
-0.5488754720455237
-0.995423344288917
-0.4294312045427404
0.1917080268662845
0.9256806674084365
0.7746457198769863
0.6287380203009656
-0.15557577024163619
-0.5357318370057219
-0.7318395504984027
-0.16445223079115356
0.19794894124335885
0.06917204071400623
0.05093796983547955
-0.18156872655276096
-0.10764556932329512
0.003832866955030384
0.4587363341212756
0.3090311672846587
0.13875993863584107
-0.13085490473625871
-0.21862925450932974
-0.25042729366434097
-0.12644021139716435
-0.09803957888675119
0.040727702200347556
0.14707525216284725
0.11301127121142426
0.04456217333167515
0.04235508537229037
-0.012817648961504885
-0.06829930327811176
-0.10246528245017428
0.07625081484544113
0.03295061175516988
0.11211121974023819
0.045900651207887944
-0.035168958301065735
-0.19065968864225574
-0.06046612039119457
-0.06006328539116957
0.01725454150414521
-0.008616069467134843
0.08218208367880679
0.09595883536055642
0.01600207717110437
0.20074908107649134
0.19162217299228443
-0.06982999005235449
-0.2188968726487381
-0.2453010673663057
-0.27964704923780326
-0.19572054169529504
-0.031236577683755713
0.17668428552468757
0.5512034524016303
0.5442214482687106
0.12638465001717175
1.0051136283527045
-1.733568256933246
-0.9752847866150826
-0.542413685422973
0.20705462619169648
-0.05648259843572411
2.308903843736158
0.8681183385893597
-0.10358714870195074
-0.7864403051476229
-1.5487536828950033
-0.8783348506235236
-0.1461184487001435
0.5807172614770654
0.8829676638684943
0.916918750117754
0.3566253669643935
-0.02661185145544389
-0.5428030041598083
-0.732730214007276
-0.5114300622721284
-0.12835305884704257
0.04278624314805103
0.4851282854219907
0.7030058569333288
0.3867824913880118
-0.2076086894952648
-0.45966918989108424
-0.572012323651703
-0.35715521016616375
0.1658362004637151
0.5624348822742333
0.5687594402469176
0.28511744310091724
-0.01325483614717632
-0.44755264820582313
-0.6985743612217659
-0.7774887480320121
0.18188502118430266
0.7050205468199726
0.9414249778826989
0.22922522606854556
-0.32501576039810576
-0.6467529123383043
-0.6822841424036696
-0.38988937784216976
0.6571857767037179
1.257728729840293
0.3717161470852623
-0.274797980632427
-0.7651085828054537
-0.7578158547886815
-0.4619395614174456
0.16340233991635636
0.5819286260682146
0.6372513242773297
0.5138807885571729
0.12043889439161651
-0.2967055439133468
-0.5144047940551519
-0.48359464056495516
-0.2884098033255014
0.27285161661177326
0.08093316009064067
0.26858870741566715
0.18438086377937846
0.15853872630370014
-0.5215520484080711
0.17650737102994857
0.22960506019048954
0.16852210331319223
-0.10409469148660569
0.11068170749585449
-0.26569040485789597
-0.46825577536031093
-0.2805257584308907
-0.044328327333029154
0.3134430953118884
0.4455261183377792
0.3540306163580018
0.3789110847423883
0.21317953951311655
-0.2566559266375523
-0.8966420445077977
-0.4768892100494683
-0.24830054476789049
-0.15709717851532964
0.10302912224324223
0.6144181678532795
0.5567593581103623
0.5505860174481167
0.44213957939873816
0.1373453258765942
-0.32211026801858783
-1.061592952192969
-1.0850974142386411
-0.6251852983422701
0.05058314210709317
0.7786541888771469
1.4068274205868807
0.905258687132511
0.11398856294653004
-0.6568396500876661
-0.7809225358059367
-0.8487163410177914
-0.40893276490748454
0.06084901823352321
0.9509510053074977
1.096666137808
0.9564250223203197
-1.5932016510697382
-0.8455233363447263
-0.6506730862001944
-0.22193961186143576
0.028842311424448826
2.2360663242064094
0.8296303783172707
-0.28485497856284187
-0.9019463497147698
-0.8572546718997236
-0.358812440781734
0.06413812490475984
0.17983385494412424
0.4407112438474497
-0.05038862507842728
0.020037155661574775
0.14230476564494238
0.36268223034657493
-0.12164401704809595
0.047386494896260185
-0.39094627401333354
-0.2931186269728615
-0.09401182357303878
0.19925116791695835
0.20202365876446354
0.14007309132093426
0.03735567959062284
-0.0913500670211151
-0.041413264091339226
-0.014472161031546674
-0.01264819603053668
-0.033616624266427815
-0.06840979895499642
-0.10286634348905563
0.07736582539952506
0.07959474191989888
0.09718759800392165
0.10615847395155727
0.0676972657696605
-0.06280871230267544
-0.12216254736522394
-0.1251127748670438
-0.05419447350968583
-0.05742971785645893
-0.055391696617833934
0.043565383746134174
0.12346258889087458
0.2413126389329484
0.013505487489223955
0.011834738381210031
-0.029817393844573416
-0.0002709430638688446
-0.19166577569367466
-0.08101222217095524
-0.11714263462760076
0.08431453830356143
0.13794550184241333
0.07999555478787904
-0.04219167715412866
0.020176467888864243
-0.09017233715575637
-0.1422218069082413
0.07885271433282728
0.168383647193858
0.10133274327494476
0.03566381834633809
-0.07915126913108765
-0.08978145023359661
-0.02618272322635578
-0.09234554632197745
-0.06402106407618616
-0.09513942678887914
-0.1325778165009056
0.06333605841213923
0.2976115646854224
0.325697223998419
0.2522222788143129
-0.05196712709315547
-0.11536399988257706
-0.021271447979231438
-0.3652225648034336
-0.6278050138876611
-0.1741554752442275
-0.08560385699920955
-0.02014101627895242
0.7112522348787744
0.6724398699857583
0.4556006765410737
0.27607690855289296
-0.18766468164133315
-0.9196731171066521
-0.47984564653138007
-0.33063429943787886
-0.19701859201670502
0.13283715456902145
0.5724978568547703
0.48384282202062534
0.22461724224644436
-0.08767602971197969
-0.18903595021911765
-0.26231786022980674
-0.1195020033578103
0.017580660000238925
0.13164915260618004
0.017338420672620036
-0.11763284439787852
-0.05571854910140381
0.024321895864353026
0.13995587810434532
0.09821033935442214
0.09228467236425927
-0.09691975360775949
-0.09469073212831426
-0.1241918951507003
0.0008173691925405987
0.0797881167443159
0.12510145784693671
-0.041341663235800914
-0.1933577865694649
-0.10692504037104054
0.03233811930822445
0.22171533705537377
0.23684780013870343
0.23401840058522885
-0.038252969138574136
-0.21980061906852955
-0.5178846853407078
-0.29392792858129096
-0.06581527688924885
0.27210353391936365
0.4170228282108688
0.4253921927288995
0.09288470028508983
-0.045634436990948116
-0.29652941526578047
-0.37618691548864786
-0.17989670491049287
0.03883230721836204
0.07346598817946573
0.155466010860421
0.13700447453326037
0.07256424170493236
0.00511375503539551
-0.040432964609581665
-0.05678043554828541
-0.049184315783523204
-0.02875506444832821
-0.0066316116793120475
0.009591692056620917
0.016962275469738337
0.016391249398560338
0.010947426940083696
0.004103151457352248
-0.0015008438461986261
-0.004576422085392039
-0.005094824412036943
-0.003834196170631169
-0.0018411763542737737
-6.2098323824472e-06
0.0011566214049237792
0.001531627047983916
0.0012912544560494015
0.0007364925429860126
0.00015581111876117014
-0.00026018945364722647
-0.000442265436792352
-0.0004195499465179974
-0.0002743372033531283
-9.689636551975226e-05
4.5605949486759176e-05
0.00012156543512977505
0.00013173454158059447
9.710448962067623e-05
4.492676685890953e-05
-2.083731962325281e-06
-3.116567424252061e-05
-3.983504271873672e-05
-3.288525819792512e-05
-1.8219750218064517e-05
-3.2452826078331244e-06
7.255256789951653e-06
1.1650633743725946e-05
1.0812447614943116e-05
6.9241508389479665e-06
2.3184003205636526e-06
-1.3051211651995646e-06
-3.177242324397718e-06
-3.3574096884797538e-06
-2.4108314927573014e-06
-1.0464847581684141e-06
1.567624238024826e-07
8.82872681463262e-07
1.0806603036725871e-06
8.8248250234574e-07
4.95558881517037e-07
1.0986105681353744e-07
-1.5479079532055713e-07
-2.6032700529184795e-07
-2.3227570903677066e-07
-1.284455209641846e-07
-9.043974348701001e-09
8.297774436891678e-08
1.2898047807546854e-07
1.3152039566208326e-07
1.0576769272049182e-07
7.01434971372871e-08
3.9381752902125726e-08
2.12889622973242e-08
1.6854101100859934e-08
2.2444043869850873e-08
3.263398307099445e-08
4.2557036981072947e-08
4.92169623359367e-08
5.1735446032633264e-08
5.084815184315727e-08
4.808257069704142e-08
4.4990902871499154e-08
4.2656967793127687e-08
4.153025976938205e-08
4.151874727236578e-08
4.221645213531366e-08
4.314534426299472e-08
4.393086541745923e-08
4.438072477699463e-08
4.4477920339923034e-08
4.432166379629065e-08
4.405376302599209e-08
4.3798758877176226e-08
4.363143168210243e-08
4.357175796009059e-08
4.3598808546646044e-08
4.367229790857143e-08
4.375225503827708e-08
4.3811371914640474e-08
4.3838868212884444e-08
4.38377829015434e-08
4.381895132465669e-08
4.379476316041136e-08
4.3774728158620266e-08
4.3763568445514616e-08
4.376150435343803e-08
4.376583904989102e-08
4.3772870839783254e-08
4.377941649489342e-08
4.37836134523937e-08
4.378501558001136e-08
4.378421209139074e-08
4.3782263571943965e-08
4.378019814485642e-08
4.377870279831878e-08
4.3778034450835636e-08
4.377809778543187e-08
4.3778604334330393e-08
4.377923336731784e-08
4.37797437523008e-08
4.378001991310652e-08
4.3780061757245835e-08
4.377994229207661e-08
4.3779758012519856e-08
4.377959018542529e-08
4.377948510118631e-08
4.377945248471691e-08
4.377947589205893e-08
4.3779527448836866e-08
4.377958074014395e-08
4.37796185113738e-08
4.377963468442128e-08
4.377963214829453e-08
4.3779618564976114e-08
4.3779602227294156e-08
4.377958924132313e-08
4.377958242546475e-08
4.37795816390335e-08
4.377958491288391e-08
4.377958973496244e-08
4.3779594033018584e-08
4.377959665926252e-08
4.3779597408756553e-08
4.3779596737046866e-08
4.377959537554257e-08
4.377959400213004e-08
4.3779593049447565e-08
4.377959266004787e-08
4.3779592748483755e-08
4.377959311168818e-08
4.3779593535492983e-08
4.37795938654889e-08
4.3779594033227205e-08
4.3779594045993765e-08
4.377959395672275e-08
4.3779593830725576e-08
4.377959372077944e-08
4.377959365527343e-08
4.3779593638312824e-08
4.3779593657357546e-08
4.37795936932456e-08
4.3779593728600276e-08
4.377959375259298e-08
4.377959376191499e-08
4.3779593759047444e-08
4.3779593749361265e-08
4.377959373838107e-08
4.3779593730006007e-08
4.377959372589086e-08
4.3779593725754345e-08
4.3779593728177825e-08
4.377959373146542e-08
4.377959373427461e-08
4.377959373590512e-08
4.37795937362814e-08
4.377959373574675e-08
4.377959373480243e-08
4.3779593733893365e-08
4.377959373329007e-08
4.3779593733068375e-08
4.377959373315727e-08
4.377959373341495e-08
4.377959373369909e-08
4.3779593733911365e-08
4.3779593734011976e-08
4.377959373401056e-08
4.377959373394503e-08
4.3779593733859365e-08
4.377959373378767e-08
4.377959373374718e-08
4.377959373373905e-08
4.377959373375394e-08
4.377959373377875e-08
4.37795937338021e-08
4.377959373381724e-08
4.377959373382246e-08
4.377959373381978e-08
4.377959373381293e-08
4.377959373380558e-08
