0
-8.490640540955383e-06
-8.510234668212286e-06
-8.54361043879673e-06
-8.582318949555747e-06
-8.610379219233881e-06
-8.607782059573057e-06
-8.558012876601937e-06
-8.458218738362687e-06
-8.328544004541102e-06
-8.215551154873417e-06
-8.184607834958545e-06
-8.298587574479742e-06
-8.5854368884936e-06
-9.004129996862517e-06
-9.424853428410281e-06
-9.641445368955399e-06
-9.428681065871103e-06
-8.642203025110988e-06
-7.336600913492925e-06
-5.853983861272088e-06
-4.82226797316495e-06
-5.011618902665935e-06
-7.037466042487202e-06
-1.0967393833256514e-05
-1.59698487136504e-05
-2.0202056509359713e-05
-2.11312317955498e-05
-1.6382277420029562e-05
-4.999803417298939e-06
1.1256997095283276e-05
2.7205682583277337e-05
3.480760647419035e-05
2.5471680704473258e-05
-6.0324315050975675e-06
-5.704602455862296e-05
-0.0001137525641365016
-0.00015151037891897437
-0.00014071328232764525
-5.8499482109337915e-05
9.606706365505082e-05
0.0002888089835554719
0.0004468978493536784
0.0004723111353836807
0.000275516121453866
-0.00017547900997542883
-0.000805960678975133
-0.0014093955912242663
-0.0016727033023603009
-0.0012687077703507146
-9.20014126041424e-06
0.001981636771584264
0.004147087926820016
0.005521181989855652
0.0049671561457951775
0.0016385001648834905
-0.004435410656906465
-0.01185531416933353
-0.017746162003800026
-0.018316434518147302
-0.010192493818681031
0.007680893014619136
0.032183669476737176
0.05515030387658812
0.06449100492628315
0.04790994308977223
-0.0011070743416094324
-0.07668572589648782
-0.15628419917729186
-0.20232461953618258
-0.1726248600330103
-0.04011653872956168
0.1815306699798489
0.4139750494946475
0.5022579453447107
0.22433499010438512
-0.07374897324105621
-0.22157387778224027
-0.3603367930380045
-1.2897704383060122
-0.04365421242381794
1.096424639415855
1.151939326695842
-2.2240395603099374
-0.4261358620030426
-0.1734773989389678
0.42719479864141696
6.053442702585093
2.0029402830574923
-6.292266144845515
-1.700060211939277
-0.8426955378456638
-6.052462480563169
1.9301856977962333
9.144194847760133
2.9735396502305735
-0.9943543610989218
-2.144650359946154
-2.658463074124308
-2.069194494483863
-1.2561251216676845
0.6532111136156197
1.4556779335480252
1.3534402389779432
0.80211341877013
0.1826613234572203
-0.2692544111911543
-0.4713228564612263
-0.45663525222409695
-0.3157431504254631
-0.14277379091399234
-0.0008656919007280888
0.08840022938606244
0.1355964887175083
0.16316572536049767
0.1846915278022108
0.1925425454452468
0.15911021124381713
0.0520899716824279
-0.14097197110688087
-0.3884167686264477
-0.6030020612599514
-0.6551495846127858
-0.41724080750885145
0.1655723200516658
0.9966591094126255
1.7724142033311312
1.9851437821012705
1.0086960957649853
-1.536489422518681
-4.979838932402487
-1.2292742827637788
3.6963312064357416
-5.00736058308189
0.06399795067044327
5.637342388415273
0.8709711150447883
-3.659906760745643
7.364786998596362
1.3096255379941708
-3.759260143252284
-2.9188853692902064
-3.035066156412273
-2.5200310325691686
2.1215964718405775
1.5497230928845753
1.7058533229904098
0.48238188014668637
-0.5679228352828771
0.7765537830169776
2.3399766549468572
-0.39003570550679423
-0.2916132222027168
-0.5661753715935629
-3.282313259422787
-1.7716180283964904
0.6713802876854044
1.567019782130156
0.9298239941623856
0.7025080945337439
0.4014709094233895
0.012454614596749557
-0.2503646076392436
-0.32961327980577904
-0.2741505357037082
-0.17583827038608268
-0.1134830770773372
-0.1170573518845792
-0.1580677719384075
-0.16573537986275028
-0.06359274444469153
0.1833449418774007
0.5245968357581706
0.7994498143965318
0.7458351762612772
0.24966915436792259
-0.7722620833024146
-1.6790285340491413
-1.8362494269610998
-0.0027560896294703935
1.2142161580824544
2.052333322135372
0.476681417203471
0.09551799524092829
-1.6649354110462304
-0.12708037721200216
3.712048003809223
-3.5264149702171346
-0.3118274068860989
1.663717737762075
-1.894096253741274
-5.7263139323816645
4.46682037263807
3.666964033489835
0.7834740045058051
0.3683028544059442
-0.3581949252395038
-0.7763807377265164
-2.4793784213800483
-1.4933480906289065
0.23782175689310592
1.0760127454544655
0.8293069238980757
0.44505769107497906
0.2982212466322306
0.10668498666180647
-0.11262836307902578
-0.24883797374294556
-0.27506260588714204
-0.21451727883904376
-0.108438625265676
0.005462426951176535
0.1015447997231028
0.16465920501238618
0.18440412663335345
0.15144789236073758
0.059907316793045534
-0.08410839070347338
-0.25192124028269325
-0.3869085319149077
-0.4120556891220446
-0.25504281902168247
0.11128817520266635
0.6241354887141903
1.1005148558641755
1.243016465871124
0.6961090108992553
-0.6498890385819479
-2.734128113437951
-2.2270964543660385
-0.9091048012178191
0.4474758147802767
2.3075123366162074
3.371089483417238
0.8161934260434323
-0.3534463399240226
-1.0381762515884012
-1.6816693978067396
-1.282384554851183
-0.24231350211567992
-0.4966244618130024
-1.135566303228654
0.9011421441332084
3.3012651491810336
5.685215822130377
-4.010943192468835
-0.8614982933509827
-3.4277360903473384
-3.4665115210844317
-3.547104995198397
6.998044013146446
3.6358768542050965
2.8123161262309337
0.25679434919415467
-2.136093223279139
-3.0776586434971613
-2.1999199985214557
-0.6182647303353301
0.18606333915585213
1.1463037126227515
1.2857160619511314
0.9474835158815524
0.4383678496311372
-0.07370776825632598
-0.39488088746410505
-0.4837286287662077
-0.3967767388655983
-0.22738481131725097
-0.05795509009391188
0.06484454872192826
0.13206280391993266
0.1587197312417384
0.1643082932907477
0.15694764967291108
0.12762276910209286
0.05668326882779556
-0.06985879315225763
-0.240877523767192
-0.40698245932409755
-0.48344432253231906
-0.375762104438417
-0.027309881665384055
0.521515941492501
1.083219516490983
1.3082001421123244
0.9269763521545902
-0.14369914487877303
-0.8487681337371908
-2.0402771488570544
-2.5788516657759537
-2.144876939505136
0.215961022422417
1.8361407338399565
4.133572769151288
4.7894227566686975
2.0952178406825257
-3.0863411785869626
-2.986624681633352
-4.139234970567063
-4.079229910262039
-1.0509306703788046
3.0366961679599043
2.861579663516686
3.472441294009498
2.950848945150951
0.4618323196449622
-1.4690180561288328
-2.693499679776994
-2.49309997603399
-2.0624777923511664
-0.3159619432155787
1.544406010887831
1.719156771243189
0.6209678852326164
0.47571603415886954
0.5712861845675475
-0.018358199614972214
-0.43372522128168106
-0.5741863135277233
-0.6154853500360276
-0.33027381170363557
-0.03375109038518266
0.23639259944878627
0.30947694027928874
0.25317952863947957
0.1415008737128604
0.030948756791827476
-0.04954752474975563
-0.09561582954811274
-0.11616824074806177
-0.12039565841488166
-0.1089135894234766
-0.07270249497989105
-0.0003983144912280961
0.10874141911821576
0.23153037686032646
0.3138307994613746
0.2755550392716739
0.02988405846065589
-0.28692294585403266
-0.6851129655666914
-0.5043621657227328
-0.422561440041354
0.10492646308400147
0.5832674646793983
0.8131231623326458
0.24854279941783064
1.200954381789638
1.1008317960969614
0.010602281859638659
-2.439431108160021
-3.740776766466998
-2.477911916595197
0.7833005631714529
5.903361957349078
-0.6565730886254935
5.006460408964663
5.4270185146119445
-7.670022047620709
-8.70161710450952
2.6278517328436695
-1.5595076512489339
-3.803862153175092
7.633943405220921
5.451546440947547
0.8558719881714767
-0.5088044695420103
-1.626145252414537
-3.225223167703902
-3.6641017941037535
-0.6947940908181887
1.219187118002226
2.027515919551654
1.713525269333935
0.8910934406486235
0.04800145892799533
-0.5288374398015004
-0.7487229162031336
-0.661048954070773
-0.3834387841985327
-0.0427460508155524
0.25733184489400207
0.44342522512926663
0.4658057224948869
0.29151557155812424
-0.09385370393361246
-0.676011132381426
-0.80259305455433
-0.38743360259489495
0.06322091656917826
0.6060454179134502
1.2143915469405244
1.3547771518296725
0.4062050402255779
-1.0745050829586233
-2.2621877434486684
-1.787392079727623
-0.3154500308140724
1.0016954433398255
2.0196707583236546
1.4915921854051346
1.411869644984364
4.252949812402942
-6.3060525859516785
-3.6077555400611727
-0.4855040795841963
-0.8536380324157099
-4.252944693148302
8.083220229767775
4.735621608908508
1.4977875593334131
-0.43940984951599515
-2.0975116807686187
-4.382814978874621
-2.9442270213251556
-0.7372782382490239
1.4367192901819232
2.2208780727444446
1.8881442237974437
0.9123144920374391
-0.00036490764790732033
-0.5835515679131112
-0.7930807425081412
-0.7323464619679905
-0.3616825596523807
-0.02445826836493693
0.19356562135807265
0.2712510908830974
0.2358747628946007
0.13769925649666764
0.02704938746324988
-0.059690802676944404
-0.1042663342588523
-0.10386643507872725
-0.06592621855925489
-0.004038387401179272
0.06341096093680919
0.1124559285678812
0.11258329191574333
0.027571528875132954
-0.18123282082783926
-0.150577779470698
-0.11265157538210623
0.10355137008063851
0.26668273977109713
0.13563925849652023
-0.3464872734056246
-0.4552471171038278
0.11562884382119022
0.6586075113439422
0.6643476552542505
-0.35308408220262427
0.1844649860260771
-0.4305298823587197
-0.3453600437508959
-0.5226607476289153
0.44789341713326086
-0.706045732304777
-1.0383603377727457
-0.9170491846642272
2.0295008362329106
1.9859757976890855
1.6868318935669313
0.854196787457352
-0.4525433320056048
-3.205926023720629
-2.364210690325909
-0.8868535027571129
0.5325203323718133
1.2048106895062936
1.4912775957019173
1.0181413025631374
0.3199555856497953
-0.2507888886064139
-0.5402802437973213
-0.5532547606615658
-0.3852489029850137
-0.1554962762747255
0.040738971142048316
0.1537591498846576
0.1783795949997665
0.1391555409995483
0.07166690754241477
0.007213266366125309
-0.035509188383861495
-0.05166601775473981
-0.04663498265402845
-0.03037037441480429
-0.012301112835536544
0.0017419998487763963
0.010197657727864963
0.014541769999174633
0.01712099736035034
0.019109229564755335
0.019439705926323037
0.01517098082587837
0.00324291931788472
-0.016956686331952568
-0.041266647240834536
-0.05998765679826029
-0.05989210828301933
-0.029613154149931053
0.032081128308618576
0.10695939313828116
0.14984277147230987
0.08603381612244523
0.015574880511644936
-0.1760666452493866
-0.2038632491433107
-0.1700826122932434
-0.15581695621531944
0.38220806568914484
0.21309728767411296
0.9379845044428723
0.4064645029681988
-1.0576837391211733
-2.0328362466707888
-0.7971012312760274
0.03774462874421698
2.6602335089557085
5.990058190100387
-4.555912344244576
-2.8453362130856177
-1.1840237480280649
-0.892490219807716
-2.142621851517246
7.75381845926661
3.0583479378261793
-1.0112151933555829
-3.1904897633496128
-2.9957527434588425
-1.5441147099601427
0.7547222706020074
1.598459372811385
1.301409446973209
0.46420868105839874
0.05710114747972815
-0.25123361656109394
-0.3136344023973734
-0.2859024774455902
-0.1892338918395498
-0.07108397988387218
0.024459758125129284
0.072677683604125
0.07176818637325054
0.037897868883563446
-0.0038279430147975363
-0.029009313288558426
-0.02208500002393638
0.01822034457977937
0.07700580427842142
0.12579593452408686
0.13039438205454396
0.06373333594579368
-0.07860999699873761
-0.26524409143666683
-0.4253011511799636
-0.46147116120556375
-0.2834504597145127
0.14179069375501127
0.7362180217817735
1.2752696659379077
1.395007892611883
0.6579487328312166
-1.3264718829726003
-2.3575842702326333
-2.327112261790553
-0.5833283611696534
0.9973736393188446
3.2473172208880805
0.7063185460573687
0.047680918007674586
-1.222265153887982
-0.7790595439068493
-0.024066941838081012
2.421286105954017
1.4571704676809913
-0.5265424776329132
-3.076448441015069
-4.1384661914165
-1.2096783111464806
3.79121466284974
6.5565560525063535
-3.0062031505512716
-0.7265027447504939
-0.24763521712235392
-3.0481932620709893
-3.2491179326818433
6.368107725637712
3.5429890653310987
-0.44194096297296603
-1.862327313556912
-2.7829440089300186
-1.2731639868295501
-0.6770828426834296
0.8169478399207514
1.3072396051354598
1.0473475043630989
0.5045168142062153
0.05198783520307336
-0.28299160022136133
-0.4171659676282845
-0.37286884375348206
-0.22598860650552188
-0.0595032270517223
0.06643011983258466
0.12555650469283622
0.12182915924650105
0.07779962345970003
0.021619126348792667
-0.023034873539228767
-0.04245827919711469
-0.034240853788261395
-0.005746006814951171
0.02897068641669426
0.05310911393669318
0.05176509632565296
0.017106335373857414
-0.04668229549532579
-0.1204128566294255
-0.17132292860041295
-0.16116184109884435
-0.0615260943845229
0.12601637301906066
0.35110582322786665
0.5058010179311677
0.43426968329793453
-0.0351426649578827
-0.4400415085435661
-0.6304671036706988
-0.7320321218742506
-0.9447526587777457
0.013271142693755922
1.0245778352707813
1.4783107445719192
1.5988856031482868
-0.17133526157224815
-0.9245275724597002
-2.1925488085362868
-0.8431971819737072
-0.006940424793348343
2.1465301400882018
0.7905437171596126
0.008683158232503084
-0.22997217041186452
1.9164967915272177
-7.054578576684473
-1.4403298233762754
4.566774853923141
3.5414668153321034
-2.2943624963614346
4.892484190874054
0.23302460010147907
-4.248378796002876
-4.1912093080618735
-0.8962541711751952
1.1618278468252452
1.8830170757275886
1.5884464953318744
0.8364159513843155
0.0748427875043076
-0.4335417883935634
-0.6120555151908796
-0.5200484467153442
-0.2833817864482363
-0.03189758156543544
0.14129202304355265
0.1958942946935177
0.1412528979539095
0.022153119386861198
-0.09941611398392568
-0.16274499521526276
-0.1259787531822646
0.017752186408852833
0.2277176803572565
0.4109608981803987
0.43128685399746297
0.13541924087490012
-0.40605645880812746
-0.8533817267261008
-0.9643291295054732
0.21158375476108493
1.505421520319105
-0.6244012973476527
0.4463906175580293
0.2549370394049064
-1.1841369120137877
-0.9947648719787252
2.7636950063333376
1.3227297090375272
-1.7383538142543384
0.39630738999120463
-0.11615151090205296
-2.2874167393067504
-1.8561013820116
2.484658200450463
0.9910537532532131
-2.070731587798964
-0.16805852383006742
2.9888566762664808
6.204365448064173
-2.3564451729475793
-7.439756737753397
-1.746379019593311
1.9718879004141323
-2.8951704966204552
2.871638241834964
8.571322453380947
1.2869691246029342
-5.290066846859723
-4.3173141142205935
-1.4132141934902882
0.6773975329643227
1.5046146053787197
1.4286351790288925
0.882743525671094
0.24576093709659896
-0.23552732993148623
-0.4634722102496393
-0.45940992354700283
-0.3105630131229743
-0.11748993098837947
0.04256671693314011
0.13127782498021928
0.1468483234730575
0.11109476679009107
0.05391428836647309
0.0009539794708331046
-0.0328506785040131
-0.04401217736974526
-0.0373784488406708
-0.02155859340498693
-0.004853238694808773
0.007223322045202196
0.012637723338403168
0.01218476809767806
0.008185636722728198
0.003184838015548409
-0.0009400750887475047
-0.0033204425196168264
-0.00397634498855148
-0.003438901232600883
-0.0023353183933788
-0.001100502201418215
0.00011058556859049821
0.0013248170181775272
0.0025488749950812583
0.003578671867185887
0.003931896076901708
0.002974931682110303
0.0002431855439558467
-0.004137273925292651
-0.009104714090433211
-0.012616642584974701
-0.012094029338137644
-0.005405029547524041
0.0077992389504299075
0.024862961837010474
0.03969328354684733
0.043791382942483054
0.029088086866399653
-0.007769594719827284
-0.06096379792315969
-0.11301724708770262
-0.13673125123466015
-0.10337468108070656
0.0028501092137830776
0.1667249329798381
0.3256716668159053
0.36183720618579207
0.1079222388990211
-0.632444636741383
-0.6550508212648052
-0.7252170712081613
1.045770487602912
1.420381778940721
1.2623449676199607
0.5829249036410579
-0.5989588270699521
-4.213775849839891
-5.367403662196443
-0.8834069507886457
6.434418680736466
3.2861934205523853
3.0312015654489417
3.639196188672135
0.2987817316218666
-6.553739142781111
-3.9110803964182117
-5.748404576278563
1.3975840662291152
4.758995559039002
-0.9832410107892327
0.4443630520436974
4.446654839751142
-0.6004408227776921
-0.9444824103190397
2.5369720766168107
0.3018807806229935
-0.5641034659906565
-1.9954474668159667
-4.6166584797127985
-1.517728089264879
1.4077511909811502
2.3581721550541856
2.008019626799661
1.067969061257536
0.10041303361329267
-0.5680457211027471
-0.8393870139110471
-0.7749651135088631
-0.5071146392389585
-0.16708810597398527
0.15204979947684516
0.3971759178551425
0.5345596333911979
0.5256055412570793
0.3147765405877925
-0.1635836329957511
-0.7650146012921659
-1.3172746548010459
-1.6245885856736901
-0.7047199843692549
2.751499579945337
5.7358250942956674
1.146641050602556
0.3171184865059697
-4.1724443671599305
-6.886895135509829
-7.060424453740001
-0.15331366228114907
4.554240394697265
13.656081462350205
7.420781180091889
0.7098743221643642
-4.903064559314904
-12.518900778328508
-9.65995658258224
0.9447856316770991
1.975898247801894
11.572687687850786
8.40740961455278
-6.377656680517233
-3.4125434341936915
1.496784217121934
-5.283177641791852
0.5785885884220208
6.344651161317873
-1.4658389406331949
-2.7826781868239108
-1.5146542993220637
0.081432502223148
0.9743925005319587
1.0780938592919722
0.7460448638699393
0.2792930186722933
-0.12535770704891958
-0.38038559621189355
-0.47775902414074134
-0.4458484957350799
-0.3144283725386703
-0.10162159847609402
0.17450001479082033
0.4678699231926641
0.67558735642214
0.6254893264999923
0.29186210338471785
-0.7606121977214033
-1.9185471908209448
-0.8703525193481512
0.814288856168015
1.4728580958919308
1.9250173042857932
1.6631555174748156
-0.924699699945018
-3.9139839728874994
-5.43159396599545
-0.7278074579310099
6.647076619497117
3.0065044617313665
1.531514547501705
1.814334603081097
-1.816263397066665
-6.624148355896539
-0.34148744936422526
2.9094414324316342
2.7866623693466814
-0.41891197271785297
-5.8341876877413865
-4.353252673511253
3.1099143862849097
4.088127498374754
3.2259154435077897
5.058606999501559
1.4002462366789312
-6.441815206434124
-5.902985507616776
-1.789941527312434
0.9606070344149176
2.126122237032654
2.071220830620835
1.335958726537032
0.43342249891668927
-0.28109635898912866
-0.6511404998313616
-0.6875936930319178
-0.49944408094133874
-0.2216872679193539
0.036008374720035416
0.21132491009710108
0.2862450713989553
0.27034002624404185
0.18277827796990578
0.0415853544884293
-0.13765906733023167
-0.3378230036960319
-0.5391475832818593
-0.5294708353390455
-0.12938946249885186
0.5731865649521807
0.995524717052399
1.4634404725014234
1.6673069878261313
0.7770288664912769
-1.605848931749271
-4.914271910917572
-5.978310435395473
-2.152595103335425
6.580633042508964
4.813344527243261
5.776265422929853
5.433955998519582
0.30285146178018013
-10.047040202978668
-10.5773658862456
-1.6910517556000557
1.7382251749144468
6.158259846279001
-1.9516822439482833
5.732963445729569
3.4869772616889034
0.660706311134116
-5.325731051609868
3.2481525582038295
-0.6212296837149323
-4.654280378511082
-3.353777386906809
-0.02159664163661935
2.039108189958373
2.3617681482169672
1.6714409536569503
0.6499491692720936
-0.22004454962023823
-0.7075024383203652
-0.7980670173736071
-0.6104147594400375
-0.305296062363671
-0.0172014334439491
0.17848258672694267
0.265395939687921
0.2653835831661134
0.21193014003026828
0.1301896706792239
0.03012248250282926
-0.0874153570166467
-0.21746838756039205
-0.3399654100016114
-0.42063893689944715
-0.43060818939707485
-0.18483598040822224
0.20963858232646287
1.1149433200190975
1.759653777000311
1.8977828218054213
0.7407161065528673
-1.2561226676704478
-3.6077247142078397
-4.9003125448216185
-5.263852187082818
0.14304346845946092
8.881706942591306
6.359001452031071
4.928143847705279
4.129854814351784
-1.4809738492955677
-11.035450757072784
-11.618691766245611
-3.1871873158561494
1.662671481097985
3.2491774379893346
6.847817750077346
12.303208072417236
2.0923169897284706
-3.9869853356332827
-4.899638477070477
-5.389277104834334
-5.16646578573126
-0.2813480201645904
2.6126284466803056
3.3223668804626265
2.6170187551431616
1.308986980876207
0.02455345460445545
-0.8883065509363978
-1.3295397730026073
-1.3479750480158161
-1.0373193855228924
-0.475866743240864
0.2708577268847801
1.0976342772350685
1.7953383281224597
2.0227923340690483
1.3524976338709154
-0.6013062567885417
-3.2051760272690912
-4.2502250413713725
-2.501078315535969
-0.4075102761507768
3.027158399436597
5.3017297615734975
3.7271555909873313
1.1168580082600248
-0.2778094903677186
-2.214106085719394
-3.796835729487056
-3.263276844762274
-2.9594624607457414
-3.399098375908966
-0.012220247754315862
7.903378676238454
4.994008469786637
3.224066679812904
3.172791623942775
0.3118119709470295
-6.406077995841866
-4.0226114028643405
-6.740198041319335
-0.9810838438502714
-1.4508155109415455
0.4092925923917239
4.51506844513691
11.390654680653412
2.8082861912273605
0.19031594201166485
-3.1769214527122482
-5.214531730647937
-6.408779010493433
-2.2745697571667143
1.1211680745317023
3.1356492089492956
3.096316080653295
1.950829887056575
0.5543039711167577
-0.5218336798027735
-1.0393950704868578
-1.0325723134376583
-0.6918907961463863
-0.24623335759827292
0.12204270841179142
0.3166142932275841
0.32724283913140584
0.2056249514178755
0.032965839353691725
-0.10974280087233416
-0.16431677456060315
-0.11134884387070879
0.018200689518207375
0.13468710809619655
0.08603205754650843
-0.13839298646456683
-0.39294281288414934
0.05290658066495428
1.5602504373735453
1.587774960292001
0.7808182336673691
-1.7310990700412519
-3.665872499449052
-5.206699561928202
-1.3565396811106492
5.967324756213336
3.9690474022743887
3.0708988369289583
2.80514417559991
-0.026169833779963413
-5.346913363965631
-0.8685306236603965
-0.9736875166373684
-5.770694183523221
-1.018821409771654
-0.5550323975650522
0.22434477652764562
3.947075222375012
11.485326068850657
1.59070623501609
-2.335471293973658
-3.531108853813748
-4.342157134988607
-5.866135167628915
-0.7541766745533307
2.325144061586566
3.16511960628309
2.5375833980601854
1.2775876642083275
0.044787787638188345
-0.7865138495088616
-1.1155289229597671
-1.0265422273018323
-0.6801437650036426
-0.22920497963489117
0.2184682146189354
0.5933299124470225
0.833513428412693
0.857835230793226
0.5650130930468316
-0.13267809765765906
-1.2525583285008983
-2.090222927888044
-1.2093620238774565
0.1021806508476406
0.31250951530194104
2.698433911048184
3.031993440743242
1.7631291758298526
-0.4671234165260671
-2.199564559088444
-4.286626032547142
-3.480316414081193
-0.36735363394054976
2.1144005394530514
4.818950961655803
3.093378949947918
0.945902849159709
-4.854371632365885
-3.552060857125361
2.4860238509761095
0.4640705578356915
-0.17689670658682743
2.289113268974335
0.3268613581340547
-4.987976429644699
0.7159535806375592
3.5889361168068135
3.2371234893393113
-0.3990279452455314
-6.96688557976599
-2.459747816855383
0.5323510602377606
1.647083062795133
4.678944558843913
0.49591500274594713
-0.16497475886419843
-0.16838250048863534
-0.9162026764220164
-3.1861972176077824
5.074917120904123
-0.23897440523247948
-3.410270735075846
-2.3660935747307756
0.1738758377148646
1.452704156753855
1.5483642210511521
1.009006357828908
0.3074890454274497
-0.24543417528338607
-0.5190550721625331
-0.5267434788609567
-0.36350041534848343
-0.14387136922512866
0.041962978598046305
0.14768417216086274
0.16921034827967704
0.1304044045057154
0.06530716984132588
0.0037413973279968476
-0.036458001046996875
-0.05060574637073665
-0.04379764311092767
-0.025740162514494593
-0.006062958113268517
0.008599350250374766
0.015507073578350194
0.01518298105343797
0.010041986773212485
0.0030129573022555215
-0.003403349088550047
-0.007533082985701008
-0.008533237374314542
-0.006255590617890516
-0.001180666446491374
0.00551645539201204
0.011881242911604972
0.015306510373187593
0.013096254911073205
0.0035336751346075226
-0.012764023460412215
-0.03174146241785986
-0.045799236516459216
-0.045371530824756416
-0.022420477041839113
0.02475244201696239
0.08699389926962772
0.1425023446349334
0.160231393821541
0.10985064033822464
-0.022833623411158275
-0.21944488729644787
-0.41916116279672283
-0.5242205767249497
-0.42734746378778404
-0.06095923192685744
0.5422337550776107
1.1983666947111362
1.5586236479287479
1.155968995555571
-0.4812083444588778
-1.869797533292498
-1.8162214258221034
-2.1271254202186136
-2.0382249386252105
0.6228326911540815
2.973766769083634
4.195802823975488
1.9350038147155044
0.47007938970130275
-0.32714890221920245
-1.4840848826484336
-4.174819097973721
-6.047873626206112
-1.1400876228205192
4.779218691686759
0.6779256382871175
1.6662539458691943
7.288832056524979
5.628447054019616
-4.324412938959989
-4.481490387662213
-9.391861751238503
-3.2992081654695076
-1.2796115951113225
5.101238998530404
6.515457397067937
9.185764101646706
-0.011077759922252918
-4.135799894393815
-6.700913327813734
-3.455227094525666
-0.6218772989800199
1.4829059573290126
2.2246564056752858
1.8801569674369514
1.0193695859340868
0.12520445708866035
-0.5033954286437634
-0.7624467426556889
-0.6947419839015923
-0.41945475948792943
-0.07053781898833712
0.2398644152929605
0.4324832526131708
0.456754311036938
0.28479411511520275
-0.08730918504483788
-0.43043384395110784
-0.6739929940550332
-0.7110606974741296
-0.42715487276309816
0.4476062769999606
1.0779301643487675
1.6818685170177983
1.338682109787455
0.06389325946083466
-1.4570824074171949
-1.7163751841662913
-1.8727420170375406
-1.9414959701527066
-3.1179568233616157
1.1789376024319662
9.011343183272785
4.089474792310961
1.3200016143468065
0.7969912803240149
-8.009870193977127
-10.016816389487126
-1.0239877176338665
5.714871566093382
-1.5621625204223615
7.248312677421722
5.292884545802303
0.10031835174122426
-6.0413748578744855
1.3060380021745943
-1.5656252521791205
-4.419207660184346
-1.888658592913035
2.151762338181967
3.680465598295837
2.351111446210263
0.7340697083444592
-1.1571346769956032
-2.441558349948375
-1.0855538983881015
-0.013079540602656493
0.5453367367948361
0.6528271782336691
0.43037650191285226
0.21044267898125402
-0.0990680635100042
-0.23118823827658677
-0.15825742787975558
-0.07986600339791398
-0.008545369569370005
0.04146466696323989
0.060643549383249465
0.04660555574381595
0.004172166664414184
-0.055648745606655003
-0.11748300804112277
0.035408050422727134
0.01670830549780307
0.03187491752114317
0.07387345285373659
0.12185679665422737
-0.055696724733636946
0.10684055275870974
-0.01671931898838471
-0.23325257571415361
-0.3232905059938239
-0.04205562762252661
0.06970300304651651
0.26745134542341586
0.38369396442531595
0.21599060939553913
-0.07207955416757343
-0.3368727050587569
-0.43364176863404164
-0.1980053807669517
0.16211802761771135
0.261929899892165
0.3269589242253032
0.18005863855050722
-0.16510052008885487
-0.30228391094605106
-0.22625793409069625
-0.12768306010673677
0.20640632782878407
0.3868342546249319
0.21571045975146502
-0.11556875890578124
-0.221465576633536
-0.3132440218546805
-0.19158481236627212
0.1540259943185036
0.33825170610732747
0.16916390372399753
0.04004846074532403
-0.07165365201907149
-0.19791132793252514
-0.16975698992751748
-0.008086466053749379
0.08070320222185015
0.1035320335567471
0.07590979854682027
0.016668027435592415
-0.055687422381686044
-0.12459778471116795
0.02392508589838176
0.00032931486756492397
0.009637080401763858
0.04921254365148086
0.1074821119004218
-0.03511807162008135
-0.0024123624579789177
-0.016544325946757612
-0.09142826221957345
-0.027652654815269018
-0.010591699540610513
-0.012567172047840526
0.0012784435942451665
0.0647852432266032
0.002280552580599312
0.021942448375156413
0.11283693646136624
0.04671859871613028
-0.015366552245964128
-0.11298741850246628
-0.07541125869876422
-0.11322133210323657
-0.015269344142449301
0.04797611711111837
0.11583713711976408
0.026474295611045005
0.006991819111506879
0.06727547072687216
-0.0012029282853562855
-0.021833137152872804
-0.025917930721689516
-0.04441146653233062
-0.10065188322851916
-0.00600616778417627
0.04062808823920576
0.04982894230884163
0.03667157495035102
0.015712942597960588
-0.002516256149359805
-0.012863598082683341
-0.014976786521602994
-0.011547584675682005
-0.006246067594460889
-0.002030812381919133
-0.0002085133555881651
-0.000316123856736774
-0.0006838092737523827
0.0005836490597682546
0.004523527131977379
0.010462002755990052
0.015702517231153457
0.015982521275035036
0.006740405936860491
-0.015059261729430567
-0.04913346276809068
-0.09093650353666655
0.06774303511094219
0.03654859353368592
0.023437797678078416
0.031983449949146585
0.06024954843310084
-0.09834576230674316
-0.052693672603120544
-0.011345855139144516
0.01928886054663452
0.035423594363001805
0.035439668531832794
0.019339536528443658
-0.011257138262824215
-0.05257231182761003
-0.0982164319116414
0.060338841321389766
0.03196988617210009
0.02326718118970197
0.036209493914242184
0.06729977269192726
-0.09132978143072822
-0.0492558220769712
-0.014693196491111475
0.0076991635257441715
0.01740711465575467
0.01716268326499806
0.011259578209708508
0.0038807190358476043
-0.002020295519376289
-0.005107704269386205
-0.0054441762345241165
-0.003938147003803226
-0.0017420499917111126
0.00019906242286511447
0.0013664750780409515
0.0016733101660775596
0.0013341086305306675
0.0006891523012581563
5.4324957347251885e-05
-0.0003671751861210954
-0.0005077610104599748
-0.0004108019374563342
-0.0001834301521449145
5.1901920253787205e-05
0.00019490170275181647
0.00019059234983415856
3.985564591060393e-05
-0.0002004273152709065
-0.00042785638531967087
-0.0005181540002601157
-0.00036371598997783525
7.664304124666891e-05
0.0007296590194420445
0.0013834235110005524
0.0017126660277697646
0.0013712399920951012
0.00014726104376436587
-0.0018574704995160437
-0.0040971842118627715
-0.0055938649339682565
-0.005169001696461098
-0.0019118255906883685
0.004203960463327233
0.011762945019315726
0.017702708075441366
0.017739016736149898
0.007538624810400551
-0.015552948952813776
-0.05079726648442314
-0.09318985944866287
0.06585071845878877
0.03611991902864502
0.025362333352598382
0.03647135219585129
0.06640239024134427
-0.09270495661736512
-0.050688920511383816
-0.016065298584176487
0.006354220089303963
0.016131841276382706
0.016254930521847063
0.011288233997823678
0.005482298199864468
0.0014683759806416719
-0.00018260814768072568
