0
-6.0844629677304895e-05
-6.084462967689628e-05
-6.084462967660199e-05
-6.0844629676633435e-05
-6.0844629677164165e-05
-6.0844629678222435e-05
-6.084462967959291e-05
-6.08446296807814e-05
-6.084462968109658e-05
-6.0844629679876216e-05
-6.0844629676830455e-05
-6.0844629672400784e-05
-6.0844629667966966e-05
-6.084462966571165e-05
-6.084462966801079e-05
-6.0844629676374846e-05
-6.0844629690202144e-05
-6.084462970584937e-05
-6.084462971666161e-05
-6.084462971450403e-05
-6.0844629692911836e-05
-6.084462965124561e-05
-6.0844629598387635e-05
-6.084462955389128e-05
-6.08446295445385e-05
-6.0844629595336934e-05
-6.0844629716165824e-05
-6.0844629888126286e-05
-6.084463005615139e-05
-6.0844630135151065e-05
-6.084463003451967e-05
-6.0844629699586794e-05
-6.0844629159417695e-05
-6.084462856109222e-05
-6.0844628165720444e-05
-6.08446282859495e-05
-6.084462916179899e-05
-6.084463080021964e-05
-6.084463283638742e-05
-6.084463449770602e-05
-6.084463474787286e-05
-6.08446326445249e-05
-6.08446278581779e-05
-6.084462119033626e-05
-6.0844614834957674e-05
-6.084461210545331e-05
-6.084461645154311e-05
-6.084462983828792e-05
-6.084465091592906e-05
-6.084467376105036e-05
-6.0844688141054395e-05
-6.084468205579321e-05
-6.084464662552162e-05
-6.084458227817818e-05
-6.084450394095727e-05
-6.084444209972954e-05
-6.084443680577977e-05
-6.084452348985698e-05
-6.084471281934483e-05
-6.084497106775314e-05
-6.084521096817474e-05
-6.084530364351138e-05
-6.0845117967643166e-05
-6.0844583881400086e-05
-6.084376236416528e-05
-6.0842891440946686e-05
-6.0842371642025644e-05
-6.084266293733507e-05
-6.084409255539828e-05
-6.0846616671841216e-05
-6.084962663625092e-05
-6.085192108379933e-05
-6.08519539601988e-05
-6.0848396377360335e-05
-6.084091756397754e-05
-6.083092721365203e-05
-6.0821890981631735e-05
-6.081881588976765e-05
-6.082667743063091e-05
-6.084794925231885e-05
-6.0879931950914e-05
-6.09130807868571e-05
-6.09317362638891e-05
-6.091829222367966e-05
-6.0860742582785996e-05
-6.0761848609331e-05
-6.064634954764087e-05
-6.056152736037016e-05
-6.056698979656696e-05
-6.071244886061306e-05
-6.100747802150406e-05
-6.139349658051743e-05
-6.173308053002336e-05
-6.183192454213026e-05
-6.150158354139541e-05
-6.065574339051343e-05
-5.941203805369861e-05
-5.8152455207e-05
-5.7488524746313346e-05
-5.809317898156588e-05
-6.040475903181758e-05
-6.427482822610276e-05
-6.870074040985042e-05
-7.182395279908519e-05
-7.134916119381933e-05
-6.54219582873658e-05
-5.3798629816624827e-05
-3.8901157194827256e-05
-2.6170872046631692e-05
-2.3139390925663758e-05
-3.693016047504429e-05
-7.051097583056566e-05
-0.00011881932793543303
-0.00016659626945032235
-0.00018998799442599052
-0.00016331275558126646
-7.065640502490852e-05
8.061521224045863e-05
0.00024997350165876565
0.0003644510679693925
0.0003357719610780447
9.49688128389464e-05
-0.00036242294825292133
-0.00093672621880461
-0.0014127956105085106
-0.001499013065000478
-0.0009265855259880933
0.00040481080249198977
0.002279951796806825
0.004091263207203664
0.00491102381532623
0.0037635886637938584
7.966494194774215e-05
-0.005785615367930222
-0.012189595526462371
-0.01626440469568347
-0.01462473025961354
-0.004755266337562857
0.0131947308176379
0.03482706040126232
0.05097041134854158
0.049007344667372804
0.016358006504751037
-0.05447185483600327
-0.1609214825022873
-0.08779705762230368
-0.009069335347513448
0.10552194557629858
0.08081760335665451
0.12695131013776673
0.033987417330212405
-0.027371444120475336
-0.09912458027021843
-0.02553360965597729
-0.04207501843193183
0.03332378546067705
0.004959858886491919
-0.10072381104626732
-0.03987081502179729
0.04004434935838916
-0.01118959582376754
0.04167467742037931
0.21009570909375966
0.0779919339241302
0.005381392509940092
-0.06079683680248878
-0.17148305438775555
-0.16063885793934643
-0.035628830081702756
0.024047898431003075
0.059566080650021946
0.11988707904897716
0.047522258913469756
0.06717999863241424
-0.019916649296655774
-0.035281801902405596
-0.017064976368411536
-0.010788912061772866
-0.059385219482770604
0.005376124383666903
-0.031363910754608454
0.034713408898566334
0.0259479818634813
-0.02132245835063325
-0.0629456499372451
-0.054672280059136213
0.039276971402208746
0.03797645616481081
0.13783603529321886
0.1112597004801402
0.11167073186691405
-0.11514078364795956
-0.21595257950220947
-0.21615899963780336
-0.11225410904045861
0.12597454348702597
0.14417705962777108
0.18756463234903856
0.08664732160769109
0.04972483147240091
-0.13586969355658943
-0.09533738658896469
-0.054802136825147466
-0.03104239081158167
-0.025872993757552944
-0.02647566058367782
-0.011092786310731424
0.04188829189623049
0.14433791552356792
0.09151015866044991
0.06064329680704281
0.016233631991307913
-0.079152567866044
-0.25196580068946706
-0.10737756292877297
-0.025815865734474634
0.031855810498119475
0.1121067849991814
0.25390742806602973
0.07679932374526832
-0.02383276320811954
-0.07295852158259489
-0.1056680028636488
-0.15491513889955102
-0.041941436712868096
0.027494673960365618
0.060545586252361575
0.07029750352556945
0.06773014608901731
0.05591835648467183
0.028590316280348582
-0.026602815434360653
-0.12151058436604152
-0.06025056171870971
-0.03425029277464886
-0.021643306241678723
0.008536425369276877
0.08863569699935599
0.04360101636580414
0.08393406870196292
0.00259899285513694
-0.02321346793671036
-0.02612810523455943
-0.040352410912607606
-0.09363263744012586
-0.0016116948080899772
0.034090822578826174
0.02397475292311955
-0.014092926785078636
-0.060969676789455154
0.09785341039515573
0.06790698777664124
0.044204883357544245
0.013299760308434798
-0.04132079899501144
-0.1320979575834798
-0.06107188999933895
-0.016846763881310883
0.02383806675280338
0.09040326864841043
0.010579970819860628
0.0029814088803034287
0.07224091434242383
0.007886459162911884
-0.012937701008814844
-0.01974392066725718
-0.0415757741323978
-0.10048426058782428
-0.007422585056350944
0.03842500726714701
0.047070814265554206
0.03320685520177563
0.011504837325768787
-0.006850582294612401
-0.01578870053336013
-0.014303976357600206
-0.005312207773745296
0.0059823290980486055
0.013817258726646322
0.013549768197210287
0.0032318359462907794
-0.01506198682812715
-0.03451455016823658
-0.04397410548467755
-0.029915997132236714
0.020081536259554868
0.11313953812783525
0.04763853424182807
0.012133456457681041
-0.012522598097264772
-0.04832023828911715
-0.11419229933367228
-0.021237341273581883
0.029256272564246573
0.04454552345651511
0.03683682640194581
0.019027474899162653
0.0013339367161655062
-0.010365442354475953
-0.014469291241341593
-0.012431919591164266
-0.007126430877554095
-0.0014150443261072895
0.002730780213527138
0.00450823538812963
0.004109235339733117
0.0023246226841590716
0.00013159682200763068
-0.0016137411263964243
-0.002347801887323644
-0.0018656471740722811
-0.0003296973279018245
0.0017525342612983205
0.0035935875593697975
0.0042739006591599816
0.0030065226441753075
-0.0004957849958992914
-0.0056466161045823525
-0.010782589246614122
-0.01334459913765221
-0.010603459022718581
-0.00092220004226999
0.014710824715906727
0.03141120974037667
0.04006865233680494
0.028519229948147703
-0.015675202417323154
-0.10144726836868177
-0.030707805561937817
0.0034826538705373875
0.016201017720222456
0.027582072880718417
0.058423693296286966
-0.07418290668491077
0.03985861661356248
0.0019878136123966253
0.005113522165436948
0.03552021645444549
0.07640536953214729
-0.0874255768190761
-0.06473038065490523
-0.05443108313549695
-0.04525388114240102
-0.019231776094615457
0.04152346105073265
0.14684110168616463
0.0922688843984983
0.05742006978804892
0.010291664825338026
-0.08333517918954282
-0.2485686301451814
-0.09252549960199052
-0.0016948454486049383
0.05304331478756266
0.1055520353032698
0.18203618818420153
0.09209200512813427
0.026858995532798944
-0.03484327916282233
-0.11468676824315552
-0.22202085923741238
-0.14551947413271366
-0.05341493967069254
0.09667768768706492
0.14123624157014145
0.2935940668284039
0.13287003555175417
0.004080087268419821
-0.1695877840235118
-0.06591754919848146
-0.14094656717936768
-0.2116627232878363
-0.049557380132387016
0.012858456593940856
0.06434298520407374
0.19121446847595266
0.25478445683868495
0.07681375712943381
0.037323478813682004
-0.11505039679375968
-0.24426808156654287
-0.20653585129204766
-0.035353340922076135
0.06372273007470321
0.10844705577356817
0.12898247755650713
0.15605450389215966
0.012798754703034817
-0.0875351443047867
-0.13892437624794904
-0.13818131817183274
-0.08257577604871078
0.02829402884385734
0.18694340596715986
0.17202509556996376
0.14641393874521325
0.06273503750067086
-0.12341743857323524
-0.23620589420260668
-0.26473393075711854
-0.1575953101033538
-0.031036741147222515
0.2099361296322749
0.24343760455603325
0.3048462415557813
0.17239873928115063
-0.03027482724842241
-0.2151279644569
-0.30050942421364696
-0.18152528825887623
-0.10919773797874047
0.11629573846545259
0.13853266279342455
0.2287484421819568
0.06752147370401641
-0.07008441796194788
-0.12340434181700954
-0.04989296713314732
-0.0262855072517354
-0.049548852370826985
0.06158676796923719
0.06544972930654426
0.09865409546100071
0.08193573835701216
0.13186868441517077
-0.022161549421999657
-0.21880715474088167
-0.2487846324451049
-0.2483747872690036
-0.1071622132948029
0.10940971361199128
0.327662905482339
0.43312302932596036
0.24878884778845953
-0.06784535965776173
-0.20783910640341716
-0.2802957982612731
-0.3795555992544022
-0.16152341353617958
0.16378680035739726
0.22323813226271275
0.2611415762324144
0.11850881817567537
0.018824771088582184
-0.23614926672392247
-0.06186623601728604
-0.08210831093617126
0.07973225136538453
0.006521985539541501
0.08995974039367466
-0.06931796671458493
-0.06323064982052687
-0.07902644194997295
0.09673764716128838
0.07357179004382303
0.05318408007625182
0.028055128818989552
-0.016592655122934067
-0.09788752998795434
-0.029181909264900507
-0.014897494633069011
-0.04805237270821636
0.08891625807189615
0.020555934481474563
-0.026756444914059988
-0.030254316096200693
0.02439866427110746
-0.060526352705265615
0.10329262079828273
0.09088176690082606
0.06796944979886628
-0.0014819812129202043
-0.14540105668361342
-0.17420148802187987
-0.07548748540590959
-0.015690415757381625
0.0509597308955638
0.16868339890284648
0.1662850947625123
0.048133409628343615
-0.006731751488056808
-0.03706885797861453
-0.08622301255341892
-0.1879023296447739
-0.15587869730584267
0.018870384277079117
0.16283319829422246
0.10890762552721453
0.08425849597077593
0.10178387008705321
-0.04207050885131007
-0.1632565588837042
-0.08238424547548034
-0.016923910500149592
0.023692990697484206
0.038980939122282274
0.03509848541821649
0.021098216020883204
0.005438198113093165
-0.006202341319864007
-0.011552109930865723
-0.011160612461475346
-0.007198222362682031
-0.0022192326695857877
0.0017384337819084496
0.0035878218174882656
0.0032222103791842488
0.0012899825711443639
-0.001135323481235788
-0.0028945885287000677
-0.003056745512355933
-0.001199253343194469
0.0023674485648903128
0.006499639155121705
0.009351837984651404
0.008839146198936445
0.003441916865384625
-0.006801467138674658
-0.01946734870862855
-0.029584657493289892
-0.030621851974041787
-0.016843645108930078
0.01326194075508929
0.053447326261946634
0.08757231990841849
0.09049085898399736
0.032941963273289354
-0.10997997810779113
-0.14897758883728032
-0.07281209779462804
-0.046076588177269895
-0.01422931788758838
0.08487809327428723
0.1060214810261533
0.0824346345084371
0.01652425166892195
0.07810383539297787
0.010661127632961436
-0.05594826531485651
-0.1896601076088041
-0.04137731408678477
-0.035022134863524776
0.03528120973875261
0.0009336354599639683
0.10949618500481785
0.013176332583066715
-0.0420119393817632
-0.0244235905090597
0.07872280835064592
0.060926711993817065
0.1001677172329681
-0.033554667613805905
-0.16842156237328984
-0.12160546794211684
-0.0941504827911291
-0.07237815608399419
0.16422711962586864
0.23165075801479637
0.13145143901021478
0.04708039003833328
-0.05140487822662479
-0.1958548890815612
-0.20656560041808955
-0.08266527621254134
-0.0006043034042828802
0.0784495502188942
0.1952553634689579
0.1785231835810431
0.03574960776365038
-0.047875217137677645
-0.10267079613435175
-0.16309582233575182
-0.05657266207365311
0.0034028637913137184
0.017999696379595833
-0.0016255614583054225
0.15823615446996595
0.10705747350180839
0.04687458945552582
-0.025946144956819964
-0.11489063873742253
-0.2164851952382006
-0.11644263729182498
0.008316396592167017
0.18161852666987796
0.21710444880508406
0.10956012456775312
0.03313957134698943
-0.05181606552026574
-0.18550094887400118
-0.19397861344493564
-0.0789784509510216
-0.01636101715659677
0.03589785421264316
0.12301851076024856
0.27739800737484827
0.10722183265064653
-0.005967253760863815
-0.09986362361335384
-0.21724438064966983
-0.19085123419815278
-0.03323710449944338
0.06493821791683933
0.12850343394842736
0.18696550679747123
0.06437509101818177
-0.02609939580322872
-0.08158341188050461
-0.10454179722975059
-0.09689478471386687
-0.056615564718474926
0.021360812525970153
0.14039798142849827
0.09610672516133674
0.07237077043352365
0.042108417551076915
-0.026595525833483808
-0.16077689767645076
-0.17290934386297094
-0.05528748457063086
0.018832137520154498
0.08735697385434298
0.1876466485221533
0.14548149835816962
-0.03118809617651597
-0.15188116602088803
-0.03776236114821872
-0.11359407274606376
-0.0008873400068689537
0.08580600586955461
0.13953181749166602
-0.040061635579674224
-0.04787135810825645
-0.0742233503512848
-0.10623531832792378
0.06937911696602472
0.06203394326933159
0.07288479016252011
0.092541096263059
0.10273876568925397
-0.11765551177981014
-0.1839922368058113
-0.09791899002387565
-0.043873507170472614
0.007896388789741724
0.09244489991787326
0.23861268615936632
0.05930781407747723
-0.05274536924445197
-0.1225045820753379
0.015128781084120937
-0.07494549985422216
-0.019507609084401658
-0.03180314459170233
0.08971208414103594
-0.040809201155680985
-0.0009859631326829647
0.03463520106143768
0.08989298228350588
-0.016295003659377427
-0.0714620528480813
-0.06967838028696625
-0.011085168863934947
0.09836975005564662
0.04704653761836754
0.018380323951316647
-0.006930055398788662
-0.0473853929756034
-0.11689616547230215
-0.022313527493326307
0.03656885245855905
0.0645740756031478
0.06759403430810842
0.04988813549572353
0.013736927432858703
-0.03831198851785067
-0.09984216547738001
-0.15785466231962025
0.006811000606060467
0.014896758773032563
0.08103886940587456
0.20599917821109562
0.17264917918191205
-0.05143001702373186
-0.10450284425522562
-0.2174478812827754
-0.20206955633768375
-0.04614741562799561
0.08228303517872644
0.22297830224689433
0.20887241423164238
0.05491796323129185
-0.04529045164651499
-0.11449329518529842
-0.18139943315456206
-0.06991337029492488
0.00765346891259833
0.05137082603842262
0.06930950417238314
0.07082027730625343
0.060790881638394995
0.037342405102424106
-0.0062106687519725475
-0.07612719340971313
-0.17218073430061914
-0.08380507702899358
0.009239114515151501
0.13132741966600206
0.1026249200019151
0.13154148495708945
0.011374327365392619
-0.07738620530578559
-0.16020486077592117
-0.060179527894941506
0.008324918542086442
0.041987329589756955
0.046774526956611676
0.03373080242156215
0.014411348407164227
-0.002445250760667643
-0.012341163711758479
-0.014720927059911276
-0.011622714619605578
-0.006052037765336273
-0.0006687895757313805
0.0029255808926586806
0.004300070611386418
0.003889645668274132
0.002521714620214383
0.0009866170688687232
-0.00022148521240149266
-0.0009619936185203534
-0.0013458864688293871
-0.001556518364673595
-0.0016822763351524116
-0.001631962516471064
-0.0011693891439049694
-6.071606047466596e-05
0.0017163932132778128
0.0037897205646991064
0.005340645991117999
0.005271787586804874
0.002621368305822169
-0.0028514449566853896
-0.010108190365575804
-0.016593729065594653
-0.018623971998518563
-0.01257423914495922
0.00323931365207831
0.026478889212122752
0.04935543182542072
0.05883485546137178
0.039185458043914226
-0.023202604267222784
-0.13391258030876393
-0.08569673737866583
-0.05718883079802871
-0.01659113897548778
0.0701321240374151
0.22908988903078167
0.0700732785189669
-0.016693974636114748
-0.05730568946725438
-0.0857844619981611
-0.13392239256872654
-0.023095475926252888
0.03941722627589524
0.059146611968453555
0.04964095782559616
0.026585298302755255
0.0030135741886644953
-0.013211183081203441
-0.01959580092152909
-0.01761604616170124
-0.010707357744400594
-0.0024873792150274313
0.004328587073711335
0.008263116823028686
0.00889467110940442
0.006497623683018319
0.0017836703610783575
-0.004144172278481694
-0.009707870493623654
-0.012863666258759841
-0.011452578154793645
-0.0040269431407998785
0.008941926787833237
0.023841021335298734
0.033237783931083204
0.026293310856044465
-0.009491497385602538
-0.08550201972535525
-0.009059712938101688
0.01866990083148939
0.00324121511483624
-0.04402487311199141
0.09206443498138328
0.02855210511640714
-0.017086094562937713
-0.02742943158607046
0.01501589157434571
-0.07228756462744702
-0.07320286706419912
0.024025976684173382
0.02219573341198441
0.11030159210462472
0.0604428254549885
0.028425184765753776
-0.04102945185985686
-0.005150926000178763
-0.11217370339768266
0.008653051957616394
-0.04641621350249432
-0.054132457898017405
0.031923281654289856
0.07313992238743576
-0.06481577016080937
0.07715178073080478
0.14278226712433106
-0.044620075097228346
-0.08289743535412726
0.01202416413969169
0.011329921162223904
-0.12127890550706534
-0.02542834683322268
0.058213729458114635
0.08872297535532848
0.025477954074479708
0.030046882271271568
0.0702884561700975
-0.07375979539042003
-0.20398989454383165
-0.10093369733867684
0.07462725912256173
-0.025436533733966874
0.05269065763324217
0.35428522826695574
0.110105861644436
-0.06223211390770553
-0.1498673459578998
-0.13343215184769022
-0.37952269342195777
-0.24309524550965733
-0.08249143064935949
0.3159971216823673
0.7134855840726733
1.2072237265924777
-0.5557886364399239
-0.538261783582367
-0.4568171494042151
-0.7327610309170711
-1.0714205360340194
0.9182436276785232
0.6682213194576571
0.7800288750764116
0.36414429026176004
0.011980424071843226
-0.39226992288241247
-0.22821140698886713
-0.6826461837399015
-0.3000890536104295
0.044765508150718406
0.34770359865374983
0.2542423677170931
0.22967024509060405
0.1328748775103613
0.4026208232444724
-0.7418330859365557
-0.2904226561197803
-0.030838097261960535
0.05615315427962761
-0.20824799037979166
0.7879245542806392
0.23730444059235317
-0.08853992131693368
-0.22949798272384644
-0.41959017364517204
-0.2705517767151696
0.03493920159850093
0.13649228988766962
0.2786028905987222
0.290624254132542
0.17316461895535099
-0.10319256311547485
-0.18662037706187948
-0.32557015104642084
-0.15135028964189562
-0.06905368687394532
0.14013033026695612
0.3075772969777443
0.26318370015729736
0.025612141653638103
-0.19910290272412626
-0.2114333507576259
-0.20964408713777716
0.015658741796053668
0.08035154201123267
0.1997551626144139
0.17981788063872242
0.011419018112057904
-0.12916316994280747
-0.07384658221352577
-0.05340492846551641
-0.08910277228741557
0.011777630480559995
0.05555963718344825
0.057895847314830884
0.03773302472679367
0.011823123888247782
-0.008654273947771494
-0.018923144092167554
-0.01941847673322193
-0.013570953084892468
-0.005561034455432032
0.0012900016164249916
0.0052485889208601436
0.006125809378833771
0.004765928538852323
0.002401250818882277
0.00012511425724018223
-0.0013956035553236586
-0.001967445302755666
-0.0017522734590881069
-0.0010841998917147481
-0.0003052580531454853
0.0003341610861417746
0.0007036935652597074
0.000771855222299654
0.0005678860166851245
0.00015398541928517313
-0.0003801339364238628
-0.0009067092634320849
-0.0012534188566878108
-0.0012243672413866816
-0.0006625938540762593
0.0004528437151108018
0.0019086665590349796
0.0032131880806535603
0.0036654956393042167
0.0025732884135298674
-0.00040095562999130005
-0.004863176516025311
-0.00945165375767816
-0.011945372180999921
-0.009873276832599106
-0.0016333953270250177
0.01209922267644952
0.027140453711068192
0.035348334177581084
0.02548061056827919
-0.014502036771977716
-0.09416129608715725
-0.017377686886595235
0.019606787583768083
0.028212750453471713
0.02573935411993383
0.03245781258114368
-0.13174605757518765
-0.05089145161357471
0.08351589322521162
0.06936369928434688
0.09257912882693266
0.1291300155490656
-0.048907524831758545
-0.2643978918601222
-0.12645677907832628
-0.025867532374523227
0.06297408119978976
0.17413698529411692
0.13954188591070396
-0.02017858548923045
-0.10050873731874492
-0.11322212636589933
-0.08354325295719342
0.15375008446687308
0.15858442257323135
0.0909780778409342
-0.0815087486922819
-0.1749067992700143
-0.18138706893323803
-0.0670301174648145
0.022672490512722708
0.1501191790890288
0.16941906643430177
0.11210833860763933
-0.020522144942060738
-0.05634349586846088
-0.04356146740427251
-0.03746198044180164
-0.08679950988000233
-0.02332201989025957
-0.05662565768322109
0.025035009776808354
0.04890720014799993
0.04903398241525868
0.057442753385150466
0.09775498381501246
-0.017262278966084812
-0.08419113374323356
-0.1050455451831548
-0.08343000675938338
-0.02301173539125115
0.07093808032965478
0.18819796449814116
0.11117341754429645
0.01609557748383803
-0.121211414695363
-0.11669739384092727
-0.17033516569253243
-0.06321046630498514
0.03840808512733182
0.17289138481926203
0.1706329308685165
0.04387439921052626
-0.01715489177801428
-0.04059967000634407
-0.06359195698592694
-0.12072968966737507
-0.03433473845883418
-0.009379951173601915
-0.03417364277566458
0.11404442014382801
0.06090487480140737
0.027001620444314072
0.02274176724159196
0.04719853252056093
-0.10927978608478114
-0.06017990583436654
-0.01772256049579628
0.010626404167869332
0.023182994124701987
0.022912147195269253
0.015158971737522082
0.0053524979238412825
-0.0025692476931835663
-0.0067590337418032935
-0.007234093849825565
-0.00518145892136255
-0.0021703409151983075
0.00046167385493926533
0.0019344839318382661
0.0020794025757240875
0.001210200815618814
-8.63757850878789e-05
-0.0011650718637603171
-0.0015050769131332755
-0.0008525652719495514
0.0006813704586157539
0.0025863025616207724
0.004019066466301055
0.004010581282553477
0.0018203912303563475
-0.0026215246575023742
-0.0083329298783549
-0.013172713875223547
-0.0142249201524676
-0.008779910976793395
0.004208103817065664
0.022607843346342582
0.040226445266516406
0.0473121063105473
0.032940163452251925
-0.010878372072173284
-0.08446237032627954
-0.1770570652468182
-0.06694497964760662
0.07366215611643849
0.06970825580148089
0.13336041212167712
0.2572580513414008
0.014460760298903367
-0.23389726066947994
-0.12564427538855946
-0.08432354200301706
-0.11098308903698444
0.015846517419152148
0.13217137251085243
0.07568415634148695
0.07274174879491152
0.12967594302259622
0.03125433064365797
-0.05338695761448893
-0.15957758061761237
-0.11484435233070825
-0.1301333323038214
0.002234434316755924
0.10337758789181685
0.19795914421619806
0.10404885853207124
0.027145029136779488
-0.039333442880861644
-0.10784634806669206
-0.18813537159657276
-0.0804514289423477
0.026234743470768675
0.15041055929189637
0.11074630621092274
0.11911155011366467
-0.022822887615112062
-0.12226250907263492
-0.19071466271257428
-0.03919932608079278
0.1240849409076334
0.09297511426342871
0.06096850905385211
0.019638053233028457
-0.04067605137286219
-0.12818102035336779
-0.04664506660947154
0.005933355584140366
0.03598272823347036
0.05084114493936007
0.05474957237701532
0.0463082625493426
0.018694998056776622
-0.0372647533398751
-0.1283768559272435
-0.05477265363963103
-0.008055085180009365
0.027124868727759616
0.06871238052757911
0.13211428222134627
0.026654631686766687
-0.044828413430291744
-0.08333977843925171
-0.08977790713086371
-0.06213671233955467
0.004307214670094237
0.1136127511470936
0.06415629692764242
0.044535910435934314
0.032687405357589475
-0.0008354533457101652
-0.08616875140599418
-0.046146699117262324
-0.0896929079671504
-0.008881852368309337
0.019268987941328176
0.02681185338510338
0.04657970321069836
0.10414786402067805
0.012405962352200556
-0.029838506881449893
-0.03517781947045613
-0.02208344378183486
-0.008460275175456177
-0.006098665771488994
-0.017296873688788173
-0.034311701483709
-0.04177748532531997
-0.021724274760174165
0.03982125041770421
0.14642612969422883
0.08733031030272513
0.03804929433384935
-0.03383665387558678
-0.1591610013985373
-0.15723238942514484
-0.029331886897699767
0.04175254550834817
0.08607677084260638
0.13719656259348648
0.022749664479303138
-0.04196065797620557
-0.05605277904700416
-0.0313398089971102
0.011721283895447934
0.04903238392249072
0.05810915039984475
0.02334261713791494
-0.059189129439123606
-0.17856014316921212
-0.1093041047725951
-0.0166514531475172
0.13356287343963666
0.16306293143359066
0.27192995564635225
0.03640785008785499
-0.18448740253075838
-0.23572381986480398
-0.15183821609774514
-0.14744849036460894
0.18372404850859855
0.2620079125770949
0.11143826081929604
-0.04871351664384954
-0.007117788599051645
-0.15829696234399462
-0.09802694197025533
-0.019717840818322344
0.08591709052777685
0.027707284807354484
0.009009074804960982
0.023161247278374705
0.05137867828093905
0.06419363333195474
0.026607285951325645
-0.09392679125495393
-0.11867581703955116
-0.050691004524356875
-0.07225127680613509
0.05224172547685124
0.16889833651722502
0.12518048627420703
-0.03796730343819363
-0.09081812495124533
-0.21665589301925506
-0.012495515454678228
0.10964715730237981
0.12118157842987468
0.1773745060186129
0.2226610909398036
-0.19796818319563236
-0.32362781267615337
-0.16361576800023309
-0.0913052780557455
-0.049908053323482485
0.23053327884284894
0.21023674904794148
0.11871649221419368
0.14313371808050843
0.030174391090493958
-0.0988257931478801
-0.12401332159191371
-0.10166676520268998
-0.24528596121721297
-0.319536414469997
-0.05007865596025353
0.25256471100659716
0.4624042583088113
0.6118477649880959
-0.119093063579762
-0.19306385011066377
-0.2887794821825813
-0.46875239635327137
-0.35472130016095915
0.27967901553564345
0.29724702056499763
0.17275818531428286
0.16632114983838753
-0.09570264347045958
0.17303168896335921
-0.07447926645006471
-0.10262186450376871
-0.1736223836587816
-0.13070986102321108
-0.18920894415456105
0.06193703644280539
0.24950816982082505
0.20109048475996258
0.1325269086034342
0.04320810250244489
-0.07901125635480362
-0.24594577961839878
-0.25614597937802486
-0.08736607822476598
0.10146794368131194
0.15903563583703662
0.1256232575070594
0.21888463592658122
0.027001989366966985
-0.08826586510150604
-0.18010197758999716
-0.10128208955409108
-0.0905381588918677
0.035147680470840825
0.08092666441515904
0.06855570344779223
0.02797285056411165
-0.010973024852787217
-0.02465977177039252
0.0009690963510774978
0.06965507133260207
-0.02386647788334688
-0.09113127511684606
0.05342842722746648
-0.004379394863894813
-0.07627943835145262
0.029548572293398117
0.10859231470777927
-0.040310210943604985
-0.015153367114461696
-0.010591892433243153
-0.01773685239878749
-0.024512474870177648
-0.016992318522140046
0.01831424535091624
0.09175954702626105
0.008327234866419914
-0.03329815845207504
-0.04010185530259322
-0.02303081589137766
0.004948748430413683
0.030428957576751948
0.040737260637900743
0.025066756708577966
-0.024174748863047248
-0.11004129351888652
-0.030529594108008394
0.020324692718877005
0.04963084102431306
0.062078938130075104
0.05729999646317535
0.029638071011762482
-0.0291911824986299
-0.1254518851777846
-0.058739393373162724
-0.019547798916571435
0.009604389727482556
0.04973342846439038
0.11936227779208924
0.02930949532160537
-0.01970541144861647
-0.03590818675723578
-0.03252376064694669
-0.022764222773639226
-0.015589929101887542
-0.01353957594879107
-0.013142132636058769
-0.007690847992666918
0.008430204338511143
0.03512222907755404
0.06317449983012317
0.07358692366432854
0.040602586371530774
-0.06161214843069275
-0.050103762368083185
-0.12476145678808083
-0.06350615455096165
-0.02332721677877405
0.052290190231405645
0.021068806783184204
0.12788804506869952
-0.007337343083480167
0.00330838068514484
0.11568068722767666
0.06087836257632037
-0.04112726083400227
-0.06399621334417736
-0.057460511736003056
-0.23426632515213358
-0.16575660329596525
0.011658307400578955
0.18007792589565694
0.2182699366153705
0.18133348679281472
0.08851798947121035
-0.07721202759909446
-0.158747788962511
-0.20830272984455686
-0.07120200459833655
0.024657754252190172
0.07139500109631182
0.07689361769068853
0.05701531800044908
0.02791901613412714
0.0010510382685580376
-0.018278834407198335
-0.02929321222348474
-0.0325659464162517
-0.026939232955945816
-0.007883039248534222
0.03202464925327868
-0.0994422854911851
0.0019237046480143748
0.13265271918049296
0.07892613876808716
0.017120850325645004
0.11868842634763552
-0.04108652673577094
-0.27288475172801174
-0.1656851706557441
-0.08575928848018488
0.01547886524439819
0.186202846661338
0.25660537536922823
0.2259860296367096
0.06034239802731815
-0.09753890216810686
-0.30861831236465165
-0.21604501002258347
-0.22996565232350702
0.07531818872696643
0.15096541101834424
0.25453614079544734
0.2301434371268532
0.09553855801642026
-0.1595796449423209
-0.1647670223481532
-0.15455583541012585
-0.15532593184525903
0.02152893842228162
0.1785141932869488
0.12513389016447077
0.06952367770485703
0.012829070662015832
-0.05156746174515274
-0.1345606488703848
-0.04603832700199827
0.009399268535427264
0.03396673454052597
0.035364230465824
0.023759520875158775
0.008619456373660867
-0.0034701929675977176
-0.009564237517781866
-0.009878070850031829
-0.006581406167758302
-0.0024249701803241396
0.00038198155235346764
0.0008302493736825783
-0.0007332391370032084
-0.002885711813894692
-0.0037334128295034383
-0.0017058152442450724
0.0036309105347296644
0.01096349597040971
0.01708506665821842
0.017440347442506984
0.007430752570673469
-0.015749938823670623
-0.05134100427237781
-0.09414114756644788
0.06473934307988181
0.035396007687020004
0.025712683286450707
0.038419787075236786
0.06993994902659856
-0.08841816585781948
-0.047370801883167335
-0.015948377430333737
0.001348876362857649
0.005540630071666267
0.002154161765577301
-0.0012683938660624262
0.0016745478325118045
0.013283907323522644
0.029796995004776925
0.041106514064716895
0.03258450037946904
-0.01107459960252483
-0.10081156651017213
-0.038478188419628884
-0.014169212207878885
-0.006804977465376293
0.011956840179395706
0.07153841671418815
-0.004272311113756751
-0.002763436748626608
0.07488712251326571
0.014080025542464616
-0.009550278109728742
-0.024154393298198695
-0.05494728717887894
-0.11875500986773337
-0.02162995691714129
0.0396275697422335
0.0727105240830902
0.08391270490058593
0.07381392867005597
0.036652960825975495
-0.03608385543543169
-0.14925593842767057
-0.09772759074624032
-0.063304766780152
-0.017010393572073543
0.0734843718105506
0.23381914850589178
0.07423980453796776
-0.014140810034944964
-0.05653855636545828
-0.08638430979865684
-0.1352422970815746
-0.02455028678087697
0.0382079080630786
0.05835706990017833
0.04932210473602537
0.026755871576460113
0.003698044276166868
-0.012023284663668837
-0.018048843421030043
-0.016085433329877816
-0.009815259422234542
-0.0029702121712484493
0.0019178542987941145
0.003954336860909698
0.0036492729779218453
0.0022941339495623336
0.0012390333485104562
0.0012990246187960042
0.002432623045067527
0.0037571032405435897
0.0038978772143331893
0.0016012464746865639
-0.0035401926398976624
-0.010485639148952864
-0.01656204199190677
-0.017971118341975113
-0.011110726761516128
0.005458164676983732
0.02894758569208412
0.05106295713615723
0.05848047827919098
0.03572083805583566
-0.029764920052449708
-0.1416185014261644
-0.08999102067085284
-0.050768851438588655
0.010073744470181039
0.12770225916652259
0.1279387894523165
0.018716600358739562
-0.013508300369672245
-0.0012096877731510684
