0
3.5689851055060986e-11
2.6077484947838912e-11
-1.9572442990031063e-12
-4.529121495581592e-11
-9.144879993855353e-11
-1.193216022376724e-10
-1.045603355407681e-10
-2.969348958849835e-11
1.0327031252153268e-10
2.625253277043256e-10
3.848479784419824e-10
3.885187144488923e-10
2.028592803094805e-10
-1.905270252542438e-10
-7.183432807697987e-10
-1.1984991978208056e-09
-1.3667015356594695e-09
-9.58989549599066e-10
1.579872883614448e-10
1.845441468698794e-09
3.6028871401878397e-09
4.60484785161638e-09
3.919031973896003e-09
9.037843917455444e-10
-4.306999565022199e-09
-1.0419706696209528e-08
-1.4945386208345475e-08
-1.4732539641139063e-08
-7.135674306684972e-09
8.387247625090003e-09
2.8786772477826663e-08
4.684016916692573e-08
5.228862490361862e-08
3.513074166502192e-08
-9.299178652819509e-09
-7.493478643288068e-08
-1.4173808031843226e-07
-1.7746492460435935e-07
-1.4647073606378924e-07
-2.530306767602875e-08
1.786638986332773e-07
4.1297075410790713e-07
5.79756965475867e-07
5.576361329920953e-07
2.4786230760547784e-07
-3.6386496290958366e-07
-1.1513383241291287e-06
-1.8284848454790227e-06
-1.9975571105491177e-06
-1.2803311601520018e-06
4.841657310910753e-07
3.034225368410861e-06
5.569096161476981e-06
6.830730818178734e-06
5.458346742476273e-06
5.994142244490913e-07
-7.375195108577095e-06
-1.6343879938941006e-05
-2.2463694508759864e-05
-2.1065099359716614e-05
-8.473412437081378e-06
1.560279876528488e-05
4.596435700300121e-05
7.129680984025943e-05
7.61968996059384e-05
4.639026931899604e-05
-2.357872433733945e-05
-0.00012253996125540187
-0.0002185528179176417
-0.0002625922851692007
-0.0002027949680860647
-8.373996885610066e-06
0.00030297031834273114
0.0006456235658999737
0.0008688235041358402
0.0007931430871738517
0.0002822943500633286
-0.0006646020849825933
-0.0018338150102994843
-0.00277737266529811
-0.0028970609829043507
-0.0016504915140515527
0.0011519062149640685
0.0050530762416287536
0.008805696507422746
0.010536114967908246
0.008310514219842639
0.0010486742789259668
-0.010484969083348216
-0.02310283627493604
-0.031643441943227234
-0.030987878601518547
-0.019835615091336897
-0.0058227074781565785
-0.010803552053955128
0.1256163040501427
0.1466661888596634
0.18528523717213707
-0.021870959885747148
-0.11505127566431367
-0.2915825503167142
-0.29269918004322315
-0.20373394400678424
0.1292044791418176
0.26873450818056005
0.3501822407792904
0.2510630007285448
-0.02463080085926668
-0.14349709750347664
-0.2239240924329459
-0.20893799814949318
-0.039257782956186635
0.16735109810938648
0.12847788393105333
0.002706514559966412
-0.008914866991162078
-0.0640856432520115
-0.08347956032245428
-0.15936729936170854
0.03032576308934031
0.0030530975548393024
0.050476317065174046
0.21969361874759497
0.30221819001292105
0.0350451347562513
-0.08485523430969173
-0.17568054377431383
-0.34270893444959505
-0.25576217478012775
0.06087864755933706
0.224056624944017
0.276508975499396
0.06832373613987262
0.042616882710685755
0.02963649212791109
-0.15101178983207633
-0.28386367426518144
-0.1520830519200003
0.06288654275722735
0.5755553062203921
-0.6127367625448059
0.2783794072332242
0.8059004265961649
-0.4915339540258458
-0.8820398963722919
0.5735700312291949
0.03269845590643021
-0.3244937193307466
0.5041083488608015
0.1398482494843952
-0.17835213355247312
-0.19382788170633033
-0.23228208987426696
-0.005815224287945441
0.1767678527802616
0.1944292212849625
-0.10276421753897182
-0.10663823031115646
0.14317310813457249
0.16208896742622747
0.23293050230546034
0.027463044067498235
-0.1654674145692959
-0.4112595810911147
-0.30910095276220256
-0.18812743515008923
0.07577710624976569
0.22559842344615497
0.3811254001612906
0.4027353774137719
0.2733920992836467
-0.09457128501554603
-0.2298635674158136
-0.4600979643617051
-0.47212749378865393
-0.2890576004980312
0.12823206669047477
0.4569376243061235
0.5766384220323004
0.3376898354933817
-0.053160446109445356
-0.2252333625534594
-0.41993877531029766
-0.46283794701163017
-0.14508817831837675
0.17756776051137899
0.36860315445392555
0.285365862430389
0.15601204737251176
-0.03205409743653541
-0.12890754861754136
-0.20695113931823578
-0.14072814261155892
0.011026377653956155
0.016208665825177562
0.07169001036585665
-0.001252608523754627
0.03451718849993528
0.022370175049360258
0.0033630899454680074
0.01006186780162926
0.0632881583915795
-0.028280561375618823
-0.06629335615346482
-0.05981819180855689
-0.02264076303694218
0.028386480291981327
0.07410149709323088
0.0940414014163935
0.06915475414606516
-0.013052216992761797
-0.15176341646408645
-0.1269937881723838
-0.09790407860292091
-0.007746321335252266
0.004401515352759509
0.1877586514234346
0.16456791271001928
0.12065133659074928
0.005522906250664176
-0.057299811220226315
-0.15265861946898907
-0.15418446166935976
-0.10873679009089644
-0.029232036122427446
0.10279295083726035
0.1268583872458772
0.08974983828803694
0.03300330391957612
-0.014952601175687115
-0.040925608795751925
-0.04439745660606101
-0.032464392980071186
-0.014552057727552756
0.0014999318854359758
0.011340751722673766
0.014182811069466584
0.011716083564056233
0.0066401729487614945
0.0014251098958132855
-0.0023827899984800267
-0.004281600300631764
-0.004529425210889978
-0.0037018547448418775
-0.0023142691074086188
-0.0006444658926698934
0.0012184262761032857
0.003170303758038409
0.004867941804963037
0.005633146628808131
0.004595029665748568
0.0010910252050526053
-0.004776083674671731
-0.011652439258888795
-0.016822677842889888
-0.01675251030502134
-0.008393009397397785
0.008952719451211065
0.03177500061237637
0.0513868312713931
0.05473809248904439
0.027515287236557967
-0.040833435689416823
-0.15161390532027724
-0.09324710020072632
-0.04170298468256626
0.034100391953283876
0.16322547426052375
0.16322686127040703
0.034105872761621525
-0.0416904445009261
-0.09322548558925799
-0.15158527068577393
-0.04080601136333235
0.027527562644179084
0.054719602023014596
0.05132763024042107
0.03167954008360801
0.008846311136615386
-0.008464494693064496
-0.016733422053471697
-0.016669516370628173
-0.01136251811949921
-0.00441265536596668
0.0013916288823774738
0.004648186862869135
0.0052689540351009935
0.004023548534233691
0.0019830711643652778
7.447687626413589e-05
-0.001156126256738819
-0.0015742487595151555
-0.0013479788316894678
-0.0007845417912441372
-0.00018344593542891178
0.00025405837723154725
0.00045164090120303733
0.00043581380911726327
0.0002898952643514734
0.00010716719908394072
-4.187070584932562e-05
-0.00012311690289406484
-0.0001361336645267127
-0.0001019199222362749
-4.8490285655849565e-05
4.3727288510012155e-07
3.1259323810285355e-05
4.101420646371189e-05
3.4397244252506766e-05
1.9484510547898285e-05
3.972884974590996e-06
-7.080766659796727e-06
-1.186687744390385e-05
-1.1194841791341763e-05
-7.278783128654106e-06
-2.5312317457825346e-06
1.2620303952065684e-06
3.2686413798180083e-06
3.5190566825177977e-06
2.5801730165809645e-06
1.1815415042037216e-06
-7.186151958152122e-08
-8.425299841160481e-07
-1.067439584339458e-06
-8.768938553862478e-07
-4.828904131306949e-07
-8.301165735542892e-08
1.9589228105624283e-07
3.112814130223904e-07
2.8722710281682985e-07
1.8244225262555326e-07
5.9250650160260414e-08
-3.717330054014874e-08
-8.659280673012468e-08
-9.086043814035104e-08
-6.52279216232973e-08
-2.8669319645256738e-08
3.402601799256195e-09
2.2634543280743962e-08
2.7744833798667006e-08
2.2326070053131604e-08
1.193487356302105e-08
1.638012569819301e-09
-5.387610427014232e-09
-8.151661453300432e-09
-7.356481248976259e-09
-4.556908117958596e-09
-1.362829396439455e-09
1.0828054829338343e-09
2.2891653032023834e-09
2.332022211538377e-09
1.623549170208787e-09
6.61944386411904e-10
-1.5436660668873606e-10
-6.146163327602659e-10
-6.949136616618531e-10
-5.016466999056351e-10
-1.9621743206692487e-10
7.072339211811443e-11
2.0144594296193442e-10
1.6792429160932272e-10
8.324454064974432e-12
-1.9041843385473978e-10
-3.194937594132488e-10
-2.8203261098261886e-10
-3.056779385643289e-11
3.99133778073889e-10
8.705828559067004e-10
1.1612640461156569e-09
1.0217987554926972e-09
2.7877621865115784e-10
-1.0412464447193636e-09
-2.6132693538007367e-09
-3.803226624855896e-09
-3.801441938657715e-09
-1.9186664081728675e-09
2.0059743380554586e-09
7.220494818016581e-09
1.1901717105445809e-08
1.3432300691805172e-08
9.229452591876479e-09
-1.9626274770940084e-09
-1.86841083026594e-08
-3.5903055599810065e-08
-4.542204542952999e-08
-3.8080635262797294e-08
-7.710713391676409e-09
4.40870444093841e-08
1.0422288703578604e-07
1.4790030383162987e-07
1.4404124377016965e-07
6.695592326516546e-08
-8.786929921973413e-08
-2.8925626604529704e-07
-4.649835890149059e-07
-5.13555926868411e-07
-3.37231248565788e-07
1.076315624583191e-07
7.576637232998414e-07
1.4116040019391463e-06
1.7494469181841584e-06
1.4212245077280895e-06
2.0208583843395014e-07
-1.8242704934093037e-06
-4.1277528471223576e-06
-5.734015064725421e-06
-5.446773006087712e-06
-2.308535457424202e-06
3.7889243274767327e-06
1.1558294193766757e-05
1.8141122125080025e-05
1.960457873166608e-05
1.2256029947723772e-05
-5.397744411440294e-06
-3.0638056240117334e-05
-5.542941871407938e-05
-6.729359005859406e-05
-5.2880477942342924e-05
-4.041506061139902e-06
7.513500154568553e-05
0.00016323501823066567
0.00022201405233569644
0.00020547322782063038
7.802378729023871e-05
-0.00016193614582996855
-0.0004615081196957528
-0.0007077248974205098
-0.0007483322398162302
-0.0004439453745426217
0.00025596757460042297
0.0012369897998817526
0.002181147160041794
0.002606818147239214
0.0020133873885610004
0.0001204496942454859
-0.0028614583763375214
-0.006044796493574432
-0.007908210598590705
-0.0066903779476865325
-0.0011653783878501657
0.008317673324697704
0.018808394584149745
0.024114496426746065
0.014860385653777425
-0.020700602548490474
-0.09546269465555211
-0.022476434298139683
-0.014703548537364913
0.11468389694467125
0.15263257852373616
0.088792204742576
-0.07879018316418734
-0.1360059024975905
-0.24640789940892097
-0.1506098324337594
0.025724893728305623
0.1558391108115951
0.2923406042403882
0.2512426950317598
0.006140476792663862
-0.10457265592497489
-0.15972435461359788
-0.2331533346306534
-0.17524444803066735
-0.004403541634080037
0.0893669786176491
0.13122526019596173
0.14438917839534285
0.1359885371817176
0.09123429692949957
-0.02184094178687937
-0.038506985336421926
-0.17899030154165715
-0.23221466063293902
-0.1481222682383954
-0.0428477333070944
-0.017049141895071562
0.21687770671512838
0.30664661165129714
0.24035756905631336
0.14295298672038134
0.09203887515864138
-0.2500282967994566
-0.3968606183718016
-0.40415633270222173
-0.2532184035757541
-0.058691223674807405
0.30107888440409725
0.5412886302112738
0.5311454850247386
0.2727396411924802
-0.09324889751916171
-0.45736672136785156
-0.6994587937720387
-0.4529778542843417
-0.09094687653320106
0.2605915089879567
0.6881791124891526
0.6515561720900891
0.1572091061200291
-0.24370956403159888
-0.4333777616449525
-0.4924724918472869
-0.26858162596411733
0.03910297037863723
0.27424407694687414
0.3017327739232064
0.18068365585142723
0.14330577617091922
-0.013144108791782233
-0.12018634656757665
-0.22201538152170372
-0.15684347293281048
-0.14312872633313836
0.02452522709227494
0.16920164626825368
0.11868806291250657
0.09147205659205698
0.087380728890234
0.08632713950843905
-0.14451386919003995
-0.03775407510018766
-0.21173238517821516
-0.06047644082174328
-0.1514897558361598
0.1675793496893038
0.1556023458838923
0.2627306686459649
-0.0814145117276454
-0.07267320321844335
-0.13031010357286843
-0.09075463152459111
-0.0006210174333428787
0.08880878181483473
0.12562766995099983
0.06141950836006942
0.05704616548033462
-0.10974141037391946
-0.23680393117284382
-0.09363536512623742
-0.024079765169227576
0.043281805651094976
0.17931678009392096
0.23792972353710545
0.04450443035738656
-0.007102755070791084
-0.14875922518820286
-0.22672312031956934
-0.08996476486033082
0.017325485296878468
0.057306257163044924
0.19583591758585325
0.19964916421860524
0.03753315622568551
-0.11246535327392031
-0.05121600453136391
-0.1465826839137791
-0.32723067802403627
-0.08696772642025731
0.09868296546858724
0.14640236134992976
0.33643742386393377
0.29039591812789567
-0.036970605520860636
-0.14904938971882722
-0.18464905857376332
-0.288683834258692
0.015276475338802982
0.2445603308778342
0.16715382161682843
-0.19701742198895375
-0.18136071112292176
-0.08383376774720326
0.01568685366587827
0.03293441331689957
0.25531119357253834
0.12209861520736708
0.014450960797139176
0.058683755422573855
0.14299416698627848
-0.05564661826142539
-0.24040731585770378
-0.26711746897489186
-0.32852150090864757
-0.1561891120976472
0.1590512821168588
0.5339330006942045
0.4581368514672424
0.17093195987725143
-0.1425571138857425
-0.33553047857872115
-0.47257022449335134
-0.20402045147333972
0.04794578713732882
0.28791535001276336
0.33445981229906874
0.20463263648869306
-0.09598530139726806
-0.17395352507688497
-0.2413182253914504
-0.10720605449227945
0.026873864436605
0.1656638421201031
0.1142425740912676
0.07147669592304916
0.026666605282231443
-0.03884401239042375
-0.14596160569150624
-0.11080325271592403
0.060497699800925175
-0.026923655060032314
0.040590347077899616
0.08002372425364261
0.10636160925146411
-0.07085174814076038
-0.0481575764684716
-0.02648888070254122
-0.008513301799186601
0.0036086183770525897
0.009337186029056909
0.009759070751819829
0.006919207924768451
0.0029842025354176165
-0.0003969031139160325
-0.0023770776733677153
-0.0028632697491711777
-0.00226180305733421
-0.0011664488222889297
-0.00010450553065674636
0.0006025944392054343
0.0008632822370604175
0.0007595121589596895
0.0004571665469292811
0.00012331981377291192
-0.00012640037822529506
-0.0002450272216767467
-0.00024370867212993825
-0.00016689842670502194
-6.626584464709485e-05
1.8065215763909168e-05
6.578817084439709e-05
7.546827508664403e-05
5.8059612756415237e-05
2.8939750359403442e-05
1.4902685572652695e-06
-1.6342778338535097e-05
-2.253031722777922e-05
-1.9419861029896e-05
-1.1396128983839786e-05
-2.765587079317156e-06
3.55767967201053e-06
6.449285421589517e-06
6.26786799602376e-06
4.1985989766686914e-06
1.5800629784290166e-06
-5.694898923300537e-07
-1.752013961623949e-06
-1.9539204389845787e-06
-1.4723925720126742e-06
-7.085818802581429e-07
-4.3354335900917516e-09
4.426205070238429e-07
5.874065694296933e-07
4.958500640619487e-07
2.8330008957314845e-07
6.047132704397928e-08
-9.9377563470121e-08
-1.6953170747320373e-07
-1.6105666447489562e-07
-1.0547261802820715e-07
-3.741339310937058e-08
1.731676865930215e-08
4.6546862611260925e-08
5.0527389950341984e-08
3.7290307880161915e-08
1.728663465381025e-08
-7.608703872262285e-10
-1.1942962118123684e-08
-1.529418108396422e-08
-1.2645508802399133e-08
-7.026396858449731e-09
-1.279955134403808e-09
2.755166423952808e-09
4.449216875920415e-09
4.133735186302074e-09
2.645123215802747e-09
8.784168435980841e-10
-5.133446119217136e-10
-1.2338786050073931e-09
-1.3050262258157312e-09
-9.431069282437219e-10
-4.20037698829719e-10
4.188145051146588e-11
3.2107039591548065e-10
3.9759575017262225e-10
3.220570581006307e-10
1.7389857578571335e-10
2.6028335226608896e-11
-7.553706155226517e-11
-1.1616636068179343e-10
-1.0565977392363763e-10
-6.620876946160004e-11
-2.0884976356720747e-11
1.3943519211180646e-11
3.132841530890079e-11
3.2498724732733826e-11
2.3462251541947363e-11
1.1272285604069339e-11
1.2444293598119223e-12
-4.314170779482858e-12
-5.9284279132766766e-12
-5.790633769516896e-12
-6.215706840390632e-12
-8.293153466539367e-12
-1.1177330738336258e-11
-1.2268374252919329e-11
-8.306729389307835e-12
2.8665710006865407e-12
2.0424134540360008e-11
3.932455253197893e-11
5.0596133657728996e-11
4.3738936954946047e-11
1.1203073298376833e-11
-4.609196314120757e-11
-1.143012583921944e-10
-1.6603866875215645e-10
-1.6609306659713046e-10
-8.430414991372995e-11
8.660688147435452e-11
3.1416333206643327e-10
5.190776713419563e-10
5.871786998620009e-10
4.0545098790242583e-10
-8.158474116310026e-11
-8.111303622523724e-10
-1.5644094231806433e-09
-1.983956056117193e-09
-1.669287882269297e-09
-3.4930782867061804e-10
1.9089928947221358e-09
4.537312669943296e-09
6.4551346080213164e-09
6.304921674768629e-09
2.9603465865488986e-09
-3.784431122593765e-09
-1.2579043927854861e-08
-2.0279131423050627e-08
-2.2454650732373448e-08
-1.4826834041479588e-08
4.535350535896967e-09
3.2900851984401574e-08
6.151643142777753e-08
7.642495557463162e-08
6.232322831515851e-08
9.322391912421483e-09
-7.903601142554048e-08
-1.7972995655521496e-07
-2.50295538493193e-07
-2.3846929937502917e-07
-1.0225666146238398e-07
1.634119930976434e-07
5.027505297705279e-07
7.912869340564741e-07
8.573380052567466e-07
5.392151725102478e-07
-2.2929119865346812e-07
-1.3308635418371335e-06
-2.4159484775612284e-06
-2.940226310591565e-06
-2.3198134226944734e-06
-1.9604677751512938e-07
3.2570353014631364e-06
7.109266045046314e-06
9.69387320718435e-06
9.001346553667017e-06
3.4708258685516837e-06
-6.980267897715084e-06
-2.0057495839414582e-05
-3.0840447818849504e-05
-3.268341582543487e-05
-1.9489104205697937e-05
1.0968196823227705e-05
5.369855510411979e-05
9.476735007975796e-05
0.00011297074365796397
8.606605143039034e-05
1.1303725738902532e-06
-0.00013366128954849836
-0.00028081900469673185
-0.000374998523691113
-0.0003390370135390807
-0.00011512126923886869
0.00029548818645333704
0.0007987873148415286
0.0012005197228402763
0.001243713472555374
0.0006989110109166148
-0.0005067871426917706
-0.0021629225098171194
-0.003714892715650545
-0.004337406040944349
-0.0031838023901387294
0.00020971871911847943
0.005474545767146547
0.011110459240150422
0.014572113058239735
0.012923069789946456
0.004064723217129395
-0.01173318696610084
-0.030585203598879215
-0.04482002066489742
-0.04463124939116947
-0.02186406280926067
0.024551806221074293
0.08300173735698278
0.12568362602982525
0.10955841847495486
-0.016869992129530095
-0.1015618890965669
-0.1746615468777282
-0.03634410397387364
-0.05098551765693047
0.0500185172773455
-0.04299586822786733
-0.03530390021503106
-0.047645981035620594
0.16567298368406638
0.40516130534160816
0.22552966688742884
-0.05138734880092424
-0.31211945662731466
-0.4228976933622719
-0.40766953701840736
-0.042258813470706924
0.33208748214180533
0.38088192831311535
0.3457384811629826
0.023312321371577474
-0.038310627106809866
-0.1253730582751745
-0.13255948103640247
-0.3350497291899893
-0.16786357611640557
-0.01870581024251157
0.16448372128299635
0.2554151502057267
0.3285530519220473
0.04350324094839404
-0.16056496944398269
-0.26104459811610464
-0.24376941515173442
-0.09728357991971735
0.18627282147711607
0.20413876466499678
0.13446367909480697
0.13253905982840244
0.13602194318434324
-0.120532626678825
-0.28586318019716767
-0.3741179500107146
-0.15667051489523173
0.03151365036716333
0.2718935078491128
0.43585085700520276
0.3621890482059449
0.047793119546913745
-0.3453152545436398
-0.4711676842097495
-0.37967861075147813
-0.10580302788117209
0.12692037669448014
0.6920996277047907
0.946329505085279
-0.37266971389203885
-0.32965656672394583
-0.36226926066115006
-0.6524291743391135
-0.714525504605625
0.7907057406563358
0.6195697478147448
0.5001646912342554
0.09681534820196706
-0.20284905371617137
-0.4764752706577793
-0.23961047876071787
-0.014621441285629326
0.29460362146522256
0.2187239287360549
-0.06884709307862859
-0.14931242010509674
-0.36137141540731077
-0.21176068545875792
0.004994864163927826
0.5799704902837667
0.3637201102944133
0.1504790725684941
-0.12006534482430924
-0.1430725917411055
-0.41794810336112287
-0.21793402160951067
0.029834790791598884
0.14827552260873492
-0.0011133055207113596
0.06011687919707816
0.0026075951580605394
0.06782698444352395
0.2552274136829251
0.32147915478540856
-0.0069339951628823605
-0.41014152894289657
-0.3472413095424629
-0.23445669470870045
-0.03780238093045193
0.11652302514660053
0.3179525406991442
0.24286873895860123
0.7320455416863119
-1.018361031014514
-0.05123326198577484
0.16653405403867858
0.16116768860101588
-0.7337837860783606
0.8323836953235245
0.03385661078927367
-0.12728538024442568
-0.21788116934550805
-0.17343678098887602
-0.10440999275236629
-0.11170831921165437
0.08951818578791847
0.14304556964020665
0.4302270554796513
0.8635257453881136
-0.29842323903115964
-0.4145745722479122
-0.41384130174445394
-0.552929554266301
-0.7965887150824308
0.5705286396691956
0.7037747024657461
0.5456681753877877
0.3814511094226785
0.019973127183449305
-0.3949753500519917
-0.5507863619037401
-0.3257258737089662
-0.15879381315191002
0.16008858840381454
0.2790507592778848
0.26009948802588834
0.15308661078524144
-0.022449375446510197
-0.08273989487744235
-0.07317031119656968
-0.05394783624276149
-0.08358734757575419
-0.004918767649025825
-0.036538701046546614
0.02927145997505529
0.022709820404039904
-0.011724329493904952
-0.02573878932101359
0.02193812591581816
-0.04364021365802408
0.18070259620651305
0.2760571543004057
0.007982463653496778
-0.26073117020041164
-0.154631797947816
-0.2735346710628885
-0.18976755647844892
0.14258556627148247
0.36896979081686676
0.313438448676879
0.16453283492650567
-0.12561798849883296
-0.22840659670721766
-0.2175144711765628
-0.14789562634161982
-0.0425641810358153
0.10921326681091949
0.14348500952358315
0.107564244036003
0.046011334675110996
-0.009013609202451896
-0.04126942076960351
-0.0485598125301899
-0.03769406822862802
-0.018786206249860077
-0.0007718341688022091
0.010986675764481165
0.015069019984634625
0.012989321420838045
0.007640721149244778
0.0018817452191690585
-0.0023459578109213276
-0.004288642365287369
-0.004180577537456004
-0.002808865116449139
-0.0010653327987305509
0.00036985453756023697
0.001162484519951698
0.0013014371468231384
0.0009834908413238926
0.00047561291368778975
5.939550305920476e-06
-0.0002930977948902166
-0.0003909166159025715
-0.0003309129725330487
-0.00018975912719102392
-4.1273650842731024e-05
6.55492618843331e-05
0.00011270049643135581
0.00010739213684457474
7.054579671591568e-05
2.523374985849825e-05
-1.1305447992942689e-05
-3.0899883654651706e-05
-3.366267310432212e-05
-2.4913921127388036e-05
-1.160945383862059e-05
4.2892069174085305e-07
7.912318699861613e-06
1.0180093115206254e-05
8.44059063190147e-06
4.707949637287187e-06
8.781047469353989e-07
-1.819002030844583e-06
-2.958355154613361e-06
-2.756777906051654e-06
-1.7695988886087943e-06
-5.931666102090507e-07
3.3617212671113144e-07
8.193738060521936e-07
8.696127236667596e-07
6.302335383312855e-07
2.822462470247564e-07
-2.595034090026548e-08
-2.1286629289171973e-07
-2.64758147177827e-07
-2.1503382305900033e-07
-1.165183115381437e-07
-1.7850365236067942e-08
5.014685772982311e-08
7.753426303141571e-08
7.068617898127348e-08
4.4311393935611856e-08
1.3805657454551176e-08
-9.801405736087628e-09
-2.1682115355096307e-08
-2.2438407900096143e-08
-1.5920059017017165e-08
-6.831419171311804e-09
1.0493913704633526e-09
5.708461353609915e-09
6.87619462539229e-09
5.470794615898236e-09
2.875721422524198e-09
3.3738352803715054e-10
-1.3732870084828015e-09
-2.0267460992107326e-09
-1.8077226155024264e-09
-1.1055368428729818e-09
-3.1748569916821306e-10
2.782408763125046e-10
5.65999633060443e-10
5.69546723149789e-10
3.9376571707817307e-10
1.6208660141584895e-10
-2.9507007436145435e-11
-1.336467872056408e-10
-1.501540212076608e-10
-1.1014180132079003e-10
-5.5075720719233106e-11
-1.839686164702467e-11
-1.420444951087482e-11
-3.455308825074928e-11
-5.4796517653526005e-11
-4.5038194083313785e-11
1.5296554567792782e-11
1.237915506609035e-10
2.4719703341577284e-10
3.2442324554109785e-10
2.8370931146984714e-10
7.320032581734438e-11
-3.0212517168114545e-10
-7.510502633197049e-10
-1.0923945857444363e-09
-1.0931900127671254e-09
-5.540197470556057e-10
5.731540567117222e-10
2.073721080968328e-09
3.4241427624335054e-09
3.871014680030381e-09
2.669161960554383e-09
-5.462814084017101e-10
-5.359371133626172e-09
-1.0325245084657305e-08
-1.3085078370683192e-08
-1.0998144809319708e-08
-2.279625233856213e-09
1.2623012340034035e-08
2.9954874782015054e-08
4.2584428212403375e-08
4.1558170723389075e-08
1.9455571222433394e-08
-2.506417068094526e-08
-8.307249671231113e-08
-1.3381100485999257e-07
-1.480551745927454e-07
-9.760275829545813e-08
3.0234269884122516e-08
2.173718869577253e-07
4.0600511366896494e-07
5.04040104594154e-07
4.105773772294574e-07
6.052587642077372e-08
-5.225346307296254e-07
-1.1865068068157771e-06
-1.6511365406623581e-06
-1.571741186083081e-06
-6.716792174166437e-07
1.0818225416492868e-06
3.319968941667331e-06
5.221062862955603e-06
5.652574386914122e-06
3.54885546148564e-06
-1.524868750404068e-06
-8.792056424183481e-06
-1.5944457456257345e-05
-1.9390610695091213e-05
-1.5280966663959002e-05
-1.2552137835920711e-06
2.153011737993439e-05
4.693033079920446e-05
6.394550080710596e-05
5.9323315647460997e-05
2.278271000335814e-05
-4.61948305843348e-05
-0.00013244325289177148
-0.00020348225817764468
-0.00021547452753136235
-0.00012823773628757877
7.283108389571733e-05
0.00035471129927188295
0.0006253885843050512
0.0007449577499818094
0.0005667705752623449
5.789330953816191e-06
-0.0008837479573490674
-0.0018542175469868556
-0.002474386292832191
-0.0022353209946511603
-0.0007560013440066952
0.00195488554537974
0.005277485901796554
0.007932379711968819
0.00822978697590617
0.00466658758699687
-0.003221015344848537
-0.014021360930157408
-0.024051186488675665
-0.027855305242815584
-0.019888204586785085
0.002738901412156323
0.03712987945337938
0.07232253039872545
0.08931621539860873
0.06450042038218724
-0.023540615441248983
-0.1855448216256487
-0.21467333174650174
-0.0848961781442696
0.04312212202521957
0.20959676696293708
0.24098288468591703
0.1390545957155052
-0.12163398755064059
-0.18684963282338046
-0.10922410300562356
0.06682648613607621
0.11751229409246676
0.04724208509775509
-0.10921346370599186
-0.29044314294011037
-0.21901589191897447
-0.019354302918537555
0.35970183542299666
0.5243690156547708
0.42671026348966057
-0.025920316232881678
-0.34243414680193107
-0.6094246749794333
-0.6578068112139036
-0.24977771182257646
0.3066484067889905
0.7206118837230246
1.0749109043597047
-0.20440948606067524
-0.3523262490275635
-0.2430963236435372
-0.35479858613435017
-0.7371943974499615
0.40365899078514567
0.29932005419598984
-0.0038236939388224967
0.12697451285083786
0.2885897404840407
0.4347353752863308
0.0873099245584875
-0.4359041925685959
-0.5860237366282484
-0.3538913008632325
-0.2599654563952929
0.23061146733455773
0.67206400306942
0.39426756892838155
0.06722200246801911
-0.11475787312860701
-0.22656114270213698
-0.18935897844792773
-0.14116166642070058
-0.00993543638585258
0.10550432258761532
0.14600653993204474
0.09617134669477813
-0.01519195800829347
-0.11689976929269665
-0.10047852216840275
-0.2310058807072672
-0.16595161355423005
0.018033671992830007
0.1942020479407047
0.3584558667496082
0.4158600793448483
0.38987591628445983
0.25791806780150395
-0.39195632894607674
-1.0982845867358408
-1.079349554152334
-0.6233181070255829
0.475314959873615
2.2435260910222796
0.250860376840891
1.5584357351749754
-1.2823095232122736
-1.3844471343902816
-1.860751304294409
1.0259252298407107
-0.1254828561938832
1.921552714982035
0.402630314932935
-0.47493707974132027
-0.7350546366143971
-0.6158265787362738
0.052189478423595045
0.6589937978346607
0.21578251077823338
-0.051808135323113166
-0.3113075393635833
-0.3294553659600403
-0.07843243335976284
0.45598946106579025
0.4663552215596099
0.12086355574783224
-0.22929905526328337
-0.43340078181099373
-0.3223175422424065
-0.09665851908112146
0.272160100531052
0.22862029100161047
0.21422264035846766
0.05155376043432834
-0.06266057532912184
-0.1542369059555593
-0.06091414227394433
-0.019353089463347017
-0.05418540586216458
0.028355919840672508
0.04172499400854979
0.016189998042691278
-0.006660524359653962
0.01944368880315725
-0.061299181148468856
-0.0130343937314657
-0.01357067228656053
0.14196358534054945
0.6401573288111997
-0.9483644781247658
-0.26458761831046895
0.24207414254661694
0.3133380435906147
-0.3204239976009628
1.0608363115372184
0.17713568074408378
-0.6303900645564224
-0.7730164307878966
-0.39469725740622297
0.028192146594913023
0.26242501990910816
0.6753753273865718
0.3897871899922532
0.052521874696252815
-0.17240092404638355
-0.18615884982616246
-0.1211162699044896
-0.10248567950116345
-0.216780236487054
-0.09458616519995201
-0.11076176347360848
-0.0006764715289308432
0.31312728514286603
0.4926977664782377
0.1646089293292775
-0.08489890814521207
-0.2986289968457389
-0.3268958468877462
-0.20561171439885992
0.057127089930108635
0.2820567992232279
0.1093967275119384
-0.015155875841796495
-0.05331929988583526
0.01732774779450557
9.323996767723713e-05
0.08051330421502907
0.03138685568430256
0.020416947537435927
-0.18122906985541964
-0.1919200758455703
-0.016764690011006403
0.1495881251194985
0.11563234676357857
0.08454134611880611
0.04848100330453023
-0.011861231483337798
-0.12259635441521993
-0.10904791442116761
0.011552176026749681
0.03445322624997127
-0.032202403680760765
0.029603418837963406
0.04279479744221849
0.029953515383379953
0.009204350632049682
-0.007915140203193696
-0.016481719351339928
-0.016643269967036016
-0.011370468144277364
-0.004329702559855915
0.0015871001500143665
0.004906104087890553
0.005516751132435397
0.0042045026380519756
0.002073833722615893
8.382886636576493e-05
-0.001199576163764572
-0.001637027233899882
-0.0014033344835048174
-0.0008180165508272661
-0.00019274114034574104
0.0002628751817997743
0.0004691092738308537
0.00045327251404164845
0.00030188279042617694
0.00011194375705940133
-4.315170873161411e-05
-0.00012783372991500896
-0.00014155456777181015
-0.00010609619834047686
-5.0576759516225085e-05
3.23797985922816e-07
3.242971206645255e-05
4.263205295794016e-05
3.579377206144106e-05
2.0305554186432577e-05
4.173789357357017e-06
-7.3348882656526e-06
-1.2329666658700835e-05
-1.1645352242016504e-05
-7.581043248314325e-06
-2.64543566490445e-06
1.302428560100346e-06
3.394265032164495e-06
3.6594331024172134e-06
2.6861111144716143e-06
1.2326549288416414e-06
-7.137627058893361e-08
-8.742304728654067e-07
-1.1096202384431847e-06
-9.125527391874184e-07
-5.033033949126495e-07
-8.741269039313581e-08
2.0299499114352914e-07
3.2344821582109684e-07
2.9880429221937196e-07
1.9003637453876717e-07
6.195653767839736e-08
-3.840415812898932e-08
-8.993086779199036e-08
-9.449108512102088e-08
-6.791178936903731e-08
-2.991741422258903e-08
3.452114693090393e-09
2.3489858550912593e-08
2.8843788090627263e-08
2.3237207666527534e-08
1.2443761369227705e-08
1.734054120078578e-09
-5.583109844220976e-09
-8.472002763176656e-09
-7.658126725900878e-09
-4.755152318921209e-09
-1.435545376798056e-09
1.1125434960460203e-09
2.3779042216953265e-09
2.437061521469386e-09
1.714560375160244e-09
7.227677887686777e-10
-1.3014985600922007e-10
-6.292345844732722e-10
-7.488082244310005e-10
-5.909643827873197e-10
-3.068074517803013e-10
-3.1334666978702874e-11
1.5274392077559072e-10
2.2159348233839965e-10
1.960641295010643e-10
1.1877827598416757e-10
3.284376595879365e-11
-3.1766524843219807e-11
-6.273702759210539e-11
-6.276494322230567e-11
-4.320557882878695e-11
-1.7351688400941217e-11
4.4230940881757264e-12
1.682693731051865e-11
1.9433590829186605e-11
1.502836168384435e-11
7.56010453905245e-12
4.825427434905849e-13
-4.140847678969074e-12
-5.769698276823174e-12
-4.9958704333824274e-12
-2.94307388076285e-12
-7.211382392275451e-13
9.149623793492485e-13
1.6702047849054883e-12
1.6325902914919631e-12
1.105033633921141e-12
4.3197710857510064e-13
-1.2326673276518508e-13
-4.3082680678032694e-13
-4.857627214041078e-13
-3.637231188929622e-13
-1.6775928453902524e-13
1.3872785436862383e-14
1.2979910613726542e-13
1.6800208343010956e-13
1.4511382900991108e-13
9.070792060135982e-14
3.332471194166011e-14
-8.048810268195915e-15
-2.6391069256274975e-14
-2.4440973004716034e-14
-1.0259205863730756e-14
7.239779277330632e-15
2.138106955409823e-14
2.898820307491535e-14
3.008882497302322e-14
2.6729322739193843e-14
2.1595304946419343e-14
1.6939399278010135e-14
1.4037843168855086e-14
1.315111086645538e-14
1.3815741368721524e-14
1.5254730652370817e-14
1.6734973422233473e-14
1.7779741635450377e-14
1.8223182976877065e-14
1.814786522230208e-14
1.7767794449456558e-14
1.731341032599387e-14
1.6953693756703786e-14
1.6766045771177745e-14
1.6745785655205174e-14
1.683775595633117e-14
1.6972060123993738e-14
1.7091271125368982e-14
1.7163759080320544e-14
1.7184079966816714e-14
1.7165056155614698e-14
1.7127069533182755e-14
1.708892959672725e-14
1.7062585654372816e-14
1.7051920209375112e-14
1.70545009207063e-14
1.7064658263729415e-14
1.7076442320429602e-14
1.7085581089077735e-14
1.70901963675134e-14
1.709051027625922e-14
1.708800463494465e-14
1.7084496265070473e-14
1.7081447437417357e-14
1.7079640119607e-14
1.7079181985955812e-14
1.707972046740588e-14
1.7080721689885958e-14
1.7081703496745082e-14
1.7082366770709186e-14
1.708262147639572e-14
1.708253798617576e-14
