0
7.529471369264396e-17
7.529467709933599e-17
7.529465321678738e-17
7.529466119247783e-17
7.529471558734921e-17
7.529481653773574e-17
7.529494131568665e-17
7.529504225858033e-17
7.529505578528865e-17
7.529492449053652e-17
7.529462901993802e-17
7.52942196941108e-17
7.529383215127791e-17
7.529367002322932e-17
7.529394404738895e-17
7.529477233585067e-17
7.529606840494469e-17
7.529746504226448e-17
7.529833233206221e-17
7.52979356082002e-17
7.529573671081782e-17
7.529177325978314e-17
7.528697431532788e-17
7.52832199396254e-17
7.528296665843532e-17
7.528837143717682e-17
7.530005481443056e-17
7.531590329930779e-17
7.533052402334549e-17
7.5335998993288e-17
7.532432156369079e-17
7.529129080317809e-17
7.524079074540779e-17
7.518756902985646e-17
7.515627456627154e-17
7.517505710090569e-17
7.526372649573155e-17
7.541914933529782e-17
7.560347614238593e-17
7.5742644021085e-17
7.57418568289902e-17
7.552026824791018e-17
7.505892125282723e-17
7.444601294792497e-17
7.389562498271867e-17
7.371528745357842e-17
7.420866276799628e-17
7.552365027586736e-17
7.748908903206875e-17
7.951391658658959e-17
8.063473162690755e-17
7.977445891971616e-17
7.620717200954928e-17
7.011966081639127e-17
6.304914698755094e-17
5.790954511278279e-17
5.835450705689016e-17
6.740620129050345e-17
8.559939992188614e-17
1.0927417118071393e-16
1.2994482523740632e-16
1.3568079930646788e-16
1.1498674827424195e-16
6.272027688438419e-17
-1.3686343907304965e-17
-9.059021129233191e-17
-1.303802965569696e-16
-9.190532138671678e-17
5.1301002828491586e-17
2.894532760228723e-16
5.602952315887267e-16
7.493250569872163e-16
7.158990672907498e-16
3.4736995741323607e-16
-3.691485590528009e-16
-1.2825267625891075e-15
-2.0568984709658204e-15
-2.229955327501772e-15
-1.3673899396673335e-15
7.068167899402616e-16
3.673731669680607e-15
6.589359735927404e-15
7.987057177878732e-15
6.2969589019773476e-15
5.597242092209411e-16
-8.746315110216419e-15
-1.9106415843301426e-14
-2.6026738941510357e-14
-2.4100267827747114e-14
-9.141449476648212e-15
1.9042112454293347e-14
5.423708924758533e-14
8.316838889055657e-14
8.794250027765113e-14
5.218507233750542e-14
-3.000773580002288e-14
-1.450823243414613e-13
-2.554134154612917e-13
-3.03874537018078e-13
-2.3067190537336955e-13
-1.2637159280810863e-15
3.619599863607253e-13
7.576665245330256e-13
1.0096984537258977e-12
9.104565886590123e-13
3.049589552481356e-13
-8.022405702311575e-13
-2.1566969431107723e-12
-3.234424587731412e-12
-3.3436774870991756e-12
-1.8684810348104726e-12
1.3838242283286492e-12
5.841931242841859e-12
1.0008687253389954e-11
1.1661528796419803e-11
8.526751160455749e-12
-6.296519084763432e-13
-1.479037392605166e-11
-2.988141139925872e-11
-3.900560629721549e-11
-3.420304650279358e-11
-9.757002089761112e-12
3.3686752126435495e-11
8.574519138563871e-11
1.2576318565673318e-10
1.2703048087706236e-10
6.643042375254111e-11
-6.20818873288456e-11
-2.34591589335243e-10
-3.9162016473276157e-10
-4.467953059619414e-10
-3.138067943569748e-10
5.1022191866918246e-11
6.024645882772053e-10
1.1770756056605302e-09
1.505124108900946e-09
1.2818292120469365e-09
2.972179656154702e-10
-1.4053666313881995e-09
-3.403593433780889e-09
-4.884299271063182e-09
-4.817379753388724e-09
-2.3375243302568417e-09
2.73369123817548e-09
9.401184015966866e-09
1.5305619200994823e-08
1.709427981773071e-08
1.1496757754869003e-08
-3.01555410609087e-09
-2.4465140790406045e-08
-4.6307859193775606e-08
-5.800740014740276e-08
-4.7910599231886737e-08
-8.342074000410796e-09
5.8304377860265886e-08
1.3490102199311145e-07
1.894750176423032e-07
1.8234866414990555e-07
8.122116507824668e-08
-1.1863115894268932e-07
-3.7602034028961334e-07
-5.974964124715936e-07
-6.530667953738853e-07
-4.190485737519274e-07
1.5731595300420784e-07
9.90692108832013e-07
1.8195542496772825e-06
2.2328037316901922e-06
1.7855491096648644e-06
1.9874246776941992e-07
-2.407039889725363e-06
-5.339065384697362e-06
-7.341739338259719e-06
-6.888682608763479e-06
-2.7777877294475842e-06
5.088142995007473e-06
1.501217278126985e-05
2.329814087772795e-05
2.4911787269178674e-05
1.5185054688950916e-05
-7.670851098078762e-06
-4.001269683137233e-05
-7.140775692215885e-05
-8.583442071799713e-05
-6.633397436821815e-05
-2.8242413496464195e-06
9.894038484958438e-05
0.00021101278503040825
0.0002841446381980445
0.0002596930426628008
9.306792956056677e-05
-0.0002161364336572145
-0.0005982956010929196
-0.0009074196990004474
-0.0009487756318149104
-0.0005465643027092746
0.00035845000022935214
0.0016120855803458953
0.002798844985030787
0.003294991671902677
0.002455053139398258
-8.271407770419069e-05
-0.004053376108443995
-0.00833211492953362
-0.01098932020865555
-0.009774024653268766
-0.003035789136280773
0.009115275966174436
0.023844598575184013
0.03541536471412222
0.036342233439229626
0.02008204420413017
-0.015172957435190657
-0.06283494879255573
-0.10629427633311066
-0.12135862084945315
-0.08402352891940153
0.01694428667787947
0.16561829018066385
0.308074131310574
0.35142351926431514
0.1774189035233291
-0.3293049859406468
-0.4447574266192264
-0.3726725252107245
-0.2279205328860469
-0.04432311447864886
0.3935881298889791
0.3039015131565309
0.2598068196040495
0.15496951998902006
-0.009527851698124807
-0.11527897172281358
-0.09887151757838895
-0.11563710819944066
-0.30499216735961215
-0.16588100899715758
0.05269972161444424
0.14582886674034432
0.13589952833205124
0.2524661827009012
0.11632876345284866
-0.06718872218277948
-0.10506536701150164
-0.20694185753713065
-0.17476763341920157
0.0028736495763898367
0.14910545645270384
0.09077508747287867
0.04789667452104008
0.02489102710841025
0.006679276715109746
-0.039371480420181446
0.04363721557782655
0.012679716220269905
0.03672766801929155
-0.09225622733233581
-0.1518215132607121
-0.08765920189210946
-0.02024735153715098
-0.05955068783572049
0.07473439136518145
0.23224419365807195
0.2164739607694072
0.18047908981846988
0.03685276419651325
-0.11937534804667468
-0.38118866529185863
-0.40301313369908803
-0.18674712422093273
0.11412255821517907
0.37393691314035526
0.46641665011135197
0.24023269133108752
-0.09187059308607591
-0.3477591813706755
-0.3595398329122392
-0.1557759343613876
0.04901054201115731
0.25413054976335797
0.2645888553132666
0.08141908101832639
-0.10359347328121576
-0.10650371519886588
-0.14493773459508122
-0.03101018295339681
0.032951852667706935
0.05440408861127293
0.04711398224419066
0.02631061441270275
0.004525742778993264
-0.010663373845781999
-0.016818818633114418
-0.015334411206513748
-0.009510858239736927
-0.00279258103669608
0.0023697873665206714
0.004919823176434514
0.005010825675271098
0.00351140795484294
0.0014700520167537894
-0.00027917942560701556
-0.0012987680911484998
-0.0015389827620552721
-0.0012112038394631638
-0.0006262282475185152
-6.0893699705876316e-05
0.0003157555157975062
0.00045558760915325326
0.0004019860130671581
0.0002427132871021083
6.624769626799618e-05
-6.60679896795965e-05
-0.00012918799016402026
-0.00012884239943821143
-8.844731167243576e-05
-3.530755358557359e-05
9.32590554258969e-06
3.465922796366155e-05
3.98810111289033e-05
3.074914407088986e-05
1.538270440950955e-05
8.630492981396658e-07
-8.593218356722319e-06
-1.1896981563962247e-05
-1.0277619947194366e-05
-6.04816450758668e-06
-1.4860529811147368e-06
1.8639608840251934e-06
3.4024142743338844e-06
3.314894313009539e-06
2.2258488957895655e-06
8.426914626483889e-07
-2.9525847878119604e-07
-9.232144719662075e-07
-1.0326649032759353e-06
-7.79907330072936e-07
-3.76782922761999e-07
-4.220000502089518e-09
2.3283091649005707e-07
3.1021964281417803e-07
2.624521397193495e-07
1.503885540302678e-07
3.258661082319068e-08
-5.211258020780926e-08
-8.945501988008391e-08
-8.518868609371534e-08
-5.5925218294435326e-08
-1.997018553654731e-08
9.007168847752745e-09
2.453360141815791e-08
2.6707578498987577e-08
1.9755037820952577e-08
9.195773827150361e-09
-3.5295760571227196e-10
-6.284749249464168e-09
-8.078279700098105e-09
-6.694103476606655e-09
-3.730890220037292e-09
-6.925640238444278e-10
1.4458618768941774e-09
2.3480705202212472e-09
2.1867450114854104e-09
1.4027855723530284e-09
4.693199276445003e-10
-2.676658304718813e-10
-6.505202914577064e-10
-6.899184120588207e-10
-4.997130492149654e-10
-2.2353951154953906e-10
2.0911511903509985e-11
1.6906444111091828e-10
2.1008798961697087e-10
1.7053444022937456e-10
9.233043504512856e-11
1.4056779347221511e-11
-3.985323590440627e-11
-6.153692068495055e-11
-5.6068233166484737e-11
-3.512446184104201e-11
-1.0919803744353857e-11
7.800517637029325e-12
1.7213215432656906e-11
1.7801500817866232e-11
1.2622795843344609e-11
5.409943903735998e-12
-8.408415635216734e-13
-4.533736810870909e-12
-5.456617290571443e-12
-4.3390244301908875e-12
-2.278838730018134e-12
-2.6465612607931357e-13
1.0923453145584232e-12
1.6103752736904515e-12
1.4360205507920671e-12
8.779354045598291e-13
2.5107423622611286e-13
-2.2383297858977652e-13
-4.545049181422036e-13
-4.587103634222358e-13
-3.1831030798258236e-13
-1.3019304060384875e-13
2.945702302294882e-14
1.2131184384306445e-13
1.41627321999343e-13
1.1034220154766271e-13
5.616287442118867e-14
4.391982384825517e-15
-2.9711522920907857e-14
-4.200185010808765e-14
-3.665769792975564e-14
-2.1821968340756462e-14
-5.606704854303648e-15
6.4251151400673315e-15
1.2058084094182888e-14
1.1885750910009277e-14
8.093915260874495e-15
3.1942668335132736e-15
-8.785100359756199e-16
-3.1581067974406356e-15
-3.592260060723222e-15
-2.723350884142992e-15
-1.300882694575268e-15
2.830239557239196e-17
8.840185302199027e-16
1.1733459193110866e-15
1.0140897628801553e-15
6.206396394985046e-16
2.0163705441857534e-16
-1.0296781709259334e-16
-2.403035168269281e-16
-2.290397638179154e-16
-1.27239970400729e-16
2.508208798016452e-19
1.045161867641243e-16
1.6190918760551976e-16
1.7201611579457368e-16
1.4908142140822646e-16
1.1202932477766507e-16
7.679508150956922e-17
5.2593610300270374e-17
4.18836700624338e-17
4.263268772648647e-17
5.116480427535219e-17
6.421994591908968e-17
7.957091463454722e-17
9.533449132230092e-17
1.0872627704400936e-16
1.1528515191368883e-16
1.0945395184173613e-16
8.685846291223165e-17
4.779075510626455e-17
5.08753770425751e-19
-3.764444539793845e-17
-4.323258622087117e-17
5.274938708965707e-18
1.156270406748023e-16
2.697533436782368e-16
4.1749417142385986e-16
4.825835966413425e-16
3.8505493721394283e-16
7.853646625858794e-17
-4.0733336452249657e-16
-9.373325956360569e-16
-1.2759708198722662e-15
-1.1453289159355961e-15
-3.3740134190829853e-16
1.1427978141299126e-15
2.9560436430236127e-15
4.402076058024477e-15
4.555137993599603e-15
2.5893201096192386e-15
-1.7564568056611352e-15
-7.721926543609961e-15
-1.3307325335708837e-14
-1.553946680898555e-14
-1.137197789865889e-14
8.558711030397443e-16
1.9796456273923097e-14
4.001179075841578e-14
5.2279290660408394e-14
4.5940136913029535e-14
1.3318502913431296e-14
-4.4764234638688804e-14
-1.1446224468772333e-13
-1.6816892569656351e-13
-1.701347708310488e-13
-8.935899050610655e-14
8.23764232139243e-14
3.132328777706935e-13
5.237557338919033e-13
5.983931896922621e-13
4.214904305403796e-13
-6.57733342308305e-14
-8.034086703049493e-13
-1.5732186823109545e-12
-2.01450195929562e-12
-1.7190988534201236e-12
-4.049938603422356e-13
1.871483961466793e-12
4.54703531972699e-12
6.5347337449197585e-12
6.4557535835008026e-12
3.1494534092389212e-12
-3.6279975599559435e-12
-1.2551309835352017e-11
-2.046843475183249e-11
-2.289364461333504e-11
-1.5444073493519052e-11
3.940621337000957e-12
3.263482001472772e-11
6.190101610972386e-11
7.764829275087044e-11
6.42693013312451e-11
1.1451667144862815e-11
-7.76665149475359e-11
-1.8023612218425553e-10
-2.5351658202302036e-10
-2.4439360160206514e-10
-1.0953364332955456e-10
1.575834540278632e-10
5.020835948117478e-10
7.991062645712646e-10
8.747158107177082e-10
5.631354129717094e-10
-2.0681939900948573e-10
-1.3217553922763255e-09
-2.4324492898707958e-09
-2.9890683838082268e-09
-2.395698315805989e-09
-2.772734597992907e-10
3.2073963617308806e-09
7.134012433260667e-09
9.823985142636787e-09
9.233860125211416e-09
3.750591500357231e-09
-6.763696905446192e-09
-2.0047529413255865e-08
-3.116191728641382e-08
-3.337027202125624e-08
-2.041493794650973e-08
1.0120932039910745e-08
5.3392985247191854e-08
9.546843023890375e-08
1.1491716220902147e-07
8.902124132624669e-08
4.2232136552722104e-09
-1.318754952319871e-07
-2.8197943367004027e-07
-3.802436781128924e-07
-3.481524290593697e-07
-1.2585847787570003e-07
2.8748715481019367e-07
7.990724254896289e-07
1.2137999961003894e-06
1.2710652498431246e-06
7.351646039936813e-07
-4.740920798149462e-07
-2.1515974914366995e-06
-3.7424320608779643e-06
-4.412296692931883e-06
-3.2965102341217192e-06
9.14943723961629e-08
5.4009117102670955e-06
1.113041033377179e-05
1.4700215654406352e-05
1.309750866717714e-05
4.109846397311898e-06
-1.2119942254121882e-05
-3.179707232429928e-05
-4.722523414175271e-05
-4.833491041803297e-05
-2.6268335923238353e-05
2.1551895877648698e-05
8.650732802184736e-05
0.00014653255419756832
0.00016918443996553846
0.00012160715185718566
-1.3515420773048266e-05
-0.00022040624514088803
-0.00043876213847842386
-0.0005676281164698521
-0.0004915547347775092
-0.0001290815627407067
0.0005073876261822814
0.0012632129219857632
0.001835164398213536
0.0018346056806881528
0.0009294390220499513
-0.000959422584262299
-0.003472222625430915
-0.005732901477213978
-0.006481036079793299
-0.004469598184364724
0.0009133861072099746
0.00897599470502104
0.017309104816302455
0.02198129952816965
0.01859967830240346
0.004216678751363472
-0.020367141132493556
-0.048815292926005734
-0.06917872976191447
-0.06659893914546977
-0.029150193160986042
0.04408628779942294
0.13513308601887655
0.2029688981394364
0.1866858799914133
0.017807593522168784
-0.15974164736649107
-0.36750260000665347
-0.3763704933614849
-0.10421919588928645
0.16937422872005894
0.37473912222956335
0.41954500013222445
0.1635898522397588
-0.19078537051574135
-0.29130096087783947
-0.2168581801123942
-0.05590839341484675
0.11068529826381622
0.2194444267769056
0.028023510411812926
-0.08416903238731217
-0.11658882970566051
-0.04953600467650876
-0.048648200431840496
0.1276302146019935
0.1187814248681457
-0.04640972929142358
0.04459640154528094
-0.013124662402381563
-0.03910090497198816
-0.0618032042098718
0.0882145549939612
-0.01499347081717758
0.012832979446678648
-0.030012812329108407
-0.12991494716234706
-0.06002495476921744
0.013896944227759646
0.12474489897239029
0.09482163006311489
0.12934894224543184
0.015448475440305786
-0.07264905718491528
-0.16393378312932802
-0.08015994738800994
-0.02860762538940379
-0.0006555691238748498
0.02363383179744248
0.06694472416688027
0.14546499903008095
0.06238832871926976
0.0065429173739002715
-0.043407082188337415
-0.11095001219956997
-0.21323603575678238
0.04438957417018435
0.06874903422596194
0.0744257448222752
0.07705562731221453
0.0874837110296615
-0.0909571080470279
-0.061584659325511534
-0.031134663982092393
-0.006118528118139483
0.009639606790248967
0.01570242602878346
0.01428216187827691
0.008819582933194485
0.002603900252919458
-0.002117847772740913
-0.004418138091045814
-0.004474525920449004
-0.0031004653019038337
-0.0012554078837062725
0.0003084762548512079
0.001204418696056614
0.0013970036357149704
0.0010837843036167873
0.000547847385341032
3.79552258305467e-05
-0.00029651712088912287
-0.00041571239526547177
-0.0003615240467196007
-0.000214520645339117
-5.462325828894563e-05
6.357683908503618e-05
0.00011853842287308329
0.00011634977453308366
7.868333815517483e-05
3.031454095525763e-05
-9.743221120669336e-06
-3.205115265392669e-05
-3.617186863708131e-05
-2.7499878873143253e-05
-1.3437597826865896e-05
-3.4965152914609005e-07
8.040637312530634e-06
1.0842228062938908e-05
9.234023723800763e-06
5.337048738863504e-06
1.2070548140798081e-06
-1.7825426785723496e-06
-3.118334921588458e-06
-2.9911665790531008e-06
-1.977980650799787e-06
-7.201140940087095e-07
3.0033669798033924e-07
8.523628922740124e-07
9.358629075623434e-07
6.968708136721006e-07
3.283492494754697e-07
-7.2162644622577015e-09
-2.172913686679914e-07
-2.8245707688446893e-07
-2.3561266816645436e-07
-1.325023879494341e-07
-2.594290857489986e-08
4.9571064671388246e-08
8.189416979307162e-08
7.680957319273672e-08
4.964117873352913e-08
1.6971303112159223e-08
-8.992277265494605e-09
-2.261642163462541e-08
-2.4184572408349783e-08
-1.7635439164809285e-08
-7.992371275608478e-09
6.013959505634423e-10
5.851475365024758e-09
7.348765875433109e-09
6.004628109215283e-09
3.281744690794892e-09
5.355395205179064e-10
-1.3690858053469362e-09
-2.1473004345036323e-09
-1.9701242606300918e-09
-1.2436832878809018e-09
-3.9622388866367303e-10
2.6354922963682425e-10
5.988319656135811e-10
6.242473882355498e-10
4.4567256768965037e-10
1.9370936499390607e-10
-2.6120997127264713e-11
-1.5707098222980429e-10
-1.9094937834926987e-10
-1.5284267129596632e-10
-8.107083467943595e-11
-1.0378043559823846e-11
3.75881884282801e-11
5.621735716845032e-11
5.047478063493172e-11
3.110193642318471e-11
9.145637254585058e-12
-7.598783147009599e-12
-1.5824110714588524e-11
-1.6094212019014948e-11
-1.1246508623508726e-11
-4.672208526431861e-12
9.445427752905285e-13
4.203970299800069e-12
4.95545545508947e-12
3.8857360523852065e-12
1.9972355160947245e-12
1.7954275719855325e-13
-1.0265444713876685e-12
-1.469556568178325e-12
-1.291599019604826e-12
-7.762215641320586e-13
-2.0805320571251894e-13
2.163487007206453e-13
4.17444717473294e-13
4.145395965519023e-13
2.834609320722521e-13
1.1215554622576388e-13
-3.118548253937731e-14
-1.1213500884478766e-13
-1.283648947115079e-13
-9.85832621434076e-14
-4.89750245272535e-14
-2.290831753353506e-15
2.7985887188623412e-14
3.8439908626292723e-14
3.3091507131017075e-14
1.9412063528525782e-14
4.7268435781706855e-15
-6.015541371129114e-15
-1.0913383368318157e-14
-1.0585871035092264e-14
-7.054188041637885e-15
-2.5963653327965356e-15
1.057389671909817e-15
3.0630175402165327e-15
3.4003614928102294e-15
2.576878168021248e-15
1.2756494356884952e-15
7.790460050182663e-17
-6.807975344240265e-16
-9.249815912065308e-16
-7.673050854831502e-16
-4.043998612646804e-16
-2.480012797405289e-17
2.468017880537643e-16
3.6497337521864106e-16
3.4867612600276876e-16
2.518904889720721e-16
1.341922867232245e-16
4.0388531263182144e-17
-7.897689679323777e-18
-1.0601575370645978e-17
1.81653627467225e-17
5.88774087865949e-17
9.372288628174869e-17
1.1088294810708498e-16
1.0616729834239033e-16
8.285560025804707e-17
5.04823100726884e-17
2.2779679103438805e-17
1.4530393818161294e-17
3.708115516304228e-17
9.289909436451031e-17
1.706470790068017e-16
2.4331160581265557e-16
2.722327974667231e-16
2.1880411908508615e-16
6.286272655479241e-17
-1.7717417341188689e-16
-4.312385950382553e-16
-5.821679063917213e-16
-4.959605674821433e-16
-7.784075779194011e-17
6.584364201384941e-16
1.5344668771144703e-15
2.1995727835101007e-15
2.203596913822767e-15
1.1609499426470045e-15
-1.0219418800672637e-15
-3.931063287257648e-15
-6.554237094634334e-15
-7.432746452570515e-15
-5.1210162289355e-15
1.0933702547680609e-15
1.0413044046203553e-14
2.0047488339316002e-14
2.5431371729021323e-14
2.1444266408793335e-14
4.611889188221648e-15
-2.4226238567323655e-14
-5.78266591281021e-14
-8.23946454465396e-14
-8.057993670715119e-14
-3.7963523753362234e-14
4.8135009018164917e-14
1.6052308272399268e-13
2.590730427129195e-13
2.8718557880854576e-13
1.9012225077322395e-13
-5.693829133104326e-14
-4.193030813462804e-13
-7.853182178633621e-13
-9.767234565404126e-13
-7.978417644786416e-13
-1.2190333160049254e-13
1.0064840380643059e-12
2.293845596974244e-12
3.1980193416999936e-12
3.0509976690456895e-12
1.3150891724274662e-12
-2.0764575436670358e-12
-6.413209364079175e-12
-1.0106561243058297e-11
-1.0962911900501306e-11
-6.913552476250581e-12
2.8933441087382437e-12
1.6966611133985432e-11
3.084701635477805e-11
3.7582096776639027e-11
2.9705312406934683e-11
2.61730882600792e-12
-4.1483232642582224e-11
-9.073735504154099e-11
-1.2386301537262523e-10
-1.1517381720003359e-10
-4.468131792253475e-11
8.874702856797581e-11
2.558851854867322e-10
3.93930601332946e-10
4.1796561721400646e-10
2.4997016355413443e-10
-1.3872493417409782e-10
-6.846644676865453e-10
-1.2100688971948275e-09
-1.4440900062244135e-09
-1.1022699598991191e-09
-1.8827934765850945e-11
1.7027562140741725e-09
3.584451492984074e-09
4.791857181353328e-09
4.338562880576588e-09
1.484038646108005e-09
-3.758701543736057e-09
-1.0192133067718637e-08
-1.5336856218959162e-08
-1.590945013673163e-08
-8.973924444008201e-09
6.409711053794509e-09
2.756366147003924e-08
4.7412139014152983e-08
5.541571048790146e-08
4.075491744944572e-08
-2.5002301917310834e-09
-6.962984656737514e-08
-1.414086986698505e-07
-1.8516140314145305e-07
-1.6305857446486991e-07
-4.776830214580536e-08
1.579811191818601e-07
4.052978689672612e-07
5.964266515270277e-07
6.045624355277878e-07
3.194809481597932e-07
-2.8851678161680364e-07
-1.107228840879938e-06
-1.855483936676431e-06
-2.123632737120008e-06
-1.5008579927442213e-06
2.230450294838018e-07
2.8376340458717264e-06
5.571373029122887e-06
7.146183207870184e-06
6.113290782207794e-06
1.4681327438404325e-06
-6.596742143756801e-06
-1.609172399402756e-05
-2.316758797049687e-05
-2.2933084534258183e-05
-1.1260612866873537e-05
1.2736377936324168e-05
4.438527762811215e-05
7.253035838666268e-05
8.1267525721374e-05
5.502605221136069e-05
-1.3564394274556618e-05
-0.00011528179288221915
-0.00021922594855042595
-0.0002754642523128588
-0.0002285929228184528
-4.186639054405385e-05
0.00027386220485726504
0.0006378589404163239
0.0008987309808216168
0.0008680177408006885
0.0003915479537959458
-0.0005546770577589089
-0.0017770770021097745
-0.002833528455790591
-0.0031068037065934122
-0.0020067104587285834
0.0007241675738593352
0.004691953702821462
0.008670121969052426
0.010724685584172064
0.00876227606293676
0.0014755314123160816
-0.010553200417609385
-0.02405181281327233
-0.03315526438832003
-0.030918918466081236
-0.012413839328075127
0.021045818632945072
0.057713157466764385
0.07296665548629018
0.030366236135648587
0.08730798340984386
0.005107337982507323
-0.038267653251020835
-0.23614099951689682
-0.14601313594248969
-0.09123985826489915
0.02683158413760399
0.10811098921664074
0.22967507992583053
0.22546449900322466
0.0762578654688784
-0.08666912769645989
-0.1652524394992753
-0.07077481723884853
-0.09936676537127138
-0.11310695444404234
0.06950813960332236
0.07292481226738275
-0.044591620815411466
-0.005475674092817123
0.07057696246422941
0.05099425131783993
-0.02184445391606033
0.06255370895089564
0.08233028585847575
-0.010803781882103689
-0.08034954085342698
0.009313580310829147
0.00740336435490222
-0.11176852188607984
-0.14293335963439768
-0.05137864962524417
0.017893592061072376
0.12520383673076055
0.11941899901880018
0.22446981657595788
0.033563652991818224
-0.08701791970205792
-0.18611894323237363
-0.11244994015694225
-0.10143181821634618
0.03168614155007849
0.09122455445208823
0.09478579493106311
0.06483078059695707
0.021657575509401193
-0.020111209822928446
-0.051379493512238715
-0.06619530270664735
-0.05923474555926993
-0.02490943837390315
0.04126685946579472
0.13983040170831035
0.064870718465144
0.0037913986487494887
-0.0598672668679279
-0.141476107520083
-0.05048722178210421
0.011970405426789838
0.052032600765729776
0.07934150060525497
0.10261310371483505
-0.07337542332920584
-0.048327020638863856
-0.024876210112777075
-0.006259205865598493
0.005512205021113594
0.010364385711886177
0.009863291927281604
0.006374508819087723
0.0021790231983165
-0.0011269162932145392
-0.002837681953878614
-0.0030125648941920643
-0.0021687724272292644
-0.0009495381997787552
0.00012304658207268907
0.0007659444984218125
0.0009351254720498074
0.0007511022332180176
0.00040063576220721525
5.3991978214218644e-05
-0.00018219361208615827
-0.0002748514221419818
-0.00024779756638939314
-0.0001534268394945062
-4.5883134231796096e-05
3.646524470406545e-05
7.719611491780636e-05
7.889473354019741e-05
5.536737227083345e-05
2.321544222909831e-05
-4.367588297263156e-06
-2.0458524606887014e-05
-2.426037775362811e-05
-1.91009337942219e-05
-9.880179703662494e-06
-9.64948011621254e-07
4.976967677229304e-06
7.184707707733656e-06
6.341258593301307e-06
3.830211426006809e-06
1.0470178702755402e-06
-1.0405032171711849e-06
-2.0369034565780472e-06
-2.0322063905850633e-06
-1.3955409008471455e-06
-5.575329192166341e-07
1.4656013033480404e-07
5.463659421342935e-07
6.289678260077745e-07
4.85105119426607e-07
2.428095232111604e-07
1.3785532011984868e-08
-1.3542551048075807e-07
-1.876080166195896e-07
-1.6212497484389524e-07
-9.544618673451805e-08
-2.349338905790046e-08
2.9359771875769532e-08
5.3646895663223496e-08
5.2285838416913114e-08
3.5120594229567446e-08
1.3307986356628108e-08
-4.643464458205832e-09
-1.4554093767519206e-08
-1.628659781119734e-08
-1.2304246045644885e-08
-5.947681595057123e-09
-7.099868739913943e-11
3.6695457766307187e-09
4.892075948587489e-09
4.140144883406962e-09
2.373366775092767e-09
5.153817970599888e-10
-8.209464671322404e-10
-1.4105012470872915e-09
-1.3437053413499127e-09
-8.824395525289953e-10
-3.154117376637987e-10
1.4172216022204848e-10
3.8677597051214404e-10
4.212244890625872e-10
3.1167294777280155e-10
1.4516793147183277e-10
-5.453270864555215e-12
-9.905665697330733e-11
-1.2739474910533497e-10
-1.056004220699166e-10
-5.888139256481308e-11
-1.0959715196667888e-11
2.2779729732685745e-11
3.702471139750858e-11
3.449284334323357e-11
2.2135112321895994e-11
7.413630577372047e-12
-4.212956571934887e-12
-1.0255819104259753e-11
-1.0881324666071474e-11
-7.884009819335312e-12
-3.5290347467480483e-12
3.2699294143986134e-13
2.6649100363595157e-12
3.3132378244768714e-12
2.690331867272772e-12
1.457304877816705e-12
2.227197246748521e-13
-6.278763846960596e-13
-9.702702980249272e-13
-8.843378648768863e-13
-5.541826435722825e-13
-1.724489458238738e-13
1.228862314990954e-13
2.7146074243392016e-13
2.808448039342346e-13
1.9923147411192553e-13
8.548962971691514e-14
-1.3113656837703325e-14
-7.139127959017614e-14
-8.59809262477306e-14
-6.837808419862462e-14
-3.589471902479042e-14
-4.124783027786015e-15
1.7287376937765463e-14
2.5469209465871335e-14
2.2728520971204058e-14
1.393113892226871e-14
4.044071840653061e-15
-3.4504245988459664e-15
-7.095133209638163e-15
-7.168077454902464e-15
-4.957983397468993e-15
-1.9908221044721762e-15
5.33130186402911e-16
1.993250845504321e-15
2.3277889562282944e-15
1.8460078235577e-15
9.938541827578283e-16
1.6422917668382795e-16
-4.044492115552311e-16
-6.417729966786958e-16
-5.995980039975323e-16
-3.849021663349999e-16
-1.0299202393083866e-16
1.717903432829208e-16
3.9671666511355034e-16
5.437184314412449e-16
5.814235178842057e-16
4.711217369021497e-16
1.8386664391890777e-16
-2.654529537731301e-16
-7.827759028223824e-16
-1.181455010359339e-15
-1.2131552903032289e-15
-6.534713283175449e-16
5.702142273870334e-16
2.249770907808566e-15
3.83137639899227e-15
4.484985051761935e-15
3.3522278060656766e-15
-4.632698863782469e-17
-5.353527656822983e-15
-1.106461802156808e-14
-1.4601686597494882e-14
-1.2960792229800784e-14
-3.945164319621633e-15
1.228330274428433e-14
3.19143446486716e-14
4.7249117549507104e-14
4.823709742223149e-14
2.606415901502629e-14
-2.1785923991187587e-14
-8.66358078839569e-14
-1.4639372245764511e-13
-1.686544841530274e-13
-1.206831251874628e-13
1.4644107397474355e-14
2.2133957947650778e-13
4.3896435840767344e-13
5.666126981174731e-13
4.891520512526444e-13
1.2570484104686747e-13
-5.106109184983468e-13
-1.2645884563015315e-12
-1.8329482796632198e-12
-1.8278539074162267e-12
-9.18965352931737e-13
9.703904799633344e-13
3.4781977501720214e-12
5.7275311119211264e-12
6.459851281666226e-12
4.433735880732575e-12
-9.53389508172245e-13
-8.997484381382504e-12
-1.7276457676571894e-11
-2.1846609181748924e-11
-1.8302968715991503e-11
-3.682411395265214e-12
2.1239168003475658e-11
5.0158987414632426e-11
7.114552819250895e-11
6.925151466823778e-11
3.212976878458823e-11
-4.237269529544283e-11
-1.3923661487501396e-10
-2.2370494344203964e-10
-2.4695534355811277e-10
-1.6199680555441203e-10
5.2109355710336915e-11
3.648089534857502e-10
6.792245377452243e-10
8.414023139235397e-10
6.830545365283479e-10
9.617494852850383e-11
-8.787444962785203e-10
-1.986475851608686e-09
-2.7581967981967294e-09
-2.6185581461481594e-09
-1.1073950433132434e-09
1.8266387278411288e-09
5.563475379153272e-09
8.727504474339734e-09
9.426958784711666e-09
5.886618714590813e-09
-2.6096788399636874e-09
-1.4751392874750201e-08
-2.6670775204343984e-08
-3.2364685885907426e-08
-2.5413603881960954e-08
-1.903605085367377e-09
3.6190457482045125e-08
7.856016894053557e-08
1.0680667217215152e-07
9.881202094624285e-08
3.748063768505417e-08
-7.792053176354895e-08
-2.219034397498709e-07
-3.4010037718892384e-07
-3.592947339957694e-07
-2.1256301027953896e-07
1.240913308107799e-07
5.949957867132069e-07
1.046002873023324e-06
1.2432989188001866e-06
9.423910375773534e-07
2.399189200978439e-09
-1.484375427325354e-06
-3.1025924908156646e-06
-4.131058019730076e-06
-3.7206151412743135e-06
-1.2383506533401304e-06
3.294979129404067e-06
8.835767417933426e-06
1.3238171521803804e-05
1.3671851866214338e-05
7.619512390999582e-06
-5.700829294528508e-06
-2.3943236657676367e-05
-4.097443384987594e-05
-4.7698107837676034e-05
-3.4817900101082904e-05
2.6972902215023634e-06
6.065820171308761e-05
0.00012236797625148288
0.00015959088864830206
0.00013976992577079337
3.956328250131157e-05
-0.00013830357294870394
-0.000351250832908153
-0.0005146958657900976
-0.0005193576020898254
-0.0002707770716399211
0.00025552715284638704
0.0009613748282517015
0.0016031087883749769
0.0018272285090749176
0.0012808367567260258
-0.00021410606014259022
-0.002471555098257516
-0.0048217329481780825
-0.006160380255231627
-0.00524060367275905
-0.0012041803365657876
0.0057707523403321475
0.013957631440936242
0.02003666263361917
0.01981129579985934
0.00977545628528415
-0.010747025030751598
-0.037615363151338684
-0.06111317557055732
-0.06752665035886085
-0.04368625932688275
0.015948377591099454
0.10149242614677857
0.18223808837493302
0.20719480114737113
0.1140125309727384
-0.15411613139742567
-0.42790539908268943
-0.2953356095897644
-0.09678429066177206
0.06393405818993074
0.2949414516331021
0.4864444608319049
0.08657677934347936
-0.10837108537469116
0.25342250001613476
-0.7001747707035983
-0.24021374666076054
0.18350729981000866
0.15159892900404182
-0.32744980955733893
0.572465488281677
0.08279998063695039
-0.16904468259724892
-0.16400430247014222
-0.0914493535788901
0.05206485629180572
0.06316418784622169
0.13106882766977254
0.03763848288669232
-0.04038159821148053
-0.12674120333128927
-0.04015917578027212
0.009903548511926484
0.024538969053369636
0.013455067554281134
-0.009341960719119928
-0.03092995604298491
-0.04463763514261531
0.14621613138406178
0.1273294901309905
0.07641754873510379
-0.029461523738764334
-0.20386356919131982
-0.2419417177961743
-0.1170405379217118
0.01403051540534145
0.1975948176352212
0.26619665564434153
0.22515118411450438
0.04873746433440342
-0.11159671175855396
-0.30982771817759114
-0.18567249993420382
-0.15061115423737578
0.0149097720315689
0.15244465703698357
0.30892590788767343
0.11951786933005447
-0.0033530959174272812
-0.0713280445817943
-0.11270093634357423
-0.16046805103461378
-0.04102661651167545
0.03257288097443942
0.061465966123411396
0.05707020581850094
0.03503809882812443
0.009685974055135825
-0.00945420298754865
-0.018555404171294254
-0.018440314770449145
-0.012543549160595415
-0.004849647270263086
0.0015628652985399088
0.0051513467049353195
0.005825379495282446
0.0044401803000683185
0.0021813025706874916
7.266854077335661e-05
-0.0012839719186635002
-0.0017419966931636215
-0.0014886780510441277
-0.000864259198539237
-0.00019972329270447883
0.00028299604771675333
0.0005001636605457547
0.00048159792597414535
0.0003196698247412096
0.00011752744090884641
-4.7025211701456866e-05
-0.0001364808568678903
-0.0001505248138346216
-0.00011247347890540853
-5.332477394005567e-05
7.289814603596329e-07
3.4703616075756893e-05
4.5379244065474835e-05
3.7983744130902586e-05
2.1460037915198607e-05
4.313068016803738e-06
-7.881407138446603e-06
-1.3139701246401466e-05
-1.2369535586396162e-05
-8.02508696580427e-06
-2.773760190018793e-06
1.4138866941679528e-06
3.6226875535982167e-06
3.890635654858808e-06
2.846977922852834e-06
1.2988552573766514e-06
-8.57180255171662e-08
-9.350622014439014e-07
-1.1808991016553939e-06
-9.682153555969871e-07
-5.317279951092582e-07
-8.973923488720932e-08
2.1790716920708875e-07
3.4461800170371595e-07
3.1733222780445877e-07
2.0111522337929802e-07
6.486738897557946e-08
-4.156919832141411e-08
-9.595342574218642e-08
-1.0044372440378058e-07
-7.196400980501458e-08
-3.150358613121879e-08
3.920910679014982e-09
2.5112724660625225e-08
3.069082302207443e-08
2.4650125268378074e-08
1.3141407250191616e-08
1.761570853323507e-09
-5.988195537335818e-09
-9.024502103478897e-09
-8.131622395609413e-09
-5.031016645884228e-09
-1.5003444959438706e-09
1.201494227437161e-09
2.5363960508282295e-09
2.5901276257615e-09
1.8164582163899593e-09
7.605098506692651e-10
-1.447758796832794e-10
-6.724404653489646e-10
-7.966303032630457e-10
-6.268004751281579e-10
-3.2389024604111036e-10
-3.12299765552961e-11
1.636858513441573e-10
2.3597528059731845e-10
2.0813255286426458e-10
1.2561439357156385e-10
3.4232222581482306e-11
-3.426327385878975e-11
-6.691885032912231e-11
-6.671428188875232e-11
-4.5781614378578275e-11
-1.8260810943486943e-11
4.846877083863127e-12
1.7956652170277063e-11
2.0652398744901783e-11
1.59181823974732e-11
7.95898828011817e-12
4.41104179967347e-13
-4.4532779340705954e-12
-6.161473778392306e-12
-5.3209840658555395e-12
-3.1299252954565306e-12
-7.675357697534803e-13
9.666060246924522e-13
1.7624751491936912e-12
1.7164806297373687e-12
1.1521381891724503e-12
4.357872260507089e-13
-1.5336506386366354e-13
-4.783034773295868e-13
-5.347087579964635e-13
-4.0357795796693333e-13
-1.9464878927779914e-13
-1.6439160837349385e-15
1.2105671025687022e-13
1.6092039389254086e-13
