0
-2.0498316322290275e-17
-2.0482973864243428e-17
-2.0463835731964297e-17
-2.0448130423497052e-17
-2.0445590322228584e-17
-2.0465108731286086e-17
-2.0509870061331302e-17
-2.057246687604525e-17
-2.0632402577259365e-17
-2.0658595151812574e-17
-2.0618550858679384e-17
-2.0493558334007595e-17
-2.0295909615667544e-17
-2.0080837735299207e-17
-1.994422114405798e-17
-1.99989249025666e-17
-2.0329038249369785e-17
-2.0931731492244182e-17
-2.1668200091314585e-17
-2.225314608352527e-17
-2.231034886412236e-17
-2.1505299329041733e-17
-1.973426278669525e-17
-1.730934995152626e-17
-1.5046072582891304e-17
-1.415363379917829e-17
-1.5867521117670718e-17
-2.085589166980318e-17
-2.8560995887441076e-17
-3.676249254476671e-17
-4.1706654187802496e-17
-3.906624845058019e-17
-2.5740198050388893e-17
-2.0935473559690976e-18
2.6210593779898438e-17
4.7926773717434846e-17
4.8529001072546273e-17
1.5465294577856847e-17
-5.4510692092279345e-17
-1.483385319533622e-16
-2.3362248766133254e-16
-2.633739157050331e-16
-1.9069796263236274e-16
8.041346493248414e-18
3.0807268915433253e-16
6.203281147482922e-16
7.980176196694778e-16
6.754663032339598e-16
1.3880063869167046e-16
-7.878654268491151e-16
-1.8742220641286e-15
-2.677582017741684e-15
-2.63777462004028e-15
-1.2850172270886659e-15
1.4761032082841337e-15
5.102313107284765e-15
8.308674003755576e-15
9.2713386610375e-15
6.2135773177358745e-15
-1.6912686315409558e-15
-1.3360943262973684e-14
-2.522963866954254e-14
-3.156376039951142e-14
-2.6029298184796666e-14
-4.464843223012509e-15
3.180654748460252e-14
7.34460241132791e-14
1.0304868706695015e-13
9.90392576251682e-14
4.388415642755407e-14
-6.492169723982771e-14
-2.0489732898438253e-13
-3.25152067822927e-13
-3.5497554019280047e-13
-2.2718107817983612e-13
8.673818180641695e-14
5.401096329034341e-13
9.904458255344335e-13
1.2140510094179632e-12
9.691267155688022e-13
1.044271281324887e-13
-1.3136446179160708e-12
-2.9074309308846012e-12
-3.993474663835146e-12
-3.741843878039852e-12
-1.5001191197913574e-12
2.7820484761297572e-12
8.178663905148597e-12
1.2677035487927913e-11
1.3538914066612881e-11
8.228816708526643e-12
-4.218748679435674e-12
-2.181219967224462e-11
-3.886799022001824e-11
-4.666863698055784e-11
-3.599786485686572e-11
-1.3930433694814106e-12
5.398399648344814e-11
1.1489926617572603e-10
1.5454715612284424e-10
1.4104420758618326e-10
5.0194528901665286e-11
-1.1812392007109753e-10
-3.259259747210613e-10
-4.937204535171415e-10
-5.155935015501426e-10
-2.9606835556858747e-10
1.967839324041827e-10
8.787241982193726e-10
1.523432208453632e-09
1.7915731945412106e-09
1.332431154216391e-09
-4.985784661791401e-11
-2.2098993701018204e-09
-4.5346167340492115e-09
-5.973929252349435e-09
-5.304600720356582e-09
-1.6325679764133653e-09
4.975386024352845e-09
1.2966839216026862e-08
1.9206481697670388e-08
1.9602497191971824e-08
1.0567899723480144e-08
-8.918714296576806e-09
-3.5320655981803574e-08
-5.964043141602415e-08
-6.868425231691948e-08
-4.9128519239700806e-08
5.989408989409178e-09
9.014779978483875e-08
1.7872782858176552e-07
2.306420771208069e-07
1.9902428971323947e-07
5.0971713171543434e-08
-2.0813496916127115e-07
-5.150624444106154e-07
-7.46307855263365e-07
-7.439809773370484e-07
-3.7365594419898517e-07
3.957617619692259e-07
1.4167346393307055e-06
2.3321188096335277e-06
2.629509077583013e-06
1.803643191762452e-06
-3.9044959998191186e-07
-3.665641177892215e-06
-7.0353598872669e-06
-8.893812500321024e-06
-7.447933245716514e-06
-1.4923406797670613e-06
8.655518365504332e-06
2.042791653974545e-05
2.8966138158269415e-05
2.8185185143708326e-05
1.3060806040544564e-05
-1.7278769100245956e-05
-5.6712979115587214e-05
-9.10867072742857e-05
-0.00010052272215446746
-6.589635106382312e-05
2.1302512925375517e-05
0.0001486140538360137
0.0002765766617727136
0.00034250050613438243
0.0002778781408093093
3.8767330728162294e-05
-0.0003582969114030132
-0.000809347633570629
-0.001123466032935019
-0.0010663719519368895
-0.0004506419347871457
0.0007448848154175978
0.0022684888260014586
0.003561819241247858
0.003858089584790583
0.0024405772372854575
-0.0009728600540742941
-0.0058359379073527305
-0.010560840883730813
-0.012699589435864066
-0.009668213415634166
9.929917391384204e-06
0.0152183414832276
0.03104882237210054
0.038546349779680376
0.025920737102528603
-0.018709918902195248
-0.10367054849790798
-0.030413082597556526
0.008132299658505074
0.026835156538698914
0.04561878343990577
0.08585128091270065
-0.03287502091022999
-0.0949747781550705
-0.09045630000747068
-0.016718992258533044
0.11906254144314266
0.09785608832751942
0.0889439749719366
0.054165890443770466
-0.043495971500888374
-0.22897264078369256
-0.10561346538355931
-0.05128509843980241
-0.022614898584070342
0.03300692027836171
0.16103234580566522
0.18420698761353668
0.09327636601649243
0.047678081577659515
-0.013187923352521232
-0.15110965937047324
-0.208425000259408
-0.19240622850659642
-0.07024663480274013
0.023081859252624994
0.16622084644454516
0.2280588373442789
0.24742740628831497
0.022666382560743804
-0.08573916298173374
-0.14107078717199414
-0.21048161506265653
-0.14650371832491482
0.024168748975987815
0.10215454840186344
0.10852910485128806
0.07371841966288585
0.02675180191149388
-0.011874603996214518
-0.03262825296349491
-0.03543449613042026
-0.025997573344761875
-0.011793403517049848
0.0009557962816874498
0.008775537650935116
0.011015375763092668
0.009012474247450792
0.004941874657967887
0.0008282338128084262
-0.0020318731067333843
-0.0032078357528198312
-0.0029517936434763255
-0.001869546070187593
-0.0006019017056087445
0.00038792224715772123
0.0008934583355339581
0.0009350110224815178
0.0006699776224475918
0.00029338168670505784
-3.673901267171192e-05
-0.00023492820877400887
-0.0002881216602049206
-0.00023291583299523338
-0.0001257465927142099
-1.7992050048022682e-05
5.7947390076494115e-05
9.12540845864752e-05
8.742164544992566e-05
5.988724817441227e-05
2.2672821087989903e-05
-1.3677269473821525e-05
-4.2614079952417824e-05
-5.9871584465844974e-05
-6.154310776339996e-05
-4.3740018068637635e-05
-4.63492067207538e-06
5.172153670409146e-05
0.00011178691605350112
0.00015187612970047677
0.00014293942061705965
6.158273114548711e-05
-9.472378954397232e-05
-0.0002936495409781777
-0.00046310861817231336
-0.000503328028127301
-0.0003198138108568867
0.00012696186892047995
0.0007700420024136364
0.0014070732249492504
0.0017214633832986213
0.001372305935702432
0.00014870132319852493
-0.0018502149401557154
-0.004083468196594183
-0.005578027096503722
-0.005158597523972219
-0.001914283848124169
0.004185441361543565
0.011732975090184802
0.01767513344013756
0.017734643955957877
0.007578459987686149
-0.015458145028272413
-0.05065815769079186
-0.09304549001890691
0.0659359441862714
0.03607344597839051
0.025134572858128375
0.036073454473434144
0.06593595986616818
-0.09304547030505567
-0.05065813948049974
-0.01545813599986487
0.00757845175816638
0.017734613384095196
0.01767508270510071
0.011732917043884055
0.004185399723679789
-0.0019142795994804404
-0.005158523189266507
-0.005577878721008972
-0.004083275832788471
-0.0018500476738130707
0.0001487466742698425
0.0013721363825099223
0.0017210377969920786
0.0014064527192660956
0.0007694191877404974
0.00012664228340346936
-0.00031949670921007885
-0.0005021609814427856
-0.00046117343526190524
-0.00029145405346199993
-9.319886856636386e-05
6.129637323191249e-05
0.0001399315923689482
0.00014604952077195072
0.00010437687664410073
4.5460794220769163e-05
-5.993873705473201e-06
-3.668231693820806e-05
-4.4661631978861324e-05
-3.5783813275055915e-05
-1.9008153703779808e-05
-2.4663023929374404e-06
8.769435827185793e-06
1.314419804734548e-05
1.1813589714692858e-05
7.287887578549837e-06
2.1517532146892093e-06
-1.769048958248519e-06
-3.6982580591427647e-06
-3.765732778518966e-06
-2.6341756605378184e-06
-1.0967928107876818e-06
2.179767571558582e-07
9.819117727764645e-07
1.1590980899529449e-06
9.097745597348272e-07
4.683271058390177e-07
4.2969905903288144e-08
-2.3956920251434857e-07
-3.436389039172655e-07
-3.0233251564258783e-07
-1.8192141526470357e-07
-4.900492977948485e-08
5.037746678004885e-08
9.755159260096908e-08
9.698143134835436e-08
6.637939826134796e-08
2.6317524886598917e-08
-7.237648244186612e-09
-2.621242570719674e-08
-3.004480436358491e-08
-2.3100967015845054e-08
-1.1503864356990069e-08
-5.78730957767973e-10
6.514487745411157e-09
8.971259879043058e-09
7.728288546901765e-09
4.531935985927507e-09
1.0963071387952443e-09
-1.4194048876239892e-09
-2.568587041857686e-09
-2.4947685929988517e-09
-1.670128683383486e-09
-6.275585474062642e-10
2.2780468680231027e-10
6.97990901761121e-10
7.77844687794791e-10
5.858195681841098e-10
2.8164442045338707e-10
1.3571248805028685e-12
-1.7641471252893606e-10
-2.3388727512264355e-10
-1.9732041714483234e-10
-1.1265364343950614e-10
-2.3953434484478874e-11
3.963991064890265e-11
6.751715120343589e-11
6.410259623085635e-11
4.1953253169843624e-11
1.485640982830945e-11
-6.921425882696945e-12
-1.8542837620592734e-11
-2.011403499078199e-11
-1.483613266482669e-11
-6.870323068491104e-12
3.122882679551583e-13
4.759619302210322e-12
6.089441769737479e-12
5.0320232573609034e-12
2.7938346793817804e-12
5.064510391062873e-13
-1.0987959935112344e-12
-1.771871994872997e-12
-1.645245054796635e-12
-1.0521005318250117e-12
-3.4872974203025265e-13
2.0505663120228082e-13
4.915105038187007e-13
5.194891484476875e-13
3.7519603652613517e-13
1.6689415209778404e-13
-1.6954754656724487e-14
-1.2800255896490908e-13
-1.5835875457085961e-13
-1.2819240114934876e-13
-6.913771240567403e-14
-1.0219002835879406e-14
3.0241312146880066e-14
4.6405716952383557e-14
4.21566647513172e-14
2.631616982761392e-14
8.080780997121772e-15
-5.983677207075986e-15
-1.3023326983354008e-14
-1.3422900236202316e-14
-9.496373451130228e-15
-4.056906931853394e-15
6.43664177014862e-16
3.4108311697783356e-15
4.091580411371114e-15
3.239657255422286e-15
1.6834270616507204e-15
1.6683642891450742e-16
-8.514608814947173e-16
-1.2363262569652223e-15
-1.0995821099275317e-15
-6.747282925108139e-16
-1.9984691924762423e-16
1.5792833654608613e-16
3.2829088568463364e-16
3.2436524242323644e-16
2.0876404036222822e-16
5.715755154946332e-17
-6.871849728899321e-17
-1.342801355574486e-16
-1.3320688221224543e-16
-8.110507312056952e-17
-6.442048893179164e-18
5.828488133393016e-17
8.429604157463208e-17
5.360501948814821e-17
-3.434005837524632e-17
-1.5761371720295167e-16
-2.712666730496735e-16
-3.149682978896604e-16
-2.3122519556119283e-16
7.328719622341704e-18
3.6887681493935585e-16
7.445790849478131e-16
9.573879015507019e-16
8.090316835989449e-16
1.6458435782188363e-16
-9.449309821811089e-16
-2.2418570852098566e-15
-3.1956267186197538e-15
-3.137276503478707e-15
-1.5085524637525198e-15
1.7989303684043373e-15
6.129289664637268e-15
9.94204138033755e-15
1.1057795488125334e-14
7.361390478498146e-15
-2.1185051262195966e-15
-1.60668366724159e-14
-3.0203177253299535e-14
-3.767000301449391e-14
-3.091636243816121e-14
-5.016616421249121e-15
3.8378319843630195e-14
8.803735098796868e-14
1.2312345990678756e-13
1.1788699543651928e-13
5.15041245585775e-14
-7.880170616737635e-14
-2.4591623668825564e-13
-3.8884724780870675e-13
-4.2311883469673474e-13
-2.6877203199932116e-13
1.0760816152114945e-13
6.494096951121362e-13
1.185638439228459e-12
1.4487963464218832e-12
1.1506955634988319e-12
1.1247372251677666e-13
-1.583803481445581e-12
-3.484135045322945e-12
-4.770441955642243e-12
-4.4524094720635465e-12
-1.7555615653070222e-12
3.3717835155191357e-12
9.813511319575454e-12
1.515792789592466e-11
1.6134292611517756e-11
9.72608221619888e-12
-5.1948551443460945e-12
-2.6216256572802116e-11
-4.651928566692571e-11
-5.5681269179674135e-11
-4.272040426766516e-11
-1.183257587921792e-12
6.504645755894808e-11
1.3766184655316257e-10
1.8458314771818702e-10
1.6777303236978988e-10
5.852414628975766e-11
-1.4297796960768024e-10
-3.909759853953325e-10
-5.90239560492582e-10
-6.142809453459328e-10
-3.495477112966462e-10
2.411084544002805e-10
1.0557770570088713e-09
1.822998126136023e-09
2.137130931401139e-09
1.5803785534015415e-09
-7.836990774387819e-11
-2.66128526089635e-09
-5.43187422938639e-09
-7.133670987724252e-09
-6.3076385399711985e-09
-1.893630509691443e-09
6.015620668608696e-09
1.5551037410392687e-08
2.2957267148581792e-08
2.334853696465094e-08
1.2460321700239453e-08
-1.0888427835265913e-08
-4.242349698889164e-08
-7.135541495725541e-08
-8.191504863996603e-08
-5.8234572301580086e-08
7.889859136240806e-09
1.0850669182058944e-07
2.1405055127465742e-07
2.753672735218439e-07
2.3656804425511211e-07
5.866343884312282e-08
-2.5141293963507954e-07
-6.175663194031857e-07
-8.918983829029898e-07
-8.859172856126003e-07
-4.3986817703406924e-07
4.818568161373314e-07
1.7011116180340913e-06
2.7897204609017236e-06
3.135365826161726e-06
2.136468244432328e-06
-4.951115348188323e-07
-4.410141773273661e-06
-8.42417769136191e-06
-1.0616494130802684e-05
-8.849294296793357e-06
-1.6952601273644442e-06
1.0446655614505989e-05
2.4487817263590734e-05
3.461086890836004e-05
3.355280276827588e-05
1.5345204301081803e-05
-2.0992980075498306e-05
-6.807714644635498e-05
-0.00010894063128328498
-0.00011983451503360465
-7.799499573712991e-05
2.6566190069057877e-05
0.0001787236528849542
0.0003311149754450977
0.00040876926018635604
0.0003300276355588911
4.290216699088807e-05
-0.00043208351795557566
-0.0009699201279253596
-0.0013420643872942793
-0.001268946899062113
-0.000528060955760257
0.0009034174675119593
0.002721793521177149
0.004257581772940075
0.004594130975852571
0.0028774963111594743
-0.0012240836265725167
-0.007051040824463773
-0.01270064034862544
-0.0152464796489377
-0.011603454137221171
-4.675432143205436e-06
0.018247652865926493
0.037399670401322506
0.04702572714909643
0.03360415682485596
-0.016034270630672358
-0.11016156624216411
-0.04808142677464444
-0.018324639691734736
-0.0002493132326605894
0.031111562124354834
0.09839890302086524
0.015598912030081444
-0.0160005641077905
-0.00847172846786615
0.015476994092581825
0.02780996626516826
0.0018928898070927488
-0.08069192926437033
-0.024740932497182094
-0.01894422995494713
-0.037411520647954215
-0.04544216434513054
-0.008724060032262913
0.09588127160319772
0.07067552581614327
0.09169196917798147
0.11013128208544928
0.06179766602375288
-0.11660129845984889
-0.06789251154755864
-0.1970823425917805
-0.2621070343028317
0.02292969518482554
-0.029020672448251232
0.0949561859485711
0.27736192555742023
0.34560322747935734
0.061211491997238555
0.12754642709378053
-0.18511718442317598
-0.4040946159336593
-0.21916989114940033
-0.05873573584715822
-0.08430856408800926
-0.004464684624411873
0.29665201889644177
0.12500147929290992
0.14643390057640804
0.16895990817015347
0.14213883252076867
-0.026568819929134117
-0.24341166523318908
-0.3966696364571572
-0.33205206063904086
-0.043633655105490006
0.11677378762184402
0.4162830323212253
0.5140174785646419
0.24252586397407175
-0.1946033576597533
-0.409133272782231
-0.40702104689698415
-0.3721731354919241
-0.06514573300588498
0.36082826964819337
0.5332528979934071
0.4362584936175654
0.20218055865080084
-0.07431167498469184
-0.5027786148463269
-0.5567337694226828
-0.4431196481813964
-0.09509465134457143
0.2074794449719973
0.5969350151821646
0.5719660699525557
0.36517209672720347
-0.06339809191999932
-0.4050084804800193
-0.5631557225008046
-0.4134628111349699
-0.17875072677128362
0.1720699468857249
0.5034110347771754
0.48187022954733943
0.14904824145107806
-0.09069774302803625
-0.2648011976701499
-0.41503931395787846
-0.17835874645597513
0.024773169386193596
0.19057202786625668
0.32325882079060614
0.2243118642400952
-0.11345675864132922
-0.10377229527462987
-0.1585250682263946
-0.27848627784337776
-0.048777869707427944
0.1579043349730335
0.17147575143896102
0.21278141161589728
0.08588568231369208
-0.021738940551401038
-0.13106077466289587
-0.25918120089356794
-0.2087595667411583
0.03561761455729114
0.102151984860467
0.2199908525416094
0.20642234210489788
0.05919230208021676
-0.042410930735470906
-0.12814946761365748
-0.22335137841757088
-0.13743568579449858
-0.059713682521870134
0.03532437977389207
0.1750318565235262
0.17305865162442266
0.21768692124722586
0.06928156934758896
-0.13132178848024417
-0.2460319349438084
-0.12035985225920988
-0.16894600432175988
0.02921963724698311
0.12481611818904254
0.1844256162744766
0.07441431804564651
0.047902213871505804
-0.06186857645888655
-0.04146578266583243
-0.09263568390025576
-0.026278369332886943
-0.05780829312303164
-0.005357421214988854
0.10934969864837442
0.05899709763892655
0.009756608814548252
0.1232934129356765
-0.03769094326650924
-0.1014079508658437
-0.07893298041665425
-0.15940661955220492
-0.11121942732006698
0.10998554950669784
0.1484253847179728
0.2348624871634827
0.17823903840752722
-0.03392229791576572
-0.22622705599736523
-0.2212993937000566
-0.2274510870490596
-0.034075174569240134
0.18296281571300832
0.24856103741472216
0.17451762338780263
0.15138760601590487
-0.04991422984341607
-0.2674592029608872
-0.3336871905057661
-0.06386912220839795
-0.053097491704663026
0.3172460796735752
0.26764141262303753
0.21010529337344008
-0.054702425436654066
-0.13136083307241028
-0.41831027471179616
-0.29840859226440564
0.06181723869398998
0.10182311116674149
0.4494058919507324
0.5042666939340723
-0.16834264766834633
-0.2295418415913342
-0.14712388436067717
-0.37277482966205
-0.3259467588085774
0.40942790737852996
0.2753832539139486
0.12325285535750206
-0.0021260719646735353
-0.07150721356035673
-0.07228864449963049
-0.0038910524456252297
-0.07122807831576262
-0.07955571934905738
-0.032653053571623875
0.06528226180215792
0.005210972192613454
0.1687444414277091
0.1264371614099162
0.04101813814339595
-0.12423723271399607
-0.1943561667888903
-0.17309059035465293
-0.03938384056142177
0.0478207029759631
0.13767325564744204
0.27282753538958404
0.07782959110845576
-0.04516145948099945
-0.11227431829908933
-0.14809179143736903
-0.17494887475237106
-0.005998734064146215
0.15567421213128266
0.11279875047238862
0.06778050394191198
0.01830293262731579
-0.04329169321212766
-0.12712581740268056
-0.04143223156627563
0.010866749060658265
0.03313062437784594
0.03348154378114435
0.02189540734446606
0.007311065577727996
-0.004238227557603639
-0.010141682372622618
-0.010615661199146505
-0.0075260675221517775
-0.0031705224880086594
0.0006070114449453536
0.002826547967932432
0.003359315049585164
0.0026536263209292264
0.0013817068419485956
0.0001468280181495628
-0.0006801215934472574
-0.000991312040730048
-0.0008791823823449209
-0.0005341627892374103
-0.00014934950700606182
0.00014066920909372292
0.0002802882831548767
0.0002812172064532485
0.00019410797192914774
7.845983754135324e-05
-1.9182209624444915e-05
-7.498302467074847e-05
-8.690881828031323e-05
-6.735430241705367e-05
-3.397854650211196e-05
-2.2649754547671645e-06
1.8507751698892077e-05
2.5880302803393263e-05
2.2475082651993906e-05
1.3312175241114963e-05
3.3633784601399524e-06
-3.9803961035532955e-06
-7.3858980056340645e-06
-7.237580655872651e-06
-4.886873310140965e-06
-1.8756386033231643e-06
6.145580340099198e-07
1.998567219128391e-06
2.251079542032144e-06
1.7089101722823793e-06
8.329770360302923e-07
1.8996789495532307e-08
-5.019637724520165e-07
-6.750706955572836e-07
-5.740979974435692e-07
-3.311903384917703e-07
-7.421969234436584e-08
1.1151918659422096e-07
1.9426886995238564e-07
1.860498440304145e-07
1.228342875290058e-07
4.453250644042382e-08
-1.889843295076273e-08
-5.3140638279314424e-08
-5.823641117889364e-08
-4.330111437778857e-08
-2.03485870462137e-08
5.195729093037736e-10
1.3561651235264753e-08
1.7585013323104264e-08
1.4647297445233087e-08
8.221091813262553e-09
1.5914372787839631e-09
-3.099652848875055e-09
-5.1013372013878515e-09
-4.777154243692843e-09
-3.082393274960695e-09
-1.0488838700072942e-09
5.648650237414227e-10
1.409807344155234e-09
1.5048214864199156e-09
1.0956991502082363e-09
4.951647932227595e-10
-3.922158938400343e-11
-3.6511842166830027e-10
-4.574729768080508e-10
-3.732577739939486e-10
-2.0358038327404e-10
-3.2737290764276565e-11
8.557040061878619e-11
1.3374575823782564e-10
1.2252341560607412e-10
7.721704928161826e-11
2.447157068208838e-11
-1.6534268668045055e-11
-3.7326039214298085e-11
-3.8844535941383397e-11
-2.7694182631624977e-11
-1.2003334240594214e-11
1.669922503099174e-12
9.805442754638248e-12
1.1901883406583777e-11
9.523022303104124e-12
5.050657291682524e-12
6.414020532111269e-13
-2.361611831068437e-12
-3.5455775543917944e-12
-3.210694550336744e-12
-2.0106644043991545e-12
-6.175059106633003e-13
4.91514011256638e-13
1.1020800510599083e-12
1.2191637026697985e-12
9.702550582725254e-13
5.119630974843181e-13
-2.4363846716394888e-14
-5.398999807391054e-13
-9.4437581214143e-13
-1.1302460737163796e-12
-9.74142822765394e-13
-3.812810808434125e-13
6.344894107307623e-13
1.8677689348128174e-12
2.8869995988299295e-12
3.1001984950538755e-12
1.9484716869751986e-12
-7.961775126318106e-13
-4.719004763869008e-12
-8.586055919048219e-12
-1.0471185072200716e-11
-8.30105736187694e-12
-7.917787087000721e-13
1.1458223484628432e-11
2.516817899916109e-11
3.4432966995101047e-11
3.210898763474773e-11
1.2615665431756185e-11
-2.440665164202428e-11
-7.088836422599496e-11
-1.0941423859093248e-10
-1.1638106729342147e-10
-7.003795554062829e-11
3.771920469798686e-11
1.8943266638644634e-10
3.3584923352925905e-10
4.017379402069899e-10
3.07886897424716e-10
7.829734436693136e-12
-4.70248349988935e-10
-9.940706274763803e-10
-1.3320392557163092e-09
-1.209721893832473e-09
-4.202345547633944e-10
1.0345949745245603e-09
2.8239850992652593e-09
4.260280693276469e-09
4.430701775508935e-09
2.516508895012053e-09
-1.7489229067131332e-09
-7.628242022969542e-09
-1.3160761648635996e-08
-1.5418660776206304e-08
-1.1388513788230599e-08
5.933253173440154e-10
1.9237393527877347e-08
3.922251399619678e-08
5.1478038584597105e-08
4.547772142442186e-08
1.3582373231457085e-08
-4.3519668013871146e-08
-1.123182077983899e-07
-1.656970654826217e-07
-1.684000928148277e-07
-8.968136537141416e-08
7.892478439259831e-08
3.064995781738627e-07
5.15117183664991e-07
5.909636526647868e-07
4.195959617602076e-07
-5.802348705962889e-08
-7.842730217019422e-07
-1.5455560679943668e-06
-1.987032818629535e-06
-1.7055098932785855e-06
-4.2007557069498514e-07
1.8184856608245481e-06
4.460193873883058e-06
6.437165458385932e-06
6.3892785326836085e-06
3.1648419736830405e-06
-3.490850247160384e-06
-1.2289357244614193e-05
-2.013836829561214e-05
-2.2618628508698752e-05
-1.5391629322226535e-05
3.615427435641041e-06
3.187302910580022e-05
6.082462100375286e-05
7.660515561898062e-05
6.37928339282573e-05
1.2105668507704478e-05
-7.554806030851127e-05
-0.00017684703809562246
-0.000249789404769575
-0.00024196899133146663
-0.00011036337141977372
0.00015201667351212274
0.0004917668461022938
0.0007863518275699632
0.000864364288114997
0.0005616268760161833
-0.00019370568989264937
-0.0012921487578786831
-0.0023915849408785643
-0.002950801433633759
-0.0023805483719875004
-0.00030582082849618544
0.0031254501727693566
0.007012673128848394
0.00971114917704716
0.009213304820451403
0.003931258396721147
-0.0062722830802409285
-0.019170453954970558
-0.02989954271783188
-0.03184617307824345
-0.018957349518886564
0.010786203829187026
0.05167344863477725
0.08787266196915443
0.09403320926486501
0.039982795433325065
-0.10076512920341023
-0.14079303374177898
-0.07034534416818812
-0.05426697386686043
-0.03644262790789986
0.04852498958616724
0.058998872212840496
0.02952269906947593
0.15823624781852438
0.20257253978422984
0.08568911354818594
-0.08658694816058046
-0.20194701286947855
-0.3176531141484656
-0.24427618435729617
0.05709462616842103
0.2631958872215775
0.2670753664966652
0.15482180075832136
-0.011751408939542927
-0.2026139797616412
-0.21824083018356896
-0.08370359147871022
0.15777305033254496
0.2503232435718169
0.1314826612521935
-0.058923771777254046
-0.1666820844488205
-0.21076935711455508
-0.17560793563495994
-0.01233865781951802
0.14974634995551128
0.18459907238382497
0.1496051720102414
0.0709274039906823
-0.061880126871046055
-0.0914877885912837
-0.08138628246054593
-0.10181715661880131
-0.017047502902067475
0.12373123783640068
0.09170399888283136
0.08116542991282245
-0.08909213293057865
-0.175834887057271
-0.11454015313168574
-0.02769338501403633
-0.038853419455953705
0.10956831885939806
0.2394951530420956
0.3273577126216893
0.10645131617892299
-0.1166687260174038
-0.23507112291491697
-0.3118432823206715
-0.358384384434656
-0.1290086957193957
0.26537059033905513
0.3289503245007315
0.3484229037089839
0.1679123887368408
-0.020153789206118024
-0.26667019595854585
-0.2452794833959437
-0.22883874400905163
-0.0717857076232475
0.1967727373192464
0.16990013366166343
0.2544860397497955
0.0637216786373516
-0.185846465748409
-0.2730393013797862
-0.17038210517351435
-0.046578278666424965
0.12497480743330905
0.3540731551130175
0.22388408881160554
0.08968442867981515
-0.11076439184808083
-0.2374404566571962
-0.32586033923274726
-0.1711743023333591
0.07486005946495777
0.09247673888476339
0.17209462560439148
0.18977018903917547
0.18804363716365605
-0.03210369710577131
-0.10658167479971146
-0.09351542247325166
-0.05422460720358024
-0.2362429799617766
-0.06339534618282201
0.06476062069446803
0.16510072987335087
0.058592906342823055
0.15871899568744777
0.06517755909980967
-0.035058782968310914
-0.16032494533188585
-0.1240526631337299
-0.12644251700233913
0.048193368006309995
0.02712785205063334
0.03957604155136991
0.10539963668917006
0.22644117968277855
-0.016082100237828807
-0.0567523899132719
-0.13508541417141265
-0.0824357792567103
-0.11136903523445528
-0.011149332890529391
0.049361522025832986
0.11269011704583252
0.020780550868231572
0.0037678449676058147
0.072462313579278
0.016116262597876328
0.005637994706510205
0.0012352282330858543
-0.037504984664238135
-0.14177337796223274
-0.12674717958942264
0.01003529349618153
0.08469939377441137
0.11925315904087766
0.13351291405562055
0.14041835375317205
-0.053226841824189325
-0.24140468197330606
-0.21254345922629478
-0.1470205037495015
-0.02187828966085576
0.17769809462084493
0.44501766230506157
0.3441912366064902
0.014737812640471852
-0.2098047759718608
-0.3746071724718857
-0.4785639907139868
-0.26352116586267016
-0.02504291696540443
0.3564487178933375
0.5742633657645044
0.4592993858411114
0.16386705964686157
-0.027062171737634998
-0.4604664054719497
-0.6687061071835123
-0.3292146031735588
-0.04513694243245405
0.24729790703960128
0.4499245075264733
0.4656327257010501
0.1682291865400584
-0.21066637382420772
-0.27617086828158194
-0.25269981614365344
-0.1649170586233893
-0.02591637255067602
0.16362110700860888
0.2072251493267395
0.10105561259534195
0.025197408051667418
-0.058108249183419454
0.001376345872134248
-0.046804779335344195
-0.040512378536720454
0.006710283281689815
-0.0871034980540872
-0.07152867636098749
-0.0702940075119836
0.005210877114305297
0.037496365238542044
0.08330515740138433
0.15756054538419054
0.22581824023506258
0.20869551047613163
-0.2012371855152676
-0.3137512474975017
-0.21389171756071476
-0.1422955451047376
-0.08922126152456426
0.19659048276465577
0.3886697350487598
0.16114892934677097
-0.027390768898392558
-0.14018471934312113
-0.15942362234180243
-0.07886404871411433
-0.09730770555949393
-0.016426006829799715
0.15672578153025316
0.2050030274365577
0.0982182799534887
-0.004747121052372794
-0.14800995450822016
-0.1673822892481711
-0.08022343120127177
-0.08077831002365717
0.056937932445347846
0.16978935767518363
0.09333576952288615
0.05135408392465086
0.05056971030157559
-0.11825141128190979
-0.07420646417104482
-0.03810643444014205
-0.025400834510117674
-0.042240213481021346
0.11487033400058068
0.05677812940427693
-0.0016048023984498794
-0.04416378644775062
-0.05550576719123447
-0.022326888384079063
0.06517446289578034
0.011723356946037357
0.015756769678078642
0.06930877884957005
-0.040647948268918675
-0.12975603516322098
-0.013700601136584022
0.09343328341678843
-0.020527266108175193
0.03367806373883198
0.04648647970023551
0.01023640929429857
-0.0790557422259665
-0.01951792041850789
-0.001930215984936442
-0.009904258631844196
-0.022141634315941284
-0.016473127497647573
0.02519016091723813
0.11227985148368277
0.042860950639693716
0.004010807951528473
-0.024441437454863078
-0.06389367513452157
-0.13083208666123847
-0.03295922226033074
0.030876053821561715
0.06705260421737336
0.08166387442754974
0.07583057689815141
0.04420325627412679
-0.02239948469215925
-0.1311490141360419
-0.08066942918662917
-0.05688070869217089
-0.03351026548641306
0.022285667089860198
0.14086038082596877
0.14077121177496607
0.0227397674777906
-0.030767295462086154
-0.050200480848557445
-0.06992994883181268
-0.11889764894230638
-0.01403912139647994
0.04172787888779912
0.0570024333400053
0.04655451418906572
0.025509531718018418
0.005078511932851665
-0.009177737217706705
-0.01666383394906944
-0.019525869216452864
-0.020071433883356467
-0.018908231132314754
-0.014489689089670611
-0.004226244509757473
0.013240344085169817
0.03548989440288342
0.05468425809636151
0.05796427918168295
0.03049965342238183
-0.039168658131982996
-0.15306765042682297
-0.09951930724839407
-0.05314679661920907
0.019678235189419642
0.15105722022691095
0.16072516380632365
0.048314137216496654
-0.008071331435842129
-0.046178129794068844
-0.1087392193298072
-0.03107850678056035
-0.03108866956941144
-0.10446509106486918
-0.026420722536051357
0.040683490873422344
0.13603093365173352
0.08884534470581334
0.11042230746237637
-0.007708010071077544
-0.08914081789409418
-0.1635869262379294
-0.0571560008181115
0.014498088264985977
0.048256665295609596
0.05116876622012619
0.035580187271208416
0.014081775394712517
-0.004041573018954133
-0.014224409745468307
-0.016168206836587092
-0.012296800222711832
-0.005969069749619305
-7.582091105283082e-05
0.003693280202152776
0.004935521001200618
0.004187089178256254
0.002410006001475544
0.0005349430097725845
-0.0008180088584719985
-0.0014189592441320453
-0.0013567791788753718
-0.0008944136551188221
-0.0003230026312514856
0.0001392396990163167
0.0003882800776712197
0.0004247707195957392
0.0003153995066274205
0.00014784361107733385
-4.278185234773352e-06
-9.919799187889893e-05
-0.0001283251183369927
-0.00010673994786719333
-5.979790393664981e-05
-1.1449302113163147e-05
2.2712951726725456e-05
3.724628361170567e-05
3.482776435842168e-05
2.2437300770316292e-05
7.6008582539952235e-06
-4.156873017534306e-06
-1.0300226505670107e-05
-1.0975492452314543e-05
-7.980322455428825e-06
-3.596695294861438e-06
2.985364330913016e-07
2.6701093865283254e-06
3.338087742177928e-06
2.7198431254842545e-06
1.4805396962216281e-06
2.3471450849282022e-07
-6.267573560380369e-07
-9.7640518536786e-07
-8.931730308325563e-07
-5.619948142527753e-07
-1.772012728426316e-07
1.2152837914840068e-07
2.7265058774870487e-07
2.8325210337612694e-07
2.0163490389819978e-07
8.711765871367742e-08
-1.2507340239669797e-08
-7.164383592297547e-08
-8.67214257454358e-08
-6.92196617530921e-08
-3.656117064912603e-08
-4.496176141668425e-09
1.7194611523735746e-08
2.5557498357481783e-08
2.2879545092464027e-08
1.4050677737382688e-08
4.082953185450622e-09
-3.4971811771010595e-09
-7.2029164632054015e-09
-7.301626907210818e-09
-5.087252386776529e-09
-2.0997974146848122e-09
4.452513208641823e-10
1.9167617249005274e-09
2.250148516417221e-09
1.7594418902213395e-09
9.003141610589376e-10
7.596992313890768e-11
-4.693140100637848e-10
-6.679923030178164e-10
-5.854068309186679e-10
-3.5060710837609866e-10
-9.271203324282041e-11
9.937814223152832e-11
1.8993241641316732e-10
1.8800386764303843e-10
1.2815921953429237e-10
5.032988770561896e-11
-1.4609891613605477e-11
-5.114408083847625e-11
-5.831266449302408e-11
-4.466514413308188e-11
-2.21021102239769e-11
-9.336112518330638e-13
1.2751636511282305e-11
1.7434533598845396e-11
1.4961048106983088e-11
8.730737249454516e-12
2.066106183905122e-12
-2.795135130742799e-12
-4.999443458274075e-12
-4.835247972422874e-12
-3.2236085595730026e-12
-1.1986652670163757e-12
4.563627481164224e-13
1.361251307094334e-12
1.5093303295566516e-12
1.132371804646356e-12
5.407468843060284e-13
-2.222136959428568e-15
-3.450931717308615e-13
-4.5443856350979387e-13
-3.8192655545219167e-13
-2.169573989114458e-13
-4.4928584813876297e-14
7.792420124264324e-14
1.3135279218469462e-13
1.2419361199779912e-13
8.093061259702529e-14
2.831382666050992e-14
-1.3814214552132673e-14
-3.6169028385026186e-14
-3.904175627681334e-14
-2.8691623212320606e-14
-1.320230705810008e-14
7.088079827751435e-16
9.283495471830488e-15
1.18078132024252e-14
9.716680985078724e-15
5.3572425997347666e-15
9.219423606676184e-16
-2.1783195130566675e-15
-3.467110541392133e-15
-3.207835964130253e-15
-2.049888612748121e-15
-6.843934870073131e-16
3.866291545783207e-16
9.373556079491966e-16
9.871400019226482e-16
7.044348835813548e-16
2.995053775008614e-16
-5.649294964786315e-17
-2.7052131158860845e-16
-3.27980292717697e-16
-2.6845457942776747e-16
-1.5346973459726647e-16
-3.9248936879440723e-17
3.887146979048485e-17
6.978981978358037e-17
6.120045235930653e-17
3.0291384947067167e-17
-5.1019965759820336e-18
-3.229620735465406e-17
-4.582259797310118e-17
-4.6482894597903374e-17
-3.87963537216342e-17
-2.8225269305361775e-17
-1.9125383779455624e-17
-1.3794072870616771e-17
-1.250991692310695e-17
-1.4187208001505193e-17
-1.7215458446734948e-17
-2.0154207663468526e-17
-2.2119655856634552e-17
-2.285580111535359e-17
-2.2583820313814832e-17
