0
7.484653357449392e-08
8.398255926722641e-08
5.7031560629172244e-08
-1.3670539938574553e-08
-1.186749372283232e-07
-2.261436413305492e-07
-2.845444502666164e-07
-2.3661583967258342e-07
-4.4261023172007324e-08
2.8155343982128755e-07
6.577242804957625e-07
9.280959641945353e-07
8.980152223039708e-07
4.079144996897113e-07
-5.676853718419623e-07
-1.829789513245265e-06
-2.9227056552906562e-06
-3.2096225833583445e-06
-2.0813154158375767e-06
7.276051584093984e-07
4.808331300410144e-06
8.888001145567977e-06
1.0955464892548727e-05
8.823891359773894e-06
1.1065078646164279e-06
-1.1635593800610097e-05
-2.6039372739533784e-05
-3.597086923925628e-05
-3.393980566141834e-05
-1.4003683514244773e-05
2.4405266574280493e-05
7.30806216416659e-05
0.00011399323518049696
0.00012247492722524325
7.552192524312631e-05
-3.59023767672628e-05
-0.00019430705401672808
-0.000348896170944494
-0.00042127088271665813
-0.00032804467398042046
-1.9043646165859616e-05
0.0004786875745521612
0.0010293909956698784
0.0013923939794040319
0.0012798145661156138
0.0004710248168575334
-0.0010395900164782666
-0.002915059206117369
-0.004443004794801056
-0.004668691846619696
-0.0027245609640092804
0.0016922887248662453
0.007844399612943835
0.013715959891143605
0.016268374163581803
0.012350536985357314
0.00019532831980871403
-0.01889656725284684
-0.039412847577418024
-0.05191941263134377
-0.045510454914448446
-0.01254177175074723
0.04521528224751193
0.11095294376522552
0.15040683190979923
0.11508744575945028
-0.04788014682078647
-0.18091257348512163
-0.10038523971722069
-0.1859662724421291
-0.17973182817801378
0.002938852728230147
0.2527397393797251
0.24207360520811563
0.20516077188201573
0.13000844814384085
-0.03429020804255221
-0.1569557450854017
-0.298569031142474
-0.28724746245025334
-0.10659612343746504
0.10000763036245823
0.21013397676500406
0.0946744422871616
0.19109885290205345
0.08602007579039375
0.11223881587274186
-0.03878591027599073
-0.092171220877038
-0.15884285599684606
-0.10665659663320672
-0.1409267110773316
-0.1996669912148361
0.034611471453214034
0.10870625243984103
0.16405033454963108
0.10193897777430344
0.15729232922189992
0.08758812557157694
0.18014594376061158
0.07694162269896204
-0.18791842393043853
-0.34661127189111274
-0.26279731478972923
-0.31408607451972326
-0.19822047834529036
0.2375198311809553
0.5520166438832192
0.46532184780510977
0.2283130042879744
0.017354728867122592
-0.24511148169233277
-0.45295174542321387
-0.47671408256309095
-0.1371723427669109
-0.0015884056740997905
0.19682809104847002
0.32461042603156876
0.41250243760669614
0.23249934133860664
0.09662851550394305
-0.12111315905824038
-0.3465501117310361
-0.46379653970235846
-0.28504724610795784
-0.14288854402582507
0.09125931401129445
0.3680404878162733
0.41315339679725127
0.28801954440949684
0.17110983518037387
-0.034132197521571254
-0.2676554624130285
-0.2678440163271091
-0.3274571757161906
-0.263886650864975
-0.012252097476998717
0.1574359626105088
0.2051677314278246
0.27907572569515915
0.27928168561756517
0.03721675676030884
-0.08529008656110339
-0.1791823742327055
-0.16063498539380514
-0.14189805348426962
-0.008466672930557856
-0.007187025351748426
0.05397579205369784
-0.003131634473787887
0.058804333936830065
0.07733508621808072
0.07802810372503005
0.06808397501073696
0.03707233939199215
-0.03586841512115246
-0.17099319901657464
-0.17710261042165396
-0.04503994580707623
0.05188678553293951
0.15082598216889995
0.08869581105497158
0.0922032315339769
-0.027911268027635477
-0.0771021758115426
-0.07281255243999692
-0.03837446831132545
0.002405878402590862
0.028471636040633123
0.022432105152091767
-0.029952037349159664
0.05948566652341556
0.08137180726653694
0.03024068788676784
-0.09273922331900195
-0.07685939431838952
-0.10072726744084709
-0.13480524346905917
0.05171659456998529
0.2812665534351226
0.15916032795330406
0.0702207566277766
-0.01647550206623469
-0.13549351380458483
-0.30997907946653813
-0.13986194068607113
0.0014308969851443334
0.15998284943787253
0.18673918924781924
0.12090948550287489
-0.022576103290239204
-0.05783359422552054
-0.024558224538219982
0.021621957732501907
0.02192771972041001
-0.0725819476056582
-0.09033235942463143
-0.033002134890069305
-0.07520731916077034
0.029679958240313786
0.13899901000439083
0.10838673986953085
-0.01921325185102211
-0.020657894146764975
-0.09513187359395717
-0.06302450848027275
0.03735612465559111
0.1543633857170907
0.029082439559706925
0.003547837422804446
0.03105037723578903
-0.1130420099743494
-0.22289947296445442
-0.059624947298442206
0.043289932244245787
-0.03340829508242065
0.18700243665671334
0.15913568580621956
0.1029923730068493
0.0009132717210759474
0.004940688817049834
-0.14776841280014
-0.11632309585020578
-0.13996521092450628
-0.029128163010083374
0.034052449431244664
0.08655544973990473
-0.03006574492051969
0.1149923632201526
0.1301452324101811
0.19686032884183935
-0.12627827106069012
-0.0919096051399755
-0.1484065608571168
-0.1259610798595273
-0.22917268383527842
0.16145838019882863
0.2803674887323847
0.16460763811527243
0.044118087054000894
-0.06145122796013452
-0.139231030254995
-0.17644418594463626
-0.1555712071138491
-0.055303663174193156
0.14187285644900705
0.2383809243682386
0.21220141600713846
0.21540354616866084
-0.016236924984934255
-0.3441805470272943
-0.40524968953174956
-0.19613365790281026
-0.0718125342781714
0.2402201505453531
0.41511403200780117
0.3053007006598185
0.12502613673392696
-0.14932875955439814
-0.3643959417575209
-0.16794245860036924
-0.18986128911521033
-0.03368846137422645
0.11896091423493561
0.29428082013992285
0.10946399780032748
0.16076904618806673
0.021522974807738026
-0.14926613715950204
-0.19138865249585837
-0.12742897338876705
-0.15284496859943644
-0.03632420893554454
0.06929002750833613
0.20922212532869824
0.2086608013240107
0.26143452116325944
-0.06952910261033575
-0.03924892648741018
-0.29948639827286877
-0.2771024384890799
-0.16033169360930297
0.10154547678457322
0.18484780891921368
0.16939283615445722
0.11546876184464253
0.047198756245328925
-0.05344589688107539
-0.041554891864458925
0.004310565246925557
0.00013940663270308425
-0.12530885366601938
-0.015789066038248877
-0.07922829338217453
-0.08744723930820653
0.015956031357306586
0.10129766587614968
0.035494206244477224
0.06614687310570262
0.2112837360047882
0.057718422936632284
-0.031236608800980652
-0.10077068449194909
-0.18705087686745728
-0.3033930583543736
-0.035625150792949055
0.05092054566235
0.1948613551356522
0.21890368243475672
0.31479338764523274
0.03982651026388747
-0.07257858978542384
-0.29132982698607995
-0.26289944636315865
-0.1928144136090049
-0.04070686215816065
0.06885879284915619
0.22343872748209315
0.29567016826514914
0.12151018567932509
0.09106122965296122
-0.04532867354013862
-0.15840099833297883
-0.315700215758527
-0.16030507431922406
-0.09982884163571518
0.09112051473031697
0.25706840153344934
0.2427048915461505
0.07659984184267019
-0.036528541278610036
-0.1133500468198142
-0.18198926826066725
-0.06983732147848809
0.0058410813197987185
0.0416529198010241
0.04613246368384549
0.034123890874865344
0.020206222767691826
0.013449524212234382
0.014849212669888524
0.017821334927965064
0.011361658428028753
-0.015130508597460771
-0.06683562346129182
-0.14004815938552162
-0.021816296828444926
0.1066930678336803
0.06404764015675528
0.06199621418497962
0.1012540490026584
-0.028605988449207368
-0.14520244065173352
-0.06714928967745666
-0.00829589117382642
0.02541688451272963
0.035810161285990495
0.029871277043849908
0.016276869859808047
0.002451601215172414
-0.007061274626871537
-0.010835372056338761
-0.009799179968849917
-0.006053020853478157
-0.0017720767392203855
0.0015031316400053226
0.003114508689207527
0.003166903590878956
0.00221443400841664
0.0009220604945057126
-0.00018291170119839214
-0.0008249748020583326
-0.0009740071816041644
-0.0007646264229954666
-0.00039374940413272917
-3.632597065010462e-05
0.00020114063362382923
0.0002886646584725099
0.00025402638571042803
0.00015289495942404077
4.1227480698579456e-05
-4.2285109207554965e-05
-8.194133999946225e-05
-8.14820006282552e-05
-5.5783175452593946e-05
-2.2127888954028485e-05
6.0671801816037e-06
2.2015411298170125e-05
2.5241522621871538e-05
1.9411866862792032e-05
9.670107389247765e-06
4.907340531262151e-07
-5.470435255932096e-06
-7.536478678964178e-06
-6.493680273637682e-06
-3.808968072461462e-06
-9.225146768639702e-07
1.1915188009913267e-06
2.15760291173183e-06
2.0960852898128865e-06
1.403546823347421e-06
5.276879730091496e-07
-1.9104975601344161e-07
-5.862500073424912e-07
-6.535017302722697e-07
-4.922764752811685e-07
-2.3675875959305333e-07
-1.2554247275955714e-09
1.4814764332064407e-07
1.9648302627918154e-07
1.6579535094119353e-07
9.467460700561219e-08
2.0147046154022638e-08
-3.329552546979859e-08
-5.672911883264312e-08
-5.3863173692465736e-08
-3.524540372229363e-08
-1.2463516915414128e-08
5.847558798377513e-09
1.561204361578652e-08
1.691010043607511e-08
1.2429880011871988e-08
5.678072888292563e-09
-4.0571678206509993e-10
-4.150098326238053e-09
-5.205562730291641e-09
-4.175796691276291e-09
-2.0984209119506813e-09
1.0488067424086428e-11
1.4381435816902646e-09
1.8725606544303084e-09
1.3676944830112054e-09
2.4476903611079796e-10
-1.020134136147315e-09
-1.905102125013087e-09
-1.956706759687544e-09
-9.221996514371331e-10
1.1089239498061587e-09
3.598883154540836e-09
5.567565409445103e-09
5.789597390020799e-09
3.2165876202879876e-09
-2.436897570403313e-09
-1.01291045461666e-08
-1.723847288911533e-08
-1.9932133527603845e-08
-1.4340431223642187e-08
1.5682185157801437e-09
2.592640461932522e-08
5.1627510968767034e-08
6.678589258843383e-08
5.7817352365343945e-08
1.5144402534987375e-08
-5.976067477843823e-08
-1.4868895132739083e-07
-2.159540509292873e-07
-2.1583381315674433e-07
-1.0927691471596364e-07
1.1298080921581806e-07
4.0856190209814276e-07
6.743573743194245e-07
7.620900729490273e-07
5.251711021135107e-07
-1.0807882340609889e-07
-1.0556248224364108e-06
-2.0329257466783036e-06
-2.5756203669632183e-06
-2.1639999331838244e-06
-4.470047418497472e-07
2.4868780852889444e-06
5.8980961115642e-06
8.382598186577458e-06
8.1780811062368e-06
3.824544557507555e-06
-4.940727789710136e-06
-1.6358756009827953e-05
-2.6342266318356368e-05
-2.9138560655362283e-05
-1.9197887671965632e-05
5.973742559243169e-06
4.2811818678140444e-05
7.993344791742622e-05
9.92090315597271e-05
8.078087592194581e-05
1.1846393812128075e-05
-0.00010293755460377887
-0.00023361570087576425
-0.0003250130546062546
-0.0003092882140244693
-0.00013201564451418684
0.00021320396579106152
0.0006537114907116505
0.001027704859414065
0.0011122303649057973
0.0006975558722400364
-0.00030180245325820185
-0.0017328329401567575
-0.0031409746130342414
-0.0038190018530105865
-0.00300864307869987
-0.00024406615465877995
0.004249969592199914
0.009270198574047235
0.012663618969551555
0.011843201707535042
0.0048192790584805885
-0.008463537415395638
-0.024970472747771304
-0.03829033505278605
-0.03989683222885481
-0.02230094426584125
0.016233360790883916
0.06659833844223403
0.10529225645647214
0.09449497595990758
-0.01287339910477608
-0.06336409460300725
-0.09068133709777096
-0.10442014401590988
-0.08355574588366348
0.02289303563786619
0.0877546448439255
-0.007946217220123336
0.009097676605951224
-0.010168453842639086
0.15249330269915806
0.07888325374401414
0.11867033281375874
0.001665737693463695
-0.14424035768849733
-0.3741443298396368
-0.11208843766624507
0.05333935635505623
0.16267040092776172
0.2719126686706506
0.23785395260543427
-0.09197739299751123
-0.2825808869634772
-0.310407359825448
-0.16297654906054643
0.15699102658470945
0.42360474592183234
0.381508065674194
0.1484253630404683
-0.16953913338568505
-0.4527516401172781
-0.5424850240921365
-0.22660996558300872
0.15570652022535472
0.4910575123070244
0.4601212643692147
0.3109507521861102
-0.1518028071622012
-0.3588196888602515
-0.3551824728925245
-0.1776360579168261
-0.04012280131531525
0.2679929847201967
0.3734061019405357
0.10679047222521479
-0.10616909930524551
-0.24782922280052708
-0.3077603307200043
-0.08255500762767451
0.22068125696734317
0.3783899888438293
0.347407946794007
0.07044902302164324
-0.30782197485790697
-0.41867113499601083
-0.4509282099641334
-0.14665629414942682
0.18403431720327243
0.43247597632931556
0.4563699455651977
0.2541777659157294
-0.04039441822294211
-0.1412226170544614
-0.37616289832598415
-0.4491326470255386
-0.010705879005644648
0.15423487307007452
0.12032567732198374
0.20197836369945923
0.12798196411131849
-0.18259455502872593
-0.23946923835349793
0.005463921209482725
0.15006239376899536
0.3401289090190534
0.2765810897762114
0.03390152100251243
-0.3114947155893721
-0.44977448734040026
-0.41380531773747076
-0.17298825703391255
0.15096072203706523
0.450963797137812
0.5968505018904501
0.40851480825556236
0.05172194270307707
-0.3411580235761068
-0.6344456773165297
-0.6532957196192023
-0.36606700517566315
0.10527556536614423
0.6497849250690177
0.9228380852555459
0.7140503556761982
0.3458167561538147
-1.0929929123003705
-0.8910984350177377
-0.6621305064740147
-0.3211488226747784
-0.1038454487112993
1.1770833763591257
1.0605337061162912
0.37976392180814966
-0.15723003089892856
-0.34242982992353416
-0.40864790567789755
-0.759411889370312
-0.3122970830445949
0.12720551186543477
0.25638235930057796
0.2378408159824564
0.24892771727941457
0.2343171852314497
0.07407662954338567
-0.026986572117036308
-0.1295385911116471
-0.13547675031668102
-0.15783080727042856
-0.09323931017394174
-0.003055219745142135
0.09434896244654986
0.020852320315875948
0.028389560299051767
-0.015135690167386718
-0.040776857349403214
0.007921709388272349
0.16452768396463097
0.034061817980965234
-0.006653325670639429
-0.002386883452873365
-0.007928272748909915
-0.07419788181917229
-0.03531878029008726
-0.09978355945823425
-0.04805186448514758
-0.0375579442792008
-0.014353082696897676
0.07124220139827496
0.24912032106249396
0.11878927081500579
0.04765256222384171
-0.020396653848719287
-0.1481524898558262
-0.18521463174216565
-0.15153461333942625
-0.029871183906771074
0.03032100253998202
0.09881084997475365
0.044694330556812746
0.1165523322564967
0.12823221858054573
0.054179324331675
0.03579649349689163
-0.002500552816977109
-0.1315301250634573
-0.1958024262599344
-0.19865846997455466
-0.09931198163513152
-0.02389457261654129
0.11171685338594066
0.17369802286033764
0.3857228680841824
0.3170755931655581
0.08933380848076856
-0.19840413289116773
-0.43295499017804157
-0.45195476108317056
-0.4241588992222511
-0.054458207111520975
0.38616689639451424
0.6157148056575061
0.49810125295207935
0.21891627937414587
-0.11027255142784416
-0.4207809844960755
-0.44106064796662564
-0.4537330257583833
-0.07082984685417457
0.16512462978368886
0.356615028251709
0.2137428009344237
0.21757333928369268
-0.004459403297058096
-0.08549873943176028
-0.10915609001852575
0.012719312025698015
-0.03216934519458788
0.07072180740944828
-0.11521415535460894
-0.1647476187938546
-0.18983521308272328
-0.05238827176458844
0.009957395063349589
0.14930765378277583
0.27172833932739027
0.20930216499804138
0.10802168039449826
0.03580932683052599
0.009726544756708816
-0.16366452752368943
-0.24440328356730062
-0.3226082096049809
-0.19885839605451364
0.01310832921977973
0.062064153882070906
0.320307428172255
0.34132394593149695
0.22613265734347257
0.007125797165428957
-0.14796125241496363
-0.31612713952219984
-0.19212069322696532
-0.06410852945923615
0.0012958817245790812
0.1629559903978869
0.20100691646902824
0.10978980320317544
-0.10729864843434515
-0.038907473626048836
-0.06379198151288012
-0.1487914670580546
-0.04972741977762296
0.0832577162338156
0.09657900416929567
0.022885938923381147
0.07291353332698866
0.0322630480579376
0.06432471523703331
-0.08121104424068235
-0.05637361936455546
-0.1026530691745942
-0.04185538588845884
-0.07259467840433238
0.02677402645699452
0.08998291222411203
0.15229239713861562
0.04108693118368815
-0.02949862095721809
-0.05887378652165652
-0.05624403340209746
-0.03513165761563459
-0.008489225074545326
0.014203076035014589
0.02766268735752515
0.03006323414718593
0.02188548146831129
0.005221345376813352
-0.016164754640151994
-0.03635320645397853
-0.047148023388298946
-0.03914087311239348
-0.004332891071218294
0.06015903718718027
0.14870513880417832
0.045945987433759786
-0.0708331745790274
-0.0257524794126737
-0.03652219125754312
-0.10747464551306432
-0.026019781061646666
0.035950238034859826
-0.08432629395780976
0.04959226702987425
0.06244844038504926
0.15858629016018425
0.11858424479352547
0.10330190033114234
-0.13480617672050724
-0.23618418866443688
-0.21992904318871934
-0.07661281024807598
0.028374383606724618
0.14175445920833238
0.3045204722287428
0.1364094555696713
0.028891967574051363
-0.05064968116816807
-0.14549297276794118
-0.2924951875683445
-0.10820181352311037
0.016596418676299036
0.11232196290546093
0.2187907312077438
0.17160417989691276
-0.007692141869525474
-0.11463303714325637
-0.15862173871026847
-0.1568409006642948
0.07084887291965682
0.1039460748149532
0.12093617329862476
0.09903103682333128
0.016438003635858445
-0.1422870645242201
-0.17967637440663703
-0.08099581302970268
-0.015186386395938912
0.057996637610421765
0.17666333381109559
0.1654322520109552
0.02845581145016374
-0.05050042331763937
-0.10122406592396077
-0.15651367756517306
-0.04217817427516838
0.02894182059748419
0.05759616207280852
0.054377145872835965
0.03398186282678196
0.009933759243121029
-0.00868040673609081
-0.01807493205652108
-0.018763832426832217
-0.013655929583240403
-0.006176160770563861
0.0009836204206009665
0.006300808347052672
0.009213311773985542
0.009627960870875208
0.007524515254440508
0.002904064749117652
-0.003884474933726361
-0.0116331518194994
-0.017936174228147906
-0.0194139387543015
-0.012749431741612173
0.0035273942735380083
0.0269907961473135
0.04987045565351051
0.059212236817612535
0.03937783892666966
-0.023169817667674678
-0.1339764608595717
-0.08578974619490562
-0.05725959831542154
-0.01661120573003804
0.07017169959670475
0.22918567575271903
0.07021477046179063
-0.01652351389694995
-0.057131721007269085
-0.08564295692243193
-0.13385593971307921
-0.02314048588511183
0.039251197804274586
0.058898788408652265
0.0494110163659613
0.02652186493814403
0.0032710295936704808
-0.012544876469088763
-0.01858129026442961
-0.016519721997073314
-0.009990376848749925
-0.002692274034123773
0.0027972113718645686
0.005416871919557788
0.005395177219586601
0.0037039627430368784
0.0014810576947151943
-0.0003864453381674251
-0.001447341797945907
-0.0016672915233564892
-0.0012866271699334556
-0.0006446359463492958
-3.746542543193795e-05
0.0003583603595881045
0.000497046399908893
0.0004297942600605422
0.0002532140222410489
6.25232733559419e-05
-7.763172970150128e-05
-0.00014210605276927435
-0.00013858919498060932
-9.314826122941525e-05
-3.5350062287642185e-05
1.2243966118399768e-05
3.854027370149606e-05
4.316081939533258e-05
3.2625627153718125e-05
1.5786298510783476e-05
2.09490950413332e-07
-9.710813201871454e-06
-1.2958496877518405e-05
-1.0971831007136797e-05
-6.293693260172505e-06
-1.372819860313868e-06
2.1656532704518798e-06
3.7252093050408178e-06
3.547005874800389e-06
2.3275744726358885e-06
8.342252708953299e-07
-3.614028765526478e-07
-9.919640768903387e-07
-1.0687974312066078e-06
-7.783198298661332e-07
-3.5995796493785195e-07
-9.172307105321655e-09
1.7386164204226763e-07
1.895981703390214e-07
1.1072522520150587e-07
3.6753095432185054e-08
4.727732406019974e-08
1.6626755189361272e-07
3.4627280429427306e-07
4.782018903106718e-07
4.2818600968114647e-07
9.648469553828274e-08
-5.15834183313568e-07
-1.2565524046613793e-06
-1.8182374594339272e-06
-1.8062522900179845e-06
-8.858568733027007e-07
1.017959940849601e-06
3.534673076706963e-06
5.77481137915639e-06
6.469305091216396e-06
4.375858212638e-06
-1.0929908215514979e-06
-9.200693987898218e-06
-1.7481926573512592e-05
-2.195482501496874e-05
-1.8203550866285697e-05
-3.3027781166630813e-06
2.187558465587225e-05
5.0888260130615905e-05
7.166240090537025e-05
6.917790680351339e-05
3.115901472875237e-05
-4.428308114500314e-05
-0.00014169054583725493
-0.0002258084044547063
-0.0002474681709752772
-0.00015974350709154029
5.7621536214944045e-05
0.00037274846540985866
0.0006870720606808474
0.0008452046208288814
0.0006785273309911735
8.06029145269854e-05
-0.000904282482538747
-0.002015455081657927
-0.0027786885356543703
-0.0026158625103944204
-0.0010693335132769784
0.0019031054363491966
0.0056672857178646265
0.008834419834403598
0.009510593000284793
0.005941685808929059
-0.002534559916251394
-0.014521604081877602
-0.026055051764888985
-0.031080757909191552
-0.023285803696484763
0.0007770440945629156
0.037951821915963864
0.0754252539668041
0.08995301162078218
0.05063231380891072
-0.0746121058048402
-0.11027126512289898
-0.06507886444393804
-0.12765939305685858
-0.0682020835626738
0.15378311002902095
0.1780527378838894
0.03275827887970765
0.12840248851650918
0.059082473468798025
-0.18947731621329367
-0.22845581605286
-0.05600951072013357
-0.05341170016806671
0.010792631133559294
0.17017691763011913
0.24772350103108456
0.0462806625994387
-0.053909336741401775
-0.08981137089953857
-0.1048755313158138
-0.13745304682307088
-0.012568470633291884
0.0606737629136299
0.08634670269827947
0.07598664651644449
0.04299474595448615
-0.0005124438521289954
-0.04372216442770466
-0.07502055682742281
-0.0797912633261991
-0.04014803258753067
0.06234771668447645
0.041467158960179835
0.10044665673963396
0.02785459540990405
-0.0029961379512417965
-0.030633549828634896
-0.09902291462488037
-0.05009739657101319
0.0828847810657522
0.08012047392200237
-0.06182437431980466
0.07145756396055382
-0.0877294301197839
-0.0912370703014168
-0.08026359976304484
0.005749598937665043
0.017243747107325718
0.18212440440002786
0.09651433611072954
0.12243211181892838
-0.0053818350440841285
0.03600109115587983
-0.22170621325206183
-0.2180187210520284
-0.15060556355778587
0.026190807478762814
-0.00985794289145494
0.230368325386256
0.22331758027622836
0.012625971675740538
-0.0017249004909853788
-0.0629747882863627
-0.04742752918193129
-0.048295461318590686
0.042297213394755694
-0.05027787254907365
0.029286911147040004
-0.12683439819978146
-0.0891419734962661
0.0029084454338078377
0.028801527936139316
0.07156425556422276
0.6029362461477418
-0.5269988788820426
-0.0937263324358803
0.10322811021909825
0.04430402477101917
-0.5061514131911447
0.6033189439179197
0.11488632933852104
-0.03243257579954056
-0.09265172602277626
-0.09978613130982883
-0.05584188143570461
-0.12480662194976591
-0.23648452769215822
-0.10151366526479261
0.1643876054329934
0.21262392528988858
0.43915274856281367
0.37658100855494303
0.10720501807444566
-0.30355259185742406
-0.5622156109681826
-0.5060317079596394
-0.28135573740211905
0.04852591806085787
0.2669111734469602
0.5499882944364853
0.41372904730244237
0.2788420731684603
-0.13537298724869032
-0.18758595284843368
-0.2703407869202764
-0.35981375884714734
-0.17409126991612392
0.049789035929850387
0.15662806463958928
0.054917446471245
0.0871894947683122
-0.0027449379729430293
0.10131258764319037
0.06768292960472481
0.10779775119199424
-0.020911042000491455
-0.001637326086322605
-0.13779444662518942
-0.13049317902764737
-0.059096697715882766
0.031126952576620116
-0.06750800268893525
0.07022640546281274
0.09219463938268743
0.056416827635143225
0.019644635092456567
0.029218984619277504
-0.08112399039293061
-0.09229158101529022
0.0007146173893255222
-0.010433448684652251
0.05323687510285395
0.15932337736269456
0.06751580911621685
-0.0638496674516787
-0.06876542316185003
-0.16454126093912216
-0.1462971154389645
0.012224924011402504
0.15097870363240198
0.1113673541311561
0.12371186693195634
-0.0012855661002926459
-0.07471538440441225
-0.12556529737556402
0.006973753777259456
0.08228079700453284
0.06629583264282161
-0.06204626983963003
-0.10638334763736128
-0.051325477985910306
-0.06469532064196759
0.09615363490603648
0.07522447804894722
0.10860694769519769
0.017989530979854704
0.008878790977397313
-0.12639388639374732
-0.002559540666592636
-0.034750704634973824
-0.033590057908509545
-0.0032964916059874897
0.0571176282128148
-0.04957269078131417
0.07695441700660996
0.031002530076340178
-0.0008116800788058806
-0.038664063944119365
0.09389924526042609
-0.024762190546955377
-0.008393615282528877
-0.05767015454441474
-0.15767130703188054
-0.07972056336967337
0.011678690931662152
0.14798148013496212
0.14514750398353496
0.1961666296053808
0.07145654673676693
-0.07165554801075279
-0.27289687764330695
-0.1521779786893601
-0.09863413640707881
-0.07051135399777071
-0.0069462038845585165
0.15160616498201884
0.24080357575088887
0.25557430326576674
0.14578164735824534
0.027556508325831498
-0.19187181239683163
-0.38329730570088794
-0.36919268411033934
-0.11183187229477573
0.0789248451078711
0.3202218628719985
0.32185828726012566
0.1547390697131052
0.03214498378418242
-0.09148876750475823
-0.10582369435910971
-0.11998559027929304
-0.03581051973544604
-0.12585240117205612
-0.020697377362353168
-0.10736279646565212
0.06208895522467749
0.15490537954402658
0.2398107717172581
-0.027811450924716898
-0.013991439049773444
-0.10668473468990335
-0.11081505380331572
-0.04136977058889015
0.08240798771881654
0.04037880962081501
0.012777938411088008
-0.019447346657471526
-0.07431131847249232
0.031839752113910706
0.08530215676851112
0.07655111402783045
0.0026477955607016514
-0.1297303105490216
-0.10197022087656415
-0.08399895231050539
-0.03916635233197127
0.06663894443755897
0.2541307287623806
0.12216573425917508
0.045759187640092576
-0.01748237928595713
-0.11398736967750006
-0.27850300478454737
-0.12201847654753231
-0.02827461021335663
0.03937845747524091
0.1231217390496227
0.2534646732834595
0.23655329220585067
0.05143336660034653
-0.14099739981962506
-0.18043030693702491
-0.2879983172706967
-0.253734575975648
-0.036539021953965294
0.2224437705849974
0.37792605640864085
0.25899215034552514
0.05711684734102598
-0.07129031570111138
-0.18911709740766508
-0.3563632820966852
-0.21063987186890304
0.04222324185843355
0.2248164078071725
0.1750382133062006
0.1300009097431998
0.1139401938487649
-0.06579699670937406
-0.2148009263615692
-0.1432763975216841
-0.05831979593654942
0.03940449653683811
0.1537082961479872
0.08770904245413401
0.03891054030116002
-0.0026285459415999243
-0.052177217303142974
-0.12549183857591847
-0.03366556488927846
0.020039833656320092
0.04028265686990388
0.03708702685989929
0.022108146999249793
0.005296262200111116
-0.007042173407623097
-0.012574661297492996
-0.012057144667038272
-0.00789148815841024
-0.0027413921499965105
0.0014050280902191499
0.0036091640949703525
0.0038881941257283403
0.0028570778440987904
0.0013158340187180186
-6.889870819340105e-05
-0.0009233877375512843
-0.0011761416192023412
-0.0009693997330565756
-0.0005363820943978896
-9.519655119630182e-05
0.00021360494220849956
0.00034236539584347103
0.0003170663921192877
0.00020218300503221869
6.644305555161023e-05
-4.016474607889851e-05
-9.509566783357664e-05
-0.00010019942172743106
-7.21839939795676e-05
-3.1948673284495986e-05
3.4722427788974246e-06
2.4801739469072762e-05
3.056395411604951e-05
2.467932929532404e-05
1.3260265318501656e-05
1.9000965410593172e-06
-5.880420475493462e-06
-8.969791544189775e-06
-8.127548844222281e-06
-5.060254429124005e-06
-1.5415437286953609e-06
1.1655723259397244e-06
2.5150135345537857e-06
2.584611222479391e-06
1.8226999543058856e-06
7.722439784131476e-07
-1.332266074369387e-07
-6.646106164848977e-07
-7.935965239936458e-07
-6.277484644547406e-07
-3.2706314741227725e-07
-3.482237456523741e-08
1.6094712280293873e-07
2.3462960737199591e-07
2.0808683539289315e-07
1.2640436503865286e-07
3.5303534377788414e-08
-3.334910871509709e-08
-6.63902774180419e-08
-6.65956104106587e-08
-4.596040831873478e-08
-1.8573170578392797e-08
4.546306723102869e-09
1.7756167055830278e-08
2.057665882868496e-08
1.5943893211861118e-08
8.039776327073384e-09
5.304526993101579e-10
-4.3874723604604084e-09
-6.1321852560548035e-09
-5.325037986947427e-09
-3.1549187870432353e-09
-7.990925781457185e-10
9.396312988991481e-10
1.7457123889089273e-09
1.7103176799102577e-09
1.1535255575535307e-09
4.404469704044102e-10
-1.491641372025886e-10
-4.76796883735926e-10
-5.365015585090692e-10
-4.080603167484302e-10
-2.006230915901125e-10
-7.886231094890666e-12
1.1544889710107218e-10
1.5641183597271052e-10
1.3248141195902835e-10
7.49525529794779e-11
1.4103618097323054e-11
-2.987181645278395e-11
-4.945807697045149e-11
-4.7504868173926546e-11
-3.253186160431655e-11
-1.3989687102937267e-11
1.0289181298138112e-12
9.134842382458736e-12
1.0339212451190913e-11
6.8011483238181235e-12
1.365620235394222e-12
-3.5755713950965948e-12
-6.66318830270111e-12
-7.615179317489462e-12
-6.91902203993296e-12
-5.39709689651107e-12
-3.8272512493227194e-12
-2.7166021277487256e-12
-2.242833025952004e-12
-2.3197758407852816e-12
-2.72118272788081e-12
-3.2027217724899072e-12
-3.584807454781357e-12
-3.784821130430848e-12
-3.807261447551982e-12
-3.710346752138128e-12
-3.5681319701550056e-12
-3.441600241961449e-12
-3.364447592248231e-12
-3.342597153977613e-12
-3.3625520910441055e-12
-3.402736455361757e-12
-3.4431902591063293e-12
-3.4712000256290555e-12
-3.482601811474082e-12
-3.4799397176735164e-12
-3.4692089700059295e-12
-3.456718991306997e-12
-3.4470105710188736e-12
-3.4420894823133777e-12
-3.441732044281964e-12
-3.4443736633127808e-12
-3.448089178278223e-12
-3.4513255970616645e-12
-3.4532496756462872e-12
-3.4537434091763618e-12
-3.4531781492664323e-12
-3.4521190855016766e-12
-3.4510778158237913e-12
-3.4503724994492684e-12
-3.4500996892962367e-12
-3.4501856117324513e-12
-3.4504717253993725e-12
-3.4507952903261768e-12
-3.4510416563674994e-12
-3.451162352499174e-12
-3.4511658962889566e-12
-3.4510942082038145e-12
-3.4509972721560515e-12
-3.450914587861088e-12
-3.450866704263201e-12
-3.4508557717366223e-12
-3.4508716286253577e-12
-3.45089949163633e-12
-3.4509262629931087e-12
-3.4509439956299104e-12
-3.4509504796320533e-12
-3.450947824310365e-12
-3.4509402141805947e-12
-3.4509318419830107e-12
-3.450925598259101e-12
-3.4509226482545236e-12
-3.4509227022001857e-12
-3.450924640040071e-12
-3.4509271656252888e-12
-3.450929275558254e-12
-3.450930464561304e-12
-3.4509307000949643e-12
-3.450930258886185e-12
-3.450929527056299e-12
-3.4509288395422837e-12
-3.450928394452946e-12
-3.4509282415452496e-12
-3.45092832119271e-12
-3.450928523150742e-12
-3.4509287395237804e-12
-3.4509288975471517e-12
-3.4509289693747303e-12
-3.450928964265226e-12
-3.450928912067918e-12
-3.4509288463527743e-12
-3.4509287925760203e-12
-3.450928763122104e-12
-3.450928758242669e-12
-3.450928770433993e-12
-3.450928789625085e-12
-3.450928807260932e-12
-3.4509288184134106e-12
-3.4509288219859855e-12
-3.4509288196484414e-12
-3.4509288143002413e-12
-3.450928808714787e-12
-3.450928804720899e-12
-3.450928802979452e-12
-3.4509288032062395e-12
-3.450928804607687e-12
-3.450928806315381e-12
-3.450928807684346e-12
-3.4509288084121068e-12
-3.450928808507218e-12
-3.4509288081723694e-12
-3.4509288076698826e-12
-3.450928807218013e-12
-3.4509288069390754e-12
-3.450928806856538e-12
-3.450928806924008e-12
-3.450928807065355e-12
-3.450928807209371e-12
-3.4509288073101677e-12
-3.450928807352187e-12
-3.4509288073439133e-12
-3.450928807306397e-12
-3.450928807262076e-12
-3.4509288072272703e-12
-3.450928807209338e-12
-3.4509288072076744e-12
-3.450928807216823e-12
-3.4509288072299607e-12
-3.4509288072415254e-12
-3.4509288072484886e-12
-3.450928807250369e-12
-3.450928807248447e-12
-3.4509288072447187e-12
-3.4509288072410093e-12
-3.450928807238469e-12
-3.450928807237461e-12
-3.450928807237736e-12
-3.4509288072387377e-12
-3.4509288072398864e-12
-3.4509288072407706e-12
-3.450928807241211e-12
-3.4509288072412334e-12
-3.4509288072409846e-12
-3.4509288072406417e-12
-3.450928807240346e-12
-3.4509288072401728e-12
-3.4509288072401304e-12
-3.450928807240185e-12
-3.450928807240283e-12
-3.4509288072403784e-12
-3.450928807240442e-12
-3.4509288072404664e-12
-3.4509288072404575e-12
-3.450928807240431e-12
-3.4509288072404014e-12
-3.4509288072403788e-12
-3.450928807240368e-12
-3.450928807240368e-12
-3.4509288072403747e-12
-3.4509288072403836e-12
-3.4509288072403913e-12
-3.4509288072403953e-12
-3.4509288072403966e-12
-3.450928807240395e-12
-3.4509288072403925e-12
-3.4509288072403897e-12
-3.450928807240388e-12
-3.4509288072403877e-12
-3.450928807240388e-12
-3.4509288072403885e-12
-3.4509288072403893e-12
-3.45092880724039e-12
-3.45092880724039e-12
-3.45092880724039e-12
-3.45092880724039e-12
-3.4509288072403897e-12
-3.4509288072403897e-12
-3.4509288072403897e-12
-3.4509288072403897e-12
-3.4509288072403897e-12
-3.4509288072403897e-12
