0
5.996141940226838e-17
5.996940070495863e-17
5.997507602542768e-17
5.997430999738585e-17
5.996374137527343e-17
5.994288884181082e-17
5.991605980967967e-17
5.989300717630342e-17
5.988728364401488e-17
5.991176822261e-17
5.997192818345138e-17
6.005882268446198e-17
6.014514606659383e-17
6.018802507787967e-17
6.014111169030506e-17
5.997540739621508e-17
5.970362440777351e-17
5.939813103865462e-17
5.918991351297852e-17
5.923804718719575e-17
5.966760507977406e-17
6.048828356707849e-17
6.152265565086088e-17
6.238499805307131e-17
6.255048115358577e-17
6.153307308661437e-17
5.914758463897517e-17
5.577555231446639e-17
5.25061552706585e-17
5.101018544553982e-17
5.3054236520408147e-17
5.968570023082731e-17
7.029914527596707e-17
8.197533532475614e-17
8.957687843415408e-17
8.699254240320534e-17
6.958373578934263e-17
3.7325257773847613e-17
-2.504527499278971e-18
-3.4671387706508255e-17
-3.887510088452393e-17
3.1866777045774213e-18
9.763905222707414e-17
2.2834327396971993e-16
3.5192758446471845e-16
4.0335473607079355e-16
3.1539822723091667e-16
5.0502053098211006e-17
-3.6348932579325224e-16
-8.090927906966656e-16
-1.0850553595837421e-15
-9.569127481795704e-16
-2.532608299513709e-16
1.0131711748753009e-15
2.5449171924498096e-15
3.74110097460792e-15
3.817450341123337e-15
2.086352310135473e-15
-1.6481745314024153e-15
-6.708538567491678e-15
-1.137045595225815e-14
-1.3105176919522068e-14
-9.358763412023893e-15
1.2039031446532423e-15
1.7333710147547567e-14
3.4312931701170783e-14
4.426692039755728e-14
3.82125038872737e-14
9.841635872785237e-15
-3.981715610799429e-14
-9.864727319541057e-14
-1.4297946861645856e-13
-1.4255097467695133e-13
-7.1592469641986e-14
7.586418931611757e-14
2.715515371424477e-13
4.470258217533798e-13
5.040777867752652e-13
3.458551854671213e-13
-7.46189930415421e-14
-7.023462524775377e-13
-1.3482671189825826e-12
-1.7046199946279392e-12
-1.4277133643974525e-12
-2.864484842928373e-13
1.6584385557615336e-12
3.9149187156380515e-12
5.551815206180683e-12
5.402809642245449e-12
2.5047418110480346e-12
-3.309807887955833e-12
-1.0868138456840307e-11
-1.7457509475166074e-11
-1.9268143061657816e-11
-1.2633998225216356e-11
4.077107086870556e-12
2.8478611764222346e-11
5.300874982902141e-11
6.565327904432871e-11
5.328196613301453e-11
7.471652425905581e-12
-6.861052599552347e-11
-1.5504059513413587e-10
-2.1523045729945584e-10
-2.0428680743456347e-10
-8.631478312788325e-11
1.4266940929388153e-10
4.3425303429539184e-10
6.810729476716552e-10
7.355094923535759e-10
4.5907006372156985e-10
-2.0406155312882878e-10
-1.151529982767817e-09
-2.0814431851084945e-09
-2.5253331630697864e-09
-1.982339794386308e-09
-1.4724255590902345e-10
2.8255658788377708e-09
6.131393455324496e-09
8.334361926170984e-09
7.708674138215377e-09
2.920840821337128e-09
-6.085443618486342e-09
-1.732023567075316e-08
-2.6540317227447706e-08
-2.8032461410563497e-08
-1.6575777632067398e-08
9.699569866279308e-09
4.644581633149628e-08
8.163136720973939e-08
9.701025715615279e-08
7.350708528799686e-08
1.3629491526833636e-10
-1.1588834493498799e-07
-2.421453653783622e-07
-3.2235216596239644e-07
-2.9025237921214136e-07
-9.647914857128995e-08
2.573127773973888e-07
6.896480146431185e-07
1.0330527466319406e-06
1.0666727581473492e-06
5.941308330951062e-07
-4.454877181529133e-07
-1.8689885262966001e-06
-3.197661268487255e-06
-3.721670338865753e-06
-2.7157226691410455e-06
2.1246643836319025e-07
4.735559780326304e-06
9.550225207573598e-06
1.2452944056334434e-05
1.0903449698580097e-05
3.0811589536695646e-06
-1.0799884149703542e-05
-2.7415532134375376e-05
-4.016453407986765e-05
-4.0519619995576474e-05
-2.111197297510427e-05
1.9964884294749297e-05
7.504503798389439e-05
0.0001251119832739465
0.00014258208209713368
9.992565771952899e-05
-1.6734584675797705e-05
-0.00019286041659171793
-0.0003761698250507652
-0.0004804955134870608
-0.00040858291788264744
-9.358598472923596e-05
0.00045033580048576595
0.0010879709763931414
0.001559419510453382
0.0015357929209635862
0.0007412474102112253
-0.0008802734276870705
-0.003009774720299508
-0.0048925327587526135
-0.005456669505713796
-0.003656341204560472
0.000999619248528997
0.007887087308062994
0.014932542534318185
0.018802267793895603
0.015825145277807946
0.0036170974551397493
-0.01699598854485863
-0.04055610826733096
-0.057097975219500045
-0.0547669747511818
-0.025291017525661565
0.02838249285880143
0.084235851410534
0.09608019693954634
0.19440026411665176
0.09539657107641879
-0.08173280039437178
-0.19229600854023568
-0.24425681901131005
-0.38396497270353347
1.105293571715248
-1.0095468551352522
-0.13646791015641577
0.3079002588641791
0.6608670308613244
-0.8204780106439571
1.0177858111258136
-0.1793710995331919
-0.46272938953619824
-0.3490539537461344
0.2202738943072085
0.9279959572743793
0.9359473311338896
-0.2545739008225573
-1.1450104207725478
-1.6044898386530402
-1.08514947845197
-0.9084451601520876
0.7802173550775907
2.0226293745553896
2.8847606260125276
1.9862532349718556
0.7679789885335463
-1.902871478553035
-3.4457005613635268
-2.8929275286101097
-1.9297346170321803
0.09017113007391436
2.3547385961602245
3.4967256708459176
1.6950372859088185
1.4754130556287146
-0.5310804973811843
-1.4743348651418586
-2.272617685623386
-1.7853126169031366
-1.6503381622562772
0.9672009176377433
2.715626316652
-0.2706819657228036
1.0962856204929006
2.775936473790936
-0.8048359403890417
-4.283111145695906
0.9449604640220742
-0.18473259262709435
-1.7663808983482623
0.44886544254089916
2.9778157340151075
0.5166075112230476
0.27686247967766014
-0.6291222585241435
-1.1564941497246117
-1.07506827056996
-0.12854769272430994
0.3719635660990461
0.31796326148373394
0.753311167746141
0.6286784802359516
0.382740137132578
-0.4392825073675832
-0.5341180910957818
-0.3730945803772097
-0.34141256305417333
-0.30294077367886374
0.0003027122074749966
0.3162388381107946
0.4301904993710757
0.30884956821050247
0.2575717937806949
0.10217508943095548
-0.20230248658276911
-0.3420733975571182
-0.20632878216333583
-0.25364059669116895
-0.09330115873832397
0.11426478276180146
0.24056986159121982
0.16318158827041973
0.14030060643675882
-0.006381761709788487
-0.09661760118186201
0.015375505731383443
0.05657222107060051
-0.04492851690432626
-0.14013989481423705
-0.043726430370251874
-0.1263951224554566
-0.11738003453510659
0.08291949288971137
0.1827225346875339
0.07591319427548018
0.022097496560274436
0.03445252750084304
0.07787449761074841
0.07748451888303412
-0.0644522926938906
-0.04678941844259223
-0.1478800966270395
-0.2095965319212236
-0.2317161215502065
0.021085825420225583
0.2013644105878597
0.3562447980664997
0.30886588426340744
0.2521528772610953
-0.04151938218670493
-0.5984362850679317
-0.6198850477525709
-0.4699249578427205
0.11614214685422111
0.6033504455419236
1.0209945743649422
0.5376988282576244
-0.1368207757615435
-0.7202305564658548
-0.7086147064107473
-0.7320795291484125
-0.13543026157373197
0.6073655544867602
0.8520555647250412
0.5352345098539326
-0.06160108301967148
-0.32309408350712215
-0.4876577534391008
-0.4235696132090699
-0.20774885200485693
0.6840034193585122
0.17555409679030068
0.18509404570178148
0.024438098912335882
-0.3928380854061709
-0.3362527030950788
0.35844274902113743
0.5032649761699606
-0.032493885380186764
-0.3176948015205902
-0.5626186173046961
-0.5363295680647664
-0.40372608443286034
0.4191828009881769
1.2044770378968377
1.2683511704271233
1.1673233441118513
-1.8541078729814573
-1.3753473897004684
-0.7027325791472153
-0.20043640767730836
-0.07141219261892098
2.2142217491806897
0.866103956171323
-0.47628889546288494
-1.3742635093005002
-1.2051406195372771
-0.17908771441276955
1.0297660100079487
1.2431404821017098
1.1513955866493877
0.32377087125923815
-0.9344075865480074
-1.6920143945571606
-1.1034653767320586
0.04265593071750568
1.7173110449775038
-1.2085560068851926
0.3465682859256243
1.1847728720786221
0.7637519457893971
-0.8250038706106043
1.5725236952170418
-0.5546285350868189
-1.4870306496126005
-1.587267119703462
-0.651914953661432
0.6773950848915652
1.848772927687393
1.1104777159488655
0.23666186452501975
-0.5030119215131929
-0.7260606034009397
-1.0914259633624275
-0.4541632797824999
0.35673606631294313
0.7310810601865788
0.651498856749915
0.26828864082806286
-0.10830114971630289
-0.39317824494483294
-0.49614290873078454
-0.2905595908463386
0.005519192964328627
0.229188886252625
0.2557221807485727
0.1733336601464564
0.05966160490468209
-0.03296709216730063
-0.08128029361945258
-0.085865386123153
-0.06132610441195766
-0.02616765026054053
0.004574315302242432
0.022801430806158634
0.027336513094989384
0.021739629759167347
0.011446708289858486
0.0013762269347396732
-0.005420829246484158
-0.008030412135899589
-0.007177849386087602
-0.004400764620328407
-0.0012718543318457265
0.0011041480768808364
0.0022629969885255238
0.0022904472172977012
0.0015935218590658173
0.0006556123788873984
-0.00014229284341943165
-0.0006027946510096755
-0.000706207396451388
-0.0005514274271562582
-0.0002815426321013505
-2.298340571407374e-05
0.00014778426223723153
0.00020975298319525517
0.00018355686389369343
0.00010974397136115453
2.8818786281399074e-05
-3.137212249032085e-05
-5.9674611755161954e-05
-5.897463348787378e-05
-4.0141942750697394e-05
-1.5708493086621765e-05
4.6498044592071225e-06
1.6081361698962723e-05
1.8299974689347057e-05
1.399738076574951e-05
6.9102242398138435e-06
2.7112213624300896e-07
-4.014238104672019e-06
-5.474010534874653e-06
-4.6907298692578e-06
-2.7324292685047213e-06
-6.412957645538102e-07
8.818178087898195e-07
1.5705776955241602e-06
1.5166368366269103e-06
1.0095805322188351e-06
3.7393352340545443e-07
-1.4486695387954732e-07
-4.279589512200927e-07
-4.736337849403236e-07
-3.5484299759038703e-07
-1.6903041197443547e-07
1.2483885847770052e-09
1.0860111210076979e-07
1.4266276370802502e-07
1.1972902410147847e-07
6.788341111469507e-08
1.3910911306455415e-08
-2.4577358007431428e-08
-4.12665354954265e-08
-3.895847312269658e-08
-2.5349832517349716e-08
-8.834396966145174e-09
4.370348839856924e-09
1.1362718170914522e-08
1.2243877811875956e-08
8.983470086308594e-09
4.119209844013277e-09
-2.430703925157585e-10
-2.927458791966405e-09
-3.7131195511612217e-09
-3.0523927243472764e-09
-1.6825117440384398e-09
-2.910850530843842e-10
6.800923132356656e-10
1.0825238951146255e-09
9.995995816069019e-10
6.354296679400265e-10
2.0686216695465265e-10
-1.2881397013416743e-10
-3.0104180453151887e-10
-3.1614454890005137e-10
-2.2711873206863146e-10
-9.996723942353003e-11
1.1658789668714119e-11
7.865342899965292e-11
9.651742540409867e-11
7.772410310744113e-11
4.159649701131274e-11
5.766310946042748e-12
-1.870292911055669e-11
-2.835352063185665e-11
-2.5618457035905673e-11
-1.589933701882777e-11
-4.79176538405852e-12
3.73073272826979e-12
7.960011660180628e-12
8.153948668136215e-12
5.733988982665008e-12
2.4145949137676714e-12
-4.3893091704675884e-13
-2.10788440555227e-12
-2.5067440634982864e-12
-1.977281173815792e-12
-1.0251168699891224e-12
-1.0202466868436555e-13
5.149596101331478e-13
7.455427172676987e-13
6.588513385862839e-13
3.9711098845760956e-13
1.0484545995499699e-13
-1.1638274455985558e-13
-2.2313058980923088e-13
-2.2177306767525583e-13
-1.4832826166268955e-13
-4.736220038575243e-14
4.3084286001190734e-14
9.847994183534423e-14
1.0841347711076616e-13
7.423874218451008e-14
6.747441318038907e-15
-7.496213606683863e-14
-1.4440964709536324e-13
-1.7083855070720434e-13
-1.267355753113489e-13
-4.268797357019494e-17
1.9193344247669107e-13
3.932885771019655e-13
5.130852080872665e-13
4.4819682660425327e-13
1.258950325165984e-13
-4.4316189334649826e-13
-1.1217039063082472e-12
-1.6395920119722923e-12
-1.6493246807180843e-12
-8.519904091673439e-13
8.274295361766315e-13
3.0731604991431036e-12
5.10732494595239e-12
5.8049279526592984e-12
4.046665742276966e-12
-7.262381406791796e-13
-7.911333110990245e-12
-1.5367807549291772e-11
-1.9578566069349438e-11
-1.6584639129505596e-11
-3.6797296028437455e-12
1.852899610008467e-11
4.4496891207787986e-11
6.3608455121673e-11
6.246555440018918e-11
2.987513385613556e-11
-3.635474853380019e-11
-1.2311016744707765e-10
-1.9955011223965672e-10
-2.22016152898529e-10
-1.4810848974715104e-10
4.1688096221990364e-11
3.211038636232741e-10
6.044553136619597e-10
7.543860132466744e-10
6.195658080562697e-10
1.0115833558362266e-10
-7.68001566661142e-10
-1.7631634297205123e-09
-2.467028553600187e-09
-2.363641551317835e-09
-1.0353992926272087e-09
1.5740598633150006e-09
4.922404253381564e-09
7.788379819242789e-09
8.479599059029045e-09
5.393120388472001e-09
-2.142675461579706e-09
-1.2996530728381124e-08
-2.374536962450848e-08
-2.903101108422892e-08
-2.3077584261351738e-08
-2.295544251684172e-09
3.16803225473771e-08
6.9764187547978e-08
9.557202825774973e-08
8.92598791820314e-08
3.529504632340475e-08
-6.738669876554113e-08
-1.9645870169440624e-07
-3.0362961942987395e-07
-3.2337157588431665e-07
-1.9520889133555794e-07
1.0354593443068565e-07
5.246779724183856e-07
9.31677104303566e-07
1.1157634651204819e-06
8.56830415339769e-07
2.5342746494442558e-08
-1.3012555102672892e-06
-2.756569767355054e-06
-3.6981050417408012e-06
-3.363642122252526e-06
-1.177381623287194e-06
2.858087594305729e-06
7.827349788089095e-06
1.1823463091185665e-05
1.2312223174713923e-05
7.016983364998113e-06
-4.809877353676487e-06
-2.11310188939144e-05
-3.6511700831873454e-05
-4.282616570203933e-05
-3.170021122470105e-05
1.506055895056129e-06
5.324409084153466e-05
0.00010877288332091379
0.00014292715660567856
0.00012646872630210637
3.8131585218738817e-05
-0.00012027052708319134
-0.00031134183669018136
-0.0004598811553301746
-0.00046799948453722813
-0.00025019389747421876
0.00021732364415408408
0.0008490779691823679
0.0014290280809782403
0.0016412414858840022
0.0011675975837384957
-0.00015672124704140054
-0.0021730275079452693
-0.004289528179464556
-0.0055214533077191695
-0.0047479207569040595
-0.0011845164725542865
0.005036505404581262
0.012402524410230964
0.017970439620147577
0.017996018122628913
0.009327734640449807
-0.008679030804503962
-0.03237485576055487
-0.05312904363068873
-0.058763817206905676
-0.03772976771101065
0.014256668174988862
0.08661393139276868
0.14794358565789822
0.14472489007803824
0.006792422066197683
-0.14044452379290429
-0.15984683143981546
-0.08724829704733837
-0.12184318770302044
-0.02503311584093926
0.4726703662889032
0.059883010848449277
-0.1682268483987109
-0.3210211216370294
-0.5225322252337418
0.27797163537384123
2.096584817348689
-1.4878288209718347
-0.12426374960366021
0.5300631791924836
-0.5697701940801645
-2.04658957760989
1.4904358162539448
0.4204462348367857
0.6814400382775297
0.7571436192629121
0.6972413181420074
-0.6263905162688385
-1.2436465114922006
-1.4218263941882272
-1.2484663343322489
-0.6847372475900836
1.3138807292077828
2.4448028833430584
2.531637279499427
1.6823182526477618
-1.037288514880958
-3.4322802362211147
-2.5752022104149725
-1.8552363896271924
-0.3445667905821361
2.306419331320307
4.292606742743384
2.2804490755665854
-1.0834755314767273
-1.946908479124564
-1.7345681635258063
-1.4051685734480814
-0.7515025618440315
1.2172390959334187
1.0123916984264705
0.3552572847409528
0.26437327906677316
0.5788036626489793
0.3385935549260017
0.22586661435358002
0.25517624664580457
-1.1108003573983452
-1.8536301987862798
-0.9355520659468023
-0.10641952044472848
0.8152285568326435
1.4119424815911368
1.533877242512951
0.8106907333865324
0.04038383019935377
-1.543116325594006
-1.1517060899120248
-0.7193721810131114
-0.2155077652815448
0.18151388865418944
0.8523806232226815
0.667801684462731
0.3111743194459447
-0.18303582787955036
-0.46374871026308245
-0.2722043323315024
0.16564260024182498
0.1545116771192942
0.14881272338215165
0.17511017057159858
-0.14168203752748562
-0.35061833845362683
-0.15077070107103102
0.022898500840235855
1.0314285360695233e-05
0.061979986717502523
0.12016957058692193
0.0910291695217795
0.07405590834251849
-0.06324391752271703
0.10847428303807442
-0.01729353038359607
-0.07415378785827287
-0.11070266404074139
0.02150549884589176
-0.12311309064696863
0.019889057580975856
0.024112892461318116
0.06802547954004573
-0.07010710036734914
0.18493341417713183
0.20732457368719798
-0.02136976207254093
-0.09771272582510986
0.22110992525775347
-0.16785660478604109
-0.5084996308523151
-0.5984583114747901
-0.42505127532649334
-0.22343897585398845
0.8545305448531658
2.284062639742184
0.3530496755568739
1.4119953347808
-1.8114078937460074
-1.8625536156204516
-2.4275806607032
0.3270028771753423
-0.6883638018337863
2.176284035793377
1.523285285618108
1.133192458332381
0.05898182286081089
-0.3831645975883892
-0.5319601299526969
-0.43932402213830407
-0.5109836920963425
-0.36847273061609204
-0.36061344762030273
-0.13870653753278805
-0.095959688148533
-0.05972986824356779
0.38413545804697763
0.7615307392866513
0.8032770500548992
0.3855440621643115
0.13089471776143935
-0.5326289621468611
-0.6730325265713237
-0.7454220944236273
-0.3020918451447982
-0.14207437627752592
0.4943534010700204
0.695572835751352
0.6314643063117498
-0.2920689804188246
-0.4662716246868684
-0.5012303926563467
-0.4445852512172865
-0.2050417733623351
0.8198028636400405
1.3225392200034434
0.8894857437653486
-0.3577786633796705
-0.6848116373969317
-1.252649219669298
-1.6473151185814943
-0.6633454095159449
1.0447305346579676
1.4574126545797315
1.871181871368515
0.6128436080831009
-0.37989331003113497
-1.3092083887559065
-1.6275564275872114
-1.3512637377216343
0.5860446598696984
1.7286453318827557
1.4602054490290848
0.16558810842005195
-0.3789069433443385
-0.9816121301481986
-1.396516730273807
-0.6983941419527125
0.9063623860401137
0.8316597193543599
0.6455882125186451
0.4151434701039233
0.08506431858644684
-0.10154025976566788
-0.34982640280382765
-0.6477822798198068
-0.9135279629551907
-0.5763810226987399
-0.2014791758648708
0.8489869325101571
1.7422853203728712
1.1243111174443867
0.5228022350124967
-0.3834981499299363
-1.6465562831482363
-1.7234945074443577
-0.7946645612055778
-0.16403254221185953
0.24815895407230543
0.9433370752352246
0.8602156935270476
1.6237147042870843
1.2751512837457126
0.5103552225871235
-0.5784498022615907
-1.8946038132911946
-2.526097718069681
-1.6016858512795218
-0.26500460664756853
1.222832618300161
2.088775930603283
2.231966051934391
1.0629647903308033
-0.14919937323803034
-1.2122270091581113
-1.2612858419650481
-1.5851053628812861
-0.8888246797121397
0.16556434199157577
0.932760797910498
1.0946024436194766
0.9490988750764157
0.32011353084641275
-0.28587995607819433
-0.672392700703952
-0.7109347842033222
-0.28958770676394124
0.12590262447436096
0.3079827032840089
0.26222433313241406
0.21127297124641306
-0.021414759361922966
-0.22153757535545104
-0.18674969267029606
0.07484979979970557
0.14726350085083587
0.008836362770715962
0.03479962466713698
0.0010511504586936298
-0.11099333159554019
-0.10991390274947802
0.007958650960419788
0.057372214423224946
0.05987470910139785
0.03810458767909702
0.010757134795696835
-0.010286995645486054
-0.02029875744305893
-0.020089021408974155
-0.01349511287491763
-0.004971907928657759
0.0020629092837142716
0.005924469661039147
0.006549567846366554
0.00491744468695626
0.0023581113372092106
6.143965134114349e-06
-0.001483080010532912
-0.0019628042784142078
-0.0016544421840621283
-0.0009436203490765155
-0.00019976363617663746
0.0003330903528384521
0.0005663174614999137
0.000537260679366728
0.00035132460412572815
0.00012411436580451768
-5.835648548239584e-05
-0.000155617383101923
-0.00016863308008230435
-0.00012428450842364184
-5.746822758824149e-05
2.729230213345409e-06
3.996756874756942e-05
5.1066883442063586e-05
4.216594552155485e-05
2.3385590071560448e-05
4.210323044872334e-06
-9.23549191893657e-06
-1.4863317598977238e-05
-1.3789501012397139e-05
-8.810139316119568e-06
-2.9122792226607686e-06
1.727648032252435e-06
4.124785406987523e-06
4.355334427842314e-06
3.143107950635635e-06
1.395984431223541e-06
-1.4479175711262884e-07
-1.074550883222918e-06
-1.327773332965033e-06
-1.0739636039006592e-06
-5.784792629699165e-07
-8.458261003036086e-08
2.5429994636775165e-07
3.894269002699083e-07
3.534937842445986e-07
2.20529206119456e-07
6.76308095348931e-08
-5.0202875837763084e-08
-1.0910623622254075e-07
-1.1235457385474202e-07
-7.93749771445593e-08
-3.375651943233474e-08
5.633982192020566e-09
2.8800860641390073e-08
3.447850818557206e-08
2.731981997813864e-08
1.4271624538329238e-08
1.565914230485177e-09
-6.961057233028775e-09
-1.0185290885592011e-08
-9.04949089964886e-09
-5.510000924338295e-09
-1.5542197294472782e-09
1.4309684827755114e-09
2.8716021433884427e-09
2.8873819708994587e-09
1.999484179166668e-09
8.19873337769945e-10
-1.7421260413844146e-10
-7.412614891974816e-10
-8.655706594359857e-10
-6.793943991302814e-10
-3.656159587515808e-10
-7.818717943934845e-11
1.0071065721036546e-10
1.6510479573785874e-10
1.6127191625012217e-10
1.504710198404037e-10
1.732993308652522e-10
2.2733990194498569e-10
2.6508307377869174e-10
2.1372261260971878e-10
1.2418589893180894e-11
-3.438246478850667e-10
-7.702686269693732e-10
-1.087816280996475e-09
-1.0634101644045126e-09
-4.990812867040246e-10
6.472068002358422e-10
2.1499722551087234e-09
3.4734277335134497e-09
3.8574497718630185e-09
2.5637923176123265e-09
-7.462738272160453e-10
-5.612810872200189e-09
-1.0540586524541802e-08
-1.3135608283607995e-08
-1.0763840329184952e-08
-1.7103817838969762e-09
1.344173653297687e-08
3.076512487676867e-08
4.2982507684051844e-08
4.110890095916737e-08
1.7888511573924377e-08
-2.7625726124424773e-08
-8.594363177015758e-08
-1.3575665134746937e-07
-1.4757940891798593e-07
-9.353461013945594e-08
3.797510392056595e-08
2.2710237761418733e-07
4.1408480502589774e-07
5.055290300285738e-07
4.0091628597842326e-07
3.800410131746004e-08
-5.542827089378527e-07
-1.217190408494661e-06
-1.665016386878652e-06
-1.552223625289377e-06
-6.089979789574427e-07
1.1818305247381554e-06
3.429683498408762e-06
5.292048651566746e-06
5.62736896249668e-06
3.384048229939703e-06
-1.829086850421886e-06
-9.166679340089121e-06
-1.624572909294538e-05
-1.9427483464526407e-05
-1.488180415216178e-05
-3.636439320520691e-07
2.2760516592827183e-05
4.8089853152085884e-05
6.442155309556364e-05
5.848454549933856e-05
2.027924898023886e-05
-5.0095575464200754e-05
-0.0001366301035142288
-0.0002060581076253774
-0.000214235011838998
-0.00012157901417332615
8.477391035729744e-05
0.0003691225779992514
0.0006366060766860984
0.0007456148638904015
0.0005504442092816161
-2.927689702980111e-05
-0.0009310560600489057
-0.0018974134399998685
-0.0024895978284489645
-0.0021985999063392713
-0.0006552291047389587
0.0021067740090476923
0.00543347066651816
0.008012984228442785
0.008140093637200571
0.004328263938667641
-0.0038307950722060854
-0.014839863682783838
-0.02492744171775334
-0.028584881011846103
-0.020269714147461034
0.0028887018555125463
0.03813486671767297
0.07519836652375209
0.0970223930025171
0.08426948560885453
0.023567460448843894
-0.08242829708322386
-0.207140355052929
-0.29966845882928833
-0.2967878547128401
-0.14930134310396076
0.14074506982235052
0.4821568783254582
0.8715966758753284
0.8021005065257545
0.1136783476564546
-0.5166502980879428
-0.4646764941631141
-1.061205169074523
-1.9427594998741362
-0.27802944824448833
0.7233528081489683
1.040806663869752
1.2572814713593399
2.0139327463970105
0.35056465397161835
-0.6496649327216695
-1.52734644802207
-1.4708393697381645
-0.9534670714537475
0.17135296526408633
0.8999725675388889
1.0463876963268777
0.38017070336493514
0.7679898727939741
-0.061161228340017075
-1.1268428864974693
-1.8015287332187666
-0.4335065371849692
-0.206104381580674
1.5700689377605384
2.9598919364092984
-1.45707135654087
0.22288304130252073
1.1164720602671292
0.9037293663915734
-4.797106875582514
0.9231413342163158
-0.45135163823753216
-1.477091466253283
-2.069350733473223
3.5056182937934457
3.4192461051524887
1.9211784576322994
0.2939662333293714
-1.8569469361383706
-2.4144390386628225
-2.5419424742701686
-1.5435186928195614
-0.04783375790766486
2.0813039510497884
2.55852898950831
2.0969146858383043
1.5136425094498025
-0.8354556662762926
-1.9027796321457253
-2.136064922800352
-1.6884550535481622
-1.3251385276887904
0.5365270655883414
1.465074182620427
1.7853152370591816
1.757083537557295
0.6329039972321712
0.03608780245331584
-0.7396795624156861
-1.1450019672735348
-1.3612635835670321
-0.5187617381777762
-0.19104520837620484
0.015570096148072204
0.18483184115850088
0.3529935015826307
0.5481978925443928
0.8454614240776582
0.8702413528942098
0.5717228955406534
-0.5303049715040622
-0.8411061604155603
-0.9622144436986804
-0.7781258602959087
-0.5916378989703933
0.4769668554708982
0.8339749772487363
0.7249963213161397
0.5496787810918315
0.206484647522855
-0.31911084043720905
-0.5268780818233149
-0.35131206529563613
-0.30968398181923146
-0.06621213453041908
0.17911284379788028
0.07826704471447882
0.10772261057529003
0.13686635391897145
0.20272117627385372
0.2985749016088308
0.18014485673930378
-0.21207647908888544
-0.32129207484493294
-0.545412409107718
-0.6236199046622147
-0.04740483583612192
0.5042766994041755
0.9174595907644848
0.6030901981876912
0.28391877031355245
-0.18217178376665405
-0.5485038137653884
-0.9156513382347243
-0.8833926694045058
-0.14033413641550238
0.3009108665677985
0.833388779777071
0.5758550209680743
0.9141820814239611
0.6887190947553722
-0.36349013381852774
-1.122580598208557
-0.7842306488539288
-0.578849734178673
-0.7422027739206762
0.04903057696779554
0.5848456637182702
0.7997169901110627
1.0587499694251652
1.0899447453278261
0.5877619452292203
-0.5088808036021919
-1.686724917885186
-1.7195838069572207
-1.3701943129651961
0.032818058724839345
1.7396127511296862
4.277094244347606
-1.2483914971069991
-0.600870607767975
-1.0076718388193977
-1.521948967680645
-2.79653674951623
2.701164991050473
2.033780280467065
1.129461274324406
0.3518818115680287
-0.6677137707111387
-1.542177818334841
-1.418427227518237
-0.4891453058712191
0.6434902923456804
2.547830609097746
-0.894054911995525
-0.3529077229823652
-0.3112827435241429
-0.5132874356394916
-1.6105983394466212
2.594780600926929
1.9225686226852752
-0.7785883220602753
-0.3732144230108914
0.8655217236480777
-2.4195847507748027
-1.5634052538331127
1.1747313513005677
0.3927638600014132
-1.3387654912438254
1.596807988283166
0.5270812417139213
0.3791273156995157
0.4175236842567976
1.2451488880323658
-2.136601713849304
-0.4278252941832669
-0.12030241725294694
-0.20710188773831312
-0.729118212453714
2.239734013035481
-0.02113716820574923
-0.9074171699854248
-0.7249812747548446
-0.533013745567938
0.20020678636949352
0.931792313809718
0.9844557779894895
0.7147781134106674
0.12662412838431647
-0.8693613571772066
-1.1687686615720176
-0.9905514048743073
-0.42916719860643915
1.342304010673045
-0.3758668247183687
0.9212053790363451
1.2842023310735182
0.48543553388846455
-1.5605493584261285
0.4598799322225878
-1.0718018128564364
-1.055662255643555
-0.46438833986046957
0.615684869370132
0.9044751034820006
1.2364287047143436
0.4907445345564438
-0.23137585249093964
-0.776706055746598
-0.4718261990160791
-0.4431670967142653
-0.15080089690431653
0.24874639343836213
0.3083766428769051
0.07258665259596186
0.04746655323647398
-0.03137256481751232
-0.026867863568030666
-0.02212525938593513
0.0649611489233427
0.07418594238034866
0.002730982741650877
0.011929293734586363
0.040103114067022584
0.0193928055449292
-0.10647568092036543
-0.1671995103514442
-0.15750040277698665
-0.03815286845507098
0.05310828018198956
0.18358728685446857
0.2060712862956636
0.14413790822003258
-0.012858801011419728
-0.10387469303260209
-0.18211307772665525
-0.09832212894911924
-0.08729283698099191
0.03855639877618076
0.08774294731669768
0.08251905376778859
0.04951479515096114
0.011692589485453353
-0.016282157040449125
-0.028878136377013423
-0.02769668455986547
-0.018167160559985965
-0.006363345163372443
0.0031610053968835613
0.008244265316112017
0.00891331734892039
0.0065692503949191195
0.0030432450179294903
-0.00013439944157202742
-0.002102306684762526
-0.002691781846145824
-0.0022254869330565123
-0.001236614662904598
-0.00022542358300667125
0.0004846085273653598
0.0007827096748176043
0.0007272320106007424
0.0004653441947360613
0.00015452379214284388
-9.033223784423681e-05
-0.00021709561827564294
-0.00022960820051443127
-0.00016592774818475575
-7.389407122233204e-05
7.381364773940561e-06
5.650587671528462e-05
6.99689538965552e-05
5.666950592113666e-05
3.058345972141442e-05
4.54111812782162e-06
-1.335291259649559e-05
-2.0511381109431777e-05
-1.8644852251103202e-05
-1.1649889067897077e-05
-3.591173679997411e-06
2.627707099645049e-06
5.743248409204971e-06
5.923681676929684e-06
4.190694579823724e-06
1.7874015370531155e-06
-2.906123463251049e-07
-1.5148320489413478e-06
-1.8170802966689786e-06
-1.4417127678719795e-06
-7.546405653373222e-07
-8.45872617847998e-08
3.657579102964957e-07
5.366561781597487e-07
4.774471349026248e-07
2.9110315070203197e-07
8.242273775912331e-08
-7.531895483422531e-08
-1.5164188260448498e-07
-1.5264857482093792e-07
-1.0568585090588191e-07
-4.301518492192479e-08
1.0052202253556237e-08
4.049546516794517e-08
4.713058552648721e-08
3.663237169525211e-08
1.856684199966531e-08
1.3464683369430968e-09
-9.969393065443196e-09
-1.4020667928753053e-08
-1.2212066823431739e-08
-7.259662565757831e-09
-1.8623373471394965e-09
2.1334837327540853e-09
3.996520420699381e-09
3.929119597238361e-09
2.6612733592489373e-09
1.0292053509510151e-09
-3.243997030308722e-10
-1.0797220573835127e-09
-1.2209590719461664e-09
-9.295991866784656e-10
-4.553718629212622e-10
-1.3313323808299063e-11
2.705457133270793e-10
3.657913415157053e-10
3.1199394651027843e-10
1.8066664109684093e-10
4.1234338319012866e-11
-5.984778241012678e-11
-1.0514428634810078e-10
-1.0101846771649607e-10
-6.690776324924742e-11
-2.446104108437155e-11
1.0024238348400335e-11
2.8718619372169385e-11
3.159210426671821e-11
2.3559068974467403e-11
1.1129959403135918e-11
-2.0500530873851892e-13
-7.313132647714575e-12
-9.530281628554163e-12
-7.961355583334236e-12
-4.4860639284575526e-12
-8.882248774949897e-13
1.665257200217126e-12
2.7616936339221888e-12
2.5943040777372084e-12
1.6794390992555848e-12
5.768955275149706e-13
-3.005985223233534e-13
-7.620701095323484e-13
-8.164096011595543e-13
-5.961963904323586e-13
-2.7093109840073854e-13
1.9378753290315302e-14
1.9704496724065973e-13
2.4803635032880625e-13
2.0297524735455921e-13
1.1118920504559442e-13
1.845969689992697e-14
-4.5951366228673266e-14
-7.235924755966418e-14
-6.648639435680775e-14
-4.20195727278951e-14
-1.3417001475168894e-14
8.883411865309233e-15
2.0242370951706386e-14
2.1136235951159912e-14
1.512970017351731e-14
6.630003331375158e-15
-7.967921879360866e-16
-5.2288582175560386e-15
-6.384012130464773e-15
-5.1055303391199656e-15
-2.6858558774239504e-15
-2.9862040814023866e-16
1.3236890876962642e-15
1.956123000525102e-15
1.7650152980044865e-15
1.1124130964289293e-15
3.7130334038942023e-16
-1.9471176081528268e-16
-4.734398176112515e-16
-4.834757394881451e-16
-3.2037026928564826e-16
-9.857194596117526e-17
9.12012799224371e-17
2.0153487943772428e-16
2.2719913104057713e-16
1.9128703710272397e-16
1.2761150231187185e-16
6.62246081602454e-17
2.5427816218959778e-17
1.0380655113846194e-17
1.6318370800918838e-17
3.36825017543602e-17
5.286199248893388e-17
6.720948013752665e-17
7.402566145552009e-17
7.395103488965102e-17
6.953959731726423e-17
6.37596893018823e-17
5.891621885990437e-17
5.617558572195973e-17
5.562009824193274e-17
5.662045227235768e-17
5.829331182429542e-17
5.987005167265518e-17
6.089430538170143e-17
6.124959139420116e-17
6.107080840442348e-17
6.060984830934597e-17
6.011408286182754e-17
5.975088695779382e-17
5.958482664095678e-17
5.959528347602226e-17
5.971416885432663e-17
5.986458970205827e-17
5.998805922933666e-17
6.005597468058861e-17
6.006756115265029e-17
6.003989313856365e-17
5.999601487680954e-17
5.99555621173871e-17
5.992989100255462e-17
5.992157771238515e-17
5.992683968598059e-17
5.993905043876214e-17
5.99518503312536e-17
5.996103166410588e-17
5.996506042135608e-17
5.996457267535861e-17
5.996137925408971e-17
5.995746963694158e-17
5.995432597288091e-17
5.995264723156662e-17
5.995241887816167e-17
5.995317944802439e-17
5.995432858288567e-17
5.995536524790235e-17
5.995600748941798e-17
5.995619989550053e-17
5.99560476752906e-17
5.995572486284878e-17
5.99553947727079e-17
5.995516301121839e-17
5.995506573917329e-17
5.995508389918936e-17
5.995516943576926e-17
5.995527092816901e-17
5.995535085974192e-17
5.995539221138492e-17
5.995539624454322e-17
5.995537540045311e-17
5.995534532169449e-17
