0
2.1215447147450542e-17
2.123389248879448e-17
2.125524430995699e-17
2.127066705013319e-17
2.12691186757728e-17
2.1241511693458466e-17
2.1186326110156736e-17
2.1114750925632312e-17
2.1052546680069172e-17
2.1035807957846018e-17
2.10991735093416e-17
2.125791062388921e-17
2.1489147331239952e-17
2.1721006922496356e-17
2.183958625040829e-17
2.1720695856384933e-17
2.128509233519737e-17
2.0563619030954583e-17
1.974590362898742e-17
1.9179069483781823e-17
1.9288082187434002e-17
2.0411500725355984e-17
2.2584476283328104e-17
2.534532180297757e-17
2.7674659573828814e-17
2.817408845401797e-17
2.5535344830196875e-17
1.9237357701555493e-17
1.0259953083092185e-17
1.4721447989945725e-18
-2.6852253528690388e-18
2.5243212257154168e-18
1.997027257265086e-17
4.815733028042528e-17
7.942886282597855e-17
1.0016400627139162e-16
9.402845219727365e-17
4.844932926105235e-17
-3.700539895427641e-17
-1.4336710151963892e-16
-2.3035382312888133e-16
-2.4385106149527422e-16
-1.3455155441630498e-16
1.1495491969926345e-16
4.630874320938742e-16
7.955254611456534e-16
9.393278423464546e-16
7.141361298388567e-16
1.6753349261785637e-17
-1.0832117178477382e-15
-2.277347210243708e-15
-3.031820538546558e-15
-2.7196197661790014e-15
-8.754724896788872e-16
2.480980690449699e-15
6.573406883003076e-15
9.81216443239825e-15
1.0105638067488286e-14
5.599664488387248e-15
-4.2708772341501485e-15
-1.7755363482821027e-14
-3.03060358302832e-14
-3.519567663576937e-14
-2.556788045176442e-14
2.2589673598612435e-15
4.513457595662763e-14
9.066382082406409e-14
1.1794930203341237e-13
1.0295498466530149e-13
2.852983966649761e-14
-1.0314354149538486e-13
-2.6040273561812245e-13
-3.805983065706851e-13
-3.8298278163445035e-13
-1.9799983585732477e-13
1.9194137746424789e-13
7.1363475843135e-13
1.186453216429249e-12
1.3490145635415688e-12
9.4112272228389e-13
-1.6731438705328966e-13
-1.836656674204593e-12
-3.5697881823822926e-12
-4.549614939249656e-12
-3.856018798013962e-12
-8.595102281120584e-13
4.2998577623141935e-12
1.0334843993803754e-11
1.4779531768887806e-11
1.452043835557809e-11
6.955029377359134e-12
-8.429133922118698e-12
-2.8588699116177194e-11
-4.636045145896853e-11
-5.16001826118715e-11
-3.445168277110679e-11
9.628773847950096e-12
7.45496666490472e-11
1.40413215859719e-10
1.753077951094518e-10
1.4406136128997284e-10
2.3682439998034395e-11
-1.7823927167701083e-10
-4.0952298824251296e-10
-5.732304407187838e-10
-5.494602151004351e-10
-2.411088623100059e-10
3.650420833985074e-10
1.1431223560729136e-09
1.8094727386694293e-09
1.970851965733068e-09
1.2546284636993287e-09
-4.95617424210613e-10
-3.01751084450608e-09
-5.516104292277189e-09
-6.746520748131479e-09
-5.366299027019112e-09
-5.403425673974247e-10
7.353039408082367e-09
1.6204271337189282e-08
2.220726846914166e-08
2.0750439201333718e-08
8.221821440959253e-09
-1.5630659821720175e-08
-4.562478269076164e-08
-7.054368865606147e-08
-7.516106747692353e-08
-4.541775399872579e-08
2.3972208442148162e-08
1.218243088249704e-07
2.16435532078229e-07
2.5929861465345495e-07
1.9925361313357717e-07
6.160771511967502e-09
-3.0204528217071554e-07
-6.402901892000197e-07
-8.593160946575782e-07
-7.819845843157519e-07
-2.7439102597489206e-07
6.630505272410048e-07
1.817848660802847e-06
2.747058016721769e-06
2.8618083325679513e-06
1.6328112428240377e-06
-1.1142134593363867e-06
-4.906591570763199e-06
-8.48212463756378e-06
-9.952860254338358e-06
-7.372302752539725e-06
3.392983767165325e-07
1.235974222211997e-05
2.5266121516142382e-05
3.32121652560881e-05
2.9402795357832835e-05
8.892151484372617e-06
-2.790565357041776e-05
-7.230952544575792e-05
-0.00010685119510796449
-0.00010878359877876337
-5.822717412234907e-05
5.0368531309507874e-05
0.00019717203951732267
0.0003320100973817441
0.00038148151823089985
0.00027164670896377723
-3.5848224935565216e-05
-0.0005042168531789256
-0.0009960471156939539
-0.0012826057971115777
-0.0011035286848291449
-0.00027670219442855077
0.0011667250938922013
0.0028742232389115034
0.004159658535421456
0.004148806001537741
0.002102603427440212
-0.0021379295714065052
-0.0077340858519901814
-0.012682222245112985
-0.014128394392842164
-0.009298247604513105
0.0030408671225546986
0.020962499685948092
0.038253747021604424
0.044516846094151595
0.027013087828930443
-0.02583764825427929
-0.12022952423905298
-0.053643227657710235
-0.014091853230848576
0.017262402751919422
0.060803075353007864
0.1324695866568414
0.03955460778867467
-0.01990287375579451
-0.05388448156859172
-0.0708329382356114
-0.07436655398299542
-0.06079090290680719
-0.02078621571391974
0.055097840542329295
0.1692694589551086
0.11149277320872447
0.05795477188252931
-0.023561276555108382
-0.16360492833063306
-0.17974602124647307
-0.0686766834768374
-0.005312995115745355
0.05026008889167723
0.1402974682954389
0.09579690193393865
0.12660302727210188
0.01861954753513468
-0.061041533248462204
-0.152980593860406
-0.09256625240297643
-0.09965204275857416
0.02585073914531695
0.10185332798530951
0.15726203751136045
0.023689798026289073
-0.0713667821794721
-0.10865818897991365
-0.07924814658673476
0.014141147759223587
0.15596344070481885
0.11784370053034944
0.061600006159087214
-0.05351738496228104
-0.060214702800941856
-0.17224375924900698
-0.17739135427330588
-0.03789967485631477
0.10053721514741747
0.09333701987787768
0.18008379717642983
0.17200911500952368
0.04856782349636967
-0.03529997707931018
-0.13344832854672875
-0.289788560764384
-0.12331609572102525
-0.022438927674242624
0.04935899295258182
0.13885726963495043
0.2851717376353795
0.10536569281000505
-0.011195766922783304
-0.09818495471453231
-0.19993247829781405
-0.15670965598479625
0.0067093640823726805
0.0857707475842996
0.09400465462398522
0.05653238405024843
0.0025659726912149535
-0.04063539162095533
-0.05150007539263428
-0.01597217792713439
0.07180459796214061
0.0095612290118569
-0.012143254665731502
-0.007859171817778749
0.0058444886044244256
0.014051069915603225
0.007130905492418186
-0.01632144222109688
-0.04798113898339817
-0.07051302811580047
-0.06112503061266347
0.0021156930817923677
0.13245037304864576
0.1275918750405514
0.16697670576004642
0.015367668484766728
-0.16727165663301477
-0.21270057946615686
-0.13328503385614204
-0.11782364336838
0.06337770655962298
0.24589810238826212
0.25628343589918795
0.10133308319151121
-0.03362759313414942
-0.1767983351638703
-0.15600695605135953
-0.18513321408444766
-0.05671523634019874
0.05631207638084189
0.19077367180669283
0.17965070449229673
0.04032607976560378
-0.03097378774134553
-0.05719612736352059
-0.07270576402150053
-0.11333590929387931
-0.007894093411091131
0.026503345842143786
-0.015238292418379824
0.07098189193270713
0.09461346290831969
0.06777707905704561
0.005152936865223716
-0.07363953225557553
-0.14093308164302007
-0.16003992590666954
-0.08902106978560977
0.11007389976005397
0.2586903570548062
0.15074459476240917
0.14847766317386096
-0.011529518420243912
-0.2029538813175025
-0.28985491073950753
-0.10949061203263807
-0.06417990155705856
0.07503176398789901
0.15484401037892995
0.22192239968394575
0.107717109350737
0.021257370111161238
-0.04813443693066971
-0.12021620088510543
-0.21021475388971733
-0.11805026411461557
-0.02487269331039072
0.10167007952137991
0.09560487815387263
0.17907339009538417
0.1525240892340153
-0.007375083491852175
-0.1411943646262623
-0.09408112389849616
-0.10184508755019983
-0.18094904839814457
0.07417379311702085
0.08596037382106159
0.08312535122344415
0.08888669051885896
0.11234987983124509
-0.05412216496974693
-0.031064280011715704
-0.0433585881198797
-0.11018541406608374
-0.036915004941378685
-0.01149929568919562
-0.00635713224179172
0.014962546470996409
0.08840724873575295
0.04009121740579797
0.07968071904087254
-0.0016633670172095522
-0.028328969054372863
-0.03334971993439246
-0.049766731724852
-0.1028603486547574
-0.0054190451582427634
0.04290009782688004
0.05250520470406042
0.03870007659676894
0.01646456651094371
-0.0032016999000367033
-0.01470805232560532
-0.01732921680614775
-0.013489386185827817
-0.006775810179577461
-0.00036162510103493435
0.0038426217647429756
0.005323360290054717
0.004610243592476972
0.0027262794927136453
0.0006862398838797961
-0.0008177489488833197
-0.001514170348127172
-0.0014826801430962498
-0.001000496049703748
-0.00038349743184853616
0.00012642713098164383
0.0004096146257945254
0.000461047234688708
0.00034981179657147626
0.0001703421664161563
3.6647227564454917e-06
-0.0001029425877159307
-0.00013829749337077103
-0.0001175433264366552
-6.775832344176099e-05
-1.512858532236901e-05
2.2889829741839612e-05
3.980796961254905e-05
3.8099625626726656e-05
2.5138276219561427e-05
9.09838393776018e-06
-3.88778085836531e-06
-1.0892320552015543e-05
-1.1927862010826032e-05
-8.8636791596383e-06
-4.160931830718631e-06
1.1216285645542866e-07
2.7809403469016534e-06
3.602411617186355e-06
2.998865018983031e-06
1.6818554837226683e-06
3.240872544320131e-07
-6.360840069247355e-07
-1.0452744886508309e-06
-9.782420853540019e-07
-6.30787391349659e-07
-2.1424382107095291e-07
1.1612611187984695e-07
2.889529176388176e-07
3.0820429398553896e-07
2.242794710960244e-07
1.0124095271836677e-07
-8.179787596056141e-09
-7.486386949715534e-08
-9.371302176278235e-08
-7.641751466524615e-08
-4.164505719656595e-08
-6.6571893866850785e-09
1.7556872355429555e-08
2.7403370482474274e-08
2.5088565907967863e-08
1.5800648116355375e-08
4.996779411725381e-09
-3.3973699758615527e-09
-7.649287802733647e-09
-7.954399218496076e-09
-5.667071632064226e-09
-2.452654069519668e-09
3.4603237327203844e-10
2.008968206460108e-09
2.434725010914592e-09
1.9449088830594545e-09
1.0285113254208048e-09
1.2795512568128895e-10
-4.817614035490594e-10
-7.173273477529912e-10
-6.426982845432209e-10
-3.9506802439852394e-10
-1.1519052731401899e-10
9.781825225724784e-11
2.020951818286386e-10
2.0505714559720485e-10
1.429895704070154e-10
5.912936295074803e-11
-1.2370469256071457e-11
-5.375436069243275e-11
-6.317852897999871e-11
-4.944192525920706e-11
-2.533363998585748e-11
-2.17943709600391e-12
1.3152341679213753e-11
1.8755039958284776e-11
1.645533947202368e-11
9.871840121325908e-12
2.628154625239303e-12
-2.778656287694523e-12
-5.341869447810165e-12
-5.309667406966179e-12
-3.6444474844161774e-12
-1.4585373287118432e-12
3.878181762942479e-13
1.4593534090015412e-12
1.719494788521582e-12
1.3873267463393585e-12
7.680321887370944e-13
1.2343008803166921e-13
-3.877146066391515e-13
-7.045381853678043e-13
-8.215281914905182e-13
-7.430965727053881e-13
-4.629918885826359e-13
1.995027925371216e-14
6.580739935754164e-13
1.3088748961603654e-12
1.7212252614133761e-12
1.5838988067643626e-12
6.4628571968229e-13
-1.1122747346364398e-12
-3.3261878305746904e-12
-5.189599389034467e-12
-5.59281828088148e-12
-3.49231332602382e-12
1.5340290786513991e-12
8.714444198773115e-12
1.5767353159901604e-11
1.9147419560072874e-11
1.5058680146376002e-11
1.1803325935688254e-12
-2.1332240099065037e-11
-4.6398117234681856e-11
-6.3147965889975e-11
-5.850101320596605e-11
-2.2327979509253465e-11
4.584360316291478e-11
1.309911091774554e-10
2.0100616053225282e-10
2.126010009783507e-10
1.2615263637341388e-10
-7.264301019851014e-11
-3.5102580303749797e-10
-6.179985812548172e-10
-7.353696156856341e-10
-5.58462842399114e-10
-3.653205099647391e-12
8.749854477525765e-10
1.8324042144680907e-09
2.4424959057244097e-09
2.2029966874499166e-09
7.388072989744103e-10
-1.939340836828452e-09
-5.216226160873892e-09
-7.824464705974784e-09
-8.090565042401842e-09
-4.523938400602995e-09
3.3423492811791876e-09
1.4127302705185789e-08
2.420998172107888e-08
2.821383408003962e-08
2.0637347995620813e-08
-1.5072316385388564e-09
-3.57624200650333e-08
-7.22760005413032e-08
-9.436424704920731e-08
-8.276875285254804e-08
-2.3652904494835694e-08
8.143220269797027e-08
2.0738066992021812e-07
3.0423250743516027e-07
3.0736875541231644e-07
1.6084838006780857e-07
-1.4998601456622186e-07
-5.6732244826879e-07
-9.473069040221502e-07
-1.0809957792404586e-06
-7.595471389896782e-07
1.2279911037339374e-07
1.4567687977112664e-06
2.8470932635181182e-06
3.6413049882044264e-06
3.1019994434063127e-06
7.20941588137518e-07
-3.3974494417846057e-06
-8.23195652938197e-06
-1.1815701239739e-05
-1.1656566633131185e-05
-5.660493675496782e-06
6.605482907406362e-06
2.2735711502616323e-05
3.7023852689409194e-05
4.135924832903572e-05
2.7828464071077355e-05
-7.270347836300001e-06
-5.915857423615727e-05
-0.00011200981240508626
-0.00014033695134054073
-0.00011594536076015341
-2.025629694653371e-05
0.00014095558881682774
0.0003262722610029029
0.00045835468807589114
0.0004412062294975085
0.00019665058462303272
-0.00028679979758006966
-0.0009095754594285617
-0.0014456569936122875
-0.001580555996164427
-0.0010149204639013478
0.0003792259692218537
0.002396098432208784
0.004404144613535891
0.00541071102430549
0.004342580660818048
0.0005295482714146129
-0.005729439998838962
-0.012749102691695262
-0.017483177528591777
-0.01624061115509467
-0.006149366463406029
0.012901882053198512
0.036490490448800754
0.05496898048222503
0.05473306417959097
0.02182893662383465
-0.05267507224333299
-0.16727954315264498
-0.10712117650433864
-0.04576884148069333
0.0476313748390314
0.1977583594444123
0.2131412763360701
0.08141737908720112
-0.027313289680444063
-0.14965670122779104
-0.31485710498434805
-0.13361288563664345
0.005099577034271087
0.1276755864974153
0.2630057115631106
0.22919399633046586
0.026089943219037827
-0.1631285443578178
-0.16260796849168718
-0.19167837470677127
-0.05585516695575939
0.05508921703047175
0.16170708072310683
0.08517065586951654
0.03784922497045897
0.018033767551938425
0.010546913722764846
-0.0073374574982259105
-0.05692031142898215
-0.14916124543384038
-0.07897844534241412
-0.02504737424480223
0.044437676854375434
0.1618531595959293
0.14966957452361226
0.013312156312449898
-0.06017187086476588
-0.0977182588939987
-0.13251874780883327
0.003770790095801398
0.08648988899689991
0.10056701407861879
0.04129084001566644
-0.08539172519991717
-0.0626651568041566
-0.06360246296547714
-0.05423459234112383
0.00045325847151376396
0.12848312992952327
0.14315100711654463
0.03856083784461201
-0.009373474960676071
-0.036234366975259676
-0.07875969229165714
-0.16438092956602404
-0.10427692906657607
0.10771823976311706
0.0903161874753745
0.06640729912375826
0.05467460615925638
0.06425868307003198
-0.10615786523028795
-0.0654243700314141
-0.02508784894123115
0.0051332406749434595
0.020094530995795657
0.01987338818213958
0.008846934603289048
-0.00603327520905465
-0.017209516048780172
-0.01848724020691455
-0.006929658531378683
0.015488471841664847
0.040904718823823225
0.05594430848040795
0.044063249135038576
-0.010050434399172373
-0.11486405650584725
-0.06698773915302503
-0.04896056776870121
-0.03140568585417168
0.020395203730295762
0.13723577124977007
0.13704519330490864
0.0194965064184503
-0.03376909067712188
-0.05338427845135913
-0.07318236929770972
-0.12113537602735405
-0.013339620931079724
0.047330786489553994
0.06820465905603482
0.06136273290390803
0.038327308851864875
0.00691995130832394
-0.02899527839100776
-0.06756345715574014
-0.10637540848261845
0.059041806065836464
0.03478984851534192
0.026545069278323827
0.03713253251628577
0.06508538122295394
-0.09509237027571764
-0.05118947254342648
-0.011051158606059423
0.01907306717474224
0.0350990731391768
0.03490806300063061
0.018111699779933915
-0.013689162061338892
-0.05624570856985338
-0.10230243117016824
0.057606885033952386
0.03287391229326162
0.02966395868157223
0.048275844804704975
0.08241939945446373
-0.07890306407634601
-0.04734150756077808
-0.030432501474279533
-0.028034719406511446
-0.03149893654994964
-0.026139880310281617
0.003533357513402735
0.06735813771148397
0.1640739777033204
0.07928509176355286
-0.01160259281066163
-0.1357756788869451
-0.11328445370094098
-0.14911791052068898
-0.03060776421843342
0.06845625917884564
0.17854199168871968
0.12380409697594529
0.11470928499419039
-0.0531745856424438
-0.19420089573040028
-0.12436588466977015
-0.053985525833244515
0.015299464955705971
0.08835879497642551
0.1711175206399242
0.06513709166395165
-0.03483670911012444
-0.13933246387197176
-0.059864828723885426
-0.00443124334530947
0.025018060907847903
0.03239778180283189
0.025287520781919343
0.01206133399495813
-0.0004667821499509738
-0.008275036417700232
-0.010230423580361227
-0.007411225737902712
-0.0021192491271324727
0.0030571587538877625
0.005956439787323605
0.005321523702053405
0.0010963554706173097
-0.005439515552448807
-0.01177007263818628
-0.014617994386537068
-0.010913525811687474
0.00078359784644503
0.018716726264596553
0.036803106020583086
0.044656793387686675
0.029303620655488336
-0.021423902318224806
-0.11464122135386823
-0.04886358334917478
-0.012817010777511222
0.012496550615543497
0.04894592141569972
0.11534021736994007
0.022625386046204662
-0.028081711045600637
-0.0441639826466637
-0.03780112697219078
-0.02160552982572366
-0.00521333853724415
0.006275498346945695
0.01197194877672631
0.0135815047677455
0.013364853327172983
0.012498325596290558
0.01039869857582034
0.005214147031489468
-0.004702499012244097
-0.018867068175608043
-0.03304871191415099
-0.03877082156434409
-0.024490956245528512
0.021530640692879622
0.10741303433156685
0.03424737788937366
-0.005479023976686639
-0.026911241833350093
-0.04973396897744437
-0.0942815314964034
0.02169392947971646
0.08482609886508276
0.08681664594457901
0.02502786260019784
-0.09621960230723783
-0.06394456534746229
-0.05578890851383112
-0.041851238297760864
0.010317933800222306
0.12849701718003828
0.1286282607710378
0.010403959258583138
-0.042574245805572127
-0.05810283305750218
-0.06804837916430216
-0.10114061870193747
0.02181698518010977
0.0894365573881517
0.0986966739728963
0.053144879125472284
-0.038057990935594026
-0.1599781221565738
-0.09187438378320717
-0.009085337468052342
0.11232029578328341
0.0891974634294759
0.12589801095944012
0.012465940292669515
-0.07233472397396638
-0.15419124622668146
-0.0554049833596652
0.010850273504275941
0.04232146798515409
0.0456324198745795
0.03202039160917158
0.012881712970108837
-0.00337466933031396
-0.012584237802532821
-0.014423637112868325
-0.011030131106632955
-0.005399726398829765
-0.0001252093456238289
0.0032678152546725342
0.004404779459624973
0.003755239609803599
0.0021753938284137845
0.0004982899747463438
-0.0007179755711248868
-0.0012636319600180697
-0.0012149002049451337
-0.0008052854421297603
-0.0002950443466499969
0.00011977526376099893
0.0003448789313158072
0.0003797574527252073
0.0002834024594362042
0.00013405991796136706
-2.239479464643791e-06
-8.778356152631031e-05
-0.00011453761251365598
-9.575019920835743e-05
-5.400528711650466e-05
-1.0751397029405918e-05
1.9969610573354786e-05
3.3180975829847893e-05
3.1193663086848576e-05
2.020924554046476e-05
6.957227046645858e-06
-3.5972771180069622e-06
-9.15379829762029e-06
-9.815238039159373e-06
-7.173116411360153e-06
-3.2645839982859293e-06
2.2647605028846503e-07
2.3647840474092114e-06
2.9803746911719135e-06
2.440526285129592e-06
1.337925315859554e-06
2.230680710827308e-07
-5.519032939234031e-07
-8.701599086295726e-07
-8.001950248979422e-07
-5.064044921749098e-07
-1.626026138232958e-07
1.056367418348881e-07
2.4242065688105627e-07
2.53375147732034e-07
1.8129748728683146e-07
7.915931623645728e-08
-1.0148295622222178e-08
-6.348789429247455e-08
-7.74366498454638e-08
-6.211399948648376e-08
-3.3052711880853625e-08
-4.366339896591261e-09
1.5132635668309088e-08
2.273683035723184e-08
2.0448831818415362e-08
1.262815952660404e-08
3.764326459549193e-09
-2.976762791349087e-09
-6.263227953241435e-09
-6.3490602691152296e-09
-4.418851333988128e-09
-1.873947781786924e-09
1.9978730075587812e-10
1.2831504831011739e-09
1.412015635100323e-09
9.896314721586793e-10
5.283072750592523e-10
4.113044161043881e-10
7.370404166583151e-10
1.2788577531293088e-09
1.56902897332059e-09
1.0921424864157057e-09
-4.5463642849448984e-10
-2.9091620274234536e-09
-5.50251448443806e-09
-6.936600967340718e-09
-5.753414828992891e-09
-9.770278933568728e-10
7.127349247258674e-09
1.6476229285028498e-08
2.3154750499705804e-08
2.2295542623506186e-08
9.931339630556891e-09
-1.4526448086219268e-08
-4.603955040305197e-08
-7.316433458207978e-08
-7.9977694644513e-08
-5.13268002015222e-08
1.9255429220791605e-08
1.213223365468139e-07
2.2284584972807174e-07
2.734752967960224e-07
2.1871706830895558e-07
2.4385778705891284e-08
-2.947610880289197e-07
-6.538883170789669e-07
-8.992164389244238e-07
-8.437900283390609e-07
-3.4035660397797516e-07
6.230197921397521e-07
1.838534511233796e-06
2.853508126238479e-06
3.051342407659667e-06
1.8602478285946058e-06
-9.389596192865735e-07
-4.900177343909655e-06
-8.745710819478012e-06
-1.0513263346194775e-05
-8.125627807541321e-06
-3.476751449508423e-07
1.2116183021167854e-05
2.5843371916597135e-05
3.4802155518477216e-05
3.180974939327958e-05
1.1404025351670785e-05
-2.6465928616977857e-05
-7.327388014089605e-05
-0.00011113989621103631
-0.00011621272534427158
-6.695819398179894e-05
4.388345580492953e-05
0.0001974345180036105
0.00034281212262574334
0.00040362748100077343
0.00030082728347706705
-9.893933141657213e-06
-0.000496090542684254
-0.001020007068868686
-0.0013453419292444547
-0.0011965029338219342
-0.0003716206516118483
0.0011151719277763706
0.002915323303196391
0.004323518383617698
0.00441817806349982
0.0023900837013041873
-0.0019936253778229853
-0.007940152296702155
-0.013426344211849768
-0.01548133828964298
-0.011099911300549088
0.0012979010116010766
0.020263846196143565
0.0402829768521655
0.05214050539095167
0.04533042311682123
0.01250454407876241
-0.0450494068337722
-0.11301609901741858
-0.1635777071294837
-0.16144512010629847
-0.07736905247972516
0.09286111528623611
0.3095316956761264
0.4786594802832542
0.45884162288399116
0.09013877744645707
-0.558004162040384
-0.5322218507510881
-0.5530665911690584
-0.40383754887328543
-0.16085533259838483
0.33741475965135703
0.3982776555833565
0.7848541743948363
0.6554860908131696
0.35373862540253515
0.2573339623935971
-0.12224065286041416
-1.0136756847135708
-1.6685123537591364
-0.6894132776837183
-0.030060371439454565
0.3296213701866415
0.8553684486419378
1.7192824815778818
1.2957492175322636
-0.07269511594313008
-1.0298194884879805
-0.9003028690997945
-0.9657397428318313
-0.9671755221971334
0.13440448475282016
0.7318111740267264
0.8953678319775724
0.2772492587682931
0.028543613793616217
-0.04894150118859468
0.2916140708122677
-0.22492269193171735
0.2658729599971558
0.044472608330102824
-0.7166333687826744
-0.6941473220848913
-0.1878457703286077
-0.13675140581857062
0.02358372967794683
0.6761687613638987
0.7325071658186799
0.5621448590541406
-0.03902159651023377
-0.23480983316241563
-0.2968236993995368
-0.533059575106684
-0.6190955870941677
0.05016174660077651
0.37966422426279167
0.36702812373381094
0.27993926861211255
0.03098548295934119
-0.2417132126112547
-0.1868238367397904
-0.24925553221398006
-0.08222470218522275
0.03534025960319336
0.37813747309457035
0.3569273851156887
0.11182540533892142
-0.0784151873874462
-0.1717464271111035
-0.3294493937486438
-0.2839829700703733
0.082892793258081
0.14709640335070892
0.13538651916045763
0.1099703949153445
-0.049192143634007014
-0.0599277576406187
-0.04946422157962755
0.03778512106938286
0.035755110425061416
0.15555458214841503
-0.012090201983948386
-0.09095622436336046
-0.11146209408922009
-0.10342987565289523
-0.09207419724905153
0.10168530070141918
0.2578838179801907
0.15443440979399778
-0.032149070930261585
-0.12073842830294325
-0.1161373718343485
-0.20064025387582138
-0.13137777718682644
0.15386057453163363
0.1230983136087868
0.03294656800845832
0.11321099746482957
0.15816167327114508
-0.07294448887080074
-0.04628113124681265
-0.037576368239582554
-0.11440884924422445
-0.12146793334862102
-0.0725377033485534
0.04905103534547251
0.08226506552057103
0.07555443942258254
0.07362980011497605
0.10777891437580894
-0.007887198083460018
-0.0740509385440061
-0.09958812684598793
-0.09404882847835527
-0.062576339173492
-0.005297535770295628
0.07894188482748413
0.1867384890270812
0.10561266689588583
0.013846131546746618
-0.11428126810361584
-0.09954966959955767
-0.14890687801160357
-0.05066711307711174
0.023750239913654762
0.11175192083704591
0.047893028922601284
0.05263762795266067
0.12537028180113377
0.044024355889612544
-0.028357198420383346
-0.13199047077520085
-0.09731184910391961
-0.13492482697369024
-0.032084532384009844
0.04296142842673907
0.13025226986328617
0.06475824691268943
0.06500101141041381
0.12748155667651345
0.0287666206391039
-0.06540166788491675
-0.18701427592980743
-0.1534517375134524
-0.16078413741390188
0.014235151784562732
0.20386539676307783
0.23480315654139777
0.11549644726145582
0.030878119458261993
-0.05314789671430779
-0.1773005024387806
-0.17360173025943593
-0.05307716927594484
-0.0009331921354648275
0.019383287629634628
0.055066009088807245
0.1497956343302315
0.13124766568898952
0.004140634819920365
-0.0493295044985742
-0.0624390610292084
-0.07322076852851886
-0.11391276994414642
-0.0038121147528390807
0.05285302518723658
0.06438563103229458
0.046308368117318845
0.01567899618574952
-0.013145976550653509
-0.030629841157253132
-0.03243224996399174
-0.018921525394080856
0.005417186604744238
0.03244908318484287
0.051097039936820625
0.04895436024587609
0.0152435788019016
-0.055190075506385064
-0.1581471062921302
-0.07854482319217843
0.007295588012311635
0.12543196941053494
0.0960755988351951
0.12663428508194746
0.009053602381309069
-0.07732675665562849
-0.15863610977374346
-0.05812245925096538
0.010071039213896155
0.043010843262257355
0.04703588669802822
0.03343805670846935
0.013866301753769801
-0.0029711873277191328
-0.012674381010177127
-0.014798121547729196
-0.011467769065391379
-0.005740679761756764
-0.0002982602483699751
0.0032555458050045924
0.004498641927849743
0.0038872677950906004
0.0022900821480609968
0.0005651348540490131
-0.0007040580037865987
-0.0012895711495202102
-0.0012593408482711606
-0.0008472324680120402
-0.0003194516417054921
0.0001195515895160802
0.0003669015955178965
0.0004146882218603025
0.00031664117754423945
0.00014901219981139463
-1.9454992160008556e-05
-0.00014242248752995937
-0.00019747568839146567
-0.0001804834982161073
-9.958128287229084e-05
2.7029753307027415e-05
0.0001694153672875753
0.0002841563131276721
0.0003181477633200068
0.00022237495421846223
-2.432240814983457e-05
-0.00038802091547483633
-0.000761872499738836
-0.000973414969913989
-0.0008291230881467001
-0.00019633663324206645
0.0008961859000784054
0.002178239674630266
0.003130538814665949
0.003095701188194408
0.0015222903462080329
-0.0017010428462018554
-0.005933873756969847
-0.009662043531933411
-0.01073722423901367
-0.007073320547568722
0.0022709630453231107
0.01591844104625207
0.029408261686404247
0.035409953505875176
0.025313221220770656
-0.00787966324982131
-0.06611636427837277
-0.14370374221975393
-0.027109604980943676
0.10200942672236635
0.06120817687372238
0.06120827718868107
0.10200966418075762
-0.027109398703697274
-0.14370377721771802
-0.06611679984921982
-0.00788050829613985
0.025312180392734036
0.035409156652961286
0.02940827447126043
0.015919742917572498
0.0022736616916971025
-0.007069752955526707
-0.010734053561180967
-0.00966107317906921
-0.005936865268601143
-0.0017088231030597304
0.001510777916143484
0.0030839672925889613
0.0031242409577597868
0.002183639077491168
0.0009174119648811415
-0.00016055849832791053
-0.0007879794546025584
-0.0009440689044989894
-0.0007656347186322146
-0.00044225473457592965
-0.00013159561723613146
8.414317183947444e-05
0.00019911158607256653
0.0002541207372862663
0.00029484054122932616
0.0003363360232475205
0.00034789979840452477
0.00026483677817026933
2.494950109662932e-05
-0.00038191425267573533
-0.0008709991178817078
-0.0012502544718705343
-0.0012587658407795486
-0.0006627698052002639
0.0006074798386006731
0.0023250981651517905
0.003906062111431574
0.004491693631311388
0.0032154489994321565
-0.0003713482739788664
-0.005832969756321228
-0.011548764138134668
-0.014824472839689856
-0.012603080796741146
-0.0027809578366947978
0.014151465427474438
0.033733844514989376
0.047203716394754854
0.04289436964904074
0.00956283170179332
-0.058999482145923335
-0.1596641433108958
-0.07808715582270839
0.009090721066346456
0.12791359010226502
0.09868808764109516
0.12886510695987566
0.010336086436365688
-0.07761894718785763
-0.16101185539106047
-0.06262115367212161
0.00427701800854316
0.03782961602598063
0.0452283426983228
0.037778816979526876
0.025736972261141695
0.014787692636110978
0.005083937904037123
-0.007241226294549298
-0.026969343006609456
-0.056442723507136035
-0.09337464277345445
0.06917787373911743
0.040573076862027734
0.029031482321552587
0.038375965824684985
0.06651252103003938
-0.09374048866858818
-0.051940972234774715
-0.016712924750399344
0.006732626060861276
0.01741125788448162
0.017783112770416762
0.012080195145414308
0.004575757913365237
-0.0016183925330263897
-0.005014679683947442
-0.005575094423719667
-0.00417061387533193
-0.001967175532701497
4.929308673723081e-05
0.0013148781894132293
0.001708332870246261
0.001425900126022249
0.0008031464515848492
0.00015888796428849356
-0.00029824349684937567
-0.0004944904170868616
-0.00046448901387958786
-0.00030068710864924786
-0.0001032970396937556
5.3799675606034616e-05
0.00013641860837082645
0.00014615262439033455
0.00010673586881598647
4.851158097882252e-05
-3.4566743777693465e-06
-3.5261247409633694e-05
-4.438990659739872e-05
-3.632405338979602e-05
-1.9893695318188586e-05
-3.2941953273218194e-06
8.236177462909882e-06
1.2963649887824676e-05
1.1912514479625896e-05
7.532798453752487e-06
2.4126657427890877e-06
-1.5793707071207255e-06
-3.6127989877478845e-06
-3.7728655309639184e-06
-2.697670678700238e-06
-1.1761510638819867e-06
1.5332713595722986e-07
9.467282651194342e-07
1.1535300454362068e-06
9.246816251266374e-07
4.915411665083898e-07
6.42013918768209e-08
-2.2621268424857257e-07
-3.394300843440777e-07
-3.0522421657210715e-07
-1.8840418526362758e-07
-5.5738416371443455e-08
4.558501398116594e-08
9.548171552346801e-08
9.727967372846933e-08
6.808304216332689e-08
2.8379181487481844e-08
-5.592339923380683e-09
-2.534360594438515e-08
-2.9938219057749886e-08
-2.3509913008789147e-08
-1.2111487256296392e-08
-1.122592199397752e-09
6.180560719683447e-09
8.87429330437833e-09
7.811492692263965e-09
4.703195985446554e-09
1.2698802948292297e-09
-1.298492606947526e-09
-2.5186988425806937e-09
-2.5053764780480323e-09
-1.7157069672006062e-09
-6.810514812662385e-10
1.8598431330363496e-10
6.765968761299629e-10
7.760464176515382e-10
5.96981051959138e-10
2.975256225660973e-10
1.5272527284797627e-11
-1.6808231024553384e-10
-2.316856949486412e-10
-1.9968454147993312e-10
-1.1716945920094135e-10
-2.8422549990178157e-11
3.6593940773992466e-11
6.632148444281511e-11
6.445054025647588e-11
4.3169414855971586e-11
1.6242709457513002e-11
-5.8597437538735725e-12
-1.8017599984653906e-11
-2.009199600508724e-11
-1.513934629377932e-11
-7.284773938033725e-12
-4.3297419902963084e-14
4.552173540854924e-12
6.040429743071541e-12
5.0985546006304956e-12
2.9127416419305883e-12
6.214328882015275e-13
-1.0221389657925378e-12
-1.7433551672880932e-12
-1.6560676634517188e-12
-1.0844269585479456e-12
-3.845692636488624e-13
1.7818291562075873e-13
4.787027143789837e-13
5.195882181812556e-13
3.834438945750895e-13
1.777391846715224e-13
-7.8351344461655e-15
-1.2280539514869072e-13
-1.5725108598643435e-13
-1.3000471767324202e-13
-7.221949898652e-14
-1.3130061717388146e-14
2.835902007252184e-14
4.577432623123881e-14
4.252668650845414e-14
2.7217495783571084e-14
9.050287778017891e-15
-5.260302417694545e-15
-1.2668255946634457e-14
-1.3398655691986389e-14
-9.676150951837178e-15
-4.2968921910874044e-15
4.532697980483019e-16
3.3241568731712214e-15
4.1107384060517335e-15
3.333222894844916e-15
1.8084915638007264e-15
2.8641769624385403e-16
-7.593534562320248e-16
-1.1776514354607603e-15
-1.0684868776567864e-15
-6.596165886405107e-16
-1.8860698294663105e-16
1.748478381405619e-16
3.569141434665831e-16
3.674360067083389e-16
2.661340629245395e-16
1.2566537376590615e-16
4.216065273367517e-18
-6.732796866172708e-17
-8.49857551292395e-17
-6.304147676244418e-17
-2.2882218243597302e-17
1.627968950114701e-17
4.259885865925426e-17
5.258494445460864e-17
4.9122539980031535e-17
3.823041953472143e-17
2.6033668976109904e-17
1.6814684493538982e-17
1.2354561297874965e-17
1.2296333779171293e-17
1.5041513235034355e-17
1.8704500458386553e-17
2.180600794322446e-17
2.3585116720840777e-17
2.3972721296656594e-17
2.3359002244849365e-17
2.2303080054166937e-17
2.12966221029085e-17
2.0635301212034004e-17
2.0398578558447115e-17
2.0504331813215024e-17
2.0793806317999865e-17
2.1109262893095906e-17
2.134279196600149e-17
2.1451662030427966e-17
2.144770704044752e-17
2.137359651210948e-17
2.1278205388686405e-17
2.1199094589682133e-17
2.1154953770411487e-17
2.1146704093347476e-17
2.1163736649658968e-17
2.1191455108465692e-17
2.121729161857047e-17
2.123388077924931e-17
2.1239445701900046e-17
2.1236299682522262e-17
2.122862276719787e-17
2.1220472822559447e-17
2.1214565149984036e-17
2.1211918884306386e-17
2.1212162053723664e-17
2.1214158252039187e-17
2.1216641424899744e-17
2.121865794542183e-17
2.1219749060981863e-17
