0
1.4168886869124223e-17
2.496277481503421e-17
2.962483518465261e-17
2.2298415751364345e-17
-3.643739497015435e-19
-3.609659728879614e-17
-7.487465909957606e-17
-9.935591345301211e-17
-8.917723592535282e-17
-2.9237168026627424e-17
7.980777118023013e-17
2.1272021120783052e-16
3.17851884335137e-16
3.272671423812117e-16
1.8076919826602885e-16
-1.3994191079986703e-16
-5.779325482937825e-16
-9.854255129613193e-16
-1.1438989519654632e-15
-8.307155769503187e-16
7.354629509637458e-17
1.4663299945605462e-15
2.944799203846903e-15
3.830071519111311e-15
3.341558531450962e-15
9.226208924050251e-16
-3.355122559561294e-15
-8.462429360714166e-15
-1.2363828681807311e-14
-1.2436692810871728e-14
-6.422912468693599e-15
6.246687440757268e-15
2.3191538083521757e-14
3.8542392175325545e-14
4.380886032793125e-14
3.0542239614245827e-14
-5.476613490959915e-15
-5.970304389399336e-14
-1.1598150748744095e-13
-1.4776800177163174e-13
-1.2518165723974806e-13
-2.7793760650573048e-14
1.3981827335860143e-13
3.358124050523589e-13
4.800729560621519e-13
4.71477889047671e-13
2.255408733031211e-13
-2.742964114885614e-13
-9.290765065604574e-13
-1.5060452986228054e-12
-1.6756978199063928e-12
-1.1180071865924688e-12
3.1435886913388914e-13
2.4231926288916875e-12
4.5618646940775205e-12
5.693717052929714e-12
4.6765625969202344e-12
7.643236622327494e-13
-5.795372920408193e-12
-1.3306454012420402e-11
-1.861953320018781e-11
-1.7840438509888897e-11
-7.817035647006039e-12
1.1876640343642827e-11
3.714810849949291e-11
5.878064607558035e-11
6.400119096432824e-11
4.071093299050345e-11
-1.616081228297892e-11
-9.807833460795638e-11
-1.792085114870233e-10
-2.1911189380408307e-10
-1.7419404846107345e-10
-1.7358449585267582e-11
2.390639564170742e-10
5.265067420038117e-10
7.213179839528982e-10
6.73724885568269e-10
2.664832121999349e-10
-5.084619991109196e-10
-1.4826299675246622e-09
-2.2915677911525273e-09
-2.440711274334816e-09
-1.4735946687918949e-09
7.810810562448807e-10
3.959509286670868e-09
7.031476479565303e-09
8.421267185578967e-09
6.467579507165766e-09
1.925683260709221e-10
-9.819555065824972e-09
-2.0803767123446586e-08
-2.7911075687637693e-08
-2.5388592892006875e-08
-8.890015457856091e-09
2.156601149548609e-08
5.907153177008105e-08
8.9234876792944e-08
9.292936704516622e-08
5.2970945830068185e-08
-3.628564175765726e-08
-1.5946728479156654e-07
-2.7555894856855203e-07
-3.232332739981526e-07
-2.392839304225733e-07
1.1315750044256884e-08
4.017946328668726e-07
8.209077287897471e-07
1.078728532820127e-06
9.545791199703725e-07
2.879352231983494e-07
-9.075493914427649e-07
-2.3496734032393934e-06
-3.4708885767441178e-06
-3.5323736835384387e-06
-1.8887268080372545e-06
1.6397457575776953e-06
6.408162648669626e-06
1.0786269588574003e-05
1.2389920298013883e-05
8.818448736735683e-06
-1.1718239055298491e-06
-1.638313024842614e-05
-3.2349458355486715e-05
-4.1640532078082956e-05
-3.580313432164088e-05
-8.933477571630971e-06
3.793309583517907e-05
9.330384505020465e-05
0.0001348212444242648
0.00013397265220244371
6.656599647365778e-05
-7.284395921001733e-05
-0.000257393433264607
-0.00042239163322575
-0.00047522343542366196
-0.0003247180354596692
7.323965500699518e-05
0.000666992009488379
0.0012796358285945976
0.0016247039890548971
0.0013857610237396447
0.0003580420407780455
-0.001381682649794036
-0.0033453140330897855
-0.004634258949580637
-0.004154839583972343
-0.001085639199934029
0.0044489485829273985
0.010639484509410116
0.013388253528419278
0.006019680556458573
-0.020653628184945733
-0.07806607683778735
0.020308343987443987
0.05905086697384122
0.02121605660830961
0.08991715746008931
0.051772915444098344
-0.09795298109784924
-0.14996408961968413
-0.07774540982382747
-0.03895555033938813
0.017727776020024094
0.1417880705804055
0.16960006050426252
0.1169258281157976
-0.021747831850457946
-0.06663725125268624
-0.24157732285098227
-0.16320605414573208
-0.035086688840009886
0.15096639047059446
0.207675972079105
0.14335593554601322
-0.04417770274556482
-0.1683782786405966
-0.050174062863769325
-0.11256391873517516
0.02341465901035794
0.14011043760447559
0.22296929961798148
-0.13949077466778212
-0.15412810281754943
-0.020565708802696828
0.07060485328540916
-0.06282452733303877
0.0019530739394462216
0.0876064167557357
0.01118162730401262
-0.020289743018493116
-0.012078945515232153
0.018444658983196346
0.044399934100321455
0.03402197453208368
-0.04319939137616737
-0.009812622946296732
-0.07459204397385553
-0.0293249323114027
-0.049572355049988095
-0.09987430932717592
0.05742664982102577
0.25201972663368544
0.09753668423155713
-0.011023306471083856
0.10739420733770318
-0.16931773003013934
-0.2535091162348755
-0.13807294671741766
0.005425284797938204
0.01904872617973758
0.14339364654521475
0.2004463344374233
0.18083859178836711
0.040618340622969346
-0.09063027045283441
-0.09257566248930513
-0.23342657234210615
-0.15255869061886573
-0.05204661242602901
0.1006157906685219
0.16037211092282744
0.18798964605375548
0.03490766510255541
-0.06605452860777997
-0.10281558607936157
-0.08059254019057598
-0.015883518896123106
0.0696559061959287
0.1545242694403669
0.022254843473702407
-0.1336633227668404
-0.10546357854814478
-0.06927531597136484
0.012189692069056662
-0.018211436220258656
0.07634192524430378
0.11432575702201768
0.08652396482945737
-0.04726774806627229
0.046051239479577025
0.08434764711341106
-0.013247852361311936
-0.10818677947645461
-0.2269743344711603
-0.15282414840325362
-0.02795230624456272
0.03286722509878898
0.12065919426569294
0.3088978446436623
0.23605423933472147
0.10016087066133728
-0.13253928918468255
-0.3082056858095906
-0.26316861887917353
-0.2081768947760631
-0.12585370378006605
0.2175439199005645
0.45134504340942766
0.5803776735686428
-0.22456345204497286
-0.22073228481781415
-0.2747319250810438
-0.2400615154078621
-0.34095406624113855
0.4314690597861604
0.31116257018434273
0.14313777762916058
-0.029028344137205342
-0.1695003868591042
-0.2505967226286325
-0.05108994675774506
0.04370526795499628
0.23882078624949019
0.12549277071588805
0.0795001467596475
-0.1356456370841869
-0.16121661524217468
-0.23476174005782938
0.01545427725182845
0.1709474553308271
0.21962393428714114
0.15228071261096132
-0.03713923675864528
-0.14627725295444133
-0.15647924692776177
-0.22719244262140645
-0.09739747862654762
0.10388911825787125
0.240122118761178
0.14847454196279677
0.22694249381680504
0.03274762797528366
-0.10659134214194209
-0.2728973384916207
-0.13456488314974174
-0.12905339071081584
-0.05608181303850898
0.1172201797149029
0.24227414357795823
0.17202726889482522
-0.05284601220295569
-0.010543079367816403
-0.09713323015665663
-0.12056068879033696
-0.09339916557016374
0.17266543017260744
0.06953159538338825
-0.00676157337213671
-0.05636185524430594
-0.076287527965162
-0.061962066462945775
-0.010292242849955125
0.07590037137820271
0.18364153314872475
0.0881848874492415
-0.04397043614787818
-0.04723134402603617
-0.1464510145976936
-0.14773381396602503
-0.03433582458659786
0.030289032263985206
0.09299735883859414
0.19823614754782712
-0.023528994028221423
0.03746260215387491
-0.029974469473402
-0.052450154095742996
-0.06305463455728932
0.10816123256766368
-0.15819708526848777
-0.06687017761454747
-0.008434804088162958
0.03589261275840956
0.0866599366530237
0.1585145093110967
0.055466977972596546
-0.029001647199008072
-0.10721643771192108
-0.19043941458517344
-0.08347254751112569
0.016362982118606574
0.11532453602888877
0.21668624859488228
0.11548206225561554
-0.0019416340497853473
-0.15257090418737682
-0.14783727539991687
-0.1856738777496732
-0.04788048295697745
0.09525568305422209
0.27467788893409856
0.11108741085253865
0.007396130350013463
-0.051761929664340296
-0.09374345786466347
-0.1480137694345392
-0.0368938550129477
0.029766755692016734
0.05482124989678447
0.04998138577856553
0.030194320803747433
0.008562740167051906
-0.006726504965055384
-0.013096040614073729
-0.012372249956966563
-0.008569377858650383
-0.005571883097446134
-0.00540670344634803
-0.00750197354689561
-0.009050829645457281
-0.0063604941310663665
0.0031522720004799505
0.018870151558306795
0.03550590995240099
0.04299415171320621
0.028239093228605825
-0.021362674949096074
-0.11351098936751206
-0.047281337529839026
-0.011768774345570618
0.011995652391721637
0.0462906422814831
0.11076930146203362
0.017486559632611795
-0.031430124239276616
-0.042965019844221436
-0.030026895015755457
-0.007359105156455062
0.012112209492532704
0.019786620369188764
0.012675409199099418
-0.006327631576748323
-0.0290582198294365
-0.043671458406660035
-0.03739041407233749
-0.00031610607804913034
0.07045525536808493
0.167921127565188
0.07529656737999563
-0.029698709324565288
-0.16707527560683233
-0.14615903703151195
-0.16046455671537818
0.011114285987764504
0.19652861173048608
0.2192420686532525
0.088393466025851
-0.005012819140477645
-0.08423531324661983
-0.17721587183841864
-0.10571653915433771
-0.07781080014810676
0.11351418005535119
0.0857997093737474
0.0592504261378706
0.04916986617133592
0.061553772576310006
-0.10707093677384225
-0.06633161300188764
-0.027217608773469806
0.002011421949507937
0.017852562072989395
0.02137118452387606
0.01655007676584296
0.008214529176790573
0.0003619928198056088
-0.004700306927557687
-0.00641265082817071
-0.0054758567760551
-0.003161395278532318
-0.0007023579571780252
0.0010775882797580106
0.0018704566485292558
0.0017901725648780148
0.0011817247207749893
0.0004284614979245282
-0.0001817043614187832
-0.0005111232316355214
-0.0005601988142866058
-0.00041658734094214426
-0.00019583187718277207
4.903797840605297e-06
0.00013038181221220756
0.000169116877010652
0.00014088937274468836
7.909502205289765e-05
1.5331159757929477e-05
-2.97954459417036e-05
-4.905778624839124e-05
-4.594825696631775e-05
-2.9652802295129986e-05
-1.009548311376974e-05
5.42718281867717e-06
1.3556485606839212e-05
1.4472691927139345e-05
1.0539162886899974e-05
4.763688920496397e-06
-3.7606311665290424e-07
-3.510490266477762e-06
-4.398295889185544e-06
-3.587532854020876e-06
-1.955012597102383e-06
-3.1228659976989434e-07
8.234904553653443e-07
1.2830011290808834e-06
1.170373491183562e-06
7.309775519131726e-07
2.2360313270271026e-07
-1.650841712746028e-07
-3.52980944328767e-07
-3.5137712928510825e-07
-2.294036024543267e-07
-7.338951821819924e-08
4.545507086978915e-08
8.918291299140721e-08
5.729113163606663e-08
-1.97011376629597e-08
-9.340310857583043e-08
-1.1434258206883011e-07
-4.9901443037805294e-08
9.960940926402788e-08
2.912310677821875e-07
4.417898704459358e-07
4.476453302027381e-07
2.2285392517530483e-07
-2.5089736694622864e-07
-8.789149553826776e-07
-1.436704514508803e-06
-1.6062440175382203e-06
-1.0783681515537324e-06
2.904221155542984e-07
2.3119631501774335e-06
4.36737603153424e-06
5.4624604721856285e-06
4.499876378655756e-06
7.599067664177497e-07
-5.525924864060298e-06
-1.2737061141777281e-05
-1.7856463711696947e-05
-1.714695331562134e-05
-7.574937235231387e-06
1.1286269875243784e-05
3.553311572954575e-05
5.6342207547714844e-05
6.146304533396178e-05
3.926609970999848e-05
-1.5165525914166648e-05
-9.37167729904258e-05
-0.00017167580134767969
-0.00021027931706317762
-0.00016766029848464025
-1.7680079401335354e-05
0.00022805937892303948
0.00050402475758201
0.0006917397425404748
0.000647436242852763
0.00025821768437925583
-0.0004843921094659419
-0.0014196616368563279
-0.002198620377629139
-0.0023466781610838976
-0.0014243436976220446
0.0007363778494085849
0.003792747011911901
0.006765876468491389
0.00815758319417422
0.006393157235941116
0.0005612890394433862
-0.008742133971514332
-0.018826801855387522
-0.02502918216895555
-0.021925026804173874
-0.005734606423326569
0.02244640591883537
0.05347867304356181
0.06830088661897675
0.03846317218695369
-0.07049692361225775
-0.09350858697250419
-0.059882359380600214
0.011540973684983996
0.11511839356231121
0.05947060349115883
0.0681684230067855
-0.01904419909554289
-0.14495961301629123
-0.23553904298178643
-0.004998553799680797
0.03331856265474221
0.1516364393920663
0.19215381557296551
0.15653629486651294
0.004697583694036087
-0.1360762683085237
-0.15436394893358402
-0.13555858848284866
0.053777184564569605
-0.025650461234068958
0.014436617197805923
-0.016467231348410827
0.10208887727470856
-0.009548818650216659
0.05988222679160598
0.10789309134309645
0.11904755595099724
-0.1290762740842678
-0.2568806754500088
-0.07434877636252378
0.022964992660871805
0.05164727020712763
0.032918631360832576
0.18334051613828564
0.10782490656866418
-0.002017119319164949
-0.16339961772078693
0.006431542167948459
-0.100293384001956
-0.07543441655147015
-0.09410720855048703
0.08002955047764418
0.08498794616237235
0.1495563114392212
0.08538107765071341
0.08522286241083159
-0.07170952380363378
-0.209303796421318
-0.14318823422791738
-0.07326699310065561
0.01666072032752827
0.15213956421797925
0.15723331814269487
0.04432978990920636
0.00869804601812223
0.02964459073496864
-0.12263072926261015
-0.07742638025933075
-0.05490574461240563
-0.061629074956692606
-0.09187264358327021
0.06573163442418926
0.2187706870860357
0.1628516715343902
0.07876399495249158
-0.06267704515255132
-0.0890895304168115
-0.21255429596247438
-0.21912991223571515
-0.0669785311593662
0.10481427502979879
0.15886360133459404
0.13936385161111411
0.2565229454595592
0.0815371497494716
-0.04547898631372418
-0.1967794171200182
-0.2336949445444172
-0.18686086060564228
-0.04691057077314519
0.03120820547041475
0.11200256934635461
0.2570415097509602
0.10400035665029916
0.05392040642785729
0.07043614690403474
-0.10929799069856821
-0.1558488017353054
-0.12692164076999693
-0.05114594128128812
-0.12069188452527599
0.10579052240204699
0.0915691189719276
0.10556034408813803
0.0062445091528393615
0.029846011821330145
-0.014970754974744586
0.05442521191010605
0.0018966938918501817
-0.016409475483638997
-0.03975388894382278
-0.0921680689442015
-0.17642579723932447
-0.07482494437102832
0.04274243267947904
0.20549998754353455
0.22781424430466862
0.10006543837033233
-0.011572489371103566
-0.15591654127209784
-0.18153909585753444
-0.12131187877820745
0.017707804856088125
0.055982479738078614
0.03502356280381884
0.005481876298532917
0.013496783129933937
0.08872571466149201
0.03668556292282926
0.03710527097063583
0.048866021164544755
0.02074375650661603
-0.09426121260908887
-0.12442629636942515
-0.06864395140226809
-0.09312633914035322
-0.13733149404921763
0.0715762472342899
0.19921212141204253
0.2851678989606949
0.1314103091983458
0.10259078177307202
-0.2611854991297265
-0.22353340230960714
-0.23073458095531757
-0.09845621660151817
-0.010991772413959473
0.2673894263121107
0.17418438745807682
0.1311336493641071
0.13430137603430892
-0.04481865616921518
-0.24826222689474628
-0.11548629749201134
-0.06871209887443208
-0.10523556423463604
0.0007773982645440656
0.0880630581355091
0.19356179951551644
0.13873797604583055
0.12207682317867062
-0.07934550567960635
-0.09980658921833785
-0.1702847621359887
-0.10480239135744207
-0.0928021315206348
0.09986939223075873
0.12204597254156752
0.023750529420857952
0.04257363206235987
-0.006282531122666586
0.0658777246501864
0.02349543960517112
0.01465265280737113
-0.017124653158453004
-0.11979130245752467
-0.1216645750863299
-0.025351151704092682
-0.008624395610821498
-0.03213159852313313
0.14834242940353293
0.16883109390970014
0.047466324966806125
-0.01891194125544285
-0.05112306651478237
-0.07887616305387254
-0.1304163033920966
-0.024272902308916378
0.034450293707624556
0.052794224955479294
0.04508761490909435
0.0269036072002689
0.010074971843738838
0.00012074022400844467
-0.0036235852113328474
-0.005708755604639841
-0.011113466889734362
-0.021788316404284212
-0.034297752254326797
-0.03940258987484515
-0.023965079319866314
0.02512805739781222
0.11614186085290978
0.0485125167185795
0.011450180176024217
-0.013998742253430976
-0.04996899540869471
-0.11566813392409049
-0.02241110253712844
0.02845706544996551
0.04428349587023925
0.03740071911329502
0.020711061175089557
0.004185248546191716
-0.006821168466587594
-0.011376043137962547
-0.01145844665249715
-0.009939468975227093
-0.008823946613922265
-0.008290385535654515
-0.006761659485847457
-0.0019299126356972943
0.007620951807241935
0.020776260208141172
0.032936740182262954
0.03639170662882764
0.0223430662381389
-0.015691237403706162
-0.07812598588173135
-0.15687020702172436
-0.035904355904655835
0.10435491343859117
0.07990353571622974
0.09594444531659074
0.1429307470179328
-0.0019030434865746004
-0.16755456061899568
-0.17934169169097997
-0.050101975095218174
0.023892330468427397
0.06095750761658253
0.0873857464857104
0.1293914542754841
0.006885225391471447
-0.06903501167641762
-0.09502478958329352
-0.07268187657171565
-0.006242784300904955
0.09786907515636721
0.029869192256112478
-0.02477598442050034
0.11464538387110154
0.026372843374624495
-0.10942449051126762
-0.10537983163851684
0.03722461157035917
-0.07036782766212189
-0.006991959357074466
0.05271912513530199
0.13135390857118137
0.04289309888447114
-0.009883992428610214
-0.03391028205961817
-0.04105644111135553
-0.04209030564261819
-0.04168449981347251
-0.036231307259772735
-0.015179787297389991
0.0345907243672805
0.12293480563126978
0.05137008947587991
0.010853947180319824
-0.016574825775301255
-0.05285959290162093
-0.11761835008174668
-0.02288165096575879
0.029266865708280826
0.04562413658552729
0.038290577934156994
0.020310601934392075
0.0021564698365198753
-0.010053993873646687
-0.014567095298491772
-0.012783532589170421
-0.007590334748097408
-0.00188394981497325
0.0023471284127694232
0.004311097718147283
0.004219310539827495
0.002850329732333373
0.0010974195637222818
-0.00035313048626977087
-0.0011606315397129378
-0.001309674564624592
-0.0009956714081470705
-0.0004865931059371295
-1.2806498236352622e-05
0.00029093161081750847
0.00039237581203399764
0.00033419821201924983
0.00019316910775724628
4.369650019235807e-05
-6.450753935272573e-05
-0.0001128577646361076
-0.00010825898480437677
-7.159121099170745e-05
-2.606605921958943e-05
1.0867590941202845e-05
3.084819715562615e-05
3.387147872632005e-05
2.5222455747394474e-05
1.1884890314790973e-05
-2.6031085902133133e-07
-7.863877425939203e-06
-1.0222791826651239e-05
-8.527642522953262e-06
-4.795920591279546e-06
-9.39225750187622e-07
1.7939290420808897e-06
2.963909507518798e-06
2.7799793843158986e-06
1.7967316041263936e-06
6.143261253700961e-07
-3.253901674146758e-07
-8.18520272302569e-07
-8.75307549241117e-07
-6.382961073666481e-07
-2.892929754500691e-07
2.1743707073069157e-08
2.117685752226861e-07
2.659701837535038e-07
2.1732984457690026e-07
1.1878469703528394e-07
1.9391485436084815e-08
-4.9545474046344074e-08
-7.771590125490766e-08
-7.130804527943511e-08
-4.501945333427836e-08
-1.4348469464043668e-08
9.532779046133448e-09
2.167309373409809e-08
2.2600800130380454e-08
1.6145614736965063e-08
7.030903429758815e-09
-9.280772231971663e-10
-5.6801174455580505e-09
-6.928208791399904e-09
-5.5749552427312125e-09
-2.9969080723951304e-09
-4.383304339487952e-10
1.3285749859517506e-09
2.067218750163703e-09
1.945035000283414e-09
1.3209386857052445e-09
5.518130676537703e-10
-1.2267052736036028e-10
-6.036180061322753e-10
-8.877556799423204e-10
-9.95457781718142e-10
-9.150312630143127e-10
-5.930809915618437e-10
2.1549005762299218e-11
8.980429530921781e-10
1.8473878389548447e-09
2.499475991383623e-09
2.376125199843329e-09
1.0737025435337547e-09
-1.4791814908687885e-09
-4.779300381598355e-09
-7.654146890019726e-09
-8.448300505321185e-09
-5.560778563065662e-09
1.7300642723786626e-09
1.2395966507730932e-08
2.314654194561566e-08
2.8736393344860868e-08
2.3415552353718737e-08
3.471425634858397e-09
-2.9757631371386995e-08
-6.76090372399151e-08
-9.411325785986476e-08
-8.962262097959655e-08
-3.8359413350954737e-08
6.156192047763829e-08
1.8914173493014448e-07
2.9756068783595045e-07
3.2226655525048054e-07
2.0249409829164654e-07
-8.659050753964987e-08
-5.007952814833846e-07
-9.086162625419971e-07
-1.1053664756408421e-06
-8.715717695396045e-07
-7.254882668202476e-08
1.226005146308537e-06
2.6740821191216267e-06
3.644830828694269e-06
3.3827922621814113e-06
1.3015558925006357e-06
-2.629125390718097e-06
-7.545614442085205e-06
-1.1597168034695165e-05
-1.2285070273503949e-05
-7.3179423890964705e-06
4.138678830090618e-06
2.0205463628305632e-05
3.5640288826240435e-05
4.2469784412600876e-05
3.233345848486659e-05
3.792055771377519e-07
-5.030911043822923e-05
-0.00010562516423885733
-0.00014099426581921443
-0.0001274081016311503
-4.314724959304669e-05
0.0001112842005864584
0.0003005075065764326
0.0004514616405204606
0.0004675362012374666
0.0002625127013850277
-0.0001909150510350073
-0.0008134901950226678
-0.0013965972899534387
-0.0016299775143663946
-0.0011956030655229746
8.017228633570427e-05
0.0020573806778130706
0.004169671799100315
0.005456444970391769
0.004808260996964284
0.0014284752989851316
-0.004590957192717346
-0.01179748643450472
-0.017304184243258813
-0.01738549726554585
-0.008845904186714432
0.009047771940726586
0.03266480300547898
0.05304214661820713
0.056785610472685426
0.02936719357708292
-0.03954236494599994
-0.15021501928049497
-0.08888074887955907
-0.02799581182939355
0.06811582200949033
0.033187607876265096
0.08727505613537179
0.026873308492592715
0.019903280570473126
0.00730261724590122
0.11149256676335996
0.05069045012860134
-0.043151250662252554
-0.20626786941463757
-0.22945241799368174
-0.053469754441904854
0.023795794084054495
0.12931849333339274
0.1905471447812521
0.11116779650919503
-0.046971431260509414
-0.07226505506204339
-0.001671754416422311
0.08926963595844883
0.10219999155130224
-0.06508335848218211
-0.09934497550668858
-0.2560711599264078
-0.1511723985459233
0.036953048962513606
0.15529971798527173
0.25815321253289825
0.1894958701277049
-0.028025809667278245
-0.19473541216175977
-0.12760902865194748
-0.0504487492116347
0.014725338176387034
0.052332636625652545
0.05378949494501643
0.01548533083672659
-0.06399869114298451
0.013798268374944961
0.04587903910971357
0.027579236326987625
-0.04642872490976241
0.0200063151755224
0.02737079535966605
-0.016682814822099844
-0.09543083166453731
0.01696760214780263
-0.04708822311590624
-0.05396335768268441
0.023899657100772957
0.20046220530204398
0.07087131815716997
0.010946838412224887
-0.0175442243671664
-0.05692802845182178
-0.14205617553086694
-0.09103716136824924
-0.10155330153893626
0.04583434650808721
0.17858199872573188
0.1207975389323376
0.0841494774042685
0.06460531670486097
-0.1540343382450351
-0.1918127293199599
-0.06345308313131984
0.027745758472726458
0.09102518104934353
0.1450176691096964
0.012748184376318042
-0.08292609614304536
-0.12265943043517342
-0.09353690301126216
0.00727768377221432
0.16819727137564447
0.16008428465816943
0.13736717182002334
0.04565306784446021
-0.164583141890572
-0.32204316439613323
-0.22247909420229722
-0.026080741837134096
0.1334187307906376
0.3308089637058836
0.22957549908634817
0.06785215467632139
-0.145188633756194
-0.22296283651352233
-0.19000452664061848
-0.07176735490283709
0.10984935991615578
0.13468618764539064
0.17923045278424
0.012698964019727033
-0.002376993638368895
-0.10448288729796543
-0.1245302972988822
-0.07791891806860875
0.039568227100241576
0.050633571735497054
-0.00916664429963443
0.10063440744438985
0.01766092926893595
-0.028975157353779722
-0.02141404657125024
0.0469644846650238
-0.026515799562524558
-0.050975475420986724
-0.039191419183123445
-0.0056331943376762075
0.0344129910776215
0.06510881191220116
0.07078251476749406
0.03814594635790948
-0.03974779585248639
-0.15887035008381176
-0.10110631221480854
-0.03501243548147331
0.07845046122108379
0.07629573158110736
0.18303021737102662
0.0029473584428878485
-0.08225740433514492
-0.11015571780961027
0.06987186403969856
0.005880417925968884
0.05253412145241064
-0.02087641655966116
-0.024438721549839594
-0.14483390450781694
-0.1471806106068558
0.01763265505165216
0.20090444002477062
0.042350857820121546
0.15909736393203178
0.14160003895152784
-0.04152971078682311
-0.23101540933672787
-0.06091867949964777
-0.14486954603825597
-0.06951087280085545
0.002494378041276328
0.12089723504898235
0.13159146831602098
0.0609729781177331
0.10594830080126125
0.03269852359126902
-0.015425279900599553
-0.10318160097513562
-0.086183743725976
-0.19620450551599872
-0.03345611503024039
0.03182799042352799
0.04910174030338964
0.07183771400298095
0.14139239565953293
0.07531223658448041
0.06358674133596473
0.07401749191011199
-0.13485739220241277
-0.1973262557831254
-0.1260774862612309
-0.10504131398178063
-0.09248615644343672
0.16628190330952294
0.3209718842790299
0.19979117744842906
0.0007520934969561658
-0.10600829914447324
-0.1664775785803894
-0.227055618457994
-0.12145883558803339
0.13511443127766487
0.1437068130883153
0.11405615475092258
0.05638407295856551
-0.02368933309813869
-0.12578394740914872
-0.05212153981155514
-0.004029542519380071
0.02031009973247602
0.02604825002708632
0.020242758012745023
0.009868629022676847
0.0002125258191841733
-0.005861042443834774
-0.007764489242558972
-0.006465018058280954
-0.0035823985480826666
-0.0006315131597216209
0.0014185801475895502
0.0022519334932130657
0.0020681029908664736
0.0013298335683725275
0.0005138802824699855
-5.959487713365718e-05
-0.0002920657984492622
-0.00027729768479989975
-0.00021038328525960722
-0.0002747057840023873
-0.0005437844588875558
-0.0009279099944797956
-0.0011858346485717419
-0.001008353799421792
-0.0001613302328354179
0.0013490877055201034
0.0031511040303672457
0.004497378407307767
0.004434370225881341
0.00216665080330425
-0.0024517236926758605
-0.008467017903040287
-0.013663601307983504
-0.014943199894149446
-0.009390697982660786
0.004062464745903891
0.02277954662422612
0.03904697358660562
0.039963184515838725
0.009122487124589284
-0.06995958783488428
-0.00947293366489066
-0.01329531903382672
-0.0746086295591687
0.024120658566617326
0.10887359368159602
0.010336735191818866
-0.04020986608724492
-0.014648509623282081
-0.09144408722352043
-0.05917577591654541
0.0797259945635079
0.10595300612577739
0.18293832621943945
0.06118395199383709
-0.11200428270120283
-0.17920514888330077
-0.16019747438051737
-0.04478408708717731
0.005638760776290969
0.04771787318318915
0.1401097309139312
0.12677219109126955
0.024639593883561767
0.019180167775076258
0.06883388965786216
-0.0832103166290994
-0.09334934890722911
-0.20245977890941613
-0.02565104223520484
0.050332403689936925
0.0618393270794845
0.057513090713855755
0.08570614195332389
-0.016317673949534275
-0.029082509811872978
0.04723767715749776
-0.004704781872151391
-0.013794652307947373
-0.013127484660068064
-0.03261063708417006
-0.0931040375474578
-0.0033960842430384858
0.039422246496002206
0.04665822612696739
0.033198706764382975
0.012911808947680153
-0.004404827119257094
-0.014044338649720649
-0.015688642782675413
-0.011741033202722746
-0.005503897107315161
0.00021241125715504796
0.0037961337495453214
0.004898730073205838
0.0040787353618701025
0.0022928612862501236
0.00045002179459366636
-0.0008555424249084549
-0.0014146340054661778
-0.0013272911823135828
-0.0008582228757605843
-0.00029388829101170883
0.00015477097160315282
0.0003903551012498285
0.0004176728077297046
0.0003047041972283229
0.0001382036357764745
-1.0246149024859727e-05
-0.00010098233825051893
-0.00012690621802336624
-0.00010373675956154891
-5.672874343514385e-05
-9.295414336788906e-06
2.361610097920226e-05
3.707643765822533e-05
3.403196844483263e-05
2.1493599445372554e-05
6.857845914006278e-06
-4.5412092607025435e-06
-1.0337767593067653e-05
-1.0781896069185873e-05
-7.700844530962421e-06
-3.350025061282755e-06
4.4752991863046584e-07
2.710839032464488e-06
3.2976140990428815e-06
2.640609704558853e-06
1.4014884409166881e-06
1.8042869722691557e-07
-6.484454203502963e-07
-9.707045035881204e-07
-8.7192004473651e-07
-5.37528502240567e-07
-1.5833098154406356e-07
1.3097361564058351e-07
2.731869621755921e-07
2.7798424005107575e-07
1.943371275956764e-07
8.081110947923867e-08
-1.622015964415906e-08
-7.255775058062765e-08
-8.557938301487246e-08
-6.713285290717094e-08
-3.452729154902101e-08
-3.130002825350003e-09
1.771229400577737e-08
2.5376881252193778e-08
2.2313407749780674e-08
1.3417142773231762e-08
3.6043254075448536e-09
-3.728544882510045e-09
-7.2056815203250746e-09
-7.1588865102914e-09
-4.896955114131938e-09
-1.938748571513265e-09
5.375744405750194e-10
1.9368107294080602e-09
2.2182151027548815e-09
1.7045748386425543e-09
8.480450516628356e-10
4.164347283612166e-11
-4.815835797862557e-10
-6.624796593956279e-10
-5.703616668530279e-10
-3.3422180623367354e-10
-8.058812019416141e-11
1.0502517184327891e-10
1.8972038989445772e-10
1.8415071059720707e-10
1.2320369637525363e-10
4.6222118876433225e-11
-1.690034055866448e-11
-5.1570414591831504e-11
-5.742655224283216e-11
-4.3224902325776974e-11
-2.0760346742278986e-11
-7.254838014372251e-14
1.304004654787818e-11
1.7270676738085514e-11
1.456212549081036e-11
8.307479930526079e-12
1.7594400516002601e-12
-2.932396888274526e-12
-4.986708468613678e-12
-4.73156898442062e-12
-3.0947091834636278e-12
-1.093995737256808e-12
5.130688304788398e-13
1.369932991332628e-12
1.4849242751144598e-12
1.094646611483767e-12
5.063641577527144e-13
-2.376221872026996e-14
-3.517841397856966e-13
-4.496411773980462e-13
-3.713496583055528e-13
-2.0601539536285584e-13
-3.716122815095577e-14
8.12671072121336e-14
1.308601040475193e-13
1.2143395768091162e-13
7.760342139120449e-14
2.5671365799679353e-14
-1.5193103297763686e-14
-3.631210320484892e-14
-3.835193897897823e-14
-2.7683574941538236e-14
-1.2300906374205958e-14
1.2679793551166406e-15
9.45809161558481e-15
1.1690960523186224e-14
9.458185307212489e-15
5.0960597591652434e-15
7.468330307684716e-16
-2.2380329147642115e-15
-3.4288579613037045e-15
-3.1131942837331707e-15
-1.9427486899234467e-15
-5.964240393204699e-16
4.413679417392202e-16
9.603294736634455e-16
9.891814858990501e-16
6.989254031035986e-16
2.9726645756778247e-16
-4.963395474364238e-17
-2.5371417217269503e-16
-3.037891242019438e-16
-2.408043304571935e-16
-1.2592250576158604e-16
-1.402648292829657e-17
6.108828940511593e-17
8.950744661706499e-17
7.951866269680146e-17
4.8342440629866666e-17
1.3481641259542958e-17
-1.284005172046342e-17
-2.5550949387064828e-17
-2.5686188589783814e-17
-1.7822149822974982e-17
-7.348864305533389e-18
1.5095568027481736e-18
6.583910184682756e-18
7.681625040680587e-18
5.920871103619524e-18
2.9005008068710743e-18
2.495043655199198e-20
-1.862297212969095e-18
-2.535715710307385e-18
-2.2311084483702183e-18
-1.4026506178398376e-18
-5.010663738469449e-19
1.656509554122971e-19
4.75859503962441e-19
4.637602239861376e-19
2.514971400098817e-19
-2.1228334674519105e-20
-2.4716798958250563e-19
-3.730507266642996e-19
-3.963701402725566e-19
-3.475221758003075e-19
-2.6824314584344214e-19
-1.9443041246615683e-19
-1.4709309929863002e-19
-1.3126878637344495e-19
-1.4031839328913175e-19
-1.622847972662193e-19
-1.8557447795044164e-19
-2.0243913402923393e-19
-2.0997960030704281e-19
-2.0926898135832116e-19
-2.03559169714347e-19
-1.9646663900218792e-19
-1.9071083925320824e-19
-1.8759564538098715e-19
-1.8712266174082275e-19
-1.884689953082845e-19
-1.9054666049743987e-19
-1.9243919887424452e-19
-1.9362445887070103e-19
-1.93992602271005e-19
-1.9372892785352093e-19
-1.9314769816338574e-19
-1.9254678109192874e-19
-1.9212078823395774e-19
-1.9193831208884852e-19
-1.9196681910469996e-19
-1.9211993414059745e-19
-1.9230414835317625e-19
-1.9245059755773306e-19
-1.9252748480046552e-19
-1.9253638209913924e-19
-1.9249948511930054e-19
-1.924451177370522e-19
-1.923966492821261e-19
-1.923670270008593e-19
-1.9235856640334545e-19
-1.923661338529479e-19
-1.923814831470228e-19
-1.923969700167933e-19
-1.924077147372699e-19
-1.9241210843957365e-19
-1.9241111353849348e-19
-1.9240701929440237e-19
-1.9240224066490188e-19
-1.9239851909607774e-19
-1.9239662685009601e-19
-1.9239648213792976e-19
-1.9239748828312406e-19
-1.92398908878826e-19
-1.9240014873567269e-19
-1.9240088761322419e-19
-1.9240107910098116e-19
-1.9240086452324115e-19
-1.9240045992289022e-19
-1.9240006125251278e-19
-1.9239979064979436e-19
-1.9239968546124257e-19
-1.9239971773710917e-19
-1.9239982692761213e-19
-1.9239995073662113e-19
-1.9240004518853694e-19
-1.924000916125782e-19
-1.924000931713266e-19
-1.9240006585600648e-19
-1.9240002878855268e-19
-1.9239999710911777e-19
-1.9239997871734273e-19
-1.9239997446820746e-19
-1.9239998049265718e-19
-1.9239999113902646e-19
-1.9240000139005557e-19
-1.9240000819440675e-19
-1.9240001069614177e-19
-1.9240000969534017e-19
-1.9240000679042303e-19
-1.9240000358652499e-19
-1.9240000119250682e-19
-1.924000000574468e-19
-1.9240000007291906e-19
-1.924000008115533e-19
-1.9240000177743534e-19
-1.9240000258591925e-19
-1.9240000304270513e-19
-1.9240000313452006e-19
-1.924000029667729e-19
-1.924000026870982e-19
-1.924000024238124e-19
-1.924000022529966e-19
-1.9240000219395647e-19
-1.9240000222405336e-19
-1.9240000230116733e-19
-1.9240000238398487e-19
-1.924000024445845e-19
-1.9240000247222468e-19
-1.9240000247038462e-19
-1.9240000245045887e-19
-1.9240000242530055e-19
-1.92400002404681e-19
-1.924000023933766e-19
