0
-1.5450327387527957e-07
-1.5450327387527957e-07
-1.5450327387527957e-07
-1.5450327387527957e-07
-1.5450327387527957e-07
-1.5450327387527957e-07
-1.5450327387527957e-07
-1.5450327387527957e-07
-1.5450327387527957e-07
-1.5450327387527957e-07
-1.5450327387527957e-07
-1.5450327387527957e-07
-1.5450327387527957e-07
-1.5450327387527957e-07
-1.5450327387527957e-07
-1.5450327387527957e-07
-1.5450327387527957e-07
-1.5450327387527957e-07
-1.5450327387527957e-07
-1.5450327387527957e-07
-1.5450327387527957e-07
-1.5450327387527957e-07
-1.5450327387527957e-07
-1.5450327387527957e-07
-1.5450327387527957e-07
-1.5450327387527957e-07
-1.5450327387527957e-07
-1.5450327387527957e-07
-1.5450327387527957e-07
-1.5450327387527957e-07
-1.5450327387527957e-07
-1.5450327387527957e-07
-1.5450327387527957e-07
-1.5450327387527957e-07
-1.5450327387527957e-07
-1.5450327387527957e-07
-1.5450327387527957e-07
-1.5450327387527957e-07
-1.5450327387527957e-07
-1.5450327387527957e-07
-1.5450327387527957e-07
-1.5450327387527957e-07
-1.5450327387527957e-07
-1.5450327387527957e-07
-1.5450327387527957e-07
-1.5450327387527957e-07
-1.5450327387527957e-07
-1.5450327387527957e-07
-1.5450327387527957e-07
-1.5450327387527957e-07
-1.5450327387527957e-07
-1.5450327387527957e-07
-1.5450327387527957e-07
-1.5450327387527957e-07
-1.5450327387527957e-07
-1.5450327387527957e-07
-1.5450327387527957e-07
-1.5450327387527957e-07
-1.5450327387527957e-07
-1.5450327387527957e-07
-1.5450327387527957e-07
-1.5450327387527957e-07
-1.5450327387527957e-07
-1.5450327387527957e-07
-1.5450327387527957e-07
-1.5450327387527957e-07
-1.5450327387527957e-07
-1.5450327387527957e-07
-1.5450327387527957e-07
-1.5450327387527957e-07
-1.5450327387527957e-07
-1.5450327387527957e-07
-1.5450327387527957e-07
-1.5450327387527957e-07
-1.5450327387527957e-07
-1.5450327387527957e-07
-1.5450327387527957e-07
-1.5450327387527957e-07
-1.5450327387527957e-07
-1.5450327387527957e-07
-1.5450327387527957e-07
-1.5450327387527957e-07
-1.5450327387527957e-07
-1.5450327387527957e-07
-1.5450327387527957e-07
-1.5450327387527957e-07
-1.5450327387527957e-07
-1.5450327387527957e-07
-1.5450327387527957e-07
-1.5450327387527957e-07
-1.5450327387527957e-07
-1.5450327387527957e-07
-1.5450327387527957e-07
-1.5450327387527957e-07
-1.5450327387527957e-07
-1.5450327387527957e-07
-1.5450327387527957e-07
-1.5450327387527957e-07
-1.5450327387527957e-07
-1.5450327387527957e-07
-1.5450327387527957e-07
-1.5450327387527957e-07
-1.5450327387527957e-07
-1.5450327387527957e-07
-1.5450327387527957e-07
-1.5450327387527957e-07
-1.5450327387527957e-07
-1.5450327387527957e-07
-1.5450327387527957e-07
-1.5450327387527957e-07
-1.5450327387527957e-07
-1.5450327387527957e-07
-1.5450327387527957e-07
-1.5450327387527957e-07
-1.5450327387527957e-07
-1.5450327387527957e-07
-1.5450327387527957e-07
-1.5450327387527957e-07
-1.5450327387527957e-07
-1.5450327387527957e-07
-1.5450327387527957e-07
-1.5450327387527957e-07
-1.5450327387527957e-07
-1.5450327387527957e-07
-1.5450327387527957e-07
-1.5450327387527957e-07
-1.5450327387527957e-07
-1.5450327387527957e-07
-1.5450327387527957e-07
-1.5450327387527957e-07
-1.5450327387527957e-07
-1.5450327387527957e-07
-1.5450327387527957e-07
-1.5450327387527957e-07
-1.5450327387527957e-07
-1.5450327387527957e-07
-1.5450327387527957e-07
-1.5450327387527957e-07
-1.5450327387527957e-07
-1.5450327387527957e-07
-1.5450327387527957e-07
-1.5450327387527957e-07
-1.5450327387527957e-07
-1.5450327387527957e-07
-1.5450327387527957e-07
-1.5450327387527957e-07
-1.5450327387527957e-07
-1.5450327387527957e-07
-1.5450327387527957e-07
-1.5450327387527957e-07
-1.5450327387527957e-07
-1.5450327387527957e-07
-1.5450327387527957e-07
-1.5450327387527957e-07
-1.5450327387527957e-07
-1.5450327387527957e-07
-1.5450327387527957e-07
-1.5450327387527957e-07
-1.5450327387527957e-07
-1.5450327387527957e-07
-1.5450327387527957e-07
-1.5450327387527957e-07
-1.5450327387527957e-07
-1.5450327387527957e-07
-1.5450327387527957e-07
-1.5450327387527957e-07
-1.5450327387527954e-07
-1.5450327387527954e-07
-1.5450327387527954e-07
-1.5450327387527954e-07
-1.5450327387527957e-07
-1.5450327387527962e-07
-1.5450327387527967e-07
-1.545032738752797e-07
-1.5450327387527967e-07
-1.545032738752796e-07
-1.5450327387527946e-07
-1.5450327387527927e-07
-1.5450327387527917e-07
-1.5450327387527917e-07
-1.5450327387527938e-07
-1.545032738752798e-07
-1.5450327387528036e-07
-1.5450327387528084e-07
-1.54503273875281e-07
-1.5450327387528054e-07
-1.5450327387527933e-07
-1.5450327387527753e-07
-1.545032738752757e-07
-1.5450327387527472e-07
-1.5450327387527554e-07
-1.5450327387527882e-07
-1.545032738752844e-07
-1.5450327387529081e-07
-1.5450327387529542e-07
-1.5450327387529486e-07
-1.5450327387528645e-07
-1.5450327387526977e-07
-1.5450327387524823e-07
-1.5450327387522962e-07
-1.5450327387522483e-07
-1.5450327387524423e-07
-1.545032738752923e-07
-1.54503273875362e-07
-1.5450327387543153e-07
-1.545032738754665e-07
-1.5450327387542968e-07
-1.5450327387529749e-07
-1.5450327387507974e-07
-1.545032738748341e-07
-1.545032738746654e-07
-1.5450327387470144e-07
-1.5450327387504332e-07
-1.5450327387570006e-07
-1.545032738765308e-07
-1.5450327387722705e-07
-1.545032738773677e-07
-1.545032738765609e-07
-1.5450327387465435e-07
-1.545032738719493e-07
-1.545032738693154e-07
-1.545032738680919e-07
-1.545032738697005e-07
-1.5450327387499224e-07
-1.5450327388349706e-07
-1.5450327389288859e-07
-1.545032738990532e-07
-1.545032738970799e-07
-1.5450327388321756e-07
-1.5450327385739714e-07
-1.5450327382540253e-07
-1.5450327379941755e-07
-1.5450327379573632e-07
-1.5450327382911876e-07
-1.545032739046263e-07
-1.5450327400949813e-07
-1.5450327410909544e-07
-1.5450327415127337e-07
-1.545032740819178e-07
-1.5450327387047099e-07
-1.5450327353866364e-07
-1.5450327318015557e-07
-1.5450327295612827e-07
-1.5450327305504327e-07
-1.5450327361559922e-07
-1.5450327462949448e-07
-1.5450327586019495e-07
-1.5450327682702914e-07
-1.5450327690036716e-07
-1.5450327552545383e-07
-1.5450327253926183e-07
-1.5450326847820564e-07
-1.5450326471976428e-07
-1.5450326329181407e-07
-1.5450326625076453e-07
-1.545032746846834e-07
-1.54503287615021e-07
-1.5450330127932902e-07
-1.5450330936960328e-07
-1.545033046634653e-07
-1.5450328205275245e-07
-1.545032422880714e-07
-1.545031950094965e-07
-1.5450315915548561e-07
-1.5450315902672856e-07
-1.5450321542272379e-07
-1.545033333592016e-07
-1.5450349043489125e-07
-1.545036319576039e-07
-1.5450367915490318e-07
-1.5450355401769498e-07
-1.5450321818761675e-07
-1.5450271487526068e-07
-1.545021949103455e-07
-1.5450190487552222e-07
-1.5450212116385996e-07
-1.5450303107012773e-07
-1.5450458877305863e-07
-1.545064026091435e-07
-1.545077273540847e-07
-1.5450762626545157e-07
-1.5450532156358922e-07
-1.5450067000271766e-07
-1.5449460176822602e-07
-1.5448928511685643e-07
-1.5448777643472696e-07
-1.5449302949162709e-07
-1.5450638020701975e-07
-1.545259492337845e-07
-1.5454570189480279e-07
-1.5455601030096037e-07
-1.5454631254108947e-07
-1.545097756514917e-07
-1.5444882742332416e-07
-1.54379335171438e-07
-1.543305867447039e-07
-1.543386466271374e-07
-1.5443251606324468e-07
-1.546157409860211e-07
-1.5484988946389986e-07
-1.5504912641266467e-07
-1.550950004510301e-07
-1.548758874190477e-07
-1.5434596355639095e-07
-1.535859808891044e-07
-1.5283693964952612e-07
-1.5247433193700736e-07
-1.5290115552524032e-07
-1.5436527426305615e-07
-1.5674722165400057e-07
-1.59405866234203e-07
-1.611915824816114e-07
-1.607176617915277e-07
-1.569060977161162e-07
-1.4969802774974866e-07
-1.4067428459120663e-07
-1.332280625150776e-07
-1.3194463940304474e-07
-1.4103358940057235e-07
-1.6203615694540046e-07
-1.915169217788789e-07
-2.198682270506166e-07
-2.3246245261475227e-07
-2.1394703407870108e-07
-1.5538970994403235e-07
-6.24070478228829e-08
3.915891244872583e-08
1.0423660230753362e-07
7.957561130612887e-08
-7.475778056746322e-08
-3.5797110833784345e-07
-7.052975233807715e-07
-9.827813774206753e-07
-1.0131347161428507e-06
-6.379566439196017e-07
1.9324115475073526e-07
1.3355170337902547e-06
2.406495696981937e-06
2.8369959538983442e-06
2.043105789417638e-06
-2.9460523812832353e-07
-3.92015146527184e-06
-7.79429621793855e-06
-1.0152083610800582e-05
-8.951411343420288e-06
-2.718551790992837e-06
8.395666014842467e-06
2.1747245509369843e-05
3.205492250402376e-05
3.247211959911867e-05
1.70525115504905e-05
-1.5796980833882158e-05
-6.000433664260296e-05
-0.00010037579296529267
-0.00011478911320901107
-8.107443258124656e-05
1.2087460954589338e-05
0.00015328835804390576
0.00030082239875966706
0.0003856526362675158
0.0003295681886027685
7.840099009288667e-05
-0.00035732589624541396
-0.0008700348940921154
-0.0012517680910024518
-0.001238380512415672
-0.0006070314965840342
0.0006901781591187508
0.0024013743759941928
0.003925625835597937
0.004407499272861553
0.003012507043146568
-0.0006472432617228062
-0.006060120905439357
-0.011543542006991153
-0.014396960486326355
-0.011659000974220146
-0.0014644568521982653
0.015284629636478623
0.03351327474755957
0.04357880898145818
0.03251853417842076
-0.01291062940561089
-0.10202096962579423
-0.03616952936958179
-0.00651470756003756
0.0053923430676540126
0.024210064631070748
0.07565564841382635
-0.0188685987951851
-0.046521086181960984
-0.005378914706132057
0.09530454314390532
0.03694704113340305
-0.004487913817282112
-0.053089572748671106
-0.1273649556577532
-0.036233761451345194
0.021790684114602055
0.05593206767671629
0.07824580618817159
0.0986798104080633
-0.07788748670287274
-0.05180310140305664
-0.026614975969963352
-0.006357334136939042
0.006482526943138041
0.011708161934784286
0.011024378124877953
0.007057975318764092
0.0023471698902173344
-0.0013372746682179916
-0.003221965551645074
-0.003387104067641847
-0.00242039694609033
-0.0010449721591550619
0.0001561522254926876
0.0008700111863051582
0.0010515932203599583
0.0008390507853549755
0.00044306627114264197
5.434230619426808e-05
-0.00020862650962415787
-0.0003100368627182807
-0.00027759756128946036
-0.00017057504609351983
-4.972699994301876e-05
4.218998654957418e-05
8.71419875204544e-05
8.836192576150202e-05
6.153139616517244e-05
2.5319146421011603e-05
-5.537172191269313e-06
-2.33827169238775e-05
-2.7431119566169955e-05
-2.1487137343765263e-05
-1.1074074702783358e-05
-1.080314431377157e-06
5.531824267702179e-06
7.942444001189152e-06
6.942905312106179e-06
4.097307470575706e-06
9.70965364893963e-07
-1.358142061198001e-06
-2.4565335407412743e-06
-2.4336970253642896e-06
-1.7085370791257037e-06
-7.651131146479039e-07
2.223144689223593e-08
4.6530451727950805e-07
5.523822429366175e-07
3.870548629123316e-07
1.1357425253083464e-07
-1.4306091115631806e-07
-3.090119540095099e-07
-3.65835891506184e-07
-3.358917311283307e-07
-2.6038337786627465e-07
-1.795902117904464e-07
-1.206464979012822e-07
-9.390792494338072e-08
-9.588455918054157e-08
-1.1541405427173481e-07
-1.3996013347527527e-07
-1.6002631002048188e-07
-1.7100073559943302e-07
-1.7280035341741182e-07
-1.6823354797019966e-07
-1.610625053132787e-07
-1.5447977372079623e-07
-1.503219520232759e-07
-1.489949791417805e-07
-1.4987297792219754e-07
-1.5187236552271946e-07
-1.5395783956918502e-07
-1.5544748014992147e-07
-1.560956060693551e-07
-1.5600917091830872e-07
-1.554849031544964e-07
-1.5484708169706691e-07
-1.5433629931950674e-07
-1.5406517439581187e-07
-1.5403023366767794e-07
-1.54155631247543e-07
-1.5434337894912103e-07
-1.5451203349642638e-07
-1.5461601629906731e-07
-1.5464665430497338e-07
-1.5462133050544436e-07
-1.5456849410365368e-07
-1.545147251412375e-07
-1.544771326377101e-07
-1.5446149790327662e-07
-1.5446463200787957e-07
-1.544786645917357e-07
-1.5449521735065716e-07
-1.545082031520634e-07
-1.54514882698852e-07
-1.545154891816104e-07
-1.545120638844595e-07
-1.5450715561827987e-07
-1.545028395419457e-07
-1.545002440291651e-07
-1.5449954653040304e-07
-1.5450026747654394e-07
-1.5450166111850915e-07
-1.5450304582830777e-07
-1.545039930987438e-07
-1.5450436820137888e-07
-1.545042643047353e-07
-1.545038897242748e-07
-1.5450346067535048e-07
-1.5450313095045227e-07
-1.545029668883042e-07
-1.5450295880614343e-07
-1.5450305193879424e-07
-1.5450318007286017e-07
-1.5450329039822776e-07
-1.5450335505309338e-07
-1.5450337064943383e-07
-1.5450335034120776e-07
-1.5450331364738957e-07
-1.5450327802783474e-07
-1.545032541950886e-07
-1.5450324525196825e-07
-1.5450324851878348e-07
-1.545032584926228e-07
-1.5450326960016036e-07
-1.5450327796142085e-07
-1.5450328197775224e-07
-1.5450328199248444e-07
-1.545032794706557e-07
-1.5450327613021666e-07
-1.545032733134447e-07
-1.5450327170635819e-07
-1.545032713658169e-07
-1.5450327193285736e-07
-1.5450327289734236e-07
-1.5450327381255505e-07
-1.5450327441120472e-07
-1.545032746228785e-07
-1.5450327452369234e-07
-1.545032742587418e-07
-1.5450327397152405e-07
-1.5450327375977881e-07
-1.5450327366181554e-07
-1.5450327366639407e-07
-1.5450327373442704e-07
-1.5450327382139567e-07
-1.545032738932264e-07
-1.5450327393307993e-07
-1.5450327394027267e-07
-1.5450327392455666e-07
-1.5450327389924615e-07
-1.545032738757578e-07
-1.5450327386074737e-07
-1.5450327385578272e-07
-1.5450327385872312e-07
-1.545032738657483e-07
-1.545032738731663e-07
-1.5450327387851743e-07
-1.5450327388088933e-07
-1.545032738806342e-07
-1.545032738787959e-07
-1.5450327387653196e-07
-1.5450327387471118e-07
-1.545032738737479e-07
-1.545032738736365e-07
-1.5450327387410296e-07
-1.5450327387478392e-07
-1.5450327387536999e-07
-1.5450327387568405e-07
-1.54503273875696e-07
-1.545032738754922e-07
-1.5450327387522276e-07
-1.545032738750438e-07
-1.5450327387506675e-07
-1.5450327387531977e-07
-1.5450327387572773e-07
-1.5450327387611757e-07
-1.545032738762582e-07
-1.5450327387593705e-07
-1.545032738750643e-07
-1.5450327387377547e-07
-1.5450327387248507e-07
-1.5450327387183984e-07
-1.5450327387253428e-07
-1.545032738749991e-07
-1.5450327387903978e-07
-1.5450327388357284e-07
-1.5450327388664566e-07
-1.5450327388589493e-07
-1.5450327387947214e-07
-1.5450327386725242e-07
-1.5450327385189531e-07
-1.545032738391496e-07
-1.5450327383681305e-07
-1.5450327385207886e-07
-1.5450327388764018e-07
-1.5450327393775124e-07
-1.5450327398616094e-07
-1.5450327400802432e-07
-1.5450327397715828e-07
-1.5450327387816856e-07
-1.5450327372029824e-07
-1.5450327354717275e-07
-1.5450327343525707e-07
-1.5450327347523342e-07
-1.5450327373556355e-07
-1.5450327421585203e-07
-1.5450327480707446e-07
-1.5450327528225497e-07
-1.5450327533986144e-07
-1.545032747091315e-07
-1.5450327330136863e-07
-1.545032713593305e-07
-1.5450326952997942e-07
-1.5450326878026042e-07
-1.5450327010630083e-07
-1.5450327405943848e-07
-1.5450328021634288e-07
-1.5450328682191233e-07
-1.5450329088121929e-07
-1.5450328891583267e-07
-1.5450327839741242e-07
-1.5450325954518445e-07
-1.5450323681267456e-07
-1.5450321915064753e-07
-1.5450321820634185e-07
-1.5450324414861244e-07
-1.5450329979843148e-07
-1.545033749737224e-07
-1.5450344395990256e-07
-1.5450346916695673e-07
-1.5450341276162143e-07
-1.545032551711271e-07
-1.545030153279771e-07
-1.5450276368931423e-07
-1.545026174208373e-07
-1.5450270976647487e-07
-1.5450313371561917e-07
-1.545038728112561e-07
-1.5450474573419907e-07
-1.5450539996941768e-07
-1.5450538616458082e-07
-1.54504323371813e-07
-1.545021264899085e-07
-1.5449921992235423e-07
-1.5449662415576936e-07
-1.544957988303794e-07
-1.5449817830072237e-07
-1.5450445008264692e-07
-1.5451378254448231e-07
-1.545233529901773e-07
-1.5452858306056218e-07
-1.5452437599200655e-07
-1.545073274976426e-07
-1.544783858287724e-07
-1.5444491080717562e-07
-1.5442076824325228e-07
-1.5442327288604306e-07
-1.5446665726603325e-07
-1.545532686261115e-07
-1.5466551356762174e-07
-1.5476295423571017e-07
-1.5478897721053154e-07
-1.5468930484675973e-07
-1.5444010005549026e-07
-1.5407738230430884e-07
-1.537140191591249e-07
-1.5352870808151233e-07
-1.5371612073143877e-07
-1.5440023709805507e-07
-1.5553221423464623e-07
-1.5681414517614703e-07
-1.577013085170584e-07
-1.575273584283365e-07
-1.5576211760233497e-07
-1.5235189485127804e-07
-1.4802251242877322e-07
-1.4437406118168807e-07
-1.4359979882103324e-07
-1.4774956445172605e-07
-1.5763633540260468e-07
-1.7171766407399418e-07
-1.854886629646949e-07
-1.9198260448573025e-07
-1.837753246806652e-07
-1.5637847808106165e-07
-1.1215551728650761e-07
-6.313393584685331e-08
-3.0687206230270296e-08
-4.042623372437647e-08
-1.1203736669556177e-07
-2.4614180409422234e-07
-4.129234534991747e-07
-5.491561047783863e-07
-5.699702062125976e-07
-3.9811568064252226e-07
-6.454769375690131e-09
5.395772361487572e-07
1.060487446546411e-06
1.2849802196951992e-06
9.303714997092552e-07
-1.647094485757632e-07
-1.8903795494556118e-06
-3.7622102037106738e-06
-4.942564810628197e-06
-4.448388665287099e-06
-1.5512712607582484e-06
3.7157762476360264e-06
1.0132636945068848e-05
1.520435154592805e-05
1.5650722716194966e-05
8.567080851620371e-06
-6.9262726846585475e-06
-2.807517775457302e-05
-4.7739713217212514e-05
-5.536725458900039e-05
-4.021217508561284e-05
3.480508931632011e-06
7.074219665776518e-05
0.00014210491509649974
0.00018477942428404566
0.00016108197935803788
4.416420408371303e-05
-0.00016246691257942335
-0.0004090586056794945
-0.0005972887155217384
-0.0006005271041545246
-0.00030980281694262864
0.00030226225050323944
0.0011206438369869816
0.0018620304213104255
0.002116920238296031
0.0014784525684099952
-0.0002551324420498177
-0.002861432571225166
-0.005556637969809997
-0.007055607521529192
-0.005915217571749528
-0.0011585396961653676
0.006959915529486515
0.01633391227396188
0.02290367547449989
0.021397051095941956
0.006998524771336481
-0.022386620691696286
-0.06408383328680442
-0.10992979226298415
0.05217975927325641
0.03435530047286793
0.04348061783923731
0.07670511345238316
0.11975869083842247
-0.05070833061297869
-0.0611313801108912
-0.13346157531394284
-0.07915614054415283
-0.09759218553729541
0.01991769911134686
0.08182336747889703
0.2874214138763531
0.2221928395300038
0.06138496426156481
-0.21739324603723498
-0.21634058131163206
-0.30181812819496023
-0.1988829182267808
-0.0008473884176473856
0.20697868544087364
0.3161457181582304
0.36701939559114904
0.13409320734419425
-0.06945754505010833
-0.16897674198190007
-0.2948517889067412
-0.34954675677361724
-0.1857035869387147
0.19863836527790205
0.24830569622954063
0.22939499907449137
0.20722473413951978
0.031601333660454194
-0.26765991311141807
-0.2774547500277428
-0.19627069771251984
-0.03290824231374443
0.18902803801764664
0.4241085282347038
0.4023786066190114
0.037514410205319544
-0.3523974920431317
-0.4168749624128995
-0.3488954780705585
-0.27613923073311214
0.12616343175728373
0.40326939494658537
0.48042827614782646
0.22827706316535543
0.046331383244468234
-0.13041049324965578
-0.20543299928873696
-0.2853700972431995
-0.24764801317068583
-0.12120528274475618
0.11480717633863297
0.11574896501861276
0.14632679169568402
0.25484682146004994
0.2556010044108848
-0.07514549056216353
-0.18898813132782785
-0.1455070718422488
-0.19043569456381912
-0.13977139949246578
0.02508966169254874
0.15043523784791293
0.09487061406822236
0.1112743867783006
0.03194110520110147
0.060899984807113665
-0.025339865468829846
-0.06992584293169957
-0.12377312067363416
-0.033449158820325044
-0.032112416205622434
0.06474197088692518
0.05883590355250755
-0.03457544640847265
0.008231634457742743
0.014469664216903532
0.010805651939380686
0.020713966973178913
0.06339538724052388
-0.04589254168875318
-0.09475214028424703
-0.07295519932994284
0.026678126685031042
0.0054140081076955796
0.05463939316018229
0.15279230490657705
0.06543920969143874
-0.05009873297363794
-0.03592632693213314
-0.12289272745880055
-0.12159837793953585
-0.018446817553484623
0.021470520100121807
0.045160330125220104
0.09876350876111177
0.014489806947422185
0.0009185609136539092
0.03904798041327575
0.08510787123617505
0.07992476119349749
-0.036514033462790856
-0.10797133299489917
-0.14636504064497724
-0.12232152207180773
-0.16570291138066798
0.022497180658351337
0.14894238861917128
0.3028521990118849
0.1343564450557164
0.04296472554789251
-0.020540076077120016
-0.14008932746609537
-0.21335910131846725
-0.13065948311403275
0.04043573817910557
0.06176880751963984
0.12317049987891389
0.036008455193722276
0.025338594886164377
-0.07684538154513802
-0.03651220491954705
-0.021169573960696582
-0.0029263333364401897
0.038712754276380774
0.11489024654732302
0.027291726374732
-0.02941103924404297
-0.06292844346646226
-0.07813977230176125
-0.07356062082884161
-0.04133733087445058
0.028760061174115874
0.1426622390466534
0.0954201232697642
0.06790684158918216
0.028972888143494722
-0.05691055093754918
-0.21884657285233317
-0.06942376029549141
0.00080287821692314
0.022112646824566068
0.038125259783838884
0.0945906733088435
0.027947249217513535
0.056771944833213704
-0.021954680096775966
-0.03136887068672772
-0.008971756376981185
0.0016654422709836908
-0.04013759879748275
0.035860756692835574
0.016732139495283776
-0.09070899824879361
-0.060667382584406605
-0.05324294362382095
-0.023218128248969086
0.06865534346180326
0.2447043582631229
0.10339713973246088
0.01953846784868104
-0.04753917786354811
-0.1401120076175527
-0.2874584543615867
-0.09612947979408519
0.051014581060247276
0.1867190425613751
0.14581523190449186
0.15207932247943126
0.01069431849944707
-0.09134386594978258
-0.17813064019073724
-0.0749170754473163
0.00029526701514084267
0.04077585864626407
0.050301252213395306
0.03918392644923349
0.0193998571412847
0.0007074809606946184
-0.011314162666319202
-0.015328076316863806
-0.013028226493824789
-0.0074667964350804755
-0.0015914678069134198
0.0026388122248028247
0.00450157660531911
0.004281009962188715
0.0028085731478273033
0.0010019290472696868
-0.00045340377118162096
-0.00123287880144366
-0.0013417323141810857
-0.000992327062344934
-0.0004619068304139368
1.7664705025806015e-05
0.0003155319723675385
0.00040555385033221616
0.0003359980897093062
0.00018716365907863524
3.4578507134000626e-05
-7.279915525970816e-05
-0.00011808885124362938
-0.00010997046937099707
-7.059020370375738e-05
-2.3709097302007505e-05
1.3299352353165255e-05
3.2520803717491635e-05
3.4493985925803045e-05
2.4938224725918024e-05
1.1067378794713552e-05
-1.2085091370608444e-06
-8.647273128053245e-06
-1.0705806382360213e-05
-8.718156270205145e-06
-4.79012876934099e-06
-8.592078346031738e-07
1.8477830504513072e-06
2.9362375114228564e-06
2.661173492466416e-06
1.6091303806388488e-06
3.935161841091098e-07
-5.465364436062435e-07
-1.0190983245407039e-06
-1.0485038943698757e-06
-7.883378720821065e-07
-4.2607503411822547e-07
-1.1217432081961098e-07
7.324359652266661e-08
1.1954745542808904e-07
6.338973534718248e-08
-4.008799914906221e-08
-1.4123996042574616e-07
-2.0937856781724066e-07
-2.3538099960352784e-07
-2.266140207951192e-07
-1.9858085343927731e-07
-1.6709867375920726e-07
-1.4325111226188705e-07
-1.316705443559663e-07
-1.3146289394758897e-07
-1.3851608029195992e-07
-1.4796411733304442e-07
-1.5598133174195537e-07
-1.6059323837992917e-07
-1.616123652323121e-07
-1.600404113403162e-07
-1.5731915523737012e-07
-1.5471924771037826e-07
-1.5300683924079697e-07
-1.5238995824452826e-07
-1.5265861911932408e-07
-1.534038214141291e-07
-1.5421817697641592e-07
-1.5482235177563507e-07
-1.551051400270062e-07
-1.550963939931268e-07
-1.5490591014263335e-07
-1.5465983142102363e-07
-1.54455309254211e-07
-1.5434085673047388e-07
-1.5431908396374837e-07
-1.543627425756596e-07
-1.5443418829684872e-07
-1.5450093741227354e-07
-1.5454390073589525e-07
-1.5455841681205493e-07
-1.5455040672990103e-07
-1.5453064121957846e-07
-1.5450960098067424e-07
-1.544943150516134e-07
-1.5448743663877597e-07
-1.5448802285291265e-07
-1.5449314943203857e-07
-1.5449955028102838e-07
-1.5450476146378341e-07
-1.5450759491790603e-07
-1.5450804034313226e-07
-1.545068358674338e-07
-1.5450496301352033e-07
-1.545032512493875e-07
-1.5450217518716478e-07
-1.545018369147992e-07
-1.545020709757142e-07
-1.5450259421550935e-07
-1.545031372915254e-07
-1.545035235740511e-07
-1.5450369016193042e-07
-1.545036657256542e-07
-1.5450352794940048e-07
-1.5450336133806284e-07
-1.5450322840733065e-07
-1.5450315831099517e-07
-1.5450315002514275e-07
-1.5450318372570807e-07
-1.545032337872085e-07
-1.5450327876067491e-07
-1.545033063670442e-07
-1.545033138486856e-07
-1.5450330535810593e-07
-1.5450328835212097e-07
-1.5450327048611805e-07
-1.545032576994588e-07
-1.5450325344802853e-07
-1.5450325862513792e-07
-1.545032716864842e-07
-1.5450328876798267e-07
-1.5450330396409238e-07
-1.5450331019582007e-07
-1.5450330106252477e-07
-1.545032736700804e-07
-1.5450323174622013e-07
-1.545031876451659e-07
-1.5450316148300494e-07
-1.545031760167006e-07
-1.5450324720436482e-07
-1.5450337253300828e-07
-1.545035215652653e-07
-1.5450363468263956e-07
-1.5450363544601895e-07
-1.5450345842430616e-07
-1.5450308777790322e-07
-1.545025938309328e-07
-1.5450214843479996e-07
-1.5450199922900643e-07
-1.5450239161430602e-07
-1.5450344653347513e-07
-1.5450502863765738e-07
-1.5450666422879188e-07
-1.5450757831255402e-07
-1.5450690164069837e-07
-1.5450404437856617e-07
-1.5449914896336966e-07
-1.544934449411707e-07
-1.5448927401689573e-07
-1.5448958155255648e-07
-1.5449681542176214e-07
-1.545114308960039e-07
-1.5453050971085537e-07
-1.5454724013551324e-07
-1.5455201403036408e-07
-1.54535538792635e-07
-1.5449360006955023e-07
-1.5443208624269951e-07
-1.5436995046502932e-07
-1.5433745339545336e-07
-1.543678134144433e-07
-1.544825527461051e-07
-1.5467410209709208e-07
-1.5489264532574208e-07
-1.550461483764151e-07
-1.5502121077585364e-07
-1.5472654974950791e-07
-1.5415082385640882e-07
-1.5341462268850264e-07
-1.5278761495349507e-07
-1.526421808951665e-07
-1.5332951339150193e-07
-1.5499424581506273e-07
-1.573832804967612e-07
-1.5973966450696116e-07
-1.6088317682781727e-07
-1.595462851486951e-07
-1.549481310161111e-07
-1.4746183189103522e-07
-1.391004053618859e-07
-1.334765657647402e-07
-1.349508254165979e-07
-1.4691659874508805e-07
-1.6956653140138413e-07
-1.9793973552001314e-07
-2.213753362859847e-07
-2.254578988237463e-07
-1.9694235768493285e-07
-1.3096074839140928e-07
-3.828355927804451e-08
5.0911121335013906e-08
9.064515180398866e-08
3.262837378131904e-08
-1.5128507212482062e-07
-4.4353357159445994e-07
-7.629726900403101e-07
-9.67959208939288e-07
-8.9104015049841e-07
-4.0649591358130695e-07
4.834794392412299e-07
1.5756144002062643e-06
2.449024386295043e-06
2.5463220588524246e-06
1.3690776659068211e-06
-1.242324759686079e-06
-4.833367673610649e-06
-8.202932509316364e-06
-9.561882652991482e-06
-7.073478973351513e-06
2.6907145625198214e-07
1.1664723195476493e-05
2.3850037827711755e-05
3.127821875981391e-05
2.7527344922867285e-05
7.957264601356088e-06
-2.6969457175596922e-05
-6.895372793731309e-05
-0.00010140132600503358
-0.00010278613220497618
-5.4396071975758347e-05
4.881166361492715e-05
0.00018779096726583892
0.00031481043075865065
0.0003603252686646357
0.00025458739124584537
-3.810163811036424e-05
-0.0004820362044475994
-0.000946257338441264
-0.0012137952184108995
-0.001038644359104478
-0.00025007536443764434
0.001119690472054664
0.0027338758867377112
0.003940928308497754
0.003913919246704693
0.0019578709170355252
-0.0020689136627021964
-0.007361317611179938
-0.01201313612424862
-0.01332075386307051
-0.008669660376258695
0.003076657991135345
0.020043618558730873
0.036278404737056395
0.04184399695260572
0.024552061088234413
-0.026757427963589465
-0.118272495367561
-0.04812622806732926
-0.00570442893610752
0.02599668974692276
0.06570707618423348
0.12883066421032993
0.024200332525997986
-0.04598579068624275
-0.08326668267379361
-0.08885021350202396
-0.06082009599861956
0.005599201916882819
0.11457022473140312
0.06456712612946253
0.044273403013953556
0.031731448981725134
-0.00233683327447353
-0.0878307281568194
-0.047335207445529076
-0.0896348599476025
-0.00693011003420028
0.023254095121587853
0.03209121671094399
0.051373421631736804
0.10589342496490772
0.008559541613765391
-0.040535338800559456
-0.05132275241573108
-0.0387523501495276
-0.01760035295252322
0.0012558722061949941
0.012360661613968281
0.015181114967718292
0.012339165185146063
0.007477817471952146
0.0034982034532546414
0.0015885067767004738
0.0011449403107272305
0.0004377890371829443
-0.002281638115252895
-0.007621889849057135
-0.014256737142006521
-0.018874481439737162
-0.017116377255453945
-0.00548753134169208
0.016154993024826935
0.042341007477689346
0.061027013509236706
0.05493146915739227
0.0055756276174576585
-0.1006107150271721
-0.06592641935421817
-0.07726558553774018
-0.10636771691957148
0.08479600406533663
0.13474588577790544
0.07234210332508102
0.10942102896752398
0.03892904438661151
-0.16094584092319691
-0.11861224592534514
-0.06043134042221802
-0.005041129700548374
0.03759537009239551
0.0629531994324281
0.06674650958146047
0.040474388945713216
-0.03023211133790016
0.03629846087143481
0.02265612253941234
-0.08139468434640279
-0.07343294662043731
-0.13592895874489022
-0.0385099056835688
0.05483320665871059
0.175470545173795
0.14049790521616828
0.14791234048399388
-0.02073614192057165
-0.19062865632790837
-0.1806320550572807
-0.19257175430353576
-0.007842209919150639
0.0066848810079480495
0.28562389888963574
0.25039215927253144
0.09928931171036112
-0.19331484845628327
-0.06851401428882897
-0.16903538102286023
-0.1257986619019468
0.05040128192940951
0.1702067357197107
0.06113509468000786
-0.04003728015674581
-0.09535325383579521
-0.07302193015195643
0.04609080350090673
0.06311353406633011
0.15823263270298069
0.09208468248561277
0.012783599921122159
-0.13204506278952755
-0.18127237560838533
-0.14895534565655863
-0.02001675673654032
0.045142336594942996
0.0985433116154671
0.18934196167519735
0.15075658574021533
-0.006414770667962532
-0.09206938865399367
-0.12861831159652995
-0.1406022923013707
-0.1468686668120018
0.04157247042065632
0.21792287872157218
0.17317595085913126
0.09144028290049246
-0.04936892928387144
-0.07082918595818946
-0.18403340661734172
-0.18105455649929894
-0.03228476945001356
0.10828919476517733
0.09121755379101272
0.15734600460462697
0.1264351826519223
-0.007327078204579988
-0.07163847357461017
-0.10603233164857136
-0.14946831721627352
-0.030014769207951104
0.04027507457770323
0.06458752508340135
0.05624376986681861
0.03201328708498808
0.006407742363689157
-0.011565487069639254
-0.01897224432644782
-0.017538978648945117
-0.011332548207235267
-0.004520871846990459
0.00014738161037584303
0.0019144292666250715
0.0017327576091311298
0.0014185337616798481
0.0025936161950644828
0.005761943510173013
0.009817242202818802
0.012199000081498103
0.009785707926472386
0.00041882281393256946
-0.015302612614413139
-0.03256421379684089
-0.04194515130179924
-0.030682899146189442
0.01430088580155165
0.10225659949152037
0.03468893158038914
0.003205989928919707
-0.009888538555396576
-0.028359388082192995
-0.07723624910443497
0.02208695477960388
0.05565653561597676
0.019133594046182784
-0.08165531047172514
-0.031700679205716516
-0.009391070126413662
0.009378507553661536
0.04625100420612347
0.11597617806639461
0.024091424629316592
-0.032270142736540545
-0.0606732006263707
-0.06834031687887526
-0.05801832162672628
-0.02660738929628278
0.03283759450017533
0.12666183556170144
0.0558081654260343
0.012954782451652802
-0.017018534062032218
-0.05342837935306403
-0.11465307816569698
-0.013619591135949882
0.04444615558929476
0.06162351522671768
0.04515529130378654
0.005007315709901553
-0.047845613354650186
-0.10233087176699823
0.05196898947411632
0.02359630408326173
0.01756919860269506
0.03402857922930053
0.06805469126003914
-0.08893427812258461
-0.04655840902719226
-0.012639314114427742
0.008709867913236118
0.017446268984109392
0.016578449978755853
0.010466712794636538
0.003206582261826925
-0.0024061728029904994
-0.005189024419484232
-0.005306961696999607
-0.0037061078312132243
-0.001523235274191249
0.0003417856410456838
0.0014202567620925238
0.0016622653932314452
0.0012980719041681987
0.0006630975239912348
5.450153160386706e-05
-0.00034756486307221186
-0.0004932832491608813
-0.00043099004885730114
-0.00025625595259870396
-6.49541285423229e-05
7.658861477484864e-05
0.0001414252756623264
0.00013617834050712319
8.716153581144915e-05
2.562405807489043e-05
-2.3198774752601314e-05
-4.555420257631844e-05
-3.9803280520721586e-05
-1.3954647671295722e-05
1.8188702604496582e-05
4.12213298454046e-05
4.230770663798171e-05
1.523460829782945e-05
-3.60808675854412e-05
-9.574774863541964e-05
-0.00013741447882113564
-0.0001306860236992722
-5.269882092365331e-05
9.732170252145124e-05
0.00028561774529156485
0.00044081049942582034
0.000467180364236954
0.0002774295868183596
-0.00015974183296707097
-0.0007719713669658104
-0.0013588606152020355
-0.0016164226161548088
-0.001226667799826455
-6.016156814635592e-06
0.0019264585194366495
0.0040323989109431165
0.005376681519580566
0.004858888790913465
0.0016610820825866193
-0.00418324396760949
-0.011309515205939999
-0.016921492379994258
-0.017343287702485527
-0.009339524443550084
0.00798331671895965
0.03126075117485207
0.05181724168128509
0.056403848308990964
0.030270751647969225
-0.037738784871340345
-0.1495124331739121
-0.0937357607680662
-0.04601354657027153
0.02591779174362839
0.15301213510047754
0.1549034527587977
0.03293236807763845
-0.03097966600020604
-0.06918959477999287
-0.1189884288893287
-0.01245665202169626
0.031327223834735365
0.009939925775514074
-0.06310907198123848
0.03729562543461624
-0.058863067365633924
0.0755322854052934
0.05768390673655401
0.09031896281171256
-0.03892663302460408
0.046274917420548047
-0.08179882328786756
-0.046311151950408525
-0.05857090640350281
-0.11442668078899738
0.00434087638429332
0.12394413770503653
0.06987031555466619
0.058660457633536466
0.09316910399188404
-0.03713600301331275
-0.1513151208552103
-0.06979688140725321
-0.007906093472865047
0.027618517072146995
0.038478026105738965
0.032005463455517844
0.017409377561348388
0.0025977625868723988
-0.007584614781850788
-0.01161914586218052
-0.010503407131263012
-0.0064874002803843025
-0.0019003391506560796
0.0016084862711360616
0.003334762719137252
0.0033911124207386496
0.0023711666526806474
0.0009871647426820517
-0.00019613650660674803
-0.0008836742250330237
-0.0010431965172100909
-0.0008188868219324943
-0.0004216537993586755
-3.8883314850225156e-05
0.00021534652384027923
0.00030892142071575854
0.00027162232976981205
0.00016313507838957916
4.3482650876328625e-05
