0
1.5457775194551107e-17
4.275377128674201e-17
6.326338273742363e-17
6.294006627824972e-17
2.985108115606607e-17
-3.871491936220582e-17
-1.295593033423033e-16
-2.1084334499403937e-16
-2.3695964849048475e-16
-1.63016552024756e-16
3.262299801757456e-17
3.241806120899322e-16
6.236451310575075e-16
7.880243223688416e-16
6.579013737793344e-16
1.2646510727874703e-16
-7.77317559258874e-16
-1.824167228852073e-15
-2.5812175748449504e-15
-2.507171696369458e-15
-1.156126761270981e-15
1.5473071693980873e-15
5.055796419965904e-15
8.107571756019395e-15
8.933571022297149e-15
5.834817107685013e-15
-1.9396152271206425e-15
-1.3272250832931518e-14
-2.4643449065749392e-14
-3.047165638588603e-14
-2.466730086454663e-14
-3.3389760688017372e-15
3.2012918598884184e-14
7.210603120864752e-14
9.99336853052388e-14
9.466264676156075e-14
3.9679073611794415e-14
-6.677480982585877e-14
-2.021115272972684e-13
-3.1639913723437153e-13
-3.410970404552273e-13
-2.120330115417939e-13
9.643600386068833e-14
5.364229932056369e-13
9.674313512762486e-13
1.1718407238013212e-12
9.173893224849757e-13
6.31384813915972e-14
-1.3180633949585798e-12
-2.8513932286273557e-12
-3.86949754286027e-12
-3.57158286915463e-12
-1.3406088497936528e-12
2.8459668779217967e-12
8.060014326280392e-12
1.2328331056847688e-11
1.2998480339311384e-11
7.651712319477973e-12
-4.569392278955402e-12
-2.1632125440068515e-11
-3.7937888444613117e-11
-4.5011531220550676e-11
-3.400842324728599e-11
1.4120709234918475e-13
5.404275032531128e-11
1.12597152987637e-10
1.4964838793785984e-10
1.344558173285956e-10
4.418269647850614e-11
-1.2026179204279365e-10
-3.208877281942105e-10
-4.798237792829263e-10
-4.945452227566125e-10
-2.7409043121901047e-10
2.0939997895357063e-10
8.703270307387217e-10
1.4859633939622256e-09
1.7266239803050358e-09
1.256059245216334e-09
-1.0664504079671336e-10
-2.2077484874163953e-09
-4.44037827407195e-09
-5.780595175828313e-09
-5.049931454697908e-09
-1.4064683853715815e-09
5.044907170754986e-09
1.2754637639104923e-08
1.865361366123955e-08
1.8783692910817267e-08
9.732323437814909e-09
-9.369010145125001e-09
-3.494012856735371e-08
-5.8134376093973545e-08
-6.614158967082245e-08
-4.6200641348454504e-08
8.083180707762456e-09
8.9891474894012e-08
1.7488365981693075e-07
2.2302204605931862e-07
1.8919206088182085e-07
4.248876236816886e-08
-2.1030492432721226e-07
-5.061857516124308e-07
-7.243472957618172e-07
-7.121648386264654e-07
-3.419433233339758e-07
4.116822148303873e-07
1.3998507672431084e-06
2.2717106496168426e-06
2.530084040751819e-06
1.6915531677859418e-06
-4.6731572834190834e-07
-3.6489573222814573e-06
-6.879048849649895e-06
-8.5938633028537e-06
-7.0687943530775596e-06
-1.1748945885480826e-06
8.719019940546563e-06
2.0058781572937232e-05
2.80951675045966e-05
2.695032821423161e-05
1.1859412225848218e-05
-1.7835207756102606e-05
-5.597588743571721e-05
-8.866853252215254e-05
-9.663943257132049e-05
-6.161130475201809e-05
2.411075968025763e-05
0.00014770436842026358
0.00027023935778186417
0.0003307083785985238
0.0002632764407743383
2.6921316057143715e-05
-0.00035994977502835305
-0.0007940763146054799
-0.0010889731799479333
-0.00101849960296402
-0.0004052170026877007
0.000764054407312344
0.0022367139475245883
0.003465184012156903
0.003706560370733846
0.002276949943473679
-0.0010749990556921157
-0.005790607567978428
-0.010304841576592477
-0.012236852917177165
-0.009106772051188303
0.00045090234728196695
0.01525233905018723
0.030424725586098583
0.03719382865270108
0.024091725509541608
-0.02037541629029788
-0.10423064426050349
-0.028908742933337905
0.012216118901105756
0.033049185103581236
0.05217477680519665
0.08962710738504728
-0.035798803323519666
-0.10831854302866244
-0.11669573490930166
-0.05674617866296453
0.06467034343681503
0.22538980026681635
0.18635431461935392
0.09590785513892351
-0.09875694717426135
-0.23532063884144033
-0.32093966077244657
-0.12457378413763841
0.01830412367543412
0.18876920532923655
0.26066563447002056
0.27851966732541955
0.04524445924663523
-0.07606858600115
-0.14745803850589045
-0.23445541724040558
-0.18558748759449367
-0.019978769889918317
0.07361698728151259
0.12754875116411002
0.1805173972746975
0.06338921751059609
-0.009560516567707854
-0.041907959827640576
-0.049809164385424334
-0.0532136548920643
-0.06717576454497967
-0.09625087737808136
0.06640002290175682
0.03526246032737843
0.02571298900049959
0.04682003382292796
0.09625663116791135
-0.04091204711269582
0.010979415066890433
0.025067139938590718
-0.019339010922633848
-0.12868462456319518
-0.09036034023870056
-0.0733525426210002
-0.0352847354751793
0.06529203098866995
0.2547597323323368
0.13332377168541099
0.07159201055866052
0.017230568236511448
-0.08956064536649157
-0.2965563566142403
-0.22278462024787699
-0.05085271371698269
0.06852855198875768
0.20135864439818846
0.21021075751927826
0.1365638252349601
-0.008405978605491127
-0.0422996458418096
-0.20120364227440235
-0.12559099431976734
-0.048065859926141305
0.012997770417253831
0.05280527515187012
0.0742183219779011
0.07997611790512196
0.06662774739530955
0.022646235303030945
-0.06860169263596894
-0.022229889426966503
-0.04409018263944414
-0.12485700534992164
-0.03832798346038274
0.054958688284822775
-0.0006175219601480989
0.033373816134823105
0.1791721616961188
0.03633376719696445
-0.01888915125100749
-0.027950168463663164
-0.0398359022045771
-0.0993674529311743
-0.037333141463293175
-0.06507585292792387
0.02527252792508147
0.055423840921632044
0.05243557378474556
0.039872653574736974
0.03127481572128423
0.02765531904422821
0.019480588608577633
-0.0076731047018696215
-0.0656241284125641
-0.15676920798028296
-0.07053496218251598
0.015183163471514667
0.12770485091837513
0.09060537761612922
0.115629397134987
-0.0013533418778117789
-0.07900987021206356
-0.14482567591252454
-0.027663105979072723
0.04858486004846581
0.06866207957906352
0.026993977917965224
-0.07291917671866871
-0.01993338111340961
0.0027109172092545848
0.014727044507391249
0.03572301515261509
0.08237803614153694
-0.03348353749515408
-0.10575604107093933
-0.1344178325449328
0.07374709510931783
0.10391234941490317
0.13268586622938688
0.13044096542978617
0.06800479152094036
-0.27304303930320495
-0.29003181920174975
-0.1540827233098524
-0.01448448124100416
0.18701463747227598
0.2965133219429275
0.3307149454176428
0.06978914379958762
-0.13594301113336849
-0.34778544163452796
-0.21638591783982888
-0.16461019596284956
0.0177775338505167
0.16637810425584088
0.32565588102687376
0.13119400431985218
-0.00208652728896529
-0.08198598611367848
-0.13227341743975646
-0.1815611929186721
-0.05322261893408975
0.03975785275954471
0.09406621882899421
0.11143128968331087
0.09358833719681679
0.0399922740650502
-0.05040814099139633
-0.17442817426007484
-0.11989389247512014
-0.06423499007862163
0.02162295884177227
0.1647504715491559
0.18033946704140713
0.06484474627158066
-0.004457327781967839
-0.06277859025679883
-0.14634870604348146
-0.08051627100668103
-0.0719442850620158
-0.10788817424896777
0.03700643825131887
0.18869752079125368
0.16101528922147343
0.14746887056447966
0.12159688142738946
-0.1533085625297033
-0.30825846910119714
-0.1526278149278672
-0.064981170460404
0.0051064280439207625
0.12442768560106286
0.1570715070333987
0.14544668861744103
0.09764113628660726
-0.015038367297046561
-0.04999677390266255
-0.07775752798002075
-0.16400657831175952
-0.15486019224306935
-0.06963348832489008
0.0973112557604124
0.1674032683907708
0.16592419617625168
0.1127251686921376
0.019527297358818394
-0.10553593345756566
-0.2490496365973346
-0.18434029069020294
-0.06952604599487994
0.14589847714558676
0.10750108587951786
0.24044146617639603
0.1383687136987406
-0.038635633577365484
-0.1559815950142731
-0.08919054718653702
-0.10651254834504457
-0.05492280006463228
0.047052377641453584
0.008941495783237826
0.06193946541453825
0.049360971719533395
0.016894455590610213
0.004898419963970575
0.04387265230795539
-0.04686654618661329
-0.05813138372585585
0.011267589213390165
-0.043586368494862596
-0.032900275598217975
0.02750448232432908
0.11546549219505949
0.002649593992675056
0.05693065492478322
0.04754777522507317
-0.04767996162444656
-0.2351747550200262
-0.10140689825649554
-0.01432129727609176
0.06884540093784458
0.1894038966611562
0.17503390026005633
0.03228850129418581
-0.053377178009342115
-0.11042078064692341
-0.1701990656444852
-0.056746174487247086
0.01888396193730261
0.05831595173319483
0.07083919096377153
0.06662689961526123
0.05134705811233864
0.024287537484327288
-0.01955591321878745
-0.08467861109519273
-0.17001496375273065
-0.06636772828710613
0.04193800425189112
0.17151179554599416
0.13303534557729607
0.12668453826942802
-0.05755955723921172
-0.23475892744728374
-0.21790378008080818
-0.01293426843934967
0.18136380697541135
0.1690591741998734
0.1516990227131194
-0.07432029764833209
-0.11591699931966098
-0.17840369117911908
-0.06084607259191381
0.04524283233382217
0.15301177640545652
0.07487163908747008
0.017579780121474247
-0.019763895893427304
-0.044180274300318324
-0.06489669851639807
-0.08909452617227116
0.08088489755541137
0.04812142219407711
0.01993179760645818
0.006013983692977787
0.016790524303045836
-0.13793893583939004
-0.05057560565980652
0.08190583716412364
0.05495801531807409
0.054044631521501435
0.054527977983563514
0.02505525001985267
-0.06568040425385954
-0.04039412684939133
-0.1054779133387608
-0.04682444753030904
-0.03110223242069451
-0.012788793538035945
0.05456611698958201
0.20590003310102586
0.054771845100827624
-0.010726321822309079
-0.024902997788423944
-0.035274026577536505
-0.09014336695174127
-0.02652717064093216
-0.06150808081299723
0.011109684117578438
0.018478767576916803
0.0017321414784464246
0.006290138869102731
0.07175736485481238
0.02362115457214532
0.068520077042572
-0.005932144025981476
-0.026868854133606634
-0.028696649105594153
-0.04453076488746087
-0.09888099515320527
-0.003472044634544469
0.04295566603318686
0.05134731130479252
0.03713563379916722
0.015130728759156057
-0.003973745747893814
-0.014883938120631615
-0.017073083374513465
-0.013039793202700638
-0.006344018655809386
-7.57499626140593e-05
0.003947022053850729
0.005280377452492772
0.004487407882692033
0.0025912207037365365
0.0005855617509840019
-0.0008652790927944567
-0.0015132505488017825
-0.0014513909608601019
-0.0009597477114785632
-0.00034947026482681006
0.00014559102982942908
0.0004133981747081269
0.0004539192361303727
0.000338002330794136
0.00015925304624356726
-3.5107377089241596e-06
-0.00010540423328153512
-0.00013700892189776672
-0.00011428365646682804
-6.42679107888873e-05
-1.2580572033876118e-05
2.404701521443645e-05
3.972428458530922e-05
3.725688880737192e-05
2.4078044597582702e-05
8.23114202554243e-06
-4.362482671751814e-06
-1.0970622952760482e-05
-1.173093045190654e-05
-8.554004652702199e-06
-3.87648485269534e-06
2.919496164769355e-07
2.8384424563949093e-06
3.5646088703674e-06
2.9125470501462113e-06
1.5917561858887404e-06
2.5969060971373146e-07
-6.641370812286394e-07
-1.0415839217095027e-06
-9.556169056931502e-07
-6.032366605757667e-07
-1.921675235430664e-07
1.2785457819392698e-07
2.904766921241628e-07
3.0279603805879437e-07
2.1617151047829482e-07
9.3953071151695e-08
-1.2676232027434527e-08
-7.619199871543241e-08
-9.262236785969364e-08
-7.413659313455324e-08
-3.932233629489368e-08
-5.032317707831719e-09
1.8233608640843125e-08
2.7269386008056466e-08
2.4483702622953975e-08
1.5086757426625422e-08
4.436647797851059e-09
-3.6857464080900436e-09
-7.676417687774957e-09
-7.808764593200772e-09
-5.4586239726108236e-09
-2.2701610042079764e-09
4.554579690575092e-10
2.039689938288483e-09
2.4091009504767193e-09
1.8953462355803027e-09
9.822361391158342e-10
9.852524268411646e-11
-4.953642021659461e-10
-7.25572508511402e-10
-6.572236925489755e-10
-4.205294391134311e-10
-1.442756580999815e-10
8.39774518402178e-11
2.2723215853439661e-10
2.8585998651063055e-10
2.753675467986577e-10
2.0821524741552762e-10
8.805969328172168e-11
-8.208958542333967e-11
-2.831854920855732e-10
-4.6526182623137246e-10
-5.460839230715355e-10
-4.3180805246044225e-10
-6.006735113842725e-11
5.455786468029071e-10
1.2324522435716793e-09
1.7159908553211657e-09
1.642504263436693e-09
7.240662248719528e-10
-1.0798917023834556e-09
-3.3974455774988278e-09
-5.386942270903216e-09
-5.87866929740816e-09
-3.760976870937831e-09
1.43777541721741e-09
8.944822762599346e-09
1.6401156065264655e-08
2.0103181859777798e-08
1.6047462388054185e-08
1.729742600417112e-09
-2.1750592206564148e-08
-4.8140523049565533e-08
-6.612359520377683e-08
-6.1957879733898e-08
-2.4840449750520227e-08
4.606280953352304e-08
1.3541988571957957e-07
2.099051889419275e-07
2.2417897668733593e-07
1.3625823242072867e-07
-6.984496996841185e-08
-3.611559522440767e-07
-6.435685393981119e-07
-7.727397002446731e-07
-5.960654301544089e-07
-2.3091900507283536e-08
8.938333315864096e-07
1.902472811924831e-06
2.5589841700263965e-06
2.3354404016756435e-06
8.311967169525587e-07
-1.955785767030244e-06
-5.396572002805606e-06
-8.174966985653944e-06
-8.537253955556721e-06
-4.902507158547082e-06
3.2580056174666147e-06
1.4549528557800366e-05
2.522472765995658e-05
2.966493768236306e-05
2.206296684578871e-05
-8.244365004539807e-07
-3.659005690950977e-05
-7.508282415239314e-05
-9.89156767405111e-05
-8.783424599527955e-05
-2.7034347209088716e-05
8.237869660400116e-05
0.00021470020861365363
0.0003180152801830807
0.0003245694542317422
0.00017496440602240876
-0.00014772116126998997
-0.0005849399111952686
-0.0009877273608821853
-0.0011376342027637184
-0.0008140449806725467
9.837985414748144e-05
0.0014918217537035394
0.0029590590639364533
0.0038206758376449234
0.0033024821945467514
0.0008630682356923703
-0.0034025884489878883
-0.008438082137636374
-0.012185078674700155
-0.012013601034674935
-0.005687684642747613
0.0072906009325360115
0.024384075663655438
0.03940256836213664
0.043200648334724395
0.026005653452071054
-0.018986678087715512
-0.09200282990151903
-0.18506381140408204
-0.08437693800282786
0.02237166556781171
0.13527828668355976
0.2321210270431363
0.2644489245892244
0.16451056303769057
-0.13585242070889328
-0.27839431685641053
-0.4525198494456985
-0.18081647260916833
-0.12410134900425164
0.09237093399779936
0.23760992776739887
0.6306009768978129
0.30719842005445475
0.009392280761924696
-0.19934074701594673
-0.2981377891451106
-0.4648164769106851
-0.23816703752812118
0.10312901267777266
0.3420323089615227
0.309891472482044
0.06747665447407991
-0.11143651249523556
-0.15029519811141595
-0.17522159691243644
-0.1196189495455956
0.0689730998616093
0.2197144311033332
0.13014127068662984
0.1633241020805514
0.054001749876768534
-0.07611243704312375
-0.2976271796079984
-0.2540745787118726
-0.1509674627721963
0.042196379659518994
0.17747211344543967
0.30719648308092207
0.26449115984143545
0.053424482882901705
-0.1473987456592297
-0.16977903634835095
-0.23609355078464572
-0.14308131150344627
-0.055812406755745905
0.08578848817513188
0.15024035811629022
0.19353545696083882
0.040981997548867416
0.07756861310508467
0.04944956528609529
-0.12439216853443151
-0.13412174583175507
-0.0600503924963694
-0.15794756504546337
-0.052252020356625684
0.062022339263096346
0.21091176980590146
0.23116971431579117
0.16298183482604556
-0.151229268513003
-0.2627794047394324
-0.31227739504002616
-0.2310671711647454
0.04743224119203897
0.36787599702341095
0.5319087546931003
0.28617488271673697
-0.07237121050760723
-0.2726214824441511
-0.4341995162365608
-0.4338864190035028
-0.08613356029082536
0.2556796088175591
0.2791870587035263
0.2832967672111233
0.15039773277930601
-0.07057708666769595
-0.1671470769837563
-0.15502557350354784
-0.06455147085485197
0.072274489952102
0.030566531999425307
-0.003699060695999123
-0.03413794283877406
-0.057408220827412496
-0.0686120710841169
0.1325373771554834
0.1366115284953619
0.12282729234546266
0.06286421371821804
-0.06974408639471426
-0.28730412853849047
-0.17769366122766528
-0.1014066059571368
0.001118213367470672
0.19310420034798595
0.3213780357291952
0.20019777783112636
0.005468292950423472
-0.11820045581639489
-0.24042011615313347
-0.22476030929284044
-0.11297351973351835
0.08111917783098023
0.1674193527250732
0.1686814227451486
0.10881503156626443
0.005448507972391905
-0.1310727140003711
-0.09348633409354927
-0.07169447474415495
-0.048861640922057054
-0.0017815244965518234
0.0944706176237441
0.05953886785397263
0.10137011839503737
0.01305670656152072
-0.025718029587237973
-0.04311847626148043
-0.06753351693260198
-0.12065361430726819
-0.013644696229531034
0.052481475733020914
0.08297620801964505
0.08413015218441938
0.0593993030438649
0.008763778474083883
-0.06850050191500438
-0.1692745204819984
-0.08299555133838854
0.008550160635044619
0.12727094914930792
0.09213725179679838
0.11287456262662002
-0.01317433715419827
-0.09988286824598523
-0.16796693250635464
-0.03995345509522208
0.06315159528942588
0.12282813788170392
0.12297087438528168
0.05098045895924274
-0.09869141348804966
-0.11936033148167453
-0.18806050045757666
-0.06588567712964463
0.09550769093571458
0.14229704328348616
0.10556653464232943
0.19193263302222904
-0.018533686044629117
-0.1661781357331463
-0.09976212728834324
-0.06309514630347238
-0.08492426398174618
0.025073984489313195
0.07393848480594917
0.07867989183272213
0.05829795618865831
0.027571947837998562
-0.005587423153587082
-0.039120752589070905
-0.07348371998862539
-0.1080724471652284
0.06070324565712698
0.038849759672103905
0.03226787499134187
0.04381844466562586
0.07159911044578077
-0.0906875709398042
-0.05149701729538196
-0.018475667651059593
0.003838733904520834
0.014770597169779517
0.016715170069693
0.013465308248116564
0.0084993587571676
0.003872703384062283
-8.274017060431658e-06
-0.003809414929954361
-0.008231807637733768
-0.012992184767493028
-0.01630009964062948
-0.015181149869572044
-0.006739308195209853
0.009903263637484328
0.031630363480965186
0.05023531581983382
0.05311882110878484
0.026276508941085516
-0.04078704859857279
-0.14966563954443887
-0.08943928228472835
-0.03700953011784357
0.037768532459010025
0.1634361938529652
0.15791362242915757
0.02277656448724066
-0.05681904902977042
-0.10676663459069294
-0.15582363959918163
-0.028215410340743725
0.06029225716982066
0.10234911531505647
0.09662820872605327
0.04558579777004068
-0.04488677273158943
-0.16398844515083316
-0.09448110129303333
-0.013382337389159494
0.10394651221965895
0.07720385310881814
0.11463134023808598
0.009442185373967207
-0.05919241391743925
-0.12097547557768143
-0.007120903135910451
0.0568023960044258
0.05617955770765354
-0.009722679994352602
-0.12722389002987713
-0.07029511842476102
-0.005573688551805757
0.09996088953209369
0.07026174110109037
0.1131264609151637
0.017360568158883705
-0.044545107505826326
-0.10895166842270965
-0.01121466158348063
0.023593582332201452
-0.013026810479053658
-0.11101258523754207
-0.044379300143344846
0.02198213479886624
0.12282383165733386
0.08294219620790237
0.11053522176863004
-0.004149609566594832
-0.08444374565259627
-0.1589743203291557
-0.052775862405538373
0.018940767921487845
0.052645074588488355
0.054358419154400095
0.03540513739619494
0.008156431717332453
-0.016864619819291687
-0.03223510309393227
-0.033802773124254754
-0.02063181352829307
0.004687303720872244
0.03540019139486805
0.060308379300316524
0.06485053252620794
0.034278714600264854
-0.041241775519474416
-0.1610521321039174
-0.11041241027436687
-0.06140991115592761
0.02052619988263327
0.16583071993794246
0.1894046540414142
0.08327069106653967
0.016839390876012838
-0.05451512600361203
-0.1752303823528426
-0.17470500532909924
-0.05722820337019206
-0.0003529852369925018
0.03777135965903573
0.10484151507812466
0.2394628387447808
0.05999513658144334
-0.03920442576845096
-0.08344703823294856
-0.1077126042781723
-0.14531238825878356
-0.01945786349291462
0.05982566456571526
0.09357370692671112
0.08883647053978298
0.05380883319750113
-0.004541603501856176
-0.07982153583929517
-0.16386020887559008
-0.044975803752200644
0.09123747602745327
0.05833611388513205
0.06426330644727343
0.10788142780060639
-0.021276517760598315
-0.13971047881180193
-0.06453255569262296
-0.008316420137392203
0.02373182104067559
0.03359673261540891
0.02801635824943362
0.015233712901336263
0.0022567960349771103
-0.006649167129601312
-0.010163109503277874
-0.009177093568184394
-0.005674786629631558
-0.0016957683781151677
0.0013312623337898438
0.0028165119598555274
0.0028873525312564383
0.002080706481668275
0.0010119566144506451
0.0001333614271237705
-0.0003700663494455859
-0.0005554154148538008
-0.0006109576676832071
-0.0007164015976513686
-0.0009281027887726191
-0.0011295362017194434
-0.0010676623375320128
-0.00047155155296711883
0.0007780898154699136
0.0024872796975142397
0.00407254918086248
0.004645481582537962
0.0032982941196700887
-0.0004411578660028561
-0.0061139873510881815
-0.012015460781030168
-0.015321282375345552
-0.012853972491411443
-0.002498732185260229
0.015018420555572223
0.03459445717567092
0.046250603353627864
0.036368430265746425
-0.0091301857708363
-0.10025884407589267
-0.03850557284348431
-0.014163057257785806
-0.006702669092970164
0.011636099947014814
0.06999294348543045
-0.007595223639603469
-0.0075959025287373454
0.06999106433048213
0.011633504226217065
-0.006705168812172313
-0.014164401260036413
-0.038504696919537056
-0.1002551024374827
-0.009123867623786749
0.03637569678933351
0.04625584326266516
0.03459399157918054
0.015009237396461064
-0.00251712502823238
-0.01287784492300989
-0.015342061854344016
-0.012021134208579438
-0.006093013268036424
-0.0003884210882798743
0.003375233829893629
0.004722756683269225
0.004112277849489112
0.0024480969983867802
0.0006335092029855028
-0.0007114497739675359
-0.0013399729827908052
-0.0013188660963629646
-0.0008929690456265924
-0.00034380895832515255
0.00011138480185169555
0.0003637557938010427
0.0004072593630049569
0.00030346531688299136
0.00013846498466272127
-1.2092393592684134e-05
-0.00010238371643397735
-0.00012037598160788035
-8.106673099430098e-05
-1.4847754767854726e-05
4.4430413369563744e-05
6.930426252061854e-05
4.5831843303050155e-05
-2.1983357602402235e-05
-0.00011095329474359273
-0.0001819991485473247
-0.00018959327154794065
-9.777012723291638e-05
9.976721142748335e-05
0.00036181011881359146
0.000593658785366728
0.0006628599606678246
0.0004419113156591232
-0.0001269723362147116
-0.0009637437233365519
-0.0018104607276321915
-0.00225525494353364
-0.0018457475858439127
-0.00028802583424836355
0.0023171824109431034
0.00529600783078697
0.007402256513774153
0.0071015165755746535
0.003163227335589723
-0.004552445963819613
-0.01438893673322423
-0.02266779614004253
-0.02434333941821696
-0.014747518311817693
0.007758749724258977
0.03892868125747394
0.06672022488513078
0.07161394195700857
0.030004286306775433
-0.0795369614922334
-0.06870162357369436
-0.13324234824808315
-0.05087787285657901
0.015094669114418348
0.10692388383157687
0.06077031353980042
0.09595469146797247
0.008440931664998187
-0.029571568175894607
-0.06398893049033069
0.051323882862005996
0.06690696892973208
-0.04998653283467353
-0.10530862794221793
-0.07262758400009144
-0.09418876113389861
-0.08983399456153351
0.026918114354606146
0.12871874184209592
0.2553535711036759
0.20190311735804253
0.11898072963350313
-0.07354889072564742
-0.2627890664502053
-0.3166536062440982
-0.2647029044191995
-0.09330022580731473
0.24292193627131853
0.3978648081425087
0.20847475700602203
0.07713624298933353
-0.0316415702378818
-0.18001989817746644
-0.2364007126179319
-0.05371287324799556
-0.05363200528816904
-0.020804245320308674
0.09274088898862677
0.15589681751319337
0.04392061088761173
0.025187242989715457
-0.0482122226053188
-0.14569371441806844
-0.0605065942738192
-0.010698326121534058
0.16088720008387467
0.18890872038012868
0.1924351139020127
-0.11211564679452346
-0.19339457528307868
-0.28765252013643605
-0.18790667544756562
-0.044906823227843826
0.2191912777655624
0.28876960586598355
0.2322623626467221
0.08732833170047131
-0.1417478395200645
-0.2752560431536295
-0.1432395161016883
0.028461738208466116
0.026301226281680936
0.049922561795228616
0.10772034901824976
0.010294779090153552
-0.03533576765183026
-0.029185786039947533
0.020852682947531013
0.10031377703029412
-0.009008044538578569
-0.1254303225353034
-0.06411115871953771
-0.035598717658349724
-0.04718821386446595
0.09331954769134469
0.17352060483009968
0.1750315870236947
0.07746556183615079
-0.1317658737441356
-0.24462644165673852
-0.2222194314374898
-0.19332610631247488
-0.06541300385329582
0.25302793926192346
0.42520436424511754
0.26353034645927587
0.12106190323111371
-0.0987962584386535
-0.31709737043333064
-0.4476256675492951
-0.16994105610127413
0.08406707001726357
0.32766899942472333
0.20520660947334218
0.1746353942165004
-0.10591406032516082
-0.18443142829874873
-0.21582326401602941
0.038584383404518086
0.009283131072793192
0.11383728390387167
0.15133127794714307
0.0994517650847287
-0.08316223707600426
-0.04892894357288406
-0.04982041002217927
-0.12598706855468622
-0.09810939565190058
0.034295666986413925
0.08850376598678553
0.09018456173596517
0.06433020350666793
0.028746747405379126
-0.008069830229427706
-0.04479133999884275
-0.08260077153354162
-0.12056772950946731
0.04665647105583372
0.02775111812958903
0.030839316478294524
0.058719845815499924
0.10552947432182695
-0.043429586284933035
-0.008187200585435924
-0.00784493887619776
-0.05359668665753342
-0.14350858435495317
-0.06120136080591175
0.020516228275289705
0.13176775941403507
0.09606128941722075
0.12266528952204875
0.003927939689352244
-0.08145574019089169
-0.1607352121266742
-0.058243546355781495
0.011153414671664929
0.04428228547709986
0.04767950639915264
0.03312430805425584
0.012850051454622553
-0.003952669695853898
-0.01268101027999935
-0.013091802393849862
-0.00794710127390887
-0.001261332278218726
0.0032957677560629174
0.003541100995779588
-0.0006337720077334671
-0.007236199060997491
-0.012706560248923757
-0.013007906255542998
-0.005186306166509383
0.010872240685201966
0.031015454764586586
0.04644465087784772
0.04504828911027612
0.01469305882594414
-0.0520843576351279
-0.15348603501016714
-0.07605519488715629
0.0037710817128183975
0.1138605229929875
0.07802589918340298
0.1081738100372628
-6.185748198648017e-05
-0.06672917760476547
-0.12259731721129949
-0.0019319014214609109
0.06463456058016614
0.055679534687712404
-0.03729182825181938
-0.007811455249990218
-0.03422037676599057
-0.08183900055883805
-0.10812921407976131
0.12924191185874606
0.06275449580510518
0.10635608589066506
0.05071320836886202
0.0644407620410794
-0.0985953596704994
-0.08796837837988902
-0.14495349696575915
-0.09415743761691053
0.05901301016381811
0.1249958904635222
0.12324014930441159
0.07554653538305027
0.002609100257962547
-0.07534524309026006
-0.13539946096940417
-0.14945073547441934
-0.08550989322535238
0.08584290038283116
0.1813163506440703
0.1951337516708161
0.09457505238565131
0.024259174645038833
-0.08082108656496807
-0.2772800030019822
-0.1965770013641452
-0.03576516616844448
0.04062837856026543
0.08818010448204844
0.1640786638425126
0.10899168261249377
0.1352736166632405
0.025144213476170952
-0.06090060465497664
-0.16856249987948782
-0.13259319185367327
-0.1640704037863765
-0.046583944925602236
0.0573676594256798
0.19218774893550947
0.19251950967992718
0.07034664488330329
0.01056279766783931
-0.02360448213519394
-0.07756638943200238
-0.18955474634535865
-0.17763026368094537
-0.03408275114827064
0.07088086182939166
0.17777734055883604
0.12338721819990414
0.12878589977513058
-0.005898982433314524
-0.09877728595478248
-0.17756191495766355
-0.0691321338009459
0.008496587593116289
0.0493558498318045
0.057923887676930026
0.044680511232052
0.021288191964503368
-0.0027682155555090455
-0.021415916252151522
-0.03151186115142163
-0.03167128070796904
-0.021485063847112313
-0.0017731936319805173
0.024178286264402524
0.0491440148465901
0.06140716308992572
0.046188906431715186
-0.010567810737998454
-0.11681446716470766
-0.0692827477920228
-0.050978111684344324
-0.03300581789233058
0.01909714874178338
0.13618267348313695
0.13647028559979382
0.01994516271957845
-0.031677293591760226
-0.0493970829376458
-0.06789461427314517
-0.11626154746429107
-0.011522841117630318
0.04333538882035388
0.056923758156880166
0.0442362855475045
0.020961016672583422
-0.0007794952623484567
-0.014362438753514088
-0.018410356008668437
-0.015138832501877485
-0.008271815888237107
-0.0012946314325143896
0.003556560350813897
0.0055357868359867755
0.005071845142768549
0.003201624979604974
0.001022077530335933
-0.0006748904187653511
-0.0015379538491551504
-0.0016044820900560756
-0.0011463337395531575
-0.0004990658353846163
6.604926080252385e-05
0.00040298564454754833
0.0004904944645512311
0.0003929034743909342
0.00020863012623916906
2.6974008119502693e-05
-9.637933340796471e-05
-0.00014437670322513564
-0.00012972626925674308
-8.000438853811314e-05
-2.359595890478511e-05
1.945372157914189e-05
4.062680342311152e-05
4.135539293597319e-05
2.8920755009714417e-05
1.2034660693197938e-05
-2.402534504963374e-06
-1.0788334889595244e-05
-1.2730278925034811e-05
-9.98939819289282e-06
-5.1401889063191295e-06
-4.690648618641886e-07
2.6328027888205047e-06
3.7745000526907505e-06
3.319911324708595e-06
1.997042832022659e-06
5.372840040983713e-07
-5.539008191932556e-07
-1.071615466241277e-06
-1.0650367274551929e-06
-7.287686414771513e-07
-2.887502332743717e-07
7.970612923808666e-08
2.8798837072726814e-07
3.2997454686030755e-07
2.5364639675089243e-07
1.2625723570508515e-07
6.282963493110945e-09
-7.158860004360021e-08
-9.853781802495606e-08
-8.486304289621831e-08
-4.9748033111481405e-08
-1.201670577185498e-08
1.5604482370165865e-08
2.821560624725527e-08
2.7396811911181386e-08
1.8335708176674654e-08
6.884857495556978e-09
-2.5074131242494096e-09
-7.668392094355705e-09
-8.54274455771341e-09
-6.432136866178908e-09
-3.090970097017704e-09
-1.3041400020414854e-11
1.9385501266006596e-09
2.568908697262913e-09
2.1667101327234953e-09
1.23658832588136e-09
2.624645731524056e-10
-4.3574442580993746e-10
-7.416521826356969e-10
-7.0394592803362e-10
-4.6057952511566873e-10
-1.6297178491227886e-10
7.615491222706012e-11
2.0371261585629365e-10
2.209005620900436e-10
1.6289364370082684e-10
7.539604576794405e-11
-3.477478985451172e-12
-5.229945267186585e-11
-6.68827145902934e-11
-5.52543844268831e-11
-3.066697139343605e-11
-5.546822879318815e-12
1.2077308634202289e-11
1.946276820901879e-11
1.8066849254651127e-11
1.1549894383219057e-11
3.824813239652598e-12
-2.2558200384164757e-12
-5.399851685584428e-12
-5.7053927549064325e-12
-4.119635267818634e-12
-1.831659217722204e-12
1.8718879805462581e-13
1.4062210527889495e-12
1.739053674148139e-12
1.4073677565675146e-12
7.586432621499455e-13
1.1160491167924713e-13
-3.3260358219986155e-13
-5.09958283021535e-13
-4.631605431493902e-13
-2.8912558070984513e-13
-8.88512068277554e-14
6.557523142821603e-14
1.4283782221812761e-13
1.4718341796077098e-13
1.0403653531054261e-13
4.429361151529862e-14
-7.320912477392462e-15
-3.769756495904992e-14
-4.5163981598921964e-14
-3.580598519548312e-14
-1.8720590608729657e-14
-2.0734307763741067e-15
9.105434284390966e-15
1.333844346718066e-14
1.1856580565133645e-14
7.220778834596042e-15
2.034918209975695e-15
-1.881903148407111e-15
-3.774389895121781e-15
-3.795876238254544e-15
-2.6268080578101806e-15
-1.0689749539002455e-15
2.490729267345504e-16
1.0043986370434363e-15
1.1681384874758062e-15
9.065007768962263e-16
4.57295455673017e-16
2.9482442839115697e-17
-2.513918789840885e-16
-3.5170865373151447e-16
-3.0649834948898286e-16
-1.8330513644375215e-16
-4.918388007890098e-17
5.0029563897901714e-17
9.621821271214016e-17
9.445322450236905e-17
6.289647797509338e-17
2.232952416354271e-17
-1.1288732268498801e-17
-3.002725332451114e-17
-3.3507642467288546e-17
-2.6248346036927234e-17
-1.445726665872091e-17
-3.475510004740351e-18
3.5697665207864874e-18
5.927383457940239e-18
4.583771570322233e-18
1.317220886974079e-18
-2.1474544193120108e-18
-4.657117228244528e-18
-5.7799300676280196e-18
-5.675107610137053e-18
-4.826198976498623e-18
-3.7711893954643584e-18
-2.914750494892633e-18
-2.451014339225203e-18
-2.380361142269821e-18
-2.5804582445712914e-18
-2.889474215616686e-18
-3.1710483626455677e-18
-3.3474570376006732e-18
-3.4023147298419936e-18
-3.363156367650374e-18
-3.2767209604854205e-18
-3.18732428279001e-18
-3.123930057775803e-18
-3.0967565492003907e-18
-3.10097472317324e-18
-3.1237403390002455e-18
-3.1511427634346614e-18
-3.172934281901214e-18
-3.1843803347452727e-18
-3.1857111118818665e-18
-3.1802264487682882e-18
-3.172139554499476e-18
-3.164927854296421e-18
-3.1605189225222094e-18
-3.159258618324595e-18
-3.160384054138833e-18
-3.162668499117883e-18
-3.1649740092053305e-18
-3.1665734330363838e-18
-3.167226206596568e-18
