0
0.003747488408542084
0.08738452574593607
0.19404395749295866
0.13805803280360007
0.11913729415595835
-0.07549530509247669
-0.26303794861421703
-0.25537733006520186
-0.0530190030640414
0.15388079839199056
0.17796127370377376
0.22496204447486945
0.08755193815516875
-0.053569404307233025
-0.22148875640522425
-0.23183072577613037
-0.0841712840698117
0.03945807295750534
0.16813606520291705
0.1307360465366647
0.14492324229912507
0.011159881298865358
-0.08619136498577867
-0.1718513409343337
-0.07026790016602588
0.002039071187634958
0.039834172128842917
0.0479538577535826
0.03712136763738129
0.019051028225220663
0.0026822622084690887
-0.007557444227267901
-0.011487368855268059
-0.011547824643691184
-0.010692603102501424
-0.010613184781233631
-0.010864134226764076
-0.009139116212315801
-0.0026103316818660858
0.01007889536813454
0.026851515957380157
0.041097775661135934
0.04219499959593114
0.017996956117328836
-0.04109076811274111
-0.1377114720747487
-0.0646943337068666
-0.005383841536781352
0.062399149363830196
0.16008131220300373
0.10234640702567623
-0.10603858451998742
-0.06954842731347728
0.0016515615230772215
-0.10406109160664562
0.003123834891217354
0.11511765540567605
0.02480922767326436
-0.07563530107381562
0.0041217799039402776
0.05267098753252663
0.05823949323652859
0.011311742124933574
-0.09186340581761356
-0.04584416292378737
-0.03414037605424632
-0.030275659059166533
-0.0021836998718017236
0.08090868274131198
0.04100387836877569
0.08558103347952592
0.0054979075441334135
-0.022657711367077945
-0.03044227486200868
-0.04956446178536319
-0.10447993233576902
-0.007731463005238597
0.04082598198664583
0.05118312537012732
0.038217461784217095
0.01661042046974252
-0.0027612953070368564
-0.014278253314607404
-0.017096983902230342
-0.013502319831873439
-0.006973050273185252
-0.0006312262740681645
0.00360442146595998
0.0051688298659782455
0.0045224795439528535
0.002629580618462194
0.00048099713230228397
-0.0012046512985049401
-0.0020779459745350766
-0.002107393665153088
-0.001464371429068035
-0.00041744087212047234
0.0007276627342483476
0.0016481024849116497
0.0020192165448230763
0.00156567314271895
0.0001682984690535911
-0.0019941005345862
-0.004333347513235268
-0.005864472234541927
-0.005426276251026457
-0.0021340370323601246
0.004017119459773399
0.011602265099847917
0.017561562942898245
0.017619914713771122
0.0074513553100901695
-0.01560086340902626
-0.05081367000777053
-0.09320802262449546
0.06577223360592223
0.035912621403772195
0.0249783057971425
0.0359213814051253
0.06578654298285377
-0.09319403230029706
-0.050807252914020995
-0.01560851875594898
0.007426741254540027
0.017581952192415564
0.017522005856079194
0.01157989268570223
0.0040327077029536414
-0.00206656584768745
-0.005310483735747184
-0.005729665798387468
-0.004235039861303336
-0.002001891016648158
-3.2160108407454065e-06
0.0012200662593945134
0.0015689012925232415
0.0012542965301066762
0.0006172790033165957
-2.5464325837655575e-05
-0.00047156914613693705
-0.0006542095969099448
-0.0006132122787029201
-0.0004434950965911318
-0.0002452489596968022
-9.07641374555842e-05
-1.2136728241220386e-05
-6.022268066598329e-06
-4.769438009077115e-05
-0.00010660760998175046
-0.0001580592115423809
-0.00018874610022523927
-0.00019672616777625452
-0.00018785104200938526
-0.00017107858850333462
-0.00015453839880048896
-0.00014330081418019084
-0.0001389197340799496
-0.00014024044327101017
-0.0001447558532609674
-0.00014988642423200798
-0.00015381199926565135
-0.00015575994897727244
-0.00015585890615307847
-0.00015476333519124185
-0.00015325122644631756
-0.0001519322951862992
-0.0001511197215960252
-0.0001508475973485171
-0.0001509756321278586
-0.00015131394993776133
-0.00015171572029587985
-0.00015211201423788264
-0.00015249083263404144
-0.00015284330356578527
-0.00015311071556306803
-0.00015316507854462588
-0.0001528437325455389
-0.00015203720272600872
-0.0001508033331975561
-0.00014945701583108653
-0.00014857355269115897
-0.00014885527283218082
-0.0001508518875938228
-0.0001545920577557937
-0.00015925961505558863
-0.0001631015402245457
-0.0001637475493793452
-0.00015902165389881275
-0.0001481299264037175
-0.00013285633123525455
-0.00011818132186566864
-0.00011168317281492095
-0.0001213107795387027
-0.00015168067874399147
-0.00019986697349087725
-0.00025246487867335916
-0.00028611436659358954
-0.000273234172365259
-0.00019316450802963101
-4.636646207435458e-05
0.0001335454586097455
0.00027712515009898963
0.0002925203962749839
9.773266851664862e-05
-0.0003332548184345474
-0.000925163172465652
-0.0014797197413660263
-0.001701970921712463
-0.001289493779988367
-7.702727263118982e-05
0.0018026269376376328
0.0038113523842516284
0.005036210003575773
0.0044227285097614725
0.0012138545236016545
-0.00450239907703853
-0.011343850500833013
-0.01656365700857062
-0.01661688210894919
-0.008463468122371457
0.008589294183775088
0.031066363913096487
0.05037871772525369
0.05363265244029195
0.02668304469994494
-0.04092618099005853
-0.15057609139246392
-0.09100254694703734
-0.03871645888366948
0.03673369898991765
0.16395305631028553
0.16054297404702672
0.027330162797387095
-0.05158607010147027
-0.10312688190689516
-0.1565338806852416
-0.035426416738051365
0.04645246182083365
0.08500128667918264
0.08243281497263195
0.043342803212715886
-0.02776296073014711
-0.12687763370171873
-0.049725142073628964
0.008688487018750723
0.05330606311162382
0.0874344269809576
0.11175270961444517
-0.07472521215192733
-0.07151305503415556
-0.07265667544889758
-0.06412221144794637
-0.02448287563773872
0.07057921998310028
0.041158251838275574
0.09583826264409416
0.026930972372361958
0.010141835628535377
0.009100949174200497
-0.016371961244939764
-0.10058867650248637
-0.06378181949455995
-0.10805244718940493
-0.019134317803487642
0.026140728321926873
0.0488742069551189
0.25753228200174094
0.2422791427148247
-0.022406385677281867
-0.16647098980345984
-0.20808273216995604
-0.33929451900234553
-0.12059606873832203
0.11185228673825763
0.22791879965618034
0.2809001473688811
0.28979968717235255
0.0340761706604946
-0.1365064194498714
-0.28052134877164653
-0.2404288718283422
-0.224790585485157
-0.004264412538240352
0.07689560404362382
0.27802045467318487
0.2362601885913991
0.14721572789573142
-0.04117181848126821
-0.019416188507266684
-0.09498568154336111
-0.16503051448972517
-0.09099857757916642
-0.08179592556288351
-0.08966758263121842
-0.019783954172036485
0.04866569982369972
0.03472150552315056
0.22783348928017777
0.2670324386163177
0.13294736891725684
-0.04459171544245228
-0.16524833114902762
-0.32969694104881914
-0.2131013944546296
-0.04887977275717422
0.17296707197027472
0.0941563782934292
0.16861510282085432
0.042239313280674005
-0.06235685021555055
-0.15322384669274774
0.13169407148157608
0.13254920747278037
0.1818619123400767
0.02400908045325185
-0.16262293600421968
-0.3460015399427818
-0.2305430523898364
-0.2636106313171828
-0.06114568048153431
0.3512288536985068
0.4918573556807895
0.38559699633859845
0.14837502089080332
0.0005180778557442501
-0.29377071005600713
-0.3720147548100671
-0.4199646039634777
-0.13395720932222632
0.09166122907574073
0.15119811506862457
0.19518872217127908
0.18999385248965434
0.0806002423551078
-0.03531909490349871
0.08150801873262656
0.015175042659506635
-0.09132479152443036
-0.1162630982371212
-0.13929993573034818
-0.2267606063794806
-0.025312750291277646
0.23597487932687267
0.3389072063534315
0.2709006145374113
0.026624393126848212
-0.38223147305460625
-0.31366057338846065
-0.287108744632497
-0.18837181615472146
0.10949250407578485
0.5138111746919818
0.4793759676141911
0.18788181359338144
-0.0510628950102883
-0.17631095850267317
-0.33671096820983626
-0.45106372245690385
-0.17995347003725687
0.08186277102665136
0.19156419691281193
0.22957862801982726
0.2673568979636642
0.14291377302015243
0.05164039303422778
-0.04589307891079306
-0.20318097715774408
-0.2621798807384604
-0.23228322906993873
-0.08148541455832334
0.057084126508118116
0.26566491400589276
0.21647783211677865
0.14940059602108383
0.06006327661646917
-0.09851743273597884
-0.20259579737743416
-0.13811432636076898
0.018585833753432496
0.014763678147831102
0.027924539613204968
0.06570535264435079
-0.03908015625449985
-0.036263484535471506
-0.06756701601775644
0.12379688147130322
-0.01562646639972334
0.1441219209695341
0.013990761255029653
-0.011932958684490994
-0.1505256194336236
-0.0222131875287838
-0.044831574277762756
-0.03087744075761983
0.011271153271582532
0.07322900412937593
0.14179610707576099
-0.003978392159185664
0.008001877041624009
-0.05226412821228187
-0.009336338999482415
-0.07456007974023468
-0.04064472236249696
-0.08054912037551805
0.04850406528934086
-0.0035390047159690966
0.00923679182052233
0.11770829026130045
0.12993423918027375
0.029049711897764736
-0.022159571970325937
-0.07108994571034664
-0.1626687935920011
-0.1283296050452869
0.019878271408777775
0.08860646111227145
0.09717203483998055
0.06934739190918385
0.02648098515769486
-0.015783994411194584
-0.04686649559837724
-0.058024962880154955
-0.03871084141197079
0.02550867144996876
-0.047676185314664006
-0.04070468068573708
0.058583662698004635
0.05137250460027842
0.12400764901395102
0.04779520576829469
-0.016517341575962914
-0.11022556893190123
-0.06652163466277544
-0.10205836553206372
-0.013147507978131691
0.022085022864841233
0.03632827321933985
0.06295113203526108
0.12635852660080932
0.03582215824069959
-0.015461066129623046
-0.04616831197360268
-0.07942110051361581
-0.1351292044969446
-0.025002118664568886
0.048165508395524345
0.087305829276605
0.09616038776416315
0.07553956783345857
0.022950320615850683
-0.06403093258493729
-0.18235663414387873
-0.11921406881200541
-0.05192786825996614
0.04660428150436026
0.19840451601035067
0.21076474362350506
0.07112066693151647
-0.0505058691309362
-0.1918240737372348
-0.1850977746441
-0.045833421403254825
0.03233272762756912
0.07515217380550275
0.11942528057896198
0.002329333997502297
-0.048123965532296205
-0.01934383686058912
0.08357914345378868
0.03948559097174249
0.016216877850103745
-0.0216444283380031
-0.1038928796743817
-0.04695009080727402
-0.04964046615775198
-0.09408723717316833
0.048206586692101865
0.2068071768384255
0.0024588998640290623
0.04034928112269264
0.10898767564918245
-0.014864614689869108
-0.15693345281216647
-0.1352229665441526
-0.1528920750707801
0.0026615600379466513
0.15388262136781372
0.12276402105622543
0.12075903594553737
0.1435095775072161
-0.02708861815459513
-0.21423217415716114
-0.2348058116795687
-0.09056071505326167
0.033855476168542814
0.16505442825487313
0.13008195159747654
0.14565860364795202
0.01214955207348748
-0.0855864835425283
-0.17155137474524756
-0.06962753764468561
0.0037899266452213944
0.043027473433066635
0.052013417420373145
0.040412804120841285
0.019229393932312575
-0.0024159624398722105
-0.01864371337880247
-0.02659032314882889
-0.025444971482525534
-0.015659675128811622
0.0011052205141546777
0.02130632177182826
0.038664762821231775
0.04398157840394793
0.026348423099279223
-0.024078701762545635
-0.11240916303938664
-0.03583020701153113
0.017614580763900527
0.06750563412622318
-0.062859949632161
0.048429921219605675
0.017001443981489058
0.048660749184876576
-0.06198384895380841
0.06957541725595213
0.021101761826286397
-0.03147622195636635
-0.1087219005444494
-0.023333607464199563
0.021918672917258877
0.033402127207502845
0.023489298213137954
0.0063409686608881365
-0.006086820717033875
-0.006935385638911485
0.004143023527768273
0.02113062592051961
0.03332350101807013
0.028429269306360725
-0.0033040463816714763
-0.064822474039514
-0.14931003266900347
-0.04014712562746396
0.08529993731290503
0.04867632887803421
0.06269103827663151
0.12525979952668073
0.0182077200298538
-0.0886036078264725
-0.028829660480706853
-0.029547775725430245
-0.1027365484504569
-0.04100773400930106
-0.0189959152446093
-0.0002077582866519286
0.05249250673910162
0.16585372920984787
0.1482284922503862
-0.012562616836328576
-0.14461868548203585
-0.08234471676808701
-0.055531479348203606
-0.08102207807747087
0.0406363022914471
0.12336249616371488
-0.00981078478281198
0.06685196797005033
-0.02360682606719981
-0.0642902475489468
-0.046172489601967646
0.031138190478498685
-0.04094111446728906
0.1202924958968858
0.09052370630781373
0.04244049594245305
-0.04785474366163143
-0.1935066609120799
-0.19152746958172778
-0.022449159979484597
0.14362352157424424
0.13619927945208435
0.1730851776650399
0.05341636158352454
-0.041953832291466445
-0.14291409222049925
-0.07860114617232039
-0.06655881259512807
-0.10657719525989016
0.018797791617754515
0.1376365265469424
0.07861374464732596
0.06145721605854223
0.09129884804469905
-0.0413620624810847
-0.1556554750754417
-0.07276704625048312
-0.00900051079098837
0.0280699624400425
0.039656136986380396
0.03299722286499832
0.01754560453317072
0.0016741803416180697
-0.00923037090960559
-0.013188443999063323
-0.010979269147613336
-0.005017872198975634
0.0017482164335316953
0.006665920113389318
0.007902523925260984
0.004772035437560614
-0.002047534188121902
-0.010428703487810815
-0.016996859228488023
-0.017832373336414225
-0.009788422575895224
0.007723412419134245
0.030991176569409133
0.05112587168410342
0.0549266786376097
0.02798948315185116
-0.040283581935113326
-0.15121643164946924
-0.09322113044873835
-0.042213587779594455
0.033012455199109426
0.16172293096687965
0.16172347175919577
0.03322923810444448
-0.041262335233550954
-0.09105359890843247
-0.14781754064117625
-0.036445146721742795
0.030618465232151153
0.054232383723962586
0.04538783019318374
0.020025541156379837
-0.006099601069572783
-0.021230043506328084
-0.01973974785253899
-0.002810701699083972
0.022038356894076336
0.04248174203930024
0.04409127292407027
0.014219184983112346
-0.053479476603314195
-0.15520323911956105
-0.07566205853663391
0.0093220404715025
0.12631110782642943
0.09585850260698311
0.12552566820652875
0.007300800657787777
-0.07943308312447393
-0.1606879357914863
-0.05953543165312473
0.010003981250872823
0.04489532769250788
0.051005660377007066
0.038764827079800245
0.018761056297432164
-0.0011343834439659136
-0.016567292651283285
-0.02584160819266872
-0.028383814516311074
-0.02359339564584646
-0.010801735940900796
0.009542804187095215
0.0340120781946245
0.054711673160787434
0.05935807744349236
0.03371753279457457
-0.03371422093522213
-0.1461273810986537
-0.09423318442353608
-0.055936009779473654
-0.0010710615674489436
0.0997198855917465
0.2650705445948712
0.09608577366527742
-0.02403079478255853
-0.12329594589067656
-0.2299579405858213
-0.16212298395189967
0.07740317389605379
0.09915763187909658
0.11959875129234625
0.1522969458851507
0.001932102555312681
-0.1366525777420475
-0.07482579752978423
-0.02448148960323705
0.006829817331899668
0.018177414677922894
0.014710626811265838
0.005135899646835569
-0.00163676494702804
0.0003219050312789211
0.011664235823804355
0.026852786280277784
0.03495599277192044
0.022234316025262175
-0.02383834359839498
-0.11007595815888886
-0.034056837524655444
0.017006381172023178
0.06434222691537572
-0.06689471244300693
0.04656655049369898
0.020529494433732233
0.059316020554049644
-0.04566468906621201
0.08575341836095468
0.027098326154013242
-0.04813327228713756
-0.1595541367620831
-0.11484986732934337
0.0914251136292975
0.07464586004232833
0.05388008410209392
0.045265667366493505
0.05749169213390149
-0.10942954386268584
-0.062487109427453294
-0.012545365382463794
0.02867491581474681
0.05072044380068116
0.045826100005650565
0.010258311778334717
-0.05415666052468602
-0.1388667353819744
-0.028914604011667084
0.0943913929900962
0.048740525654983005
0.04561214632984172
0.08669529510734172
-0.03663489156877652
-0.1407592690281474
-0.04550357666807237
0.03004773464831986
0.07032530225126828
0.06460404834913691
0.007742395345825727
-0.09895754934441432
-0.04695274947206929
-0.020666923425823592
0.00043665931025837514
0.037953929290896186
0.10992984421742914
0.027241128538480364
-0.007602928047010833
0.001124389211561003
-0.1542428072037569
-0.08147081934457168
0.012924811797784415
0.12240413710694095
0.03752576270127522
0.1436984863980313
0.021650471370367467
-0.14878170618415906
-0.18297366289061331
-0.0867574184810142
0.14488997819845642
0.125193685762573
0.07080929213544118
-0.0022357528618331627
-0.08003993990275836
-0.14990317051259303
0.20141306377894394
-0.2115085844216552
0.026248139880580414
0.12729407180237845
0.09865461074109312
-0.2608203406060968
0.238671975628585
-0.020991480830413595
-0.06311204032825109
-0.11253880238069512
0.007839408245142286
0.07959763920523293
0.09016408145521405
0.03384096381089648
-0.08676656070741338
-0.05908330395362282
-0.0599461225171403
-0.057643777306909956
-0.017423632085872998
0.09024471175884213
0.08090504597839505
0.15001489941811647
0.07243443835475073
0.008869105231624671
-0.08187382838405416
-0.22854117852502287
-0.23629628966172023
-0.08367159889065313
0.07022561659665676
0.27035331498553083
0.348252230046992
0.10992563489773459
-0.06560129486407047
-0.21672805855543809
-0.3837360025812103
-0.19502808507281238
0.1384080129465082
0.21862993007806059
0.25032265118480646
0.2313564846228961
-0.049563807671905415
-0.20629694646081628
-0.2429926380200625
-0.14274139360393162
-0.06359779381177265
0.05486816518443447
0.07594191636446938
0.24631801984081725
0.17978197043074845
0.050119492954496636
-0.0036891631004164014
-0.0611311185254688
-0.19766314142976676
-0.2632014539414253
-0.068564310482371
0.015692965430829566
0.04773868868609824
0.09414174668605367
0.20746180027011688
0.20901330005628183
0.08246486915689379
-0.019423489209215782
-0.1569618576352703
-0.18059716452193322
-0.3109897178032054
-0.12951324129831127
0.016847386747741694
0.19741629024554674
0.2729033283303692
0.2729384734268962
0.1847784444120328
-0.04218275929764751
-0.2775753412323979
-0.38414229630661895
-0.19500313468728966
-0.10303558935857439
0.13387268206632152
0.37468147572046
0.27233614909434734
0.055710934423388085
-0.07707528778519097
-0.1529905702519366
-0.21034847777217944
-0.08379283473632403
0.006012239016366485
0.05510056836268623
0.0720097847624483
0.06982937229134291
0.05835409765964784
0.03939301343308312
0.006629669785748692
-0.050414339656283884
-0.1402939625091264
-0.06421285851516677
-0.013746235684417537
0.027185918451784436
0.07694979764273001
0.14988687431912598
0.05200154762243934
-0.019294757568669076
-0.0712547278022721
-0.10967986785426644
-0.13390209910167553
-0.13591843415662028
0.09502671605789507
0.16384793665467517
0.2610530743838907
0.15929763368369523
0.018641062501357716
-0.19974836264643717
-0.3162220865906526
-0.3193298088309875
-0.16379512881703756
0.21717949138838463
0.28866466057941054
0.48886380748843633
0.2130415156645302
0.014255071300643971
-0.37858458779113174
-0.4327149228202924
-0.3857413920915638
-0.0333279900516334
0.2646654209489732
0.3631839262339614
0.30624963740706435
0.10806394150130426
-0.05144958621747022
-0.21593061754814027
-0.23232818115019024
-0.12998088388943402
-0.1072201765596976
0.0699859961594894
0.0575833716932408
0.11537091002428403
0.08757338183795685
0.18822069191521767
-0.004247544880181154
0.05847001657410938
-0.0907087946509791
-0.1145243231207128
-0.2526610288546271
-0.10997223433870044
-0.05558544033048978
0.16674425235482898
0.22067719675303593
0.1581314026440411
0.005488641539308342
-0.040776648516809295
-0.008814026423966915
-0.13952405416073477
-0.07277740043703786
-0.036262829768625625
-0.040084275280185946
-0.07815875460734682
0.06466357182334324
0.2026130868304687
0.1400929602169168
0.06766200131591146
-0.035078405159265365
-0.19073151261988924
-0.2134322382513411
-0.10139459006003637
-0.03651273614704811
0.20849686827367772
0.2587332209998065
0.12715667185111493
0.011147458243648064
-0.1025345580708153
-0.22674453063066574
-0.1623194111073448
-0.09164893570708892
0.019031715829820134
0.208996096911787
0.10806004742653204
0.12315563659444533
0.03162032741066761
-0.016279652607890497
-0.0863659208243131
-0.04451267249377388
-0.14021483902575538
0.005834321835480013
0.007154504962541447
-0.09117090501999954
-0.022389386553323603
0.08703744276336568
0.10086651840078241
0.058734928269761295
0.1677386522625086
0.002247060748736235
-0.08803138041455302
-0.16426999558337807
-0.08341159423007528
-0.08633241223533285
0.007716675201113148
0.20009286825243153
0.10737720807225509
-0.04503353018781312
-0.02774003552067761
-0.009896392910111677
-0.16066803533007476
-0.05141068703715488
0.14024845984726647
0.024699438074261944
-0.005284862836257781
0.022169383784899615
0.058905564257778
0.04259416023102347
0.107455297196441
-0.0013219105367059843
-0.11198115417726578
-0.21340486043424
-0.24992724064744465
-0.12772221974133074
0.06629328952600932
0.2367103117428886
0.4510996252759663
0.3206966775911119
-0.0018399069169903557
-0.2057671736630571
-0.39248307998750737
-0.4440584512763175
-0.20226525583599742
0.13437250041586962
0.3960600740095736
0.41805907663650665
0.21983182842291238
-0.0032590346414625524
-0.2727835303275407
-0.4095002974140612
-0.21483156670602815
-0.061180241804546044
0.10409222970358158
0.3429644078698142
0.3065884266299646
0.019410535588284806
-0.12642156840387742
-0.16565303348992627
-0.14764980017139406
-0.12336973468325156
0.06363345847635422
0.1806548209784889
0.20545816053431107
-0.07467299553682429
-0.0620935198627103
-0.14631555907774846
-0.10227485829248255
-0.09213832883997558
0.12815509295116198
0.19904068398698213
0.14772775013074038
-0.017221244688779374
-0.10504422785822116
-0.13661101781732
-0.13625575076882035
0.07470783976227219
0.08074720873076517
0.07150786893551535
0.039824268854299655
-0.019649877880797074
-0.11039305151601563
-0.03314113070713872
0.014586730852831601
0.037749417853798026
0.042029488148216894
0.03205292952000511
0.010628297854331684
-0.020568527255683918
-0.059306880681320534
-0.10120256177588485
0.06063744743572518
0.03421425190308887
0.026003558657058796
0.038386014862536504
0.06846014031080136
-0.09112518094157529
-0.04966205904333029
-0.015336469175784054
0.007041563602331968
0.01675211334144401
0.01639042632208543
0.010262851530182268
0.002724892609828243
-0.0030048822589331696
-0.005365538051529926
-0.004393631602483209
-0.0012971495703342044
0.0021234603651366143
0.004067623913296334
0.0032751522607000864
-0.0005240471467936131
-0.006321712063769832
-0.011833712777457307
-0.013950614919023146
-0.009732595908026675
0.0021333441458568046
0.01976236983312989
0.03699243890629794
0.043500621186553394
0.026611860061596597
-0.025277365264817105
-0.1185533567783075
-0.05109351179051494
-0.011451682105497312
0.018707191537452737
0.05958174258431539
0.1275365104581905
0.031066685898545564
-0.02991440597761372
-0.06131043870930526
-0.07006330746569485
-0.059712125404696594
-0.028374569853123158
0.02997861726145554
0.1216426159043503
0.04858476660864267
0.005316866598279858
-0.021388698446354996
-0.04999463640630979
-0.10020454453956362
0.010805379229864595
0.07074027771243109
0.07301473093234968
0.016825019330520875
-0.09272293779329556
-0.04438151548790748
-0.021188177944055704
-0.002396784248144734
0.03298047607519726
0.10191095465502127
0.013833501763270124
-0.030807207004884467
-0.03956285881444382
-0.025131279901433035
-0.0018315290676383465
0.017560104928448787
0.024138376575962656
0.014382359125266397
-0.008992413241542449
-0.03690773180720582
-0.05491313156265141
-0.04578641068888316
0.0061269001575061845
0.10953030594999304
0.061368684115302045
0.0446362320676321
0.030305731038844312
-0.016506898896230405
-0.12768186630005787
-0.12329019222819597
-0.005815162480251235
0.040643926464740784
0.04612487526395336
0.04727630759530826
0.07917594602835222
-0.03120278255861302
-0.06866682717448898
-0.030640595150006434
0.0740724876234067
0.02784802646877766
0.007770500423190366
-0.010068278733416985
-0.04608607118445489
-0.11366916540718411
-0.017839350511305467
0.04319545905177159
0.07413402557100539
0.07806362061181417
0.05354428912203987
-0.005144800455912818
-0.10451770744848432
-0.04663626028990311
-0.024453629106522688
-0.019860852330268394
-0.005453557602011929
0.050285024483134384
-0.024306925145141243
-0.011667106743891277
0.08894938059046013
0.058655383490167926
0.060619400306769246
0.04674098519873097
-0.03152414359696196
-0.2106292550900397
-0.10435998614126595
-0.09893994289848294
0.04404253488939493
0.17756774086151592
0.15542229309057617
0.019444111434048648
-0.008439801717870172
-0.12810308399840856
-0.15834998991436744
0.06815058422375288
0.11013451998122105
0.12288632255445257
0.06419511890969766
-0.0982289826633183
-0.1789457596414579
-0.16945992940063753
-0.03862744518083036
0.05968257480252617
0.17325375224206926
0.1369477866010845
0.16236873396243212
0.03592267619902773
-0.07371636420183951
-0.2014287162218787
-0.1702527573038263
-0.18096077432097285
-0.010959206000033106
0.17689347142699613
0.21912935584956753
0.13650114732449056
0.12513339913590274
-0.042432633670587756
-0.20694692415915802
-0.2073473680647853
-0.06703100894621151
0.013319370065014295
0.05431983082648198
0.08944659372658982
0.15351699821171866
0.07246025911690443
-0.14256727456304702
-0.09594851855833361
-0.004548009369967266
0.10712256967647578
0.012145004463540162
0.08651241286491052
-0.0855603435891777
-0.10714374873282294
-0.16663208927498185
-0.04008646219267711
0.10168584883769825
0.2832419647278958
0.11575924009636807
-0.006465326880606902
-0.10244115333019596
-0.19551823453466272
-0.10337860225439142
-0.03167006635160521
0.02601491551050365
0.08218589377805414
0.14652983410972095
0.01817618045656615
0.08275860093956004
0.11603791898158702
-0.10656257725097769
-0.19749717497095146
-0.1463684803129313
-0.11580474853933313
-0.04702528539403048
0.1252425417703384
0.25253139122769613
0.1535441436786089
0.0026889668041723807
-0.0697568083920019
0.03436229750566935
0.0018685672180156123
-0.06696718280937734
-0.034829606370261564
-0.10987086828244333
-0.23856642870052253
-0.11176088660886212
0.015684965130745538
0.09467539126299863
0.24773831297941493
0.33993515352282216
0.16349693480069127
0.04149043490929046
-0.14986945264482832
-0.34674994813094134
-0.2617013204621433
-0.1571717277141675
-0.036023555505867104
0.1495495779189978
0.2754846096288389
0.2184309063071319
0.03264910045061927
-0.062481956639814054
-0.08274641867974677
-0.06976157424082004
-0.07674691287943093
0.046045920591025004
0.0631634808442617
-0.03838671015183664
-0.046071337458323994
-0.1235782057961117
-0.017564257629679492
-0.06900335761759811
0.1726423022208912
0.13583237356393146
0.2182608526997145
-0.0132992747792619
-0.013515072469545234
-0.24181500242798348
-0.14393093872308693
-0.13802689612897248
-0.010169655639093922
0.07958953774461454
0.1831088261789835
0.1472582692556208
-8.630731976727081e-05
-0.05722733442021783
-0.04799821322227343
-0.014835092920336685
-0.008280494372886022
0.124536032134192
-0.049448731056037205
-0.1410032278400793
-0.1344998548152596
0.010399963085290802
-0.049331990538700625
0.1469049348452101
0.24899266661426495
0.08492561706795375
-0.1436459498298314
-0.058328659829146375
-0.09555846041474016
-0.09666589253576738
0.10020196001600393
0.06477293852315436
-0.023696508455581137
0.023477233900524794
0.003643576360806146
-0.07824579880182984
-0.011231651116473357
0.019196461107785983
0.027818346692446993
0.026176566837395717
0.019791055140312337
0.006907885970289185
-0.020924003592692284
-0.0767575795980332
0.02468105802031596
0.07012564484522785
0.050880447481601185
-0.03401850178847102
0.02522501466015882
-0.14886195829183663
-0.12166376324850128
-0.051138597778334266
0.10335083864941677
0.16996420621066358
0.1548301427398571
0.03808928947284054
-0.022125454411386598
-0.07849295614218214
-0.1797284586579755
-0.15734066486489665
-0.018501035991856107
0.0527285334023595
0.0867831759999032
0.11631969625787235
0.16515216653509135
0.0424955230302558
-0.05568798710285851
-0.13943420954058783
-0.2153477477271766
-0.07965565089817553
0.08286897092839234
0.0936763165947966
0.17158534705273945
0.1246210709659637
-0.05378302839358279
-0.18298255958619325
-0.08930273426444224
0.0006340588370408235
0.06474007790664511
0.08764857263459484
0.06121202830290894
-0.015259157604773818
-0.1344528741522689
-0.08097885179134158
-0.03323520656066939
0.031885204798372736
0.13214505419380718
0.0732617659299921
0.04521088178348892
0.023533080989807966
-0.024205885991922197
-0.12863842086148422
-0.10867053148604129
0.035226763896715356
-0.07781064462861471
-0.013866672318421808
0.0663889933950018
0.19666756518639206
-0.004161464614374161
0.0635046584224829
-0.01828960032212945
-0.07810000756096498
-0.14558547160994703
-0.042910020223048885
0.02013110284817948
0.04613281816630967
0.04610304430016536
0.0336534750615057
0.01971250341253625
0.009413558631372205
0.0017639142174120746
-0.008264914016904162
-0.026263277168554245
-0.05490713924593773
-0.09183916556439084
0.07018762623962584
0.0408881095851733
0.02876134073543749
0.03777237601363707
0.06583872099788457
-0.09429604426475648
-0.0522959071061032
-0.016877669391873188
0.006692169881558638
0.01741463800031789
0.017765756342646388
0.012007711521439856
0.004443577317652629
-0.001794546324336334
-0.005211145576959893
-0.005770567265649857
-0.004351922721716098
-0.002130403312022455
-9.901328266037374e-05
0.0011748411139136713
0.0015697774581465668
0.0012840695580306344
0.0006560521791538859
6.913111549978449e-06
-0.0004533346239734671
-0.0006506097405447173
-0.0006199947080450361
-0.00045473167194987616
-0.0002557998426695967
-9.759110962559482e-05
-1.4478829249765026e-05
-4.796760506595849e-06
-4.459429410560707e-05
-0.00010328868769143089
-0.0001556369790168903
-0.00018764609251989487
-0.00019680446846275082
-0.00018864844782518058
-0.000172080183440532
-0.0001553555735793627
-0.00014374720015516678
-0.0001389958575135532
-0.00014006481645890013
-0.00014448317944647964
-0.00014964308380484252
-0.00015366320172607048
-0.00015570855813515282
-0.0001558666124671858
-0.00015478121226854483
-0.00015324748547870565
-0.0001519083399759767
-0.00015110989312977494
-0.0001509025432716134
-0.0001511338603494455
-0.0001515706084810553
-0.00015200115166401454
-0.00015229351445057054
-0.00015240727900772826
-0.000152372562862383
-0.0001522547225910754
-0.00015212103204588154
-0.00015201900052017392
-0.000151968816901687
-0.0001519670879904365
-0.00015199655737053238
-0.0001520365778197191
-0.0001520707949485699
-0.00015209067032292481
-0.00015209527346704825
-0.0001520887779015677
-0.00015207728523402764
-0.00015206621441137935
-0.00015205886266963936
-0.00015205615659419383
-0.00015205723383498716
-0.00015206036901573017
-0.00015206382870604243
-0.00015206641490696357
-0.00015206764197422314
-0.00015206762643419784
-0.0001520668294941131
-0.00015206578663802845
-0.00015206491337032703
-0.00015206441971479172
-0.00015206432018891614
-0.00015206450107885792
-0.0001520648029926939
-0.00015206508733865134
-0.00015206527190244945
-0.0001520653357785313
-0.00015206530337263092
-0.00015206522015036693
-0.000152065130725431
-0.0001520650652607869
-0.00015206503537028532
-0.00015206503730954017
-0.00015206505878400786
-0.0001520650859228789
-0.00015206510818324933
-0.00015206512041545517
-0.00015206512248814018
-0.00015206511748618653
-0.00015206510956757054
-0.00015206510227269447
-0.00015206509764721017
-0.00015206509615309696
-0.00015206509710622606
-0.00015206509931061052
-0.0001520651016193298
-0.0001520651032741485
-0.00015206510399920454
-0.0001520651039098728
-0.0001520651033331022
-0.00015206510262776187
-0.00015206510206101345
-0.00015206510175868405
-0.0001520651017179368
-0.0001520651018554088
-0.0001520651020627797
-0.00015206510224971488
-0.00015206510236542845
-0.00015206510239999487
-0.00015206510237243765
-0.00015206510231416544
-0.0001520651022546294
-0.00015206510221285862
-0.00015206510219535385
-0.0001520651021986616
-0.0001520651022141068
-0.00015206510223241565
-0.00015206510224682714
-0.00015206510225427853
-0.00015206510225500232
-0.00015206510225124342
-0.00015206510224582032
-0.0001520651022410356
-0.00015206510223814737
-0.00015206510223736043
-0.00015206510223814905
-0.00015206510223968872
-0.0001520651022412228
