0
1.4707023409955183e-09
9.228474299634414e-10
-3.973485511301535e-10
-2.2875593381984443e-09
-4.147108409402788e-09
-5.0417786314895205e-09
-3.970614406510264e-09
-3.204740019011841e-10
5.606703692929585e-09
1.2211559071381144e-08
1.663244256174835e-08
1.5423016162500922e-08
5.911301166677477e-09
-1.2034059251457617e-08
-3.446440928049488e-08
-5.292888518193094e-08
-5.602593597772999e-08
-3.330954799687359e-08
1.9008143209077903e-08
9.232552713692484e-08
1.6269931556292587e-07
1.9373945188239242e-07
1.4731831287273078e-07
1.3521680070819605e-09
-2.3000317772121711e-07
-4.822940762728426e-07
-6.433385575460155e-07
-5.808086785404548e-07
-1.9575083044104353e-07
5.09276597315976e-07
1.3725433280500842e-06
2.0604625673989587e-06
2.132237885664153e-06
1.1948680426144844e-06
-8.754329342336269e-07
-3.7159708479428094e-06
-6.373945552176122e-06
-7.4334926514210454e-06
-5.44467072568984e-06
3.817602309300945e-07
9.40189538391746e-06
1.902417191823242e-05
2.485605855469277e-05
2.1823438964763313e-05
6.275617850244654e-06
-2.138935069641475e-05
-5.4570812949978264e-05
-8.011826409796836e-05
-8.10104396716874e-05
-4.249703935745136e-05
3.9313831083589204e-05
0.00014923494365111213
0.0002494100842637836
0.00028481201428883423
0.00020039355344285601
-3.179674410430419e-05
-0.0003831134231613862
-0.0007495807436977181
-0.0009594070649354893
-0.0008182740717885861
-0.00019199764879373725
0.0008925025137493953
0.0021670881063105846
0.0031147780308327377
0.0030805176272446382
0.0015145522873197424
-0.0016945143820286694
-0.005909150326608923
-0.009621416084881625
-0.010691647396826964
-0.007042176558983635
0.00226432449521249
0.015855727619710092
0.029288078056435168
0.035258264050632274
0.025186461660690596
-0.00790465598127203
-0.06596832083006753
-0.14335527705799825
-0.026616170695115977
0.10248877668620746
0.06142901582080715
0.06091168016782779
0.10104136868003263
-0.028662233210781877
-0.14541537175512578
-0.06723593624208239
-0.007511558245981033
0.02785236038926651
0.040132613552515524
0.03526316050393553
0.020695924319181862
0.003027457455615306
-0.012978910909941578
-0.02415132252394515
-0.028163942687586156
-0.023134868664866432
-0.008144684232548728
0.015294462287633802
0.041410786569956975
0.05902593499877347
0.0521690845144227
0.003021484229378531
-0.10323308466897511
-0.07318178113801636
-0.1017090349675199
0.028028075713255947
0.1409281251319001
0.06407691967094743
0.021173600634305376
0.029335158491359214
-0.10115387266712349
-0.1652329471236247
0.03848723903363775
0.10776525596868246
0.03522550789438168
0.006610220907204269
0.00034223838815138763
-0.01084624979132544
-0.056506380719491475
0.03581792917653853
0.04481584893767438
-0.04112746248552893
-0.021735988518520384
-0.08443952809435182
-0.006270603002549557
0.041854439548178066
0.08923336860681584
-0.04058776496729723
0.0658963945162413
0.0107326996303444
-0.013757326257732719
-0.02068970404226964
-0.023017225071961068
-0.028167714082323738
-0.034372090028328486
-0.029659206613649198
0.0062228367854215315
0.09751256533052992
0.06699845584971974
-0.06915002188393259
-0.1054003498025901
-0.04970563914023089
0.0744731642657431
0.027251025767630856
0.153895400719777
0.1908202980554616
0.07712358958408908
-0.22945795038695582
-0.336351646079447
-0.20615678587269964
-0.15888311799404883
0.11139398549695652
0.7091077131894562
-0.2924708730128433
0.1266150414679078
0.32527247664077313
0.010065548471075917
-0.5421578691429364
0.3463317348453104
-0.2151461843421153
-0.26249908572597536
-0.1667947654679219
-0.03993632408913625
0.24500879575103207
0.22405329304673896
0.011285156857988353
0.07487779315749027
0.2256941416863061
0.02018258534400089
-0.2244842243734019
-0.20821528243589513
-0.22583996694797323
-0.1515835891227774
0.16653102160190295
0.5040053278425557
0.2546475088772902
0.02921847941645044
-0.3394075456000207
-0.38816820189834067
-0.42112978087921693
-0.12028218593350395
0.22769868460293807
0.494611344767591
0.4766783754316147
0.27799852142301296
0.1215736975812607
-0.21139410625975225
-0.3235535745268948
-0.5418068226488016
-0.475044010770612
-0.2040664597928808
-0.10939129534590329
0.2690013152195532
0.35662611431348434
1.0774523042716533
1.8183544964920928
-1.359650880303046
-0.8647813211253619
-0.4935250405597688
-0.7581381067119114
-1.4516967767844475
1.9370110474094666
0.7678702560856081
0.37892417307021903
0.03090300682827842
-0.1134496301059136
-0.17239423526714745
0.09880221374126226
-0.23776186676348826
-0.6548943889613406
-0.5336770797532626
-0.16724088233357515
0.20438024008033234
0.9388117156131969
0.9351617569246042
0.19897795361557277
-0.5577800232802004
-0.48284404307436046
-0.5309494216588991
-0.013081665048613007
0.23605977230965106
0.2659108479193412
-0.4046063850991916
-0.4181401847333906
-0.019871279165170824
0.6990012479508908
0.5657717606045461
0.5116328901027102
0.18770171588223025
-0.38857468124297406
-0.9698292806506996
-0.8208286967754933
-0.28992144880771026
-0.024094729699044828
0.3747474223912308
0.6713023993675025
1.1252262569452147
0.8552995250394341
0.25775891433848097
-0.5218123526185402
-1.285509284064778
-1.6879791263166546
-1.1909708849172014
-0.29478456066673636
0.9551372729111175
2.2213917881617875
3.3456504545985677
-0.7039223388883155
1.2228472534772314
-3.3916914779463596
-2.3447689605513795
-2.363320426156901
1.5452773225050156
-0.5774823252878497
3.400016583326058
1.9197708912996903
0.8050490066835717
-0.5722750327461767
-1.4258257959960474
-1.6297209018938954
-1.5949491736308747
-0.8009626835842735
0.7925189365357935
1.866397985916847
2.040029875287003
1.0013041016448916
-0.09075541516475348
-1.1252150124823865
-1.7124301948338716
-1.866967787497613
-1.1554430025452644
0.05975816313589451
1.2884736850728438
2.3383659969171666
2.566597676555996
3.021882578379381
-3.29210880939856
-3.053850559547232
-2.6326220025128686
-1.5570008122784604
-0.7032312403967438
4.996402876524786
3.3852281391287184
1.1432611432782371
-1.0508668529062128
-2.4420470492835893
-2.4512400173107647
-1.1363764107993006
0.0716113917688845
1.3322021745999824
1.2792942976434083
0.8767787759495839
0.3003863345135703
0.28284427238532434
-0.26722038645572405
-0.5860176504879845
-0.3432646243044631
-0.5318135432576897
-0.9870596986960378
-0.15414979050307345
0.8938364938684596
0.9992304289187394
0.24817432442906115
-0.4918001420139499
-0.4108636347045553
0.22854097511384094
1.6953125991256948
-2.595941899113844
0.13288236109929227
0.8364845822285409
-0.3511926293084215
-1.7233312081185832
3.5933068412326494
1.8445209764584014
-2.9227428830793722
-1.8130909626310192
-0.8400343246275875
0.08130011180659703
0.49263032410003027
3.1196914331340637
1.2079340257245403
-0.2947601684511855
-1.6950169760083649
-2.0724482386260825
-1.0053208822147344
0.25370941958463594
0.9358984321645002
1.2671197431808554
1.1721223580103466
0.8150174690797747
-0.7990664731171653
-0.9634514476737934
-0.7770175997705066
-0.6563148190597877
-0.48409832009922377
0.7921421202185689
0.7187455407753307
0.47361787438882935
0.20925425956930474
0.019951438557392443
-0.26122191844801473
-0.44265077567857036
-0.34563782418150146
-0.18151508395020674
0.056487854480480076
0.38577178159696474
0.4180234815954191
0.1443419822991777
-0.0696479325099778
-0.2762025642818069
-0.3296323766893877
-0.0702442445899114
0.08482855271544225
0.14114651150943533
0.11894543316967708
0.042401879033384535
-0.0692433224288408
-0.006246000722421056
0.031601154645427024
0.03835882750264129
0.007308572874783799
-0.06325547334960333
-0.16561996700798104
-0.08156432348070199
0.01414511580925513
0.1461539137672224
0.1294562016885122
0.16282776975463475
0.02816427811779806
-0.10326197780002447
-0.2597991264987848
-0.05823908413108665
-0.09732265250861312
0.04130853418464715
0.18532931933920635
0.16068761106368432
-0.017964970561321344
0.048321482838395435
-0.05532323028890144
-0.15099334829730854
-0.059890592755406966
0.004044505468100079
0.036759867539491474
0.04287256612019154
0.032013064340519884
0.014660254293372596
-0.0010120297279645795
-0.0105920443712636
-0.013293090545407683
-0.010802666744124714
-0.005818431007746657
-0.0008246331015009404
0.002607456734054174
0.003974294400467973
0.00360406024657307
0.002247910181513116
0.000689665656466778
-0.0005110899775126107
-0.0011114465638741682
-0.0011447765623323993
-0.0008089466018328067
-0.00034424625361639496
5.7103144154950616e-05
0.00029322814043913507
0.00035118726772268705
0.0002783456780979298
0.00014545805360208396
1.6016197906999125e-05
-7.088139586818094e-05
-0.00010376238053001006
-9.2211707793002e-05
-5.61491577367174e-05
-1.5822209223703496e-05
1.4628013956857413e-05
2.9333687003825974e-05
2.9491562109476027e-05
2.0395246018416814e-05
8.279902831080355e-06
-1.967826523227588e-06
-7.838343205000744e-06
-9.1086520869175e-06
-7.072116700937031e-06
-3.578256120000956e-06
-2.5176372605359875e-07
1.93154360137001e-06
2.710702760548189e-06
2.3584412891228663e-06
1.400130151846524e-06
3.5717363925481497e-07
-4.1412089935627475e-07
-7.730150352028088e-07
-7.590550108982104e-07
-5.13528718428182e-07
-1.9804286112314895e-07
6.33323816748703e-08
2.0896589327852063e-07
2.3595243005383823e-07
1.7945101574699794e-07
8.774218153569904e-08
2.354043747478775e-09
-5.24073000264384e-08
-7.071232005126667e-08
-6.024071371790767e-08
-3.4826071112911414e-08
-7.88287185299569e-09
1.1622279466651982e-08
2.0333716868699948e-08
1.949408139960407e-08
1.2870615900812007e-08
4.655968211063899e-09
-1.9938014144804947e-09
-5.563576024379885e-09
-6.053442294929987e-09
-4.4300602296167824e-09
-1.979629495289109e-09
2.0339381865361132e-10
1.487073796673159e-09
1.7402959969527825e-09
1.2130509057040817e-09
3.496575635831987e-10
-3.930161214847526e-10
-6.830983807358902e-10
-3.958780071137792e-10
3.570101002544221e-10
1.2494759792363473e-09
1.818149554753927e-09
1.5993038357067147e-09
3.1574744926631384e-10
-1.92559311441152e-09
-4.499669403696441e-09
-6.288576745193879e-09
-5.947199048812122e-09
-2.4239027686136002e-09
4.36498851754323e-09
1.2944265120820297e-08
2.0109108171254295e-08
2.150225106553064e-08
1.3090144500567633e-08
-6.665392680575392e-09
-3.4604663112925724e-08
-6.170307134742472e-08
-7.411541799064077e-08
-5.7200674007459924e-08
-2.27432310188616e-09
8.56556278586007e-08
1.8241004147397652e-07
2.454274964667195e-07
2.2406969380342906e-07
7.98885960041088e-08
-1.87350432799828e-07
-5.173730612192179e-07
-7.839791904685024e-07
-8.189713717182014e-07
-4.706689886353022e-07
3.1175395815691183e-07
1.3946818141375076e-06
2.4188499446262732e-06
2.84542334070525e-06
2.117316239008905e-06
-7.685905801811822e-08
-3.506723824943716e-06
-7.199209777683656e-06
-9.48702500294292e-06
-8.427377156791225e-06
-2.5995081476974853e-06
7.892125674465138e-06
2.058405063652946e-05
3.0498575580733664e-05
3.1137561997278796e-05
1.6802313804663277e-05
-1.413397807178847e-05
-5.6061068454531476e-05
-9.469589549385329e-05
-0.00010908760886648538
-7.807244426355088e-05
9.41975751774623e-06
0.00014305093364946629
0.0002837428862494251
0.0003662529158596701
0.00031613822025576836
8.110047810606711e-05
-0.0003303891355271065
-0.0008179915920836936
-0.001185617391896915
-0.0011824581760220261
-0.0005947577484146177
0.0006274958734382506
0.0022511966884167997
0.003711254813342509
0.004197398450995153
0.002912774789789858
-0.0005233161554064157
-0.0056437080534763985
-0.010870009294916284
-0.013648915947723926
-0.011161773171227298
-0.0016086233062405134
0.014197817699648835
0.03147213188280919
0.041034919592302314
0.030432885266033802
-0.01324589494860152
-0.09942756819163376
-0.030230243094055222
0.0017791758937980287
0.013313211083151482
0.027634888899993434
0.07029987145467
-0.035406310888432005
-0.07242700245362413
-0.032966752416480505
0.07939841099627228
0.04877121647810247
0.04788357025457187
0.04175245153862044
-0.005882739456973555
-0.124507823120822
-0.12945316529883114
-0.017807143925808285
0.030619917905805316
0.047375941854942
0.06651288417788573
0.11585044602130494
0.011164936315323214
-0.04517955166859992
-0.061413399968231884
-0.0511291627998981
-0.028009749160695745
-0.0024186811596835648
0.01938518900964682
0.03382941237896099
0.03759452054683896
0.02552115738440115
-0.010172601297425322
-0.07911089518283547
0.009147684416449845
0.047420515931467004
0.03310068338975844
-0.029896716812980215
0.07046764310380298
-0.04485982412497654
-0.14708133985740804
-0.20375845588872932
0.012962229798583339
0.11491813269329378
0.28669841250827166
0.28008939735014216
0.21942662098349455
-0.18031094707748074
-0.3864302115249515
-0.4215227385827855
-0.2475004164653599
0.031529126494281697
0.34700070791415666
0.43163836685727974
0.18530803802642806
0.0522876757854239
-0.18431894342326002
-0.19254109424408516
-0.27270808826529197
-0.13801362480624138
0.09986840245039937
0.33923519832881566
0.29450798868674627
0.30545941539115046
-0.04753924046559381
-0.7251492300337619
-0.6167316807523254
-0.34566707968817917
-0.09948273176610797
0.5188221837797833
1.4341539733699047
1.4604127445497468
-0.9014953227039437
-1.2254313398977246
-1.099275826039706
-0.6719820073254376
-0.43349462149783285
2.5678557319671795
0.8889828017039033
0.46680947098474906
-0.5734735156249083
-1.2771066582722148
-1.8089108893542378
0.3751425567673479
0.5128598445108759
0.6791216509221665
0.9102744355849794
0.3397396254241382
-0.23267188394518482
-0.5312911324723371
-0.36407239047572554
-0.16848415229338223
0.23958536667450056
0.3042141365053275
0.15266740510278617
-0.3957948302461774
-0.8360109452649016
-0.40050136419702453
0.2988248921917278
1.0180982350869028
1.0350749177816554
0.7296519066827588
-0.19583340499506555
-1.461683457403715
-1.545836405949818
-0.8425597741836367
0.12972022419266635
0.6698677583732235
2.211086637740311
2.8573753729295706
-1.020282906042069
-1.3138887670477264
-1.458596787494479
-1.9163590770417813
-2.1193099827139377
1.8958267668649786
2.171834536328211
1.6809517800577898
0.8037725163377557
-0.3149788407167073
-0.9225551640823739
-1.3523204747267867
-0.9030555937345149
-0.34961196916240794
0.08727256613045704
0.5097957728825875
0.670571364540021
0.6906378959520189
0.5994994576873723
0.31824033732937457
-0.3096331981278784
-0.8523216717742297
-1.014560686590886
-0.582748216031386
-0.012307791125954799
0.5375828674707254
0.9356523530378301
0.8028840648866298
0.05662779097245825
-0.509193095401802
-0.6077750185408975
-0.22029166280210935
0.24880032236471136
0.40966391845602196
0.11381118881158712
-0.530166092876944
-0.752333711478667
-0.53108290529376
0.78313336497412
2.63800660482792
-1.1405807939314645
-0.3446865911824617
-0.156642945064246
-0.9139434940917351
-2.0894584287510316
2.0973757015315453
1.0391652351863412
0.2869551684021899
-0.0905237200857039
-0.3181145049559428
-0.29611846153205995
-0.3656757215154014
-0.07354669862397543
0.05230434443237365
0.11234451523257061
0.23293694988094968
0.1577806156361512
-0.16059510979699634
-0.16587526686681847
-0.09937006836703081
0.000748644933051895
0.30175731524059674
0.38171572740135484
0.04025772142912808
-0.08478660605105272
-0.4993093307303334
-0.6424667448643765
-0.2939699410410059
0.19555669931571654
0.65542070030416
0.6410834831881483
0.3944476747453319
-0.16717639922124441
-0.6297353076381729
-0.23698815110687635
0.9639286201162764
-1.228986901228086
-0.3408196223013596
0.18894522753024665
0.19073231607182253
-0.6693991656281643
1.6701244877181662
0.636504685658678
0.016521825700213506
-0.8214888831174538
-0.8876843982887178
-0.7341530409372804
-0.04331716142808244
0.3490959681337869
0.8042576406843317
0.8248646765395625
0.41872707516361773
-0.10221035257859354
-0.4864033681163482
-0.8856034000840417
-0.8000510381018907
-0.04837729275893314
0.426881207400307
0.7233883114320944
0.5308970590120398
0.29259536461895125
-0.20921285382021676
-0.44084757133705105
-0.48796528843783166
-0.22446642825455312
0.1073195444517802
0.29977346780367503
0.16960270977459915
0.14216264733057415
0.038680040709658206
-0.12915465524994324
-0.15738442209660172
-0.04412611895482532
0.015853193679653214
0.03361362686569864
0.025048579337484733
0.007513319897846991
-0.0043180435646952816
-0.0020337735249160004
0.014349144589818178
0.03613812757879918
0.04792736874749314
0.03177465671808607
-0.02695468575564498
-0.13342827421095832
-0.07892347403148041
-0.040206856417122315
0.016267002993751303
0.12616286409008046
0.11765763507761001
0.0037142180359512915
-0.021207303260845436
0.020766875916298517
-0.10305333079592534
-0.02801277232804222
0.015327544706001383
0.006421006766587513
-0.06302951618560833
0.010221832849895533
0.0379314197241145
0.03601881798571688
0.02016524417513108
0.0025242751745394127
-0.009800607417809517
-0.014545412660656865
-0.012903339990648887
-0.007726074565169984
-0.0019529656355018162
0.0023672752890983003
0.00439782717365143
0.004330843734056128
0.002948098494552115
0.001158692843229463
-0.000332799556266365
-0.0011720284974736665
-0.0013374223935261132
-0.0010250868488281659
-0.0005079147969955292
-2.2390652594275586e-05
0.00029173590496728194
0.0003994838200881039
0.0003430667738852303
0.00020037956743117725
4.760589080706501e-05
-6.390763705983861e-05
-0.00011453973711144589
-0.00011086060058154953
-7.396355195744817e-05
-2.7553570728772973e-05
1.0403815640128172e-05
3.1176823510994654e-05
3.459903500845224e-05
2.5975573696651543e-05
1.2419349182629313e-05
-3.085915579078885e-08
-7.898961864794098e-06
-1.0414316949653914e-05
-8.758430591488795e-06
-4.979585821647497e-06
-1.0358027357587105e-06
1.7825715834202427e-06
3.0100155298310247e-06
2.8480679786357626e-06
1.8574979008683634e-06
6.515110929852599e-07
-3.147209545641622e-07
-8.279552009952465e-07
-8.945207078713148e-07
-6.577047608585028e-07
-3.0277281663582883e-07
1.6218919362974018e-08
2.13000177920837e-07
2.7109273932458574e-07
2.2331684789945657e-07
1.2345161405075595e-07
2.176794524211542e-08
-4.935877107660315e-08
-7.897180410092935e-08
-7.30834245283168e-08
-4.656807009663244e-08
-1.5269388486773192e-08
9.296167064653007e-09
2.1941249309356577e-08
2.3100728314598637e-08
1.6631265627761787e-08
7.3520181229097616e-09
-8.115845310764677e-10
-5.723657063578948e-09
-7.046651560241792e-09
-5.686153910989262e-09
-3.0519443376593274e-09
-4.3322114794740754e-10
1.3591189277959822e-09
2.0696772764197767e-09
1.8741802431273586e-09
1.1663477157660953e-09
3.550607052250961e-10
-2.687062003537029e-10
-5.793156014741332e-10
-5.94922230795868e-10
-4.190025292950663e-10
-1.767526953445899e-10
3.192745617687256e-11
1.5429531045433264e-10
1.838927733790249e-10
1.4556139496013493e-10
7.620089763564325e-11
8.834457613469468e-12
-3.626479031739553e-11
-5.321236280927727e-11
-4.706239698252074e-11
-2.8213870176392866e-11
-7.204960320349308e-12
8.623497497792337e-12
1.6241415985277662e-11
1.6289262322390144e-11
1.1528567800855154e-11
5.2012010458081935e-12
-1.5652149868614747e-13
-3.2416535967306483e-12
-3.93193920881419e-12
-2.884021344476969e-12
-1.0389763018150846e-12
7.732715406777178e-13
2.041294295565523e-12
2.596162785059206e-12
2.516502527134655e-12
1.9967203124870714e-12
1.2442592888297851e-12
4.3677837058329977e-13
-2.6729523088194235e-13
-6.983833352753297e-13
-6.678605733702012e-13
-1.3374666167653645e-14
1.300435883053398e-12
3.0604493741751398e-12
4.72921926482546e-12
5.492392772945283e-12
4.483934036953893e-12
1.1810824576658944e-12
-4.1314747985824995e-12
-1.0022427777137704e-11
-1.3944028229507272e-11
-1.2833734399901527e-11
-4.322979703647133e-12
1.1691259109165939e-11
3.167765064176849e-11
4.8098238826665885e-11
5.0795573583545903e-11
3.047717294426744e-11
-1.6202723407642045e-11
-8.15418281454139e-11
-1.4417205573756654e-10
-1.7165731470835394e-10
-1.300540201867396e-10
2.3590713350956805e-13
2.064799703880352e-10
4.311239552256695e-10
5.741395483900835e-10
5.176667066232969e-10
1.737471350542986e-10
-4.549722968721507e-10
-1.2239538555054624e-09
-1.835641872473824e-09
-1.8972872669780816e-09
-1.0592483175925167e-09
7.876785867269161e-10
3.3188836371326927e-09
5.684118533752406e-09
6.621417658416537e-09
4.840044534299136e-09
-3.6010890044974407e-10
-8.400677066794364e-09
-1.6967784248171344e-08
-2.2145021392254924e-08
-1.9413364794930938e-08
-5.5284582127451836e-09
1.914065196240644e-08
4.8696058691462654e-08
7.140846970648071e-08
7.211290261595935e-08
3.768808724524929e-08
-3.529089619212859e-08
-1.3323669107071162e-07
-2.2237131209330867e-07
-2.536532935408664e-07
-1.7808683210915385e-07
2.9105672527502395e-08
3.422157630537438e-07
6.684148543768253e-07
8.545432721012032e-07
7.275721343111374e-07
1.6834247603430578e-07
-7.984432428498785e-07
-1.9328933361992197e-06
-2.7732474482701427e-06
-2.734661132414983e-06
-1.3259861746081418e-06
1.5537982971127754e-06
5.339358857084199e-06
8.690841842260535e-06
9.704622424267952e-06
6.524215819058162e-06
-1.717451176600849e-06
-1.3896445314884538e-05
-2.6296080005063396e-05
-3.293365247462353e-05
-2.7193563682544552e-05
-4.720254183926023e-06
3.3123500322117586e-05
7.660909372665141e-05
0.00010758074296562649
0.00010351160357877843
4.6068319736548585e-05
-6.741992959530157e-05
-0.00021355419885377974
-0.000339265571154325
-0.0003707472904983674
-0.0002377915653652502
8.95210679752521e-05
0.0005626909512360986
0.0010331816322013097
0.001267553246262793
0.001013220228714393
0.00011181139465060239
-0.0013681005597343653
-0.003033060511944554
-0.004170023174341328
-0.00391214511026377
-0.0015764509145890452
0.002893414697049022
0.008536782587751009
0.01326103148942239
0.014219111144618898
0.008779691204382161
-0.004044294493746573
-0.02214833572227388
-0.03957824532474845
-0.04724910613043562
-0.03567557769069377
0.00040161906293016946
0.056555393671772355
0.11438304077797541
0.14086135760771423
0.09332767089791759
-0.06962007537896596
-0.17357295587278973
-0.2148004033420513
-0.1533942318484908
-0.11721520600495074
0.18284642871757664
0.23025676817553573
0.2802360073827915
0.14517895316003657
-0.006616876478473693
-0.2387363673115994
-0.22602665035724678
-0.2337030757784493
-0.10379929695963827
0.14720063220161717
0.3209810863071845
0.22598411298481333
0.06886761595875616
-0.14682893256332682
-0.21530541988521656
-0.32119518121899865
-0.036445506851162615
0.07481848762868828
0.244295841967467
0.28564684781693517
0.1857949585006516
-0.09349049323861484
-0.2033020819833248
-0.18927314746924714
-0.2748508395382412
-0.053159248955984784
0.10932119755520926
0.25915320965932537
0.238502187183765
0.07127556425191402
-0.041847840047519666
-0.11857147775179404
-0.18377041170466163
-0.25773322917002156
0.05080781987353132
0.1444343119450086
0.23107456442587085
0.11666456034186588
0.0009782657542033195
-0.12134603993475881
-0.256131273554394
-0.20533426397973817
0.03310027325949115
0.2601962553701009
0.2686496919681371
0.23875752883907936
-0.057772334827693714
-0.2455945306691055
-0.32974827513428484
-0.2838314353090944
-0.049442075955365206
0.25070395528073575
0.2899383570164224
0.3138364205868365
0.12491429749443554
-0.1184106816397468
-0.2890692033668176
-0.27094107418593844
-0.13935579749852578
0.05079512876856712
0.26746279543745705
0.29759664437960504
0.14289278447005233
-0.18026699577403998
-0.2363354045685753
-0.36576859713964965
-0.08585952962064093
0.09900428609704191
0.479067027287759
0.3193331256559605
0.046112880003652476
-0.3551793798610099
-0.3322897510738004
-0.354801186747842
0.09401979916775934
0.5200041468085832
0.6196574839550576
0.28813446751361044
-0.3616494212132227
-0.7724532577608717
-0.9211812580366733
-0.3173933599268519
0.3704431522110339
1.267796831960586
1.0466540133904088
0.5025727556858796
-0.6289359773244257
-1.0216079963869422
-1.0970511526773867
-0.5839392983442753
0.07960149906654558
0.6976011400742345
1.0402023028473693
0.5710607715585533
0.6084493189352188
-0.06286590598373686
-0.5313265822597298
-0.870224125398099
-0.6519989899531886
-0.6952494123213405
-0.06323670654897758
0.4850888396514937
0.60857466546237
0.691104538988811
0.5741639859236611
0.7384037183121911
0.7425666455698593
-1.6907278260346588
-1.5710842608473383
-0.9581471109307574
-0.7370460737294836
-0.26604570061706295
2.7202169265682503
3.1957873435135
-0.23000848730526538
-0.9083268917343533
-1.471271670022468
-1.9178800696868987
-1.9222041622628248
1.3942932785252853
2.0185995854171352
1.1591164560654519
0.5627374472004764
-0.5260262138789046
-0.953794020741276
-1.212671007555335
-0.19086049543832453
0.25527329838724805
0.6998533800707027
0.7269700753811982
0.31000941138545046
-0.19349596576745334
-0.4275832770190635
-0.6129536641580885
-0.5271632718753823
-0.10371734475670351
0.345461047465949
0.6918940373254813
0.7536779805457653
0.2783694440074484
-0.24334863641451762
-0.5355592956395037
-0.4817990799507779
-0.47808428167396666
-0.2130887043178606
0.11547297748361583
0.3515022307980013
-0.08821855955059286
0.11687817064698962
0.7410605234861759
0.7973831370511656
0.5680410398545251
0.07987179565508269
-1.1898820284363194
-1.6077368767415068
-1.1160953936818343
-0.6344864715615457
0.4615028062650345
2.00560423641782
2.29796393286353
1.2087913473898106
-1.2335676819383832
-1.3681929157516592
-1.3762041754667305
-1.3588220808632523
-0.26530648673352336
1.9108637888967848
1.2818127031200166
0.39643330049522413
-0.2118179779513705
-0.8437029316102734
-0.8258383541837548
-0.29477997168017706
0.40859787765497774
0.5287968561769791
0.4771123441549752
0.21864425157103642
-0.12453416679046159
-0.4528740157208388
-0.4597733246867437
-0.2056878824112824
0.09357480900882259
0.26117612198282003
0.3410877069541414
0.17709849535378905
-0.0018650342423772006
-0.18561501605333522
-0.17715037308847723
-0.18308390499705776
-0.006038424214960686
0.15749315738313152
0.11407266049830991
0.0680975216319287
0.018073570967189864
-0.04351900943575966
-0.12700542929374098
-0.04092845182020695
0.011520625800309896
0.033558946621182806
0.03333339336644184
0.02101435290265392
0.005866381937380194
-0.005707870488428552
-0.010820639156270176
-0.00966578973008125
-0.004476628397425737
0.001659506640427224
0.005832961566743801
0.006082437448987788
0.0019078956604644936
-0.005472176775707132
-0.013194634147612457
-0.017304731109993515
-0.01391383069832345
-0.0009141437582281581
0.020103706349227677
0.04241787319044537
0.05409483720528597
0.03996152935267578
-0.01429216237098207
-0.11677884848214655
-0.06468236218486005
-0.042281126993715605
-0.02318180224622276
0.02331521163106867
0.12351119991894051
0.09123743884104243
0.12352903558916117
0.00204175319160002
-0.09995024214743271
-0.2075844986910391
-0.13567922106721628
-0.08520930754009813
0.15334314251676273
0.19151975407167712
0.23384834227527926
0.07331855173716174
-0.10580315541831914
-0.31900516471603874
-0.17119641318168916
-0.05084375832978279
0.06782533827781226
0.21523361465610466
0.2140083671022666
0.06960632486970156
-0.03168136360305809
-0.11667617292311619
-0.2142972365351379
-0.14471694817123168
0.08669496746728057
0.0886714342309386
0.0779215357221552
0.07108711425515031
0.0784418750573087
-0.09850596948055511
-0.06543337086956781
-0.03124126096564298
-0.0039115072771846076
0.012160413995736535
0.016817299044361977
0.013186191087780632
0.005938148615489701
-0.0004797931563414885
-0.0031716351896038343
-0.001512054043393753
0.0027097536082040796
0.005613149476875652
0.0018975319101742954
-0.014265456175071961
-0.04827440795389413
0.09578256516957824
0.015896547820283817
-0.0871541578415443
-0.009232739421968514
0.05725923978219903
-0.07734625780582677
-0.0016000891064575007
0.09490504549371634
0.01946713171060271
-0.025011051809539123
-0.040161490872360484
-0.031384878832343324
-0.006828120618858982
0.023401014184180634
0.047862776557500444
0.05485843443659057
0.03459970308115276
-0.017432866093849773
-0.09684169817019654
-0.18821451322168134
-0.06663539869573128
0.09618935166251136
0.12239750177861115
0.21854609077929787
0.17071781766504793
-0.05281373828709892
-0.2916604484377941
-0.18012644817081672
-0.13667439378327634
0.039184215337951106
0.16155687965108131
0.24758370787937087
0.1071778078084162
-0.061877406635111404
-0.07145543178002468
-0.1349173441958407
-0.057342884862508395
-0.028466140343875426
-0.021038181174964535
0.004927452753872709
0.09355914063124492
0.0829345233511014
-0.0036744052203414633
0.03725230401923346
-0.010623685098330731
0.02080580457685727
-0.1087198840537153
-0.03986282441691574
-0.007007532861531549
-0.034278695818642235
0.06546481318256504
0.08950835684919486
0.04349457619680417
-0.059778374637588595
-0.0006905995361709215
-0.1531609759875994
-0.08654159564690157
0.029911628027457057
0.22043281497606124
0.09620227728266556
0.051860388483315964
-0.13294575153417595
-0.08738601401618862
-0.0412198617406888
-0.017730392532086987
-0.030021784455259947
0.11886272985785067
0.03301605353964655
-0.08040757712096668
-0.01498935492575339
0.03221304805577603
0.05934311631313235
0.06021868176846075
0.026944310829138986
-0.0455806073422245
-0.1545618849098953
-0.08581075278492738
-0.013984420562336735
0.09260544557177655
0.0638345601223904
0.11911903859677755
0.06144631929369183
-0.1239036181953937
-0.06589159806661683
-0.0011603236596698487
0.03337648158865815
0.007145594535742533
0.10104241035856346
-0.08913120882345539
-0.15135747391505047
-0.059104253323835516
0.023246905201410154
0.13176423623614755
0.09339988854450695
0.11882190642040152
0.0004231076497455887
-0.08370759194416662
-0.1615228005489636
-0.057835754068187306
0.012317671907958664
0.045821968359086224
0.04934149128815094
0.0347120581727607
0.01409379990402212
-0.003475191493392025
-0.01348337780758137
-0.01554757088547788
-0.011945844727657575
-0.005898208072718941
-0.00020431111645821592
0.003478694060018161
0.004733354689717914
0.004055811120766464
0.0023645112880949374
0.0005579098262552028
-0.0007588870532987803
-0.001355397189534144
-0.0013102281527564966
-0.0008731420388629933
-0.00032435930862800014
0.00012398829215556166
0.00036899273668700264
0.000408943987757234
0.0003066976256384085
0.00014636337463735805
-7.274272661958772e-07
-9.357114251169639e-05
-0.00012313923842699028
-0.00010345017459527568
-5.873370519241569e-05
-1.212515455164531e-05
2.114684960610861e-05
3.560523660369512e-05
3.365101715366292e-05
2.192127395471369e-05
7.66380538250603e-06
-3.7472148479016853e-06
-9.798932337331176e-06
-1.057253258677675e-05
-7.76523534161537e-06
-3.567551893647592e-06
2.009386652754488e-07
2.5227513066304877e-06
3.2051946520531203e-06
2.637542314430568e-06
1.4559143459168591e-06
2.5426175132636656e-07
-5.853554430713061e-07
-9.340848583597462e-07
-8.6346785598278e-07
-5.495342795136454e-07
-1.79537318687075e-07
1.1055868404801946e-07
2.596389599263431e-07
2.730061040048276e-07
1.9633407033821349e-07
8.659904068379043e-08
-9.838063792839307e-09
-6.778952012764202e-08
-8.33188800616561e-08
-6.716368564419785e-08
-3.5998043902183566e-08
-5.052947359768648e-09
1.61031357457045e-08
2.4468327031273098e-08
2.213174606541941e-08
1.3752343849149128e-08
4.162324339260284e-09
-3.2032883897433334e-09
-6.864647801261471e-09
-7.040477715980218e-09
-4.956049677507556e-09
-2.0914462779197762e-09
3.7354834564684576e-10
1.8170471536623622e-09
2.164086393956338e-09
1.7091374941660225e-09
8.886041921092192e-10
9.261455066743364e-11
-4.396356064369881e-10
-6.39038462632365e-10
-5.656570516015151e-10
-3.4255663767064107e-10
-9.429156992822596e-11
9.248080584279995e-11
1.8210400621108499e-10
1.8231036768643824e-10
1.2587487770849208e-10
5.119790811959315e-11
-1.1734980149920402e-11
-4.76128618648831e-11
-5.518435788359947e-11
-4.248432106448255e-11
-2.0917892617332586e-11
-4.663136685812545e-13
1.2902535602794785e-11
1.76211206080927e-11
1.539497322283712e-11
9.468793440744295e-12
3.049392963450049e-12
-1.6803550911811423e-12
-3.8661385380560474e-12
-3.7606736281908375e-12
-2.2383333976266283e-12
-2.941858544925835e-13
1.310619874918121e-12
2.2002899332550804e-12
2.3600422562228024e-12
2.0081312487968377e-12
1.4422063040396466e-12
9.17339238284181e-13
5.82123484874646e-13
4.714429874483569e-13
5.373529615924224e-13
6.944466249418166e-13
8.602424850968893e-13
9.79828894312665e-13
1.032864459556755e-12
1.0272322029373072e-12
9.862268071878991e-13
9.356419641415833e-13
