0
1.912205149919386e-16
1.8832968854146608e-16
1.847293486787393e-16
1.817819858005856e-16
1.8131912284383604e-16
1.850109479827728e-16
1.9344957135634562e-16
2.052314723503534e-16
2.164908545316013e-16
2.2137560031720056e-16
2.1377838023054972e-16
1.9019832475945634e-16
1.5297918765361212e-16
1.125467012892673e-16
8.696161411542396e-17
9.745062026196595e-17
1.5978306567583377e-16
2.7333190918649463e-16
4.118657686858765e-16
5.216146775660609e-16
5.317846692444405e-16
3.795650940202078e-16
4.5716631746460683e-17
-4.1065706573905e-16
-8.3576405654173975e-16
-1.0019555993764765e-15
-6.770468817582126e-16
2.638908929152056e-16
1.714708571292703e-15
3.256366508713559e-15
4.181833705407566e-15
3.67736663129408e-15
1.1615978050490506e-15
-3.2930773136637193e-15
-8.616713869341978e-15
-1.2690097605987993e-14
-1.2780104306350384e-14
-6.530301509779032e-15
6.659114483305857e-15
2.43161224919561e-14
4.033215177224841e-14
4.586173240714311e-14
3.209312512271438e-14
-5.389512558511045e-15
-6.18784028449026e-14
-1.2056659552046548e-13
-1.5380800870040833e-13
-1.304505605512823e-13
-2.91534994725365e-14
1.45400679241065e-13
3.497091544654438e-13
5.003552525272725e-13
4.919504873164677e-13
2.3631883152040605e-13
-2.840578641637499e-13
-9.663945811047859e-13
-1.5684298006105382e-12
-1.746859970532021e-12
-1.1678779076138464e-12
3.228088712583542e-13
2.5197440680088147e-12
4.750165918263988e-12
5.934318036119932e-12
4.881341008098845e-12
8.116622631444364e-13
-6.020092536649073e-12
-1.385030301507667e-11
-1.939963146907135e-11
-1.8609371732921003e-11
-8.189284917559712e-12
1.2314867877315814e-11
3.8651365949411886e-11
6.122637065897142e-11
6.673121545233385e-11
4.254496125153379e-11
-1.6646593351318928e-11
-1.0199091848578321e-10
-1.86608633273485e-10
-2.2837681804582322e-10
-1.8184014466326994e-10
-1.8677868492020474e-11
2.483937422820627e-10
5.480690642678874e-10
7.515867691567038e-10
7.028367122051108e-10
2.794197937517445e-10
-5.274645686587775e-10
-1.542745250349755e-09
-2.387032864912891e-09
-2.5449972081521624e-09
-1.5404272353060111e-09
8.063773691624987e-10
4.117942539916875e-09
7.322244740778722e-09
8.7778859202388e-09
6.752522166866577e-09
2.238069844934413e-10
-1.0204672968391297e-08
-2.1657114531778435e-08
-2.9083882064695393e-08
-2.6488301391955284e-08
-9.332241060838596e-09
2.2380829268858216e-08
6.14714626849939e-08
9.295723942972257e-08
9.690729274766704e-08
5.539237607648403e-08
-3.751747074463965e-08
-1.6586576985678885e-07
-2.869696853562862e-07
-3.3694210649309373e-07
-2.4986877736704866e-07
1.0884558297949096e-08
4.1762309965723697e-07
8.546329191670656e-07
1.1241178933471499e-06
9.960342340923702e-07
3.0274277135616615e-07
-9.421537930924369e-07
-2.445316145962514e-06
-3.6158635863774055e-06
-3.6838686864967367e-06
-1.9758674399526755e-06
1.6972549509212393e-06
6.665933648160308e-06
1.1233494041039099e-05
1.2916138320210957e-05
9.210136664931206e-06
-1.185857144971563e-06
-1.7031577433268833e-05
-3.3681143260389064e-05
-4.339591413755169e-05
-3.736311341235998e-05
-9.415492705872236e-06
3.9393731331805066e-05
9.71188328546598e-05
0.00014048611196876192
0.0001397881882352777
6.978958580008497e-05
-7.524168868599481e-05
-0.00026738935081369595
-0.00043931573396207256
-0.0004945631541612895
-0.0003381799486453258
7.563112099371543e-05
0.0006924552721165139
0.0013264015544479338
0.0016755581212258618
0.001403707556221804
0.00028653179991145947
-0.001612303637767693
-0.003804722359693083
-0.005372113191599004
-0.005169214134011047
-0.0022618223227854344
0.0034767205715108165
0.010802679640335225
0.016853061480410794
0.017488692556763392
0.008364305770237165
-0.013428466687759034
-0.04766168801192403
-0.08999479194934223
0.06757522552405815
0.034686450114258485
0.01967027862306517
0.026894708674935548
0.05546535504183549
-0.10032583996157038
-0.04924047026524411
-0.0009935341848387566
0.03530037117920532
0.05192182988782861
0.04310084601744822
0.006020960555478578
-0.057582246022591176
-0.1399621383119289
-0.02732615232267013
0.09782494268715299
0.05225158364389147
0.04703117760052902
0.08420326974041063
-0.04363030353918793
-0.15083625663055023
-0.05484315073329992
0.027315721873292242
0.08089156441760814
0.09408657967040053
0.05885915714075684
-0.027014435861227617
-0.15686431089183248
-0.11282785454114586
-0.06673203283752772
0.014400753066823
0.15900776103852565
0.18091623824910386
0.07275152271104637
0.006107658572513757
-0.06086399378245051
-0.17088741077415834
-0.15454712451209776
-0.021531547832779722
0.04093689125900249
0.06245105410248978
0.07917886905112125
0.12298512459635492
0.013541820445086002
-0.04451103152322524
-0.059368072705172616
-0.04658873338039488
-0.022869426483868718
-0.0011958357670909842
0.01153679914840204
0.014441701147482906
0.010827688653386972
0.0056403545427462015
0.0030393317415566188
0.004721973194252885
0.009317395725078113
0.012940482373954983
0.010796864809286502
-0.00048496812512343354
-0.020374245587733587
-0.042636351480444
-0.05513222571285648
-0.041917547600703
0.012316948620028098
0.11642714541019424
0.06755301141766215
0.04869849018645469
0.0307644734432838
-0.02091399282950567
-0.13727476190000323
-0.13652168868223588
-0.01864310682990913
0.03446592820128907
0.05334832995815055
0.07199339685337026
0.11880039832297376
0.010491742823192037
-0.04943429182902606
-0.06800820188549246
-0.057725876084283735
-0.03157544553408725
-4.186008500281207e-05
0.029302894162462453
0.05032228857355119
0.05645067746929173
0.039996459268183446
-0.006496461930199632
-0.0870556438097114
0.0014095548026099194
-0.12862275897777603
-0.05609140954753414
0.04420508330442861
0.1945536397821864
0.007141089454858053
0.07968313415986564
-0.00418136343218779
-0.06977050108441424
-0.14350378114427595
-0.04533703340765314
0.015771997117030628
0.04208966823954088
0.043627321950411364
0.03288619988292589
0.020023092457003466
0.01002764812277834
0.0025294182214297997
-0.006069127862708604
-0.019105961833456222
-0.036154045109426165
-0.050880456560704064
-0.051361560840140943
-0.02327614830582143
0.044616366007981044
0.15444645899740625
0.09517500511081614
0.04285253331519327
-0.03389018901442462
-0.16447978273043998
-0.16654942351843147
-0.03961795676460892
0.034947702954924005
0.08758756697048226
0.15042591605471264
0.04737638468229232
-0.01197926495736713
-0.03306896069368319
-0.03212493869700593
-0.02921434653778693
-0.041089111398424284
-0.07601724906770721
0.06814073928248533
0.002427529717549347
-0.05732301534411832
0.10426085632874466
0.09733955594690645
-0.07597507772679472
-0.021797525499453536
0.04778890170361042
-0.08161569703402852
-0.022974407661391496
0.015002890606677161
0.029220517436956778
0.02217653329023372
0.0010390285987971442
-0.023712679796554892
-0.0399465221660145
-0.035996304824400666
-0.0033378886516730135
0.060569510419129294
0.15033551974716944
0.05296908453494022
-0.048677046910154835
-0.17000828866771572
-0.11868885748833022
-0.09154333941881312
0.1237817852681248
0.14301673467583154
0.17830197365096345
0.033746454766757965
-0.09428833953451247
-0.2128623003728812
-0.12732193230450375
-0.03920551519455539
0.05072699882174819
0.1354039789552103
0.19415446509803466
0.1901014668785289
0.07579693822928879
-0.19264510466742804
-0.23677802220666677
-0.2393876533258871
-0.1377451961907981
-0.031002509819164168
0.19888849088929425
0.2584869346358673
0.2152681646298629
0.07979976044066436
0.0029711879800883817
-0.11156119337851186
-0.18429771621814975
-0.1334887691811773
-0.052754112171375635
0.0021400693582915293
0.015584949485489798
0.004913754228491825
0.00713146771115974
0.06392282677005048
0.20931200165089242
0.2637450487137653
0.03678083017679027
-0.2624396481020479
-0.41172270335055217
-0.3669953320454667
-0.06508402183864755
0.35999297727499885
0.7526299513056286
0.11388211673211654
-0.20729665358713073
-0.5058038983333005
-0.09906652098006521
0.09933288793323175
0.6047931028973063
0.3836530044151763
-0.32821035133254906
-1.01363976381538
-0.8782954326908667
-0.28058642707568066
0.6108739702911571
1.546035582858434
1.5356218862770719
0.035200804422222474
-1.015729482239616
-1.311836475847309
-1.0905458488705537
-0.46861290308680065
0.7707676418021339
1.3426706463938198
0.6004117808375139
0.08081500862401667
-0.524852907575357
-0.7719112423996073
-0.44744295435102266
0.4446613984238464
0.4899827338336406
0.26273014810302475
-0.07478815327699881
-0.16672800707263824
-0.4529658690432059
-0.15883741587378492
0.10846502082300578
0.3547251624720265
0.18804331210951236
0.008939930790274827
-0.19371676149013622
-0.0398557440378095
0.049061826417632994
-0.14205249489774616
-0.01628774405631774
0.03729339133766188
0.04225492486546849
0.431246515152131
-0.5581366122462498
-0.08753947311559446
0.07705806958246031
0.1584259490612127
-0.2396794997371367
0.6620119011313366
0.018759099822288402
-0.2298446325778468
-0.34526128345891977
-0.17441090634944956
0.06049811305738651
0.16300923024380878
0.1553556833618321
0.06778992189342725
-0.07082045274893307
-0.03835662346707668
-0.020662457200878743
-0.010126257858053215
-0.003364716504195037
0.0008545696667575266
0.0030027358369115443
0.0034863602739737824
0.002844444013700815
0.0016793025860432189
0.0005114112840198742
-0.0003274267570383439
-0.000721129877780342
-0.0007263639795868908
-0.0004935963755081301
-0.0001879828743737813
6.580241744782291e-05
0.00020643656950987218
0.00023111890877865516
0.00017457109928740736
8.423349797779824e-05
7.080059996244331e-07
-5.243055351538936e-05
-6.974608385049354e-05
-5.89774801688944e-05
-3.3785633257045715e-05
-7.316663007721071e-06
1.171011346576729e-05
2.0096571300315956e-05
1.913612371853087e-05
1.2561305188798689e-05
4.484331002828994e-06
-2.0245115668932615e-06
-5.511539584882746e-06
-5.999230799680159e-06
-4.43707099540885e-06
-2.065025524220925e-06
7.979391024156374e-08
1.4120252288069277e-06
1.8146754420531232e-06
1.5035873377290843e-06
8.378957205202842e-07
1.5541354033977617e-07
-3.2487708446408897e-07
-5.274679863849773e-07
-4.911782796619323e-07
-3.1506105679755175e-07
-1.0539280565159865e-07
6.012187132188223e-08
1.4609011010033818e-07
1.5492956561399805e-07
1.1222741281597408e-07
5.024781084334543e-08
-4.5893278056496444e-09
-3.7810419342122984e-08
-4.7021953640466464e-08
-3.8220998585464344e-08
-2.0832523223034296e-08
-3.487245010026192e-09
8.411071172728912e-09
1.321629357420578e-08
1.2185114289485626e-08
7.995314133771064e-09
3.3203895193070417e-09
-1.0789087021083796e-10
-1.8053712239474703e-09
-2.295039047985993e-09
-2.5368342291236553e-09
-3.2846206416028156e-09
-4.603137772053348e-09
-5.71479419025021e-09
-5.256971820367849e-09
-1.9171472543222574e-09
4.720429650568943e-09
1.3415588502082024e-08
2.0985748640130707e-08
2.285211925352484e-08
1.4584603818884924e-08
-5.764724130273157e-09
-3.5238976709324635e-08
-6.45982257924465e-08
-7.925527507383801e-08
-6.33918754161682e-08
-7.062411508497624e-09
8.548574392585812e-08
1.8966810640599858e-07
2.608819839144794e-07
2.448777642788539e-07
9.890248118653631e-08
-1.805534948495688e-07
-5.332480987370229e-07
-8.278742673571304e-07
-8.855249163720739e-07
-5.402356620042056e-07
2.7171091890739096e-07
1.4210363479398473e-06
2.5371565992898354e-06
3.0507523002536862e-06
2.3589884783099998e-06
1.0314984873753813e-07
-3.512882782878667e-06
-7.49656056130554e-06
-1.0098045781440727e-05
-9.23301048819317e-06
-3.3156833471397546e-06
7.67027537650949e-06
2.1252774960181536e-05
3.224522475914955e-05
3.3727003060912076e-05
1.944758323382279e-05
-1.2704146250623693e-05
-5.725684274178887e-05
-9.945200212782652e-05
-0.00011712668337774915
-8.733809417177153e-05
2.782331710790682e-06
0.0001438394835777212
0.00029588177710785876
0.00039035350368569663
0.0003472766784337383
0.0001080345003393063
-0.00032334399190555045
-0.0008458086829270922
-0.0012547714182513964
-0.0012828234612377077
-0.0006950263557491413
0.0005765297922175523
0.002302458490543386
0.0038968486914853213
0.004499587558078147
0.003241935151722333
-0.00032907259320727033
-0.005784407319164379
-0.011510993787106369
-0.014819510503920276
-0.012650661805057858
-0.002887626239218604
0.01400354012501384
0.03359271455067234
0.04714196882362163
0.042987885250810584
0.009855399229182478
-0.058536427347409
-0.15915957363565014
-0.07776532218632493
0.0089653705064051
0.12714328629674024
0.09727775565988112
0.12713730973552842
0.00895588614930123
-0.07777391858131467
-0.1591621018018761
-0.05852866546581537
0.00987460594668622
0.04301474874289103
0.04716704716466072
0.03360236841129953
0.013984146222244444
-0.002943100848141166
-0.012735519578557897
-0.014908759869859452
-0.0115630906816673
-0.005752112349941011
-0.00017938646418044993
0.0035032895187643736
0.004808545137324989
0.004128728027513593
0.0022982221089565386
0.00020120592744770827
-0.0014718766065309624
-0.0023114446401265244
-0.0021744237885551717
-0.0011400509455769296
0.0005159300262177852
0.0023255848643630858
0.0036515145628720305
0.0037866272930605085
0.0021701695664998835
-0.001298737122646205
-0.00594899094423345
-0.0101959631076777
-0.011758606369261774
-0.0083546345628541
0.0011757971252605605
0.015607170156223642
0.030445327771568092
0.038041275541025425
0.029163253944330333
-0.003986205201781227
-0.06404332873730895
-0.14548565083029044
-0.03404393585891815
0.0904380843004455
0.04813396887923421
0.052351338654102415
0.10430134715165126
-0.008411922360823856
-0.10899673360468153
-0.025425836591821783
0.01674893422679599
0.0005403812904888611
-0.07883783278189792
-0.013448209882018124
0.014862299956750868
0.029658099676973793
0.0542181678548106
0.106726367506588
-0.0021362808572679593
-0.06865646249314307
-0.0934311753656481
-0.07847391631082776
-0.026030247302305975
0.060075868634722245
0.17148371661601736
0.092994389762112
0.003253709586762163
-0.12072466953999797
-0.09659537953813005
-0.13034156055299903
-0.01364517518554537
0.07360216359425295
0.15663378277517936
0.057860473915471174
-0.00911879274163899
-0.04156511781202781
-0.04573291561607134
-0.03267569414751321
-0.013768994472980373
0.0025088744495249528
0.011910491832443538
0.014061768035674755
0.011081893463400994
0.005944230557504058
0.0011641891802322362
-0.0018946815696923363
-0.0030846851190577495
-0.0030842534986602814
-0.0028088597358286367
-0.002866643089192049
-0.003239675693282101
-0.0032856867108314166
-0.002061979288600907
0.0011210965058897938
0.0060992408947164465
0.011455212441862029
0.014584131737015763
0.012406755935410827
0.00272131793486683
-0.01410452205969565
-0.033706216792662
-0.04734984741132894
-0.04331014390490359
-0.010206406822404987
0.058346819932090795
0.15936752088292974
0.07854246538990953
-0.007645349796275629
-0.125608494800456
-0.09616686797621496
-0.12725774965769995
-0.010977288029206982
0.07373344887824715
0.15391457529731734
0.05395293715996787
-0.011145113878539451
-0.0384594636038449
-0.035694881349884376
-0.01692770291533127
0.0025868350295623166
0.011059425400593978
0.0034178158334262428
-0.017205703934338915
-0.039928122447433136
-0.048621748724103755
-0.0263676169529745
0.038803777628425934
0.14836110264908772
0.09003233717251898
0.0388414087357921
-0.0369360357474321
-0.16637418116025784
-0.16640580002262692
-0.0360979941091446
0.04279762169590993
0.09920184629179733
0.16282003355108257
0.05512820973985374
-0.015329694152366947
-0.0520478378654038
-0.06525065345005737
-0.0649887255928049
-0.0557157804235742
-0.03449121486453451
0.006634536736440874
0.07519460070301934
0.17232093832620474
0.08917585482132599
0.008011938776957071
-0.09194946979269569
-0.22616337157203417
-0.19799647388888553
0.0026382493009431507
0.1939272456927208
0.1923817581555334
0.2036287846598604
0.018762081874033967
-0.18157484171379623
-0.21728246443538762
-0.09801686619398858
-0.016783880359099595
0.049207446140556846
0.13109141658071344
0.05771125992381137
0.04612303407161781
0.09665492934024225
-0.006017638536290281
-0.08651717498804012
-0.16971525498614878
-0.0725534380100335
0.00011243070073055655
0.05432204678794681
0.10158665356468437
0.15214014514943588
0.010071284532901913
-0.12772835119657366
-0.06899245836588999
-0.021840108154567054
0.008772000439408779
0.0224931424113191
0.022891900027142725
0.015534399977644029
0.005911668934117781
-0.00201480511962616
-0.006361828580535674
-0.0070855869968465095
-0.005291768333476269
-0.0024601493972080776
0.0001515464479620773
0.0018097808394707477
0.0023317842979553786
0.0019345725267910221
0.001023659661656066
1.2668497549127642e-05
-0.0007821876611650611
-0.0011742026665950843
-0.001094657909415143
-0.0005733064461668691
0.0002669714111799218
0.0012027180331973342
0.0019129259147607834
0.0020250817432104808
0.0012263191935263829
-0.0005688146375243202
-0.003045107825703326
-0.005397226230161215
-0.006425251939673028
-0.004882149816018909
-5.142012587060334e-05
0.0075962162436935465
0.01594728860579317
0.02133585069863057
0.019454773460465202
0.007116242709837511
-0.015517278826958084
-0.04307191924571994
-0.06463669628135484
-0.06609686190873347
-0.03566075605237723
0.028032632207036532
0.10728704041548066
0.1594777943196199
0.11750889343619587
0.09904471595004394
0.02441292689602995
-0.16027812907500064
-0.4613494550771843
-0.22510018156549852
-0.14122733248914676
0.13620980930735474
0.355413586924543
0.6319576817845325
0.22499541926446098
-0.0666471091118825
-0.4880247880021586
-0.4998653212767028
-0.35219558949832336
0.1285148577124753
0.33479622484515686
0.4615942636448957
0.28876947691321114
-0.026863963403283706
-0.34567208308262615
-0.32912909906766447
-0.22238760715608305
-0.04429250850228896
0.21112872413854233
0.3641287468091765
0.23668441609868182
0.04539838658500355
-0.19642691578505006
-0.2696229630031882
-0.3395528742890793
-0.1535810203451393
0.15024932990830522
0.42516100129242246
0.29556480198817603
0.14430188107364803
-0.0863330013839393
-0.2796015329148601
-0.3214208641231798
-0.07862490289377025
0.013955893481527908
0.15459986046783902
0.16617260154629887
0.08331637647618373
-0.05920855392835422
-0.03378614134795272
-0.022354093824725953
-0.01537332670900023
-0.00923878917431353
-0.003562990645334767
0.0009108813339800918
0.0035398790632308005
0.004253417280915173
0.003515594841596704
0.002050596902445984
0.0005465016206323254
-0.0005393416867734878
-0.001038632323107041
-0.0010208858377710615
-0.0006868473241795722
-0.0002595236766758422
9.23374440814672e-05
0.000286228514010461
0.00031954487029568806
0.00024085078398127866
0.0001158491061876995
5.596069167571764e-07
-7.260665941166892e-05
-9.628580084674602e-05
-8.125703747801258e-05
-4.641597037497189e-05
-9.899706477847324e-06
1.629153249771619e-05
2.7783388455343865e-05
2.6391205891849592e-05
1.728098434559071e-05
6.1280520802122636e-06
-2.8396438041105196e-06
-7.628328840312829e-06
-8.279579086266112e-06
-6.109851154255572e-06
-2.8317652181032956e-06
1.2542701538098468e-07
1.957447530195038e-06
2.5062567178676803e-06
2.071995248800224e-06
1.1511204276162251e-06
2.0949855967631825e-07
-4.516291724318195e-07
-7.291209633156825e-07
-6.773424116608343e-07
-4.3336759112489577e-07
-1.4386026251218766e-07
8.418152828981723e-08
2.0222247787799727e-07
2.1385346760232105e-07
1.5452791084796477e-07
6.880460799842533e-08
-6.890872827931025e-09
-5.263759093517658e-08
-6.516957815433477e-08
-5.277752521509423e-08
-2.8479221603523162e-08
-4.224198646188246e-09
1.244010763991762e-08
1.9105119677374987e-08
1.7364870548605917e-08
1.0848940429452127e-08
3.34308395351139e-09
-2.4486209173689715e-09
-5.349715102607566e-09
-5.5171730273874244e-09
-3.9027356167559805e-09
-1.6642464328920535e-09
2.7108681631600653e-10
1.4111155543816388e-09
1.69243440259396e-09
1.3426918407915413e-09
7.027108460632637e-10
7.864704164350478e-11
-3.407464174065305e-10
-4.998594933067439e-10
-4.446675837654179e-10
-2.7108683672451204e-10
-7.672376140339494e-11
7.01817624898762e-11
1.4125018760129396e-10
1.4217260829768379e-10
9.842330688359108e-11
4.005062546439875e-11
-9.372749008380963e-12
-3.772209474870885e-11
-4.389706042912638e-11
-3.411595700036602e-11
-1.728886084761149e-11
-1.2506293134438968e-12
9.287338694291224e-12
1.3059124937783442e-11
1.1373645338318723e-11
6.760837358893571e-12
1.7342808754407973e-12
-1.9866536603352145e-12
-3.721320703497992e-12
-3.65857550917992e-12
-2.4784991479042914e-12
-9.597904671813563e-13
2.994678377664183e-13
1.002174642745256e-12
1.1344236217649887e-12
8.657412063451486e-13
4.284929653067452e-13
2.1734715309042273e-14
-2.3933044870309334e-13
-3.2898391230231465e-13
-2.8608468991477433e-13
-1.7730798317476124e-13
-6.430099489274677e-14
1.606371597497583e-14
5.6131239319470725e-14
6.964208441850338e-14
7.744771696865409e-14
9.31012022886635e-14
1.1364140171258942e-13
1.189388865454978e-13
8.044549243935925e-14
-2.273426442449492e-14
-1.8556864428935572e-13
-3.642188538539905e-13
-4.769452585031242e-13
-4.2500048762925266e-13
-1.3371290274798808e-13
3.9536454250631844e-13
1.0406097106058693e-12
1.5509625419726217e-12
1.595263610719326e-12
8.796987264202308e-13
-6.852254905414281e-13
-2.821785383079315e-12
-4.808819527323708e-12
-5.579944791649349e-12
-4.0489401891028426e-12
3.6628296730575894e-13
7.164116191477561e-12
1.4377440323383126e-11
1.8692480004770947e-11
1.6300320481203473e-11
4.486675430914073e-12
-1.6395072093972472e-11
-4.1317444785268047e-11
-6.034352641162949e-11
-6.067448664134446e-11
-3.129595625217606e-11
3.0558119140598114e-11
1.1325473409320925e-10
1.881371243802012e-10
2.137662376766935e-10
1.4892343350924604e-10
-2.694827121980883e-11
-2.9162067285832536e-10
-5.662010017417057e-10
-7.211218669277991e-10
-6.105813401309825e-10
-1.3497381137035232e-10
6.832087511431467e-10
1.6395920393328198e-09
2.343068691309357e-09
2.30015757027239e-09
1.0987794704094537e-09
-1.3414144364051125e-09
-4.536898620993328e-09
-7.351273352830831e-09
-8.17635505126219e-09
-5.450880883349362e-09
1.5428378234630293e-09
1.1835588760491328e-08
2.2269774747231483e-08
2.7785329525474014e-08
2.280915983711388e-08
3.703891929379871e-09
-2.8316011889065492e-08
-6.496660666892847e-08
-9.087359902962622e-08
-8.703362486292439e-08
-3.80730329712863e-08
5.806889783762749e-08
1.8139716008351088e-07
2.8691309801484e-07
3.1227768372056664e-07
1.9846845184753108e-07
-7.920810379156449e-08
-4.790215224388792e-07
-8.748283889136091e-07
-1.0692422430931907e-06
-8.495576013527052e-07
-8.368351123882639e-08
1.16796841472662e-06
2.570521501153006e-06
3.5203593889358294e-06
3.2866144807960365e-06
1.2974924268177096e-06
-2.485606015218148e-06
-7.2395795840847445e-06
-1.118510830961223e-05
-1.1908516213433265e-05
-7.183075383529135e-06
3.82511119342319e-06
1.9337708020061252e-05
3.43243237113389e-05
4.1093987883664935e-05
3.154112237318901e-05
8.99470049819363e-07
-4.797076027082784e-05
-0.00010156582529103929
-0.00013621552137067677
-0.00012384741410045578
-4.3266361131061316e-05
0.00010540813423159458
0.00028842875564569757
0.0004355323885158408
0.0004533711215712615
0.00025811517643692015
-0.0001777113974098988
-0.0007789817763179013
-0.0013454346953490192
-0.0015777247766042425
-0.001167403623842133
5.642774818261555e-05
0.0019632146786198036
0.004010621152230435
0.005273347998990946
0.004677789359134667
0.0014464803125576894
-0.004344937127915561
-0.01130784807533423
-0.016662428791220932
-0.016805057471667318
-0.008625285134754156
0.008623808018883652
0.031469123480100454
0.05124005875353233
0.054869615104401075
0.02797996675298579
-0.04009664207600087
-0.15081507532669514
-0.09273028504025074
-0.04185853442857864
0.0329982364440704
0.1612200313151171
0.16084011001156423
0.03234753940034019
-0.0415777899664851
-0.09035031907813704
-0.14629105473337747
-0.03570901429791381
0.0265882979062801
0.038088817314893005
0.005518207520695549
0.14011390082218392
0.053605221588746456
-0.04353504696690516
-0.1414543988613487
-0.029274911441295886
-0.09447888438523254
0.0753119165615425
0.08845410545166098
0.14519701334760002
0.03586642607963918
-0.057108124551710736
-0.1537251394136852
-0.06983640682965833
-0.01248994448050229
0.02075209943252973
0.03842117645420163
0.049368319436991354
0.05714826207475327
0.05690793223682235
0.03617577166665343
-0.020428246837774205
-0.12402113396340794
-0.07443615673196835
-0.05627371174309593
-0.04009695072018356
0.01093781927322295
0.13076784191958254
0.13972753628426163
0.0372192748684966
0.0005377262527337749
-0.009475242447484964
-0.037630744462283504
-0.12180844280301065
-0.08250063588336419
-0.11782180406403354
-0.005731500053980667
0.08710894610582534
0.19285949927336823
0.13100753410024266
0.10232271536750326
-0.1093697273520023
-0.12850608162519347
-0.1760456695650471
-0.059698503171555624
0.03000218972826151
0.11666008803075303
0.02976464308357919
-0.005371859296472913
0.023905736057891966
0.11304247063484019
0.04073455680810349
-0.025693098426956718
-0.12137232649762986
-0.07405814603508784
-0.0965299081586217
0.016338777645841997
0.08520854215062537
0.14000417131672796
0.012395443910678924
-0.07049405123061017
-0.09003906321146396
-0.038123451739682644
0.081841691542427
0.05456778768935243
0.053881730646646094
0.04609236210482936
-0.003916347227551852
-0.12484097731809927
-0.13158912122304237
-0.02105772608248851
0.02707292573652486
0.04451023540818702
0.06543975913855492
0.11759771155181868
0.01622526789430508
-0.037427178340339026
-0.0531439441994243
-0.046015418454912006
-0.030355770052715347
-0.015391101804178589
-0.003859618247845633
0.006471650577210597
0.019284800878040503
0.03563818941933342
0.05094196312558911
0.05432569808083341
0.03107867645208251
-0.03218772001314441
-0.1412064425157854
-0.08902454325631705
-0.05480361125648154
-0.00781112500776127
0.0841276640283337
0.24457290358671357
0.08078773077438811
-0.018201168723195462
-0.07676682967923104
-0.12306231252907993
-0.1787550640843282
-0.052443176270903426
0.060700700376502714
0.17341289652189004
0.09795958028394569
0.03898330364017672
-0.009330477708447301
-0.06102770975375971
-0.13271827416620793
-0.03734788242407456
0.01991969230545337
0.04240827648964717
0.039624712730660074
0.023482251835149872
0.004743410636731413
-0.009225074267886126
-0.015116642704617628
-0.013126873113969453
-0.005787757234679434
0.00326802705863838
0.010332944924277835
0.012421484399413199
0.007949834047795592
-0.0026388816587040623
-0.016427981067569323
-0.02809357953576924
-0.03090503356037888
-0.01892176207428416
0.009791719277383053
0.049733927233310875
0.08567953695371835
0.09305542829987017
0.041939831849623736
-0.0957053194241331
-0.13774217154847765
-0.2860502395947599
-0.12666638677475095
0.16285162973319528
0.40139453177247286
0.39375248332296037
0.1284203922991106
-0.213023990250503
-0.6385268915835731
-0.5297813410152731
-0.23883616649519337
0.4977691997233686
0.7322815576918849
0.6800909728911315
0.1103161779191967
-0.4399114268957484
-0.8329630546259015
-0.6962842591268459
-0.20430785057946335
0.3132906415887256
0.9412726849651557
1.7430942748157952
-1.2607040764777324
-0.6896914065889184
-0.18193222718990712
-0.3702818682752057
-1.0721001575813023
1.9032204769585486
1.7376299186761222
-1.2054023886274359
-0.772625097028567
-0.39799003116665654
-0.2809440990270533
-0.5820914044035954
1.3591683779738373
0.5940389825396813
0.13737302530420822
-0.24133682670157436
-0.6053179488903029
-0.2242803118034132
0.05192685403329055
0.009009247212529506
0.06958506103449165
0.0828367891603441
0.108124601880388
-0.0016787461889640793
-0.012870898547335561
0.08263651341606795
0.0675629604282813
-0.09470718722669252
-0.0502550926857216
-0.04370122283134203
-0.1092402939270318
-0.06595775790886745
0.08177149229451862
0.13987386849876973
0.11876407501319189
0.029105318255178574
-0.11910313185643832
-0.11459347344877141
-0.14240215948124232
0.016429639068953217
0.18192999558045203
0.17026663664764366
-0.010473122903008645
-0.16154610842470343
-0.09166229671077071
-0.013660775172806675
0.05824981686008343
0.11000498903009048
0.12880346501944623
-0.09491362086048631
-0.1643979756547846
-0.07381489186112865
-0.007877039568269815
0.05487303781678425
0.13589081468439207
0.05002381351254432
0.001255405191387084
-0.017526839314608557
-0.020838041415291646
-0.024556154591126703
-0.03977473599077939
-0.06868148613658576
-0.10397317817468367
0.06770490777157764
0.05917817205685195
0.07530549892813423
0.10775286455840104
0.13466353990192792
-0.07366341167896209
-0.14429165492862042
-0.08981552392803105
-0.09976354752773885
-0.13914433725120567
0.044245315117165444
0.10514504829945832
0.08293313909774785
0.18624104763027868
0.18562439361221586
0.017795217373761794
0.0015054094952514185
-0.13875512181690258
-0.4483256173220044
-0.12554307625274802
-0.11916210882076614
0.05791748869821845
0.3025694475319893
0.4919151774045933
0.060917407888150525
-0.004993638803143161
-0.16039658853754393
-0.2782551056026895
-0.22514108028105512
-0.04233855828011777
0.06158224789932098
0.10620177996047231
0.1265875393016554
0.15853778311398664
0.027238758671371
-0.05755658305118031
-0.09983220964830562
-0.11165954886476004
-0.10718085316463996
0.10098612816502915
0.10217069667382167
0.08624849001225182
0.04272795013162031
-0.03805186115964105
-0.16177343148395365
-0.12688426315237056
0.0764570894146906
0.06402349820350274
0.052512359827498856
0.054145852865186944
0.07325697934346653
-0.0938565440664223
-0.05608148354528867
-0.023155918760585207
-0.0017665015852518407
0.006540741927504204
0.0052384792546887925
0.000910066240220247
0.00037154299479930737
0.007702119700354859
0.021988701725260774
0.03647177132712084
0.03957465431467095
0.01789807724672061
-0.03938998047178093
-0.13611802746729995
-0.06650328005216403
-0.01601229825095379
0.03390134683136551
0.09859770303518911
0.1835169006551888
0.08117998816402672
-0.0260209158176793
-0.157656307181999
-0.12480747784379945
-0.12190851011169643
-0.12487285610584949
0.1029832584210786
0.1990327865384168
0.18803914354065152
0.07298410667849836
0.03396504691379837
-0.16434724876412576
-0.15988026925492824
-0.18035631801065014
-0.035693870739399024
0.0816985341634783
0.1896417690334378
0.10579675804248989
0.038986401693526594
-0.014330800235403618
-0.06773811145432623
-0.13859395739072886
-0.04105965470222064
0.018618818533664646
0.04312282220508702
0.041761825733761714
0.02649983936103258
0.008146697159645697
-0.0060521960265027845
-0.013068965920929267
-0.013335860033820618
-0.009267623839670707
-0.0037500584474885784
0.0009433478898770176
0.003637491321266593
0.004217692647261791
0.0032743652464369308
0.0016585313323579571
0.00011973157044288433
-0.0008910661300681426
-0.0012528035292022172
-0.0010911155702284655
-0.0006486515465049177
-0.00016648051176819224
0.00019048226913183572
0.000356926524899136
0.0003509310404271426
0.00023770191497265045
9.193300490898007e-05
-2.8968909270868554e-05
-9.64354091617367e-05
-0.00010905314015714251
-8.303128078241292e-05
-4.0674907368591196e-05
-1.1908566222918758e-06
2.416361674896547e-05
3.2671574169184345e-05
2.7867078963474966e-05
1.613743474332599e-05
3.683576453417395e-06
-5.3450935521398004e-06
-9.391146879759659e-06
-9.022843805313248e-06
-5.97625262717243e-06
-2.1850091228438054e-06
8.951989144991598e-07
2.5650202568766132e-06
2.821742595771672e-06
2.1042898532213783e-06
9.941587151626034e-07
-1.826822772458083e-08
-6.531735352292133e-07
-8.512266800088784e-07
-7.111085203916718e-07
-4.007086533932709e-07
-7.935549521896506e-08
1.4872217031792543e-07
2.4666041259588956e-07
2.3171476542163805e-07
1.5000353412771732e-07
5.152676200537701e-08
-2.6850663066647946e-08
-6.807038260089339e-08
-7.292562642065407e-08
-5.325766761186397e-08
-2.4205895551289188e-08
1.7242998372595161e-09
1.759366000492193e-08
2.2148670459460842e-08
1.8124285150044914e-08
9.926288727472687e-09
1.6438298498840502e-09
-4.10939096122624e-09
-6.468264568756049e-09
-5.943846407317421e-09
-3.758584575508063e-09
-1.203862586452911e-09
7.88004067293621e-10
1.8026157751035314e-09
1.8824987049232943e-09
1.3460329525620952e-09
5.8686310651437e-10
-7.649184680483566e-11
-4.723701020206373e-10
-5.75560593840884e-10
-4.613787710530855e-10
-2.452618405531316e-10
-3.203735321345626e-11
1.1286817004263219e-10
1.6936041702276055e-10
1.5229443879888053e-10
9.400692276701623e-11
2.7812466606384194e-11
-2.274390668745715e-11
-4.764069838965535e-11
-4.853822583083413e-11
-3.397061573047932e-11
-1.4160163775054319e-11
2.790235251203597e-12
1.2645401925035944e-11
1.493804717039685e-11
1.1730685661753373e-11
6.043393580401408e-12
5.603977676917531e-13
-3.0835898479577227e-12
-4.427671878112807e-12
-3.897390724300379e-12
-2.3464817769084916e-12
-6.334011464672026e-13
6.480955508907765e-13
1.2568894804102701e-12
1.2501823009207647e-12
8.561075039160645e-13
3.398260995831409e-13
-9.27504487164167e-14
-3.374128226552975e-13
-3.8681546696690886e-13
-2.9722320817164876e-13
-1.476402393375028e-13
