0
1.6877638201835597e-17
-6.63069187211574e-17
-1.74103413055103e-16
-2.6767327300946276e-16
-2.9264596407461465e-16
-1.9689855992631136e-16
4.2452535460376116e-17
3.9080271551528815e-16
7.397450256104481e-16
9.176579419619398e-16
7.375919326523463e-16
8.050478838747279e-17
-1.0066566635473745e-15
-2.2377476410943293e-15
-3.0896049334371926e-15
-2.9222985502343055e-15
-1.2267259805722137e-15
2.0485563638888896e-15
6.2063413747714366e-15
9.709827716686439e-15
1.045265739321399e-14
6.466379526676062e-15
-3.0294151313655517e-15
-1.655291792554948e-14
-2.9777303578219784e-14
-3.601173376192315e-14
-2.81265793417877e-14
-1.8123454927430062e-15
4.0659636302852975e-14
8.773684679352865e-14
1.1889178473744716e-13
1.095289408738782e-13
4.074472115580072e-14
-8.805274899591495e-14
-2.482232484191474e-13
-3.790416756883845e-13
-3.9900144154656386e-13
-2.3392020163261476e-13
1.4225049552265538e-13
6.666496472265008e-13
1.1668800566776903e-12
1.3823906531162692e-12
1.041713630377364e-12
-1.00876165656848e-14
-1.6674245503719907e-12
-3.4650026048615502e-12
-4.59834241171172e-12
-4.12336871748247e-12
-1.3406423244719075e-12
3.717949006713371e-12
9.88042060039954e-12
1.4750518970544354e-11
1.5178036227098854e-11
8.373672194948356e-12
-6.506864925072777e-12
-2.6817832818932555e-11
-4.570160175845896e-11
-5.3023511170280595e-11
-3.846432725143039e-11
3.5013800682020195e-12
6.809973087755452e-11
1.366321527249511e-10
1.77608059287009e-10
1.548391115133509e-10
4.254677811948001e-11
-1.5589135305912177e-10
-3.926829974965391e-10
-5.733944277902276e-10
-5.764170193581985e-10
-2.9712507379904906e-10
2.9070528804851703e-10
1.0764656682231154e-09
1.7878035580313944e-09
2.0309613888044064e-09
1.4143602735918838e-09
-2.571581115741369e-10
-2.7721453187888877e-09
-5.380744655106997e-09
-6.851725575228729e-09
-5.799852527562427e-09
-1.2791653364779493e-09
6.4958651103407394e-09
1.5582481919346676e-08
2.2263917899617577e-08
2.185139651092902e-08
1.0430663177751225e-08
-1.2759441215874155e-08
-4.3121712722581475e-08
-6.985601133015448e-08
-7.768139305608192e-08
-5.1766043831649604e-08
1.470263970043232e-08
1.1250607499052703e-07
2.116325841189681e-07
2.6399874587450475e-07
2.1665639375529954e-07
3.5062801273834403e-08
-2.692129366753455e-07
-6.174266371014404e-07
-8.634751133459487e-07
-8.268012702440816e-07
-3.6137785894660816e-07
5.522854044943312e-07
1.7240906898843652e-06
2.7263843351905162e-06
2.9668276992603766e-06
1.8847243154507718e-06
-7.542924352111898e-07
-4.553347159806376e-06
-8.313517522136256e-06
-1.0159152343740335e-05
-8.069432613907192e-06
-7.900082432548985e-07
1.1103953214799938e-05
2.442931183654217e-05
3.3449918754045544e-05
3.122165248903887e-05
1.2313467411875124e-05
-2.3637849780188732e-05
-6.880715855022188e-05
-0.00010628457953455595
-0.00011313597426952783
-6.820874461064211e-05
3.6409508789259574e-05
0.00018380619268069395
0.00032616866036022906
0.0003904106610067422
0.00029951929045068595
8.227037847689305e-06
-0.0004562554614054142
-0.0009655802016923215
-0.0012948023170183598
-0.0011771410881909828
-0.00041110053198669625
0.001002492845913817
0.0027437772574101403
0.004146895396160517
0.00432832158140098
0.00249753152453553
-0.0015971895708081696
-0.007229396835366991
-0.012483248320068549
-0.014510673441639867
-0.010410816829542976
0.0013223402316827155
0.01913312303895524
0.03715065325582318
0.045105271940853085
0.029985311214860377
-0.02056133866452133
-0.11390851673039518
-0.04877863547049374
-0.013911258398470423
0.00997909281155701
0.045360390595678084
0.11181609410650617
0.020946258951731207
-0.025997306735914806
-0.03714902421699721
-0.02646563281353875
-0.009073825180649897
0.002961369567648818
0.0034648280525107185
-0.0068119132176272254
-0.020941323326098212
-0.028160418518783707
-0.017441508604189523
0.018362341708187326
0.07889676457364062
0.15468036144802125
0.0288109847339505
-0.11767840552918898
-0.09826639991304303
-0.11426060781885984
-0.15237839812919293
0.011451828830423226
0.20280928922894279
0.23758762170239808
0.11399779330223885
0.011993165535795698
-0.09889363606097475
-0.24636933689968382
-0.24272783318215355
-0.07873172553244337
0.07271399968807829
0.24434330501525384
0.2591748640957307
0.11913048084601956
0.0030311521652592486
-0.12491398442736669
-0.29978651816672985
-0.14048864744974277
-0.04075932280906482
0.02966191884857794
0.1144521057570405
0.2551903952832833
0.07703011898499838
-0.019254887432824472
-0.05656185149002999
-0.07326476990009434
-0.11116078896378907
-0.0037980238480322436
0.031560631713415076
-0.003172017126216291
-0.08905896138667474
0.003770567592825488
0.10772790350899329
0.04913927788340442
0.041707308811994886
0.08397395311957083
-0.038520349366535866
-0.14731319139472326
-0.06363201926724901
-0.0022958183080529883
0.031126824359678135
0.03956089375428102
0.03121495670163586
0.015679370227949806
0.0008124010561986913
-0.00884845139319809
-0.012158960677170285
-0.01041678261328158
-0.00603139063436203
-0.0013527611442417228
0.0020433025404664328
0.0035626979492754465
0.0034171292597756104
0.0022613706492511923
0.000825730935686223
-0.0003398538060219133
-0.000971330384930788
-0.0010680268435157901
-0.0007962133362593476
-0.00037598303559106366
7.1281722390701856e-06
0.0002472983515342348
0.00032213990256782526
0.0002690385159282439
0.0001515436035602007
2.9943702418937293e-05
-5.633494636854557e-05
-9.33602730463146e-05
-8.767554455533633e-05
-5.673910787557782e-05
-1.9471696410634682e-05
1.0180637138175173e-05
2.576825681863615e-05
2.7595963948137954e-05
2.0147310171229076e-05
9.151819067301407e-06
-6.592223624372888e-07
-6.66148591189974e-06
-8.382130387530622e-06
-6.857087989740988e-06
-3.7539205696121055e-06
-6.198585514370515e-07
1.556471655609555e-06
2.448172845333325e-06
2.2489843823842915e-06
1.4216597375288448e-06
4.548697736914572e-07
-2.9869567507506515e-07
-6.823648814838694e-07
-7.123485962080874e-07
-5.091920968815529e-07
-2.2186808878494486e-07
2.91170543955794e-08
1.7884565491561646e-07
2.1781613778752604e-07
1.745536780582549e-07
9.274957765523872e-08
1.2067279279076489e-08
-4.274642453584754e-08
-6.409976201765793e-08
-5.7622915505555845e-08
-3.555647697643806e-08
-1.0506773996920357e-08
8.619423428502432e-09
1.803355566283345e-08
1.8366922299225913e-08
1.2850584100620847e-08
5.353044882053745e-09
-1.0601541969049021e-09
-4.787451080049525e-09
-5.653007749896805e-09
-4.437927849679697e-09
-2.2852412075301616e-09
-2.10556698911236e-10
1.1678335858123348e-09
1.6758344542229776e-09
1.4746986193300004e-09
8.875837373985368e-10
2.3932224986662343e-10
-2.4548469397030576e-10
-4.756925063517968e-10
-4.730209372733286e-10
-3.238306126592133e-10
-1.284535147548828e-10
3.5224211836342365e-11
1.2780565008475833e-10
1.4653246838296057e-10
1.1268910723484218e-10
5.6135773301363244e-11
2.847723177171391e-12
-3.175768932412299e-11
-4.375102738625526e-11
-3.769700323227729e-11
-2.2111513536252528e-11
-5.3550494527413145e-12
6.917243288170021e-12
1.2525415199355158e-11
1.216817288296291e-11
8.14778594506682e-12
3.0632528918728006e-12
-1.1091129045567576e-12
-3.4032643057446185e-12
-3.793631003879686e-12
-2.857693885535314e-12
-1.3744311403055122e-12
-7.401425556412973e-15
8.597959780320608e-13
1.140334219970496e-12
9.62249623985081e-13
5.496002896064802e-13
1.1730838953050269e-13
-1.9254753275072915e-13
-3.283366117280859e-13
-3.1179739539618494e-13
-2.043129029563086e-13
-7.314579827721446e-14
3.182823341378037e-14
8.746377721054604e-14
9.490389507645163e-14
7.035433692096358e-14
3.4354912763901125e-14
3.403339833821897e-15
-1.4270578716100946e-14
-1.8816238480512477e-14
-1.5957860851681417e-14
-1.2910218135630214e-14
-1.4550539332501756e-14
-2.100209709303389e-14
-2.7309221579206063e-14
-2.5377018379644835e-14
-7.790051807859073e-15
2.7504689347182785e-14
7.328084184605881e-14
1.1188301502975331e-13
1.186349238084234e-13
7.05026475074422e-14
-4.131899206404282e-14
-1.98801750692885e-13
-3.505632002003745e-13
-4.1805720616030037e-13
-3.187102451672095e-13
-4.3894740183587015e-15
4.948609679511302e-13
1.0402875781715955e-12
1.389775124332307e-12
1.2572340138774914e-12
4.28107958056423e-13
-1.0933535234259068e-12
-2.9591940483958524e-12
-4.449749537735763e-12
-4.61258097162941e-12
-2.596758769457794e-12
1.8688572954753982e-12
8.00546764633899e-12
1.3758726692219946e-11
1.6070801772403746e-11
1.1804879512292472e-11
-7.547946931305334e-13
-2.0232534030608875e-11
-4.1044806763699596e-11
-5.370954189275865e-11
-4.725623744178687e-11
-1.3768495996104285e-11
4.59419311538296e-11
1.176691021925734e-10
1.7303943239364464e-10
1.7527138209131468e-10
9.24218414001451e-11
-8.406334055387239e-11
-3.2155803537385576e-10
-5.384322836328958e-10
-6.158377041108974e-10
-4.346754453933246e-10
6.585508132135712e-11
8.244544306569497e-10
1.6170619774762237e-09
2.0728054972602635e-09
1.7715598446717388e-09
4.224044619142226e-10
-1.9180112505791084e-09
-4.671645428162826e-09
-6.721301100944519e-09
-6.648259157907827e-09
-3.256436528261263e-09
3.7089371345861003e-09
1.2889396840230215e-08
2.104634710384586e-08
2.356581559543307e-08
1.593399256061635e-08
-3.980142911402414e-09
-3.349157192963187e-08
-6.362708392157861e-08
-7.989757915930055e-08
-6.623697164797818e-08
-1.2004521291948838e-08
7.96221739633919e-08
1.8519256538322517e-07
2.607729679296298e-07
2.517088443977346e-07
1.1333685577707514e-07
-1.6120501937211895e-07
-5.156546976775126e-07
-8.217137977200914e-07
-9.004633516447416e-07
-5.811566194656837e-07
2.098903496032031e-07
1.3566476536566886e-06
2.5004374154635626e-06
3.075856457366924e-06
2.4694276557603472e-06
2.9402918818940187e-07
-3.2889410483828913e-06
-7.330727445476728e-06
-1.0105774121476642e-05
-9.511231710232872e-06
-3.884287404455813e-06
6.92295956687864e-06
2.059130823041204e-05
3.2045419309349316e-05
3.435528906932636e-05
2.107497967632279e-05
-1.0299735675629896e-05
-5.4809352806572304e-05
-9.814259643088847e-05
-0.00011826124061347508
-9.17760355040763e-05
-4.689280906539187e-06
0.00013525551146682297
0.0002897701378143278
0.0003911611455697304
0.00035862174873637026
0.00013044219534470676
-0.00029449549479408757
-0.0008209979900217435
-0.0012485693207161847
-0.0013090874030411296
-0.0007596571757147523
0.00048311415306647327
0.0022095874756661903
0.003850606882740612
0.004549828191543789
0.0034198982189170817
-3.696114808302449e-05
-0.005455860141437803
-0.011286796297131736
-0.014870755303401583
-0.013112031107119398
-0.003769892899696839
0.012890741642696166
0.03266384558582012
0.04696149980068567
0.044079433570876264
0.012420529822241214
-0.05490332112718823
-0.15562164144537574
-0.07610595717859996
0.0068675028437563375
0.1201935944524032
0.08617086611772341
0.11506109238329361
0.0014594814190686213
-0.07419934965707699
-0.13990330627561975
-0.024621736378942678
0.04809771993266185
0.06389084611600943
0.018634409088813215
-0.08239857077395417
-0.026594839647991718
0.0029495384365697134
0.023531769110296172
0.04870794986381618
0.08504147267796079
-0.06913558255514195
-0.022434067604611068
0.013030303528472323
0.026230369885771095
0.011881552571626335
-0.0257998207254752
-0.07118686679511677
-0.09822667672867218
-0.0751307221232998
0.027365602862810555
0.22592991853876251
0.11611444961736843
0.06926863287497215
0.037410340367672004
-0.03428551109426121
-0.19086612869064987
-0.2524667190023704
-0.20654203344215552
-0.011276462094380718
0.19016159469994598
0.4496831874524172
0.3969886755405778
-0.16740121125610716
-0.2660101214939755
-0.32921516973935894
-0.3797896797319754
-0.025650370707098014
0.5359167119849377
0.3062830133298653
0.07412436897784959
0.012481968897838184
-0.11315600763916994
-0.32943512603731406
-0.23996353654350483
-0.018019833687510093
-0.011356761901261203
0.041917223024510654
0.3922213863874081
0.46056299163720293
0.03146901911843753
-0.3397790570254122
-0.3087282344594974
-0.32083162073292926
-0.19779881100388075
0.26316919176611986
0.47868003997046094
0.26438761066799504
0.025167489728892305
-0.24446093735066327
-0.3509453699433816
-0.08989684811119934
-0.039368281821023
0.03759903447922356
0.1820201332409134
0.2244113962353084
-0.027241121821916698
0.007750965345011916
0.08695702256019154
-0.0435829270383485
-0.23416627671859563
-0.11749249909091285
-0.10055724172826531
0.03493086237905256
0.12406703128156132
0.2058012474179725
0.11076962714848686
0.05449943973784984
-0.1620962530581103
-0.1464588720392753
-0.10638925269620828
-0.0446865978947218
0.04106259071046472
0.15394124380904456
0.09124336036258407
0.03981549550629837
-0.02402227706701031
0.07070062069505266
-0.10148578547309943
-0.15288582036090112
-0.0758904180920753
-0.042021115670572706
-0.007905468069590497
0.07315775628465868
0.23761204685581389
0.10067282123141245
0.05195849164487828
-0.14066976708229886
-0.1206749757216853
-0.12993933849735181
0.0019682862291145837
0.06325599582992839
0.0595515707402239
0.009272859352150978
-0.0629343158142062
0.06728240794769005
0.018738889071563472
0.0014717834627761299
0.015893983278718934
0.05434140371387262
-0.09553204427505209
-0.046569108952093055
-0.008462379819499459
0.014243096254428652
0.022116968464914687
0.019249201487343087
0.011040201839262397
0.0022746100085251726
-0.003999980571591106
-0.006704613849306487
-0.006300515951940761
-0.004059612131430642
-0.0013615927895560933
0.0007789545397239877
0.001895507858491941
0.002013601993995151
0.0014617438635927417
0.000657335871293076
-5.63954041101678e-05
-0.0004903542684163095
-0.0006120339250389121
-0.0004981977937854962
-0.0002708390820841227
-4.254147901058039e-05
0.00011516653804867033
0.0001790365387254934
0.0001636180359849166
0.00010284015244425027
3.231463556331085e-05
-2.2386465413800915e-05
-5.001742669931031e-05
-5.190392887040735e-05
-3.691261932093226e-05
-1.5916726646994517e-05
2.331444448244364e-06
1.3150778207704995e-05
1.589585147655564e-05
1.2676040385316763e-05
6.686032377397707e-06
8.110485968925301e-07
-3.1591865624394135e-06
-4.686193670167753e-06
-4.1911162063800265e-06
-2.5709651576460453e-06
-7.441406118282752e-07
6.438040459279409e-07
1.3212560310873825e-06
1.3379050337779452e-06
9.312467769962316e-07
3.8355195622237587e-07
-8.259703265094488e-08
-3.5179173227990075e-07
-4.1242407759659183e-07
-3.2218422737755305e-07
-1.6462076015720154e-07
-1.359131396547591e-08
8.620899191444554e-08
1.2247436687652774e-07
1.0723026266210691e-07
6.414761108409121e-08
1.688469407616287e-08
-1.828546282713817e-08
-3.4837114389844697e-08
-3.444689061720319e-08
-2.3458566765113736e-08
-9.19085192567387e-09
2.702825462789906e-09
9.385607002289855e-09
1.0687391819301442e-08
8.178481743711898e-09
4.040738974438302e-09
1.6262370991767778e-10
-2.34192046415167e-09
-3.196372530616546e-09
-2.740307483772279e-09
-1.597240068954739e-09
-3.759170156074474e-10
5.140819126903113e-10
9.169149759958209e-10
8.858857321338954e-10
5.900106809583003e-10
2.1881875832140774e-10
-8.428201497563623e-11
-2.4978436825742624e-10
-2.766150321210012e-10
-2.0733625714100972e-10
-9.884819093387581e-11
6.197843493418287e-13
6.336376078299933e-11
8.330587534579328e-11
6.994713440128001e-11
3.96832445728021e-11
8.159859649232198e-12
-1.4330665763116485e-11
-2.4092634322285134e-11
-2.2756721802584166e-11
-1.481532081062896e-11
-5.170701255977466e-12
2.5441737714247907e-12
6.632330877384642e-12
7.1509317939071685e-12
5.249223117521328e-12
2.4090916675713534e-12
-1.391912575778327e-13
-1.7081910536830956e-12
-2.1683064954792646e-12
-1.7833121255386713e-12
-9.836350026183148e-13
-1.7093162382100634e-13
3.965924470179857e-13
6.320136600093937e-13
5.83890207479373e-13
3.7136315973113367e-13
1.2108290430426596e-13
-7.504153846819277e-14
-1.75742923140728e-13
-1.846651938593101e-13
-1.32733072197914e-13
-5.848977235114186e-14
6.719729180578726e-15
4.587922085445798e-14
5.634494440186797e-14
4.539154102261694e-14
2.430098771175347e-14
3.3728463413563038e-15
-1.0926604962593959e-14
-1.6572910992440547e-14
-1.4983408335392057e-14
-9.311221110872084e-15
-2.8245340183264097e-15
2.154790363247493e-15
4.627702426585978e-15
4.743688250528081e-15
3.3323319149209403e-15
1.394814128236762e-15
-2.713723909704266e-16
-1.2463744090909942e-15
-1.4802620905672718e-15
-1.1727294248357585e-15
-6.190381242107055e-16
-8.263754429217066e-17
2.755712034294037e-16
4.0997363664135214e-16
3.621745651419789e-16
2.1573586081280142e-16
5.4097220456831e-17
-6.627253038621195e-17
-1.2443573911455684e-16
-1.2887238759859563e-16
-1.0352627098471974e-16
-7.296107001278229e-17
-5.172659280203727e-17
-4.0449996246876946e-17
-2.8728011116437037e-17
-3.013117521991006e-18
4.3572092640974236e-17
1.032154148465466e-16
1.508768452857506e-16
1.499335071509785e-16
6.651684243607478e-17
-1.1031004930093437e-16
-3.49264604343173e-16
-5.681740477556081e-16
-6.458575223707551e-16
-4.601608842133574e-16
5.1730167949513065e-17
8.276004493753846e-16
1.6383399704259454e-15
2.104226003898339e-15
1.794930205918808e-15
4.1245241785778543e-16
-1.98508947048148e-15
-4.805384824336516e-15
-6.903828462292171e-15
-6.827120823303042e-15
-3.350382179113607e-15
3.786574886814873e-15
1.3191069486336699e-14
2.1544527297259543e-14
2.4120111437981517e-14
1.6294820378087835e-14
-4.111925169450274e-15
-3.4345987927739233e-14
-6.521154289294051e-14
-8.186400100854279e-14
-6.784698665351669e-14
-1.2266818496833389e-14
8.161011996989149e-14
1.8974817378991658e-13
2.6713250387289363e-13
2.5777626453694816e-13
1.1594346425304685e-13
-1.6536157846034317e-13
-5.284605569997856e-13
-8.418873244167669e-13
-9.223480895040172e-13
-5.949696115407801e-13
2.1563248832785836e-13
1.390456493801066e-12
2.561933122277393e-12
3.1507941356535403e-12
2.528669790360205e-12
2.992610157186606e-13
-3.3716560738384465e-12
-7.511681850436464e-12
-1.0352820378466357e-11
-9.740991705199047e-12
-3.973507111226231e-12
7.0998129819638336e-12
2.1101503316927394e-11
3.283098917725642e-11
3.518890541584937e-11
2.157367788607927e-11
-1.0576165580262351e-11
-5.617465397403553e-11
-1.0055602049339156e-10
-1.211418528561631e-10
-9.397540714418537e-11
-4.7279072179504015e-12
1.386515988716873e-10
2.969229368991332e-10
4.007307494801538e-10
3.673043112674009e-10
1.334617755726913e-10
-3.018826524608278e-10
-8.411411429530188e-10
-1.2788720958444125e-09
-1.3404238842053498e-09
-7.771166032826956e-10
4.96129087464971e-10
2.2639044559047607e-09
3.942057507425902e-09
4.651543856821399e-09
3.4804713511468335e-09
-8.55684996984584e-11
-5.679278681439534e-09
-1.1720898223837995e-08
-1.5492985920300444e-08
-1.3819280666544748e-08
-4.363708299802128e-09
1.273068737052318e-08
3.347328228249719e-08
4.975927052092063e-08
5.0975863679057564e-08
2.7776758201373103e-08
-2.257672656154248e-08
-9.103070681500792e-08
-1.5435588554029936e-07
-1.7836752984348537e-07
-1.284134640759124e-07
1.38200163418987e-08
2.3179945808382772e-07
4.620658705115481e-07
5.982714518601819e-07
5.186957545709443e-07
1.3730900955818959e-07
-5.331148389263769e-07
-1.3299446314792919e-06
-1.933857860150617e-06
-1.9352601827653782e-06
-9.83744509544314e-07
1.00486779417607e-06
3.652514872279267e-06
6.036911531059931e-06
6.830184319472149e-06
4.717856096398463e-06
-9.455797045153666e-07
-9.430250200218402e-06
-1.819228488537389e-05
-2.3074581241919656e-05
-1.9419131167318985e-05
-4.071831177917686e-06
2.219020610038796e-05
5.2759830450976196e-05
7.507204879932511e-05
7.333817270037476e-05
3.445564313176272e-05
-4.397568461607041e-05
-0.00014625873194019782
-0.00023583092118433294
-0.0002611721389763066
-0.00017251345543573622
5.2618495419802496e-05
0.0003824814759524684
0.000715289880469289
0.0008887176001489516
0.000724751397589322
0.00010831065841911813
-0.0009195072409366431
-0.0020910069605063197
-0.0029122263004904437
-0.002774868645376107
-0.0011893563907012508
0.0019057033057167843
0.005866037938626021
0.009251840199915937
0.010078995884882683
0.00648559309381952
-0.0022746954486646724
-0.014815699384153202
-0.027074923277340065
-0.032805840650681053
-0.025506651513755182
-0.0017468895145950668
0.03479980234781863
0.0699752556651639
0.07813830565185138
0.02504708869574863
0.0751623538651696
0.002391269009530653
-0.19840460517556047
-0.30314899853194865
-0.057741667806289844
0.012869729061580357
0.18699284591858084
0.3251860625040422
0.2534579981963788
-0.0429543595821078
-0.21311783362115413
-0.3245744289858582
-0.2452098836688224
0.17024848795560565
0.28600269854165894
0.2850778972000044
-0.03212252572151083
-0.24740919352377835
-0.3234098049274795
-0.20539223607451138
-0.030300368847447103
0.4570201566082898
0.4857750623462605
0.04774760317564004
-0.10104481166179963
-0.22511996487581484
-0.38704524255071937
-0.22744590881201313
0.044283224740450496
0.24571720404790312
0.2070795581675444
0.15450840989360423
0.09874258806865376
0.03373892583775015
-0.2550781976557681
-0.1774173068467374
-0.12611146193922282
-0.07227041576116057
0.029839004618993886
0.22976964803387154
0.16463574015225696
0.04572344012092087
0.052741041983688515
-0.06267620792712418
-0.16605666096105481
-0.12595916893697068
-0.001239790986727417
-0.03291620299012462
0.15869650530255117
0.17325924984984956
0.02879377941403911
-0.038943518307074564
-0.17646696271140552
-0.314643831436042
-0.17630676081014915
0.10901622909323273
0.3858258069372609
0.45585745001666533
0.27258116684684836
-0.047175139095027484
-0.395837460533194
-0.641363456866047
-0.40119474771733926
-0.0359731630444747
0.3330623665239755
0.5897607831189524
0.38638614825001943
0.1201141752796271
-0.0678965021473673
-0.27129929695010546
-0.38447941997813173
-0.26913575035056314
-0.13377004228832617
0.06736311474785281
0.21683528768760976
0.20560830233681798
0.30422553537669167
0.14342546036226408
-0.09022097427455456
-0.24390712880054585
-0.17897926172779266
-0.15030460468289114
0.008158391544304458
0.08803562446499096
0.10221035367095792
0.0752437212796258
0.033096814394937064
-0.004388113576692017
-0.026778511603367295
-0.032491052689693156
-0.025852462226502195
-0.013493953331788195
-0.0014012452235118962
0.006727042283491673
0.009794894884452015
0.008693478188364238
0.005291379760885096
0.0014912123811335063
-0.0013773960586167407
-0.0027627503969881524
-0.0027778604218821564
-0.0019213185834390102
-0.0007803340358267229
0.00018486677225081218
0.0007378939718186935
0.0008576941831730809
0.0006660306062574039
0.0003370647850772627
2.3806471932566555e-05
-0.0001818291236511391
-0.00025524428235726583
-0.00022210532746193084
-0.0001318788812867386
-3.3665835817598e-05
3.897530625874222e-05
7.27847388355372e-05
7.148118369689632e-05
4.836674654711437e-05
1.8659377159201282e-05
-5.9560900671567164e-06
-1.9673988989548276e-05
-2.221898623372277e-05
-1.6900861068170637e-05
-8.265759858337208e-06
-2.245228578560368e-07
4.933491579686364e-06
6.658779552389948e-06
5.674059798614607e-06
3.2816736363834335e-06
7.446090215113136e-07
-1.0928781645839053e-06
-1.9147404623487325e-06
-1.8376999839097437e-06
-1.2159120221757651e-06
-4.433304513716404e-07
1.8375355769583193e-07
5.232349170359723e-07
5.748800251567539e-07
4.2829571657584155e-07
2.019926712372486e-07
-4.1844823298307595e-09
-1.3333593787814688e-07
-1.7347754685746012e-07
-1.4478200121219833e-07
-8.147851635577733e-08
-1.6016877904544996e-08
3.0397708935441414e-08
5.0287241984324553e-08
4.719128367191354e-08
3.051691162340361e-08
1.0450442559480236e-08
-5.5051038940722454e-09
-1.3884166087648037e-08
-1.485648867396276e-08
-1.0839084939438262e-08
-4.917216169919375e-09
3.630926337731422e-10
3.5909273545945616e-09
4.513561371283056e-09
3.68990479077206e-09
2.018139417197905e-09
3.310415525694803e-10
-8.396778714622806e-10
-1.3186046160427093e-09
-1.2104657901684259e-09
-7.645882324317477e-10
-2.4404620806413166e-10
1.6142071557204335e-10
3.6764028861167685e-10
3.8348384052111623e-10
2.7392867731576465e-10
1.1919096091200764e-10
-1.5884365219138982e-11
-9.639862178694737e-11
-1.1728358585499994e-10
-9.392632188390104e-11
-4.985867124340981e-11
-6.428166657902442e-12
2.3056458084804324e-11
3.4522929864284e-11
3.1013080573534976e-11
1.9121591992831552e-11
5.634782817582427e-12
-4.655918430739436e-12
-9.7154165647768e-12
-9.8872497174264e-12
-6.9128856946852575e-12
-2.8752828073153707e-12
5.760455735759527e-13
2.5802036089588413e-12
3.043733521804842e-12
2.387907873210375e-12
1.2283256081861784e-12
1.1158414941129867e-13
-6.29821959613997e-13
-9.025496041265304e-13
-7.936828062567961e-13
-4.773138302064027e-13
-1.2830204691848897e-13
1.3253338112568943e-13
2.5624110680061533e-13
2.546076092586294e-13
1.7417522340552697e-13
6.896458192899635e-14
-1.9116876720197025e-14
-6.88940041620809e-14
-7.891272452460836e-14
-6.065066728824259e-14
-3.0188837601487675e-14
-1.5065097204868472e-15
1.710598103165849e-14
2.3543048512845978e-14
2.0269012488202525e-14
1.1871312076529318e-14
2.85028650520461e-15
-3.752156411170191e-15
-6.765459037885047e-15
-6.568149203995782e-15
-4.400886668043038e-15
-1.6629663293250555e-15
5.822780020331876e-16
1.8156627058371955e-15
2.024203886987805e-15
1.519258718515296e-15
7.203185452553879e-16
-1.5512768395310824e-17
-4.819607338534837e-16
-6.32508619768806e-16
-5.362302943900999e-16
-3.137996355733981e-16
-8.091047223939557e-17
8.597165949810935e-17
1.59048050448162e-16
1.4998370582389562e-16
9.177790753736123e-17
2.0638943285973995e-17
-3.64874787794019e-17
-6.692375777371649e-17
-7.098006628563745e-17
-5.70936480022416e-17
-3.6215060784287714e-17
-1.7465177633173787e-17
-5.948908409397042e-18
-2.6171345279689377e-18
-5.474030345439954e-18
-1.1269546896364157e-17
-1.698270289035672e-17
-2.0717800588948825e-17
-2.194772229055759e-17
-2.125172198988064e-17
-1.9783805553727385e-17
-1.869712286804184e-17
-1.868748917291518e-17
-1.9748822521514982e-17
-2.117822153545016e-17
-2.182861472890624e-17
-2.0567563057006037e-17
-1.6847120147989896e-17
-1.1221718326287111e-17
-5.591969012925557e-18
-2.944974451901014e-18
-6.452676411883018e-18
-1.8002507350382017e-17
-3.6541982985173836e-17
-5.692631882641284e-17
-7.011241430613013e-17
-6.537508392285579e-17
-3.462437528867514e-17
2.208143285803021e-17
9.184473823332967e-17
1.4784304345979962e-16
1.5447300984667554e-16
7.980346382453461e-17
-8.655699156942511e-17
-3.15839019812718e-16
-5.315637069729884e-16
-6.195433287983924e-16
-4.622693015477247e-16
5.104659633787686e-18
7.322388282431893e-16
1.5115592103634645e-15
1.9892910687076003e-15
1.7549467637172268e-15
5.10703906947971e-16
-1.716427965232742e-15
-4.3993759292391816e-15
-6.480502928911211e-15
-6.5848751802454295e-15
-3.5136861658558585e-15
3.0627196572673916e-15
1.1937904419974693e-14
2.0072295558066552e-14
2.3027135177309134e-14
1.6339851418992096e-14
-2.2905260739418288e-15
-3.061474497763474e-14
-6.030071311625487e-14
-7.750903859161535e-14
-6.65167302423687e-14
-1.6372478658378082e-14
7.093670431808115e-14
1.7395491905172442e-13
2.510308957798109e-13
2.491224907627781e-13
1.233252179466551e-13
-1.3627464230120728e-13
-4.794046537111003e-13
-7.854474987451837e-13
-8.820530707234724e-13
-6.000484749507868e-13
1.4134629230922288e-13
1.2434024925623318e-12
2.3723455528006255e-12
2.9874174513808415e-12
2.487232648357458e-12
4.709618947210964e-13
-2.947722623987445e-12
-6.898034460349256e-12
-9.741759963035069e-12
-9.43516168190875e-12
-4.300791343593121e-12
5.933227070273531e-12
1.9183374097902058e-11
3.0670387122845096e-11
3.3709876369658316e-11
2.1900720774940343e-11
-7.555923401279677e-12
-5.038642728257647e-11
-9.32457302908329e-11
-1.150286923169459e-10
-9.276690583677324e-11
-1.1866453142246372e-11
1.2183912804651232e-10
2.7310699141991516e-10
3.7758323333181777e-10
3.5662072497991453e-10
1.4774163897521255e-10
-2.5518715982093974e-10
-7.662273862539964e-10
-1.1962802027526451e-09
-1.2864000365338223e-09
-7.9486652986249e-10
3.7369315504239603e-10
2.036358203658105e-09
3.6605306430930404e-09
4.423445997783551e-09
3.449225185376428e-09
2.0969453950492386e-10
-5.013501452962529e-09
-1.0797656199812542e-08
-1.4617829272442996e-08
-1.3451412995379425e-08
-4.978867832666751e-09
1.0865083153590216e-08
3.055084074002784e-08
4.660680367414364e-08
4.90134515913879e-08
2.8662258458389824e-08
-1.7626688242258434e-08
-8.209641685692551e-08
-1.4352774387959446e-07
-1.6988259442208168e-07
-1.2781333728268633e-07
1.6629936342316632e-09
2.0547184620270438e-07
4.26317353609709e-07
5.652513739149883e-07
5.062606901567428e-07
1.6353536754111019e-07
-4.5871160509278776e-07
-1.2160684591944006e-06
-1.8137177163281956e-06
-1.8644275511046289e-06
-1.0257466357555551e-06
8.052375312583703e-07
3.3021456842123306e-06
5.620978274735099e-06
6.515611191434044e-06
4.718503205753308e-06
-4.470673885611963e-07
-8.390571707349477e-06
-1.6809702005569318e-05
-2.1831421430412203e-05
-1.900896740525127e-05
-5.18028890473513e-06
1.9227951580388926e-05
4.832764601263601e-05
7.050101643815303e-05
7.080038618755963e-05
3.638187380760358e-05
-3.594384916951968e-05
-0.00013253611106581154
-0.00021987819092200158
-0.00024955872879440345
-0.00017348516174131278
3.222917422254165e-05
0.00034144177484024687
0.000661824152774644
0.0008419455875712929
0.0007115987652328434
0.00015479510915715017
-0.0008015678856895452
-0.0019179423618520307
-0.0027365769477599934
-0.0026801079807354496
-0.0012660473340630417
0.001601403529020595
0.005361259015553792
0.008693040722221025
0.009728662810061427
0.006655253578763933
-0.0013658552620794797
-0.01324343230169654
-0.025433784030081463
-0.03239761489025623
-0.028443837938348652
-0.010957848837791375
0.01563170797253492
0.0365148166732969
0.2256897938467471
0.14953415112059318
-0.024500055963752015
-0.315705513747856
-0.31895085756313424
-0.2004221864120128
0.0956692143629007
0.4302912292239795
0.24906688148635894
0.16701648592544904
-0.034472293259858705
-0.19709351497594715
-0.3661919428540829
0.0293810701447338
-0.00959332317854633
-0.05075264232635552
-0.03921710636459546
0.0857735186648695
0.17182607438938655
0.23770744835757204
0.06605453230906785
0.007150633867557983
-0.20732927290480796
-0.2454653539929682
-0.15796375781204372
0.031335797963029564
0.12487917917030626
0.14261204505740108
0.10983675697280772
0.04696521497205811
-0.035480316570203375
-0.13617197295469496
-0.05859401156313077
-0.005997947925267301
0.021877306484222217
0.02943650246555292
0.023779829694432607
0.012428020863517191
0.001368408917015041
-0.005951866716974771
-0.00861795673149776
-0.007533352638064378
-0.00444216472597522
-0.0010674794420524334
0.0014193732279393825
0.0025599567166356934
0.002487974465057334
0.0016685652702921323
0.0006304793784340767
-0.0002228144072356244
-0.0006933009376168634
-0.0007749057564427653
-0.0005849924850046198
-0.000282474023897009
-3.01595738128161e-06
0.0001747253790691787
0.00023269296264376494
0.00019680551208299952
0.00011272634248839887
2.4374124983022752e-05
-3.9130568269361505e-05
-6.711057651055712e-05
-6.38877607502833e-05
-4.192665139963479e-05
-1.4957145035753677e-05
6.771570518194357e-06
1.8408652109785608e-05
2.0031616108366444e-05
1.4812170629677376e-05
6.8908184776421824e-06
-2.700585707027485e-07
-4.716811527698207e-06
-6.059623010390483e-06
-5.01972781408742e-06
-2.7964674126481307e-06
-5.177149151805058e-07
1.0855767798106605e-06
1.761531226596163e-06
1.6399436955927015e-06
1.0516345008656787e-06
3.514621368435339e-07
-2.0115889012189226e-07
-4.880972089184819e-07
-5.174531258282327e-07
-3.746727449971841e-07
-1.6749759477484286e-07
1.5820157887479107e-08
1.2687928500808962e-07
1.5758652408623106e-07
1.2787671056069267e-07
6.920295745069435e-08
1.0498560471962509e-08
-2.9919706232065784e-08
-4.616418829236386e-08
-4.2047537538625943e-08
-2.6331284298558822e-08
-8.176238940407493e-09
5.860721206464604e-09
1.291492890765017e-08
1.3351197384838482e-08
9.463999410203373e-09
4.053303407634446e-09
-6.341766580560177e-10
-3.4023747761859313e-09
-4.092974371151632e-09
-3.2536503157262316e-09
-1.7080067440187436e-09
-1.974182805598051e-10
8.199496614709944e-10
1.207996719269181e-09
1.0768451261440147e-09
6.580727983776978e-10
1.8789550689464181e-10
-1.6819449512701884e-10
-3.4105914952289473e-10
-3.440864351906669e-10
-2.387070447331789e-10
-9.759451146717427e-11
2.2125300667786934e-11
9.097743449232035e-11
1.061737733869955e-10
8.268140548854477e-11
4.2034708081237666e-11
3.208472063555095e-12
-2.2358882308094216e-11
-3.1564278378018263e-11
-2.754635274040579e-11
-1.6414409604335154e-11
-4.252373822627024e-12
4.76901032515283e-12
8.990085970991153e-12
8.857581768263179e-12
6.011716878414596e-12
2.336416272402478e-12
-7.176485452603194e-13
-2.4262985125655567e-12
-2.750851916826871e-12
-2.098429749757625e-12
-1.0312790174724283e-12
-3.447809693111443e-14
6.069819606922996e-13
8.235805549310244e-13
7.038118846128023e-13
4.0855750633881837e-13
9.433431645109956e-14
-1.339084164433353e-13
-2.3657610594440423e-13
-2.2777320462109637e-13
-1.5118350410972734e-13
-5.558507719901756e-14
2.223089422353552e-14
6.453022276261884e-14
7.116679011941422e-14
5.3168694995841905e-14
2.5195555799693784e-14
-3.6644648395035993e-16
-1.6431948290834142e-14
-2.1479014931650656e-14
-1.7980486823280563e-14
-1.0165759202848265e-14
-2.0568349829817173e-15
3.709670607169674e-15
6.195894367424748e-15
5.831288937821725e-15
3.776546507751616e-15
1.293109634302424e-15
-6.871802413507592e-16
-1.7316048849564798e-15
-1.8581931978407545e-15
-1.3645574113509759e-15
-6.324099342014944e-16
2.2350989758252845e-17
4.239753758283784e-16
5.401937822745455e-16
4.3958490389186553e-16
2.331533885503424e-16
2.413436754755465e-17
-1.2134443315539713e-16
-1.812548841705843e-16
-1.683413124533346e-16
-1.1337592620176352e-16
-4.894232365152349e-17
1.3901473322559399e-18
2.7105322550815827e-17
2.922550284984102e-17
1.5755053948632433e-17
-3.3797831977725613e-18
-2.0131957958569305e-17
-3.015271807548289e-17
-3.27894218128175e-17
-2.9931635365126885e-17
-2.4488312563115103e-17
-1.9106389690121974e-17
-1.5441684793435225e-17
-1.40065822036622e-17
-1.4430137898767306e-17
-1.5898020333945186e-17
-1.756907727431494e-17
-1.8847280979045055e-17
-1.947746540798649e-17
