0
-0.0007373620999895672
-0.0007957093846744416
-0.0008347418924490454
-0.0008240128424209641
-0.0007399267741240887
-0.0005813447472392145
-0.00038318047217160043
-0.00022012092501071524
-0.0001929059193614568
-0.0003938050523920915
-0.0008562309533198148
-0.001504111732276729
-0.002125830685890785
-0.002399830308546004
-0.0019892384152647553
-0.00069892298822674
0.0013462284762626813
0.003577411832646133
0.005005115561946354
0.004463513420952118
0.0010841019239780903
-0.005101783753041663
-0.012654145038415224
-0.01861586333769675
-0.019094392810373183
-0.010656297742286946
0.0076630540834765086
0.03233474484582935
0.054227836281080966
0.05940303944930869
0.03238988140186108
-0.038380559595718344
-0.15451590108178398
-0.10346407863043044
-0.05868864960603633
0.014583232002954062
0.14914237521990636
0.16444641143270264
0.058462614743374774
0.0061407583516713965
-0.03449114400507108
-0.11046434767621793
-0.06010197467670299
-0.1017159968662128
-0.028205775715399967
-0.009115514739924956
0.0004825408364249219
0.04683241687267112
0.16386844085437502
0.163252668420609
0.031391470889211015
-0.06534393610432429
-0.1688889334747115
-0.11549740718995921
-0.12461745573984895
0.005537006019966639
0.09471583062006181
0.17172584676315203
0.06391728138021584
-0.010850817974344073
-0.047395449344836624
-0.05158261651228347
-0.03572192662640941
-0.013334374608454377
0.0049118682730074385
0.013300469534895878
0.01127991304248894
0.002348114213395806
-0.0077572043632232164
-0.013088967308906567
-0.00945567360289085
0.0039037145996761477
0.02325279238290381
0.04036546984604479
0.04409631841805193
0.023715330141062158
-0.026449922763555695
-0.10240917779407539
-0.1880034335588628
-0.05652475661653267
0.12276530287717231
0.1747280214397052
0.1087272560194075
0.11354648038466192
-0.04054575572289535
-0.19305696715048912
-0.18129831323477877
-0.029969342362828496
0.053879816285230434
0.07940483453875796
0.06578449972983441
0.03451829163703814
0.0031532431919306897
-0.01796827340309259
-0.025859630788991447
-0.022896276574602813
-0.013998092562248935
-0.004117475403495452
0.0033233667595935676
0.006922144237999036
0.006965367575007322
0.0046926865435354655
0.0015482813479293562
-0.0013293583506485992
-0.003300555623975115
-0.004162111541763348
-0.003965299583595092
-0.002853431069688296
-0.0010073647108648671
0.0012907999187924644
0.0035414078886748484
0.004970704320010971
0.004644711835242178
0.001805709453720476
-0.0036234023620474367
-0.010548113932499773
-0.016503701788554093
-0.018038330801382348
-0.011841467340469978
0.0034912215885212843
0.025530590011489683
0.046727377095825286
0.054677835568023456
0.03456507511286317
-0.026353756787172514
-0.1334061125915205
-0.08041957869964644
-0.04916314779691139
-0.0135977072078587
0.05165947755238273
0.16122545112639516
0.11095849796334115
0.07565650295985113
0.014328440596969125
-0.11779104070070959
-0.15402231223747972
-0.10294131431778013
-0.14187482244750887
-0.019983008791461802
0.12948957741181966
0.1714507947050499
0.15142002576410585
0.08395073830357769
-0.04943302973211572
-0.09271078974570289
-0.10142640220077542
-0.1272564791692058
-0.005771570388844305
0.0497368769998663
0.047915517825906015
0.014015062359916928
-0.018075513543446758
-0.014286809382040435
0.052168502223382984
-0.004688437898946564
0.01361796846580228
0.09042373760681338
-0.002440308436534462
-0.09841532344464657
-0.028803843082769367
-0.016150016571681202
-0.07024814752098482
0.012231242010658477
0.04467776345816238
0.04526843793148166
0.03132466748396536
0.015093885259972517
0.0020802442760803285
-0.007919838078023093
-0.017791628703639987
-0.02933988269902504
-0.04019819188288565
-0.04260323467205377
-0.024676146911968493
0.02597652487832713
0.1174729041849449
0.04951488153698782
0.011754495654924792
-0.01435778554404166
-0.05072396952044966
-0.11652685091533685
-0.023218846621116045
0.02765235874186708
0.043278008106402005
0.03597320926447142
0.018802432663776004
0.002046956366295864
-0.00858867959106984
-0.011956433717134243
-0.01013794195256985
-0.0065481377147349066
-0.00414882890475625
-0.004242225359001812
-0.006074492338442899
-0.007273385394506774
-0.004977566269541553
0.00263519124119703
0.01485980148030456
0.027565162600383504
0.03343074002192003
0.02365051703753085
-0.009038156156625593
-0.06680909129734276
-0.1441002636903339
-0.027409583917213844
0.1016495332073235
0.060708044346141486
0.060560824246685886
0.10125639680588097
-0.027909139201548614
-0.14449785314745672
-0.06687391295472239
-0.00859237975823866
0.024636565285304866
0.03475256271343262
0.028753538796628553
0.01525513126371467
0.0015947283630407638
-0.007761098536580004
-0.011432038318128175
-0.010358929667592913
-0.006629268843292085
-0.002393495418389359
0.0008324292444334183
0.0024072010881129205
0.0024423348232659515
0.0014901703919488
0.00020915143986632715
-0.0008808651817830809
-0.0015100909403622485
-0.0016513097840925848
-0.001439485384569947
-0.0010703172504751496
-0.0007170699647793386
-0.00048482779417440393
-0.00040262132293819586
-0.0004419410144052255
-0.0005462285500239506
-0.0006582842491295272
-0.0007380711294186856
-0.0007691747068766218
-0.0007562500543337037
-0.0007174883751450632
-0.0006758434237863986
-0.000651411537217894
-0.0006559448690445408
-0.0006896548151998019
-0.0007403903235265674
-0.0007856446162964532
-0.0007980707170228595
-0.0007547022336384992
-0.0006486281468602314
-0.00049974577679257
-0.000359294178616472
-0.0003024293725009544
-0.00040535952936205955
-0.0007090152269518619
-0.0011790318432965707
-0.0016794218035147213
-0.001980783257444233
-0.0018190703226005265
-0.0010053775339588268
0.0004376998039937345
0.002164905672361499
0.0034918523679206034
0.0035364717180510386
0.0015405289854465063
-0.0026826425304711044
-0.008321883516276666
-0.013387333989883777
-0.015010294066902866
-0.010363812891282074
0.001871256219251236
0.019865930071568394
0.03747408838310889
0.04428335123820885
0.027418947685870686
-0.024960199452605723
-0.11937802610336022
-0.05359131161331983
-0.015668498364909442
0.01354870121708162
0.05519975786363183
0.12629468868846094
0.035164866759232014
-0.019676526185621098
-0.04686526467835875
-0.056960457143130125
-0.05696111223208787
-0.04686812152439693
-0.019683631510207314
0.03515196069741562
0.12627693411641178
0.0551820316008095
0.013539648580788835
-0.015658852962364588
-0.053556102655225285
-0.11931908992386142
-0.024892398692351898
0.027467458097505112
0.04427735780958017
0.03738469187942996
0.019688558714955316
0.0016421051590585797
-0.010561938286016422
-0.015061752008020759
-0.0131816192296071
-0.007811115894459043
-0.0019415556352059432
0.002280220542352871
0.003909149647270304
0.0031005233646195945
0.0007588558187015332
-0.0018784917300057494
-0.0036159310190757047
-0.0036012778565706334
-0.0015594053573794522
0.00205027543369769
0.0060048271171939125
0.008506293633132034
0.007663242634502043
0.002249125125168881
-0.007444805320155657
-0.01903838987159458
-0.028287386840652223
-0.03059895352939556
-0.024076923339324513
-0.013828177922675556
-0.016569745422477175
0.13615322076128655
0.19834090684188435
0.11553907114164036
-0.16289418900048747
-0.06724151645751078
-0.19135155630011963
-0.28305807837681846
-0.04592656630623522
0.24624901222575707
0.12518210490462933
0.10052316381504703
0.036290310667680736
-0.06330084638671349
-0.05632444778076387
0.14579815447212705
0.19717323370222833
0.14418666094313354
-0.14308116575807206
-0.3404065525598432
-0.44817680186661674
-0.3880021030497552
-0.022128703523658252
0.40705973349999236
0.8290076156062811
0.9055546801301818
-0.5845179694054276
-0.5314263326311387
-0.2585201823585949
-0.28113416623937254
-0.27628368478065135
0.928240957447137
0.14575803846834928
-0.9908589416808321
-0.6586474961777498
-0.07818531159914568
0.6550736730009302
1.7568581038640914
2.3800619389050803
1.0984366118000128
-1.1575866768183407
-3.9560663224845243
-6.88672004770583
-3.4329029012840446
2.1737118521967385
10.374281740405161
7.5334045739084745
5.605941638623432
-2.063893221700027
-12.049563818231254
-12.253062419660482
-2.4875218122347156
3.371111248514605
7.246523573498823
10.709856579410767
2.874610938765161
-2.2470763302481855
-4.658345396274698
-5.051499879199972
-2.622236488978046
-0.5972834824230914
0.6308394257103789
1.9676146657795868
2.5602370026453527
2.334429566740526
1.825782412585792
-0.43686944605078026
-1.9976673540735779
-2.2456345760080625
-1.778987789035702
-1.244778489450388
0.4975965809123152
1.6892955410716326
1.7048850989803577
0.6706045358836453
-0.07186448183895777
-0.2219169415491107
0.10629355762447124
2.2730904714491316
-3.5668664938366996
-1.753105080639911
-0.4568915088283748
0.10313151377247716
-1.2329628972355682
4.696767025193914
2.8565050950374293
0.37140665284384966
-1.8031779676042732
-2.120929396438459
-2.458368483496059
-1.5850688075892667
0.051405944533452264
1.616132487225198
1.6940083258124847
1.8865535660396457
0.8737277518085442
0.7906292929314194
0.9275875619719465
-4.280747458115848
-2.2441549315609133
-0.4609663294334051
0.124219533087346
-0.9648806167783083
3.6849633348158197
1.770702523854017
0.9126926608751832
-1.0083862203798453
-0.8050523104508275
-0.45441487065911035
-0.3367071986825757
-1.0898822306232012
-0.31513720298312553
0.2500920652216525
0.2932759231131187
0.03901311055774703
0.3384512995184775
0.7635973640609204
0.3298694975626926
0.062074636393107424
0.008006701311242873
-0.30809380117527685
-0.6095108537013916
-0.38993024318513225
-0.05451267025134149
0.10914775202467075
0.12855880653208684
0.11926042830722772
0.044310548245284964
0.07153361363924238
0.13742069994420839
0.123630841067126
0.04915291972838584
0.07823458493060112
-0.05891987700742904
-0.23856723981715738
-0.31676991861605036
-0.11152999823843804
0.0009322135120491964
0.07510754242640237
0.17487728303405423
0.3500298181686368
0.21928807687915722
-0.03407546444919789
-0.2530101061364103
-0.28846864632570735
-0.18044417313863734
-0.1461973376962734
0.2204257396489029
0.3402910149467515
0.2369189669141733
-0.07207839743623609
-0.1762899811998376
-0.2677311534283179
-0.13485698600662502
0.03964120990548106
0.2753412785782257
0.18699178529771557
-0.02184391970261756
-0.16089200431686565
-0.05050526016124679
-0.11647514069634156
0.014734882337496872
0.11871553656391677
0.17419034257379795
-0.03594427405579338
-0.12239047910092732
-0.08644102024492245
-0.11811592704011561
0.002566832974384373
0.10076136066588134
0.20018524696323675
0.11797758819836986
0.06395057916939653
-0.15508956004728433
-0.32846918934032765
-0.23706653779301112
-0.05560036919579277
0.23703075199092594
0.4432780618371091
0.3361264323658162
0.05958507092526552
-0.25666842324799544
-0.472931506035766
-0.41561681237410375
-0.06489530573044022
0.24007791334957984
0.38038645263611826
0.22993924592545834
0.03243668380091269
-0.009455607683414127
-0.13088618877001873
-0.19113671251311817
-0.055805827189651325
0.019071910255687195
-0.0027992761906263327
0.06555985583941397
0.03243086395813703
-0.07818901117888566
-0.03410921825331299
-0.0032047917951700156
0.03868615240655932
0.10172640210346066
0.1798105437524469
0.05363475129390696
-0.1008400921198332
-0.3008981565434278
-0.14704286029351452
-0.01916143657256025
0.11875371854793754
0.10683705493133706
0.17526277359380765
0.13348550920540148
-0.03312391757481704
-0.15833819184465578
-0.08422960832623147
-0.04884171094616892
-0.07673603345799027
0.02498916005288944
0.06495785879383922
0.061733290093282475
0.03664711912737194
0.007758993376226218
-0.013533046656253413
-0.022991557360767734
-0.0219009281005596
-0.014472698701354716
-0.005380680184305501
0.0018973297324925346
0.005734566161887683
0.006183536138687029
0.004340436547537063
0.0016168156457536244
-0.0008191947705844853
-0.002319456369937945
-0.0027671358478444387
-0.0024164296286160844
-0.0016739623844518091
-0.0009123985005284528
-0.0003641927894228509
-0.00010114312958164494
-7.615859025384352e-05
-0.00019152258190293845
-0.00036051811467253773
-0.0005409833872377764
-0.0007342764361323784
-0.0009567400173937946
-0.0012003355789831083
-0.0014032184531345775
-0.0014488918761914654
-0.0012039385457000714
-0.0005899005013432425
0.00033273779023449367
0.0013061474199971717
0.0018863003454289242
0.001556917600873231
-5.257302181192324e-05
-0.002894106452653886
-0.0062768893473497366
-0.00883152796609909
-0.008790066768853199
-0.0046297276628051096
0.004019217191809718
0.015480855910528595
0.025576128653083154
0.028026343337142177
0.015932685974785837
-0.01590108302486783
-0.06862187183479854
-0.13824649470740927
-0.01710837305394106
0.10175016634043392
0.01833871079255792
0.12015701050458447
0.18026267304482693
-0.03903610797011928
-0.1769530690974607
-0.06200063647092949
-0.10093677250348373
-0.07287698881326483
0.06931933601509938
-0.009142929451987244
0.16265041167264727
0.048539755186533806
0.09556993036630487
-0.07063025191912549
-0.04545022481018489
-0.24191218853685792
-0.08718364352342353
-0.02102864366855529
0.30419459524923825
0.8251994991002546
-0.5247210254770331
-0.20094323569983127
-0.22977487185778164
-0.3964854390702526
-0.6474131448964231
0.891258800112069
0.48386938323214246
0.3576239936690165
0.29090457900599975
-0.1749784947515371
-0.5041354342731129
-0.5278430787495197
-0.41696478671095716
-0.2788883440420282
0.21669830822231856
0.5908059633550904
0.7042090586919971
0.5232033522286449
0.3176356643841152
-0.7053786460505528
-0.7432662750630848
-0.5372073045520654
-0.3320396561181752
-0.0714618684360354
0.7713639933407836
0.5413250819053205
0.14760917807335366
0.027522967706384825
-0.06204464332118169
-0.025943586160550366
0.007109790668188234
-0.06982871921658282
-0.30051237572531764
-0.23944284785924488
-0.3502267273881445
-0.6333737101449634
0.11802356021444661
0.44514468689797293
0.7525112837540436
0.8647885172600631
1.0349849216711915
0.21628573185287828
-0.2094496767881998
-0.8754947254126854
-1.4931682676752651
-2.3872852270613536
-2.147912151435052
-1.0140830427755885
1.0392640976307588
4.791062199603869
10.359278112995511
2.3992875094650823
-6.629612804233857
-4.59083652239888
-5.365740093694108
-9.73480497173602
-0.80173146683205
8.820265715206922
7.799407615511878
9.503175878126859
2.493120165362928
-4.173895276512393
-10.893902275318947
-7.126096654707889
-4.5267966250572735
6.012626046642153
3.8070901328196767
13.435386272254844
-2.58649703050123
-6.371333460090732
-8.048845862572247
1.9299862214408092
-1.3404776885489165
9.175567791673522
7.830207723495215
-5.672832682257603
-6.1523079499754845
-5.3994221439122105
-5.331324353051009
-2.9445485789295405
15.149085747491528
9.153273486102107
4.3020086804615065
0.42235863686306896
-6.95555988396913
-18.333187241818234
-7.124346290409648
1.6549581598437295
10.40597175488302
8.027431096555189
8.96409476844733
0.5275378309852291
-4.951907886929848
-9.579883761683933
-2.1446489747309436
2.6232539017903007
3.6271700950485406
0.5733074690296179
-6.040345668930327
-2.2786976119038
0.755613227679405
2.5635005279170895
4.086826811041228
11.658119345964392
-4.43502424118698
-6.145992069462434
-6.1126408212557175
-2.9157157735709984
-2.911855948300707
7.093189595205136
4.187570621751305
3.4521923794429945
0.16118456133198122
-2.835665656553461
-2.161649264543702
-1.275712449254081
-1.4495464677603376
0.16749746835371482
0.9699759237274771
1.022504859665431
0.7347244285607836
0.33377361809458994
-0.030068738962980786
-0.3297659672803917
-0.26385902045138343
-0.22961572930585694
-0.08417823619358822
0.0928500366688042
0.027979160555582114
-0.12863289566535757
0.004052447288287125
0.03672645239479409
0.002372183338866632
0.14561323123336217
0.11185086740011731
-0.061319433847021126
-0.14943140571776217
-0.1440494331750428
-0.05504252029933325
0.08677906864693234
0.22792339803363004
0.2948038330554254
0.2043953770919099
-0.11583377051402509
-0.3023730274556964
-0.533212684163654
-0.5194599463255934
-0.11921811676139603
0.42604351477362146
0.6428080389758828
0.7826539385275859
0.6041046440402972
-0.2102247412446881
-1.0053831837565044
-0.8939009283532009
-0.7102551948822667
-0.2015475775295762
0.5400900351577858
1.4175522923210524
1.2694319878443827
-0.15966490950370293
-0.6040077761701981
-0.8238411097711417
-0.9400680248937197
-0.7866973247589938
0.6989117791690421
0.8469110469161977
0.8039203504904039
0.28527238027769297
-0.2496667469897146
-0.5940510186893943
-0.5718235285062124
-0.41475709573364833
0.047645046249664535
0.5815852951382462
0.7335598940285987
0.4206207676334695
-0.06111590892301372
-0.4069220405133766
-0.6624343606433792
-0.588948382307605
-0.25262267147891443
0.1533797292005999
0.45782507617523494
0.6472503818136915
0.41017946411512385
0.10848234227143125
-0.014912321710988604
-0.19497815171497074
-0.4835055752440392
-0.4864713031936807
-0.11760162466544388
0.0202136020056882
0.023201696366749017
0.25117305060425127
0.2804191477182669
0.2587610753651832
0.07406618673547014
-0.057627113193885415
-0.18450781899798063
0.0027008730321682636
-0.20148760043430794
-0.09124892662695056
0.06935344956563236
0.055296672636795205
-0.12019154890749914
-0.014185888846535873
0.03235054404774425
0.07905246856476175
0.1722157213794914
0.13594191624465227
-0.02926161016861256
-0.14044942272212613
-0.2216256882115645
-0.09318792186664415
0.03437880576230801
0.16092370983844478
0.09271959768468369
0.23768142893809902
-0.1972362333737822
-0.2057619566760317
-0.1811369085652922
0.0829038640512213
-0.012513026862843508
0.3219264556368093
0.25919081335078503
-0.042203175670365814
-0.22828588428061866
-0.13436524145808135
-0.17032713056433835
-0.11277764963637263
0.09236558648999135
0.11728057328446863
0.03363424503187182
0.09369740813044293
0.11659004692894975
0.0832736442850659
-0.058543932283738255
0.01897333674701521
-0.15809483756084955
-0.24772066088871497
-0.07970085581850525
0.1478534368940585
0.06324214847332357
0.11022736424580001
0.13607801255687274
-0.017416966587306595
-0.11825754545739349
-0.14472938057538368
-0.08459633859305613
0.06462376372610426
0.09367486590710876
0.17946378957103293
0.08560869787363132
-0.032332367008941404
-0.2172404660217314
-0.09932154433529418
-0.08770244328841963
0.03193772472545893
0.09293277207419301
0.1383707549357977
0.010515550889243584
-0.05784232974853604
-0.048413812771919126
0.04116152180716722
-0.0014211378833441962
-6.260169698518432e-05
0.014063326203457807
0.007660300881354001
-0.04926023838460966
0.021606027877849605
0.010592652571686763
-0.0781765665484925
-0.027530039477664116
-0.010703184707844366
0.0028331160645327052
0.0402871193172535
0.11903953164152448
0.04278915503578598
0.0018874966956953206
-0.021894732217348337
-0.04753594004912488
-0.08647618386144622
-0.13685308728076284
0.01740823760321599
0.0018606349516274395
0.04237920731528356
0.154575686742528
0.13557280764210522
-0.03862508831098049
-0.008753532807115137
-0.02195477159407699
-0.11863505434145774
-0.12059645349169701
-0.02414656527836639
-0.0004102831665405397
-0.002929665649197288
0.01947393664418472
0.10804419180881988
0.08163413110169228
0.13006058786689623
0.015581607907366901
0.08268039685703807
-0.12623422607294793
-0.25395542064167287
-0.3164788012249283
-0.10122822326102614
0.02241303845469968
0.28342725771375643
0.4886405654013538
0.41203174230974426
0.20229901092714603
-0.18984179438141016
-0.5726451825805087
-0.8786959322430178
-0.5531038356960345
-0.17711676811795807
0.47352270708960065
0.95203770138204
1.2739913803221217
0.8897052661671361
-0.4870656946378082
-0.9986573959712268
-1.1381629935246056
-1.0584409794437488
-0.5300526347104372
0.8368770117740206
1.1175911364195437
0.975633929326134
0.3812284381331795
-0.22765016525454768
-0.5346009830933028
-0.6973938440964796
-0.28731144135142084
0.5623451252029018
-0.41471071762316236
-0.013967895123963837
0.022535273082479577
-0.025160060756190008
-0.29171122828865875
1.0414504419401158
0.5297433602489758
0.2740328200765758
-0.24317714681967442
-0.7026272049014115
-0.8940190644406887
-0.48665725457625164
-0.243252380749979
0.11918774278704847
0.43465969885874367
0.5867930682013333
0.6342543230194007
0.9938581446950046
1.3016908015921866
1.1549833585228515
-0.2863006561612307
-2.8871922706095723
-4.788460862997934
-3.80009258121811
-0.7877673400419254
6.76551489688824
4.323811571998216
3.3435247571548303
1.5417100286115164
-0.5486914188166018
-5.777728897430545
-1.0568541845432038
-0.675601906462855
-4.992852805159222
-0.37946895581819806
0.982554100265227
1.5078181977808631
3.5404008295790943
7.755712669469718
1.5567045293430803
-3.0765796501501854
-4.9245237050271795
-5.385785623694285
-5.0256597776452745
-1.3417734899112501
7.632037248255381
5.1834881409464275
4.019335006425984
3.7757129405107195
0.4269947163026946
-8.049539823085963
-8.510247168028258
-1.3925044947999727
1.6541328989585267
1.9914565158644582
0.3354216405718965
3.7620259663399715
-0.8658031026880032
-0.3214291162309092
5.597408032793733
4.158480405143602
1.4622094609052012
-2.7740536418234703
-10.351911460680833
-9.247971100181877
-1.1861313949400971
3.7766567896519594
7.317097764187651
10.377309900963317
2.2251162809983245
-1.7644540925906378
-5.766555911549257
-5.317830916882445
-2.6793163313937414
-0.5313025484184163
0.9096797903845169
3.7696507956181535
3.4878158436431628
1.9996382838354134
-1.3761423296748587
-1.9186105315323256
-1.991805901656802
-1.712981318606528
-1.0729313209900764
2.456587461775128
0.6394609837625512
0.7616764602461046
1.1434815547811525
1.1189736638773016
1.097334336614314
-3.3109615497353233
-1.947497231170916
-1.3986664276434881
-0.3785849637975579
-0.8180166526298824
4.97094886290935
3.1208552335964277
0.3000540529197534
-2.2848401281019832
-2.5839206820456053
-1.5548164716758808
-0.4420964887563522
0.8678083673927827
1.8140717055474767
1.2860611348359388
0.15200162010324936
-0.7747171657224542
-0.7250643244411672
-0.5369831903194003
-0.21729550021377153
0.2772757759183995
0.23396210416053784
0.15905107507741773
0.14655893757095265
0.0522290994237293
0.08032790628050049
-0.014284572449509824
0.0895641915368289
-0.09580319368449729
-0.23935443640740006
-0.1682974726584797
-0.056148996729965234
-0.22604484203870182
0.03059011860548368
0.22436615323515152
0.23536820600263642
0.2877387128959009
0.34040079448032823
0.09860743649097217
-0.35574140822098377
-0.524308273922146
-0.4572484527345224
-0.3367706348617142
0.11320737145317837
0.5943041745809194
0.5908016457739748
0.3344022225586759
0.19131258253064182
-0.3233598595904427
-0.7107892096929358
-0.44870525104774867
-0.16375600279695696
-0.026648753120118544
0.6302168862395876
0.6831487515450078
-0.009271396882092494
-0.01741347073248178
-0.13347462498389373
-0.5525716920036458
-0.45426527802180305
0.003766050516589295
0.07412916767613649
0.19317101575380985
0.3501936154725359
0.6666825142117467
0.7979312836960492
-0.8377096425494325
-0.607852783168532
-0.4102384638488585
-0.43353522712726156
-0.5510906808499646
0.8484663921495458
0.6036984573890205
0.31552490191033156
0.09629314116775473
-0.05299397337958196
-0.034291809892164515
-0.21970517334899775
-0.20619046790956758
-0.1705071085887621
-0.03481564358329328
-0.04907528039683809
0.008420946612882205
0.015137832514253744
0.07847507685437824
0.10675823640903401
0.18382727531726184
0.15290188595774662
0.013081322840331294
-0.07152933073151635
-0.15374564405152885
-0.28269802400705984
-0.0877388926743782
0.028009759685693702
0.08316706000746697
0.1055007153520566
0.1167782359566999
0.12102220116196616
0.10052227913990291
0.02112790710176346
-0.15492524748356315
-0.2533289928115201
-0.2754118224134456
-0.19469716962373176
0.23581413031436935
1.0690583316552662
-0.45039016490305583
-0.09302180496467317
-0.041451408918327645
-0.2822299278525242
-0.7997679198097734
0.8222240015056039
0.39171245312517655
0.09733239204868879
-0.0969902806470421
-0.2476769561370165
-0.2194345886038761
-0.07139333835410358
0.15325939390252197
0.23242179196548537
0.16678366291175406
-0.019084676284303072
-0.27542130980703955
-0.3282913910468725
-0.28755870296974956
-0.06504953767872187
0.39882652254210155
0.5081221702964559
0.596392454791091
0.7347938930193583
-1.0335806998064063
-0.8421898883131784
-0.5520526560760818
-0.3269848040671154
-0.24540902417274024
1.4552360391152268
0.920458348586761
0.23224631452098699
-0.4068593910281415
-0.6560929966703085
-0.598503088092177
-0.30349465321182234
0.1935425742816087
0.4895121396699571
0.3965070320250011
0.12201583835274704
-0.14256655989259828
-0.22103579701461462
-0.1422823394300241
-0.1279839393475137
0.015570300877719049
0.09860073178542503
0.14277815816819187
-0.026753284288321365
0.011298273109920858
0.06997432474038447
-0.04690421363743957
-0.1431615046830686
-0.027736256181783724
0.08728411225559586
-0.012579157055281062
0.05590192029759243
0.07432922158219951
0.02490716055155781
-0.10570891284881569
-0.12204851566569723
-0.01682884720089557
0.02901726641678682
0.04291513311753949
0.0550245073849685
0.0925092006847209
-0.024418748495165576
-0.08387290791054602
-0.08160991238818682
-0.01965613471938531
0.09457524157582406
0.048527181461521796
0.02496609416839019
0.0037070736702492645
-0.03513033633843676
-0.10714350486796553
-0.020423277723493147
0.02558223874854999
0.0386818272035461
0.03071970287510008
0.013876630910460385
-0.002232786194310482
-0.012005639537514635
-0.013866638632317364
-0.009323453194460013
-0.001636738842127072
0.0054641843658760495
0.00882544296599859
0.00665865535896514
-0.000894499967257829
-0.01148714457693117
-0.020794598528080722
-0.023545049342557262
-0.015572989731707615
0.003178343940297804
0.02522522922043786
0.03263780982779563
-0.004164632388277875
0.07512595312630306
0.025560230773884245
0.004937222621169682
-0.016116467064580774
-0.04403102774050226
-0.25486921110251376
0.007692473603136909
0.027365751499144223
0.10375177177741585
0.13713734614174428
0.2135208356579335
-0.20696404495547488
-0.29739475031977675
-0.26878886492280996
0.02568887677340523
0.4875725133629354
0.9758115499978793
-0.27775868708357954
-0.23695249492891735
-0.4192533201737177
-0.6572253117235348
-0.6794635575956536
0.6786528331601246
0.4355555344146175
0.20807667977177635
0.15840471907082337
0.15938240856110972
0.7864064691432642
-1.2645572230332127
-0.14085079912816412
0.20838939847419774
0.0667115383282661
-0.8295763000822085
1.1129886603113692
-0.0634729567774256
-0.48516184033220255
-0.46833357996211944
0.05617798919758665
0.5180770343773844
1.0887867614295137
-0.12149588950103285
-0.2439431650242175
-0.4111651497861701
-0.5105299521422318
-0.7486729890880582
0.5588133821684013
0.368599882373253
0.0688414632471423
-0.16999813669533478
-0.0392042642428774
0.27892722166964673
1.102887644241179
0.06850602005123027
-1.0309440184398504
-0.3908123384910068
-0.34476225363311624
-0.7357638867281633
0.48287446689163593
1.6211580971887027
0.4163135345028429
-0.39568781786887675
-0.8932383614544542
-0.9741224917835086
-0.7686536557975855
-0.07223914001266168
1.0080842625962618
1.8183952431618864
2.970872280342695
3.035587271737482
-2.8884955492867515
-5.172342961427033
-6.321515416500216
-4.412174089621909
0.4500739353953426
12.70560851675884
9.120583327959217
5.386890537465539
-1.9128552842206394
-12.200607122654926
-12.66498023695963
-3.382337700125673
2.377670939137443
6.623338461869703
11.652497388653119
3.8776110153662064
-1.6935195901685587
-4.619892812963774
-3.8975174247338837
-3.1105993521244106
-0.24746781107697713
0.29917956099425547
1.9166955163004948
-0.01926145376604726
-1.439885189672653
-2.1062524711231583
2.107954414668773
8.442816554743017
4.660472564280524
1.085809860451146
-4.144393404941629
-12.75765949849624
-12.164408879694355
-1.0237008716993894
10.773487033581803
10.839464881262336
12.84408872953175
3.40466416046811
-4.925844802991247
-15.25603519363926
-14.83405522398316
-3.766426581922387
4.585481196563696
13.945464388904064
11.255377097045267
9.957925324642805
-3.305585054053648
-15.148712582463343
-15.656770934880415
-4.105111298357014
7.9520436726492685
8.174481111413446
10.496043623388845
2.242159341438595
-3.6706597214198537
-9.19959572726441
-2.4140060431352652
2.31425012646806
4.030770162526748
2.381689472829538
-2.325270637049068
-9.167804628126957
-3.7821660815353257
1.9177592410968372
9.917066343752872
7.30592037430831
6.694848870626497
-6.037824985274126
-5.887892934815235
-8.730950993820487
-4.23960988705971
-0.31398586745812007
5.709256976505712
2.758910852939573
4.634111918403401
1.3190379742039147
0.9542729603739902
0.9164676505853774
-1.0338829148937831
-5.443807863028516
-0.6399930040993033
-0.5206333000830822
-4.967343027031338
0.08393620665063495
2.9405209270775075
2.3064174715133836
3.2200078014794045
5.308986637382295
-1.1451326294890198
-4.51561790521964
-3.5766776571146695
-1.8037242599777086
1.2603497210815897
1.915896475470265
0.7042259972360706
0.5428245250376235
0.2508842551425784
-0.5040840177557989
-1.0334239561278546
-0.4394050624979265
0.3736967049413735
0.6834496296156338
1.733822755031169
-1.467870110114183
-0.13541720555978576
-0.27605830407483684
-0.6667971367863481
-1.4500051738183324
2.2463671928940228
0.8726157711995942
0.024602251386129818
-0.16613661424817952
-0.4129931058988149
-0.8356841691590683
-0.3216500541273937
0.09558426695741534
0.23442664047409414
0.5451234548006142
0.6851427545179878
0.10412557962960489
-0.5544382952856803
-0.6384541058414029
-0.47177430160767586
-0.15171728236956078
0.43408956852410063
0.7767427216845466
0.5151429248325817
0.02039707830694343
-0.39674768050490766
-0.6596254103399201
-0.4939664431555624
-0.0055954199275948776
0.32463911293110165
0.6317043093592042
0.45437611026810404
0.13299560511539615
-0.3768447985352605
-0.47888945272337885
-0.5117905529371803
-0.3403912722365852
0.028077703100591923
0.4041244249370307
0.5643616049820487
0.6063140215305998
0.5268317072557963
-0.3672189727734501
-0.6203591363505859
-0.7786548254815089
-0.7508963794400786
-0.3984619204298999
0.8422149145347326
1.318004885643405
1.124477334453993
0.5049489299947397
-0.5048228078922937
-1.7982777001137373
-1.1192389937487053
-0.8224894688870406
-0.10081736796025063
0.7211353328099832
1.6543750355720346
1.1205817150060906
1.6810557953185352
-0.9523683133195145
-1.2270582075243581
-1.0132026024714063
-1.0714076927891951
-1.3701357230066569
1.1232536623869167
1.3838571919418463
1.0344443935869487
0.456499771758075
-0.2599644674969537
-0.5172549631787383
-0.773650458764807
-0.4945185248388674
-0.1148073525626217
0.3738422047768713
0.4121619140491821
0.44999027521125223
0.12532386550163993
-0.14412561588374598
-0.3552787764570917
-0.30625691841627445
-0.18495508736111904
0.03265138259715819
0.17259378051907762
0.24592200203750703
0.23315276365568777
0.27875990516174887
0.10074331431317572
-0.18560833851229497
-0.4370666401844655
-0.6568679197798796
-0.3865185319747407
0.07801284390171923
0.8488742115566039
0.601579475460725
0.5422671615118931
0.00250177082229697
