0
-2.943489432508209e-05
-2.9434894325450636e-05
-2.9434894324578508e-05
-2.9434894322175377e-05
-2.9434894318536913e-05
-2.9434894314739187e-05
-2.9434894312561353e-05
-2.943489431401692e-05
-2.94348943204975e-05
-2.9434894331726012e-05
-2.943489434492469e-05
-2.9434894354732525e-05
-2.943489435434788e-05
-2.9434894338044292e-05
-2.9434894304616618e-05
-2.943489426059928e-05
-2.943489422153827e-05
-2.943489420956038e-05
-2.943489424628842e-05
-2.943489434189256e-05
-2.943489448343083e-05
-2.9434894627812152e-05
-2.9434894705532934e-05
-2.94348946395991e-05
-2.9434894379122473e-05
-2.9434893939552068e-05
-2.943489343356473e-05
-2.943489307196991e-05
-2.9434893116778104e-05
-2.943489378179592e-05
-2.9434895099279178e-05
-2.943489679865897e-05
-2.9434898264114132e-05
-2.9434898637664193e-05
-2.943489710144122e-05
-2.9434893304032802e-05
-2.9434887804409815e-05
-2.9434882324869938e-05
-2.9434879577488467e-05
-2.9434882502055157e-05
-2.9434892949464045e-05
-2.9434910137529882e-05
-2.943492950814262e-05
-2.943494278192446e-05
-2.9434939878520948e-05
-2.9434912839043164e-05
-2.9434860979719505e-05
-2.9434795451574526e-05
-2.943474061428064e-05
-2.9434729697970304e-05
-2.9434793575503027e-05
-2.9434944179515787e-05
-2.9435157628306958e-05
-2.94353652074277e-05
-2.9435461211115257e-05
-2.9435333565139782e-05
-2.9434915362598812e-05
-2.9434244053391177e-05
-2.943350356013725e-05
-2.94330186550226e-05
-2.943317665952056e-05
-2.9434272870762762e-05
-2.943631161987912e-05
-2.943883525185114e-05
-2.9440881515276894e-05
-2.9441164894251067e-05
-2.9438522501605708e-05
-2.9432558348701925e-05
-2.942428362762021e-05
-2.941643514833434e-05
-2.9413128190325723e-05
-2.941862852328503e-05
-2.943533750621356e-05
-2.9461526491609436e-05
-2.948979155109587e-05
-2.950740815913014e-05
-2.949951383467056e-05
-2.9455191710664716e-05
-2.9375140724390002e-05
-2.9278073341119527e-05
-2.920194931564484e-05
-2.919644014750891e-05
-2.9305247908398482e-05
-2.9541103213221502e-05
-2.986151454453555e-05
-3.015765621988234e-05
-3.0269497292539282e-05
-3.0034946635148914e-05
-2.936853864838008e-05
-2.8348028118740213e-05
-2.7270809395793737e-05
-2.6634840575926934e-05
-2.700965397248584e-05
-2.8797223967029685e-05
-3.193661078733739e-05
-3.5665303010625656e-05
-3.8487783296944775e-05
-3.8487087499854895e-05
-3.402489901561769e-05
-2.4710676777568295e-05
-1.2318368105485915e-05
-1.1685099343683007e-06
2.522893272723677e-06
-7.392455497471707e-06
-3.392585162232191e-05
-7.364675692161755e-05
-0.00011463440435883308
-0.00013742461243377923
-0.00012022373535354083
-4.829703276973193e-05
7.467228136719933e-05
0.00021770733206320756
0.00032196063942657315
0.00031353705649584947
0.00013117500869712923
-0.000236231006953779
-0.0007150445864665193
-0.001133983259672669
-0.0012518314568348142
-0.0008356715587997881
0.0002196293831791461
0.0017656686385687799
0.0033269091470933335
0.004145882653368632
0.0033939847888719704
0.0005401216045078726
-0.00421311978813946
-0.00960260068158154
-0.01331443490223531
-0.012527534059418375
-0.005046166832082396
0.009169375985367677
0.026552549080824786
0.039249381630416774
0.03588185883672222
0.004086376844954998
-0.06549994364537513
0.025113569104796
-0.11558890685394116
-0.06824046748656526
-0.005821880346209675
0.09983595800145986
0.07006091247565849
0.11262668303458608
0.018942046415434607
-0.0336070022926071
-0.07492041307362159
-0.13353527590500638
-0.029208387478257367
0.030823085973847586
0.05114750971833537
0.044101097007944366
0.024390948524254323
0.004446452312685625
-0.008284855413803159
-0.011858141439478949
-0.008644004238136455
-0.0032177101509695645
-8.864522392584766e-05
-0.0018474190417295995
-0.008104431094931653
-0.015440591115712405
-0.018467105353772724
-0.011924319893189522
0.0065200457229156695
0.03346887247873786
0.05800232812787689
0.06197187071161081
0.023067048523787454
-0.07956710170972724
-0.058555928112873454
-0.1126344418260877
-0.024366434570064977
0.03756193811618331
0.1120092830650164
0.03709690116684114
0.042648933928790385
-0.0546159067462758
-0.05248955147815103
0.038120285082524276
-0.003746626848051416
-0.005333789633241582
0.0037337957424733318
-0.004872290740600654
-0.05505192035939861
0.03602609484455975
0.059281293524018286
0.014247854315501102
-0.09107110859111131
-0.04114590800740278
-0.015094731541147816
0.009657640659714256
0.05276396637594288
0.12678932167591656
0.03523504722149404
-0.026097520366384137
-0.06464575962240654
-0.08533264038968309
-0.08620617162073985
-0.0578302076354205
0.012651615436664829
0.1338595068133855
0.10181075347361784
0.09452400292721055
0.07257178938341687
-0.013504518260547667
-0.21066685464047386
-0.14972124970760525
-0.035307250531240036
-0.043124153721215336
0.07478159749528314
0.17887220765679038
0.12925273883422078
-0.024697327693086593
-0.04969289185612924
-0.12903085186785254
-0.06041669477580651
-0.053865447312918646
0.06870674171236348
0.07251648945504327
0.10954208276429533
0.121251837153145
0.04604552246068891
-0.16903213828773092
-0.1551991840619868
-0.11205402412581428
-0.20534549130251686
0.025441415639563696
0.25118838925191606
0.3340686744168494
0.11229699778920912
-0.005541357585323175
-0.23502543187936423
-0.2027675188936415
-0.13218717762833096
-0.03443418418050573
0.09251633008828102
0.2577521167816868
0.06847221715484622
-0.07706867249346044
0.008184848207151256
-0.09727452454093699
-0.01795182340089027
0.024685271481507377
0.016924061222380656
-0.044596813037663594
0.04746321586331549
-0.0906224926796748
-0.0373324711660652
0.028938520754435683
0.12420290674827733
0.05427986757889272
0.013001857202920625
-0.015824233483223923
-0.05322231674202543
-0.11849686437734913
-0.02373711176170598
0.02874718049255937
0.045511330522053854
0.03848586071407386
0.02064424811669025
0.0024713515157912406
-0.00985493665924721
-0.014510762236179335
-0.012843056535970239
-0.0077128646862515094
-0.002016767770079899
0.0022398951378763687
0.004243163005021048
0.004186043196426351
0.0028373722146999092
0.0010897393386430328
-0.0003649019327976599
-0.0011780129809150484
-0.0013281581344071823
-0.001009244864980173
-0.0004929806276361396
-1.7253027657004917e-05
0.0002752205662570421
0.00034820479248826486
0.00024844351433478
6.680571878446613e-05
-0.0001001236915238557
-0.00017925418046359345
-0.00013856573017457214
6.113458454537873e-06
0.00019421624522143887
0.0003340261756437462
0.00032801690348432954
0.00010904782080839518
-0.0003190059640969426
-0.0008499027845843406
-0.0012720990487724612
-0.0013122848712961142
-0.000732131677220494
0.0005370089839135699
0.0022645754404655837
0.0038626340122883468
0.0044691464315430775
0.003214119641825288
-0.00035582993492565414
-0.005811415204697895
-0.011538939591175986
-0.014848426666133058
-0.012680135476143474
-0.002917123185937161
0.013974365493727098
0.033563824311357474
0.04711292397355652
0.04295802166779442
0.009824160543191487
-0.05856909479778892
-0.15919291186927534
-0.07779771314811483
0.008936047746912062
0.12711885533870804
0.09725864692747047
0.12712153692175987
0.008938634209647349
-0.07779954495221808
-0.1592028719712572
-0.05858780422676836
0.009801067684586474
0.04294019102899978
0.04711312456286969
0.03359313605727308
0.01403559494026544
-0.002835607289793116
-0.012606931889396145
-0.014824712992601286
-0.011605366151507663
-0.0059877054888413965
-0.0006189066123745034
0.002943576107482495
0.004320209673898329
0.0039793618019804316
0.0027436870488137697
0.001352732132409752
0.00021354009055201575
-0.0006273664659862645
-0.0013369589850232922
-0.0020679735066040624
-0.0027596435601605716
-0.003061336749217701
-0.0024335806253908293
-0.000420497735465666
0.002984832929235086
0.007028605266967404
0.010122266263453722
0.010167170348545602
0.005331845115430971
-0.004853228967326805
-0.018448095603638574
-0.030653021365630466
-0.034533291529807386
-0.023266935199172698
0.006255829410157303
0.04936572180881547
0.09062509738684356
0.10371021963380819
0.055449911051617194
-0.08608487133872174
-0.1414839557552559
-0.11157688662375967
-0.1747174543177486
-0.09234100048328969
0.17761297397159972
0.26333276576979736
0.16434867180076543
0.2460685635230854
0.0475531050437374
-0.2985781907443752
-0.4405109103545234
-0.18546695934927743
-0.09057709935019409
0.12982727409051648
0.3836301357494142
0.37556926999988044
-0.013097386933991872
-0.13341733506851183
-0.1656807597270344
-0.30960494735885263
-0.1750194056494006
0.22161726797794187
0.25404105729354315
0.07997761825166955
0.03741549551392136
0.0473232637919487
-0.1767498679682901
-0.11500751448084479
-0.028052593792241814
0.05219429995275793
-0.07483353622722264
0.01787717030289486
-0.023846586346397997
0.053116116770892854
0.09755980415887303
0.14497573005074468
0.013401832626791593
-0.09519278560295806
-0.1893624992804515
-0.08151994491203765
0.016692668647342104
0.09553753436897552
0.14586340592366148
0.15809084909350396
-0.0758915547279729
-0.157246102349414
-0.0730039345527926
0.009351101539374233
-0.057633589814605764
-0.00727267899514599
0.029496879781108827
-0.0915642151391498
-0.14473872500148
0.25145246619285494
0.4270405137407704
0.46514355883117514
-0.37883696649740783
-0.24551430294334153
-0.435957023620257
-0.3846862493706057
-0.25166515453763205
0.6635178762815044
0.4912024987505823
0.15736088492871153
-0.04193627875578135
-0.25079176300324857
-0.2502360358384049
-0.24856086522985513
0.1274492078620006
0.23687197811583208
0.2259442450790912
0.03051189482041336
-0.016871926916059373
-0.17514819390677472
-0.2819237736088473
-0.14501741324422446
0.0574486577038818
0.16790717419657253
0.23493227762837698
0.29992100774642955
-0.009380117558080353
-0.2764415874506777
-0.2875245463152917
-0.2237017787130949
-0.059610262188283025
0.2287602281121819
0.4505459851628364
0.18808521535801714
-0.006074706174744342
-0.20013902703222314
-0.2649971790680118
-0.25457085798571355
0.007497103332681916
0.1302454045601377
0.14739188398029152
0.10349996888728866
0.04018749843395325
-0.013184183135765581
-0.04267319864217551
-0.04764504114311271
-0.03567978903512116
-0.01698138128279293
-9.83569616944811e-05
0.010243933221047951
0.013303590324221409
0.011134009985874358
0.006871761055273919
0.0031975681823428427
0.0013965256267239564
0.001159485291968424
0.0010445904221391027
-0.0006265482696672784
-0.004745968163128484
-0.010616816221095352
-0.015711815890205344
-0.016254393831573045
-0.008698646497373015
0.00811454618988842
0.03070595304970855
0.04947872012396034
0.0489142147202804
0.00997273003525542
-0.08556086253772123
-0.04999250946009959
-0.08569712989799401
0.016259448948651008
0.07434479552066237
0.11251173200906155
-0.04434528674547341
0.026191490131349415
-0.05765863520208573
-0.08250538805928823
-0.04048911112350119
0.0691167438973832
0.037565207999150696
0.04477542661792712
0.059612041377881723
0.043503052039921636
-0.04254031289659538
-0.028799885444213434
-0.12805642388033328
-0.13001453237590394
-0.001251143407226263
0.10866805156880179
0.05646392575082072
0.09309126241196103
0.05398053775972714
-0.045922091674210616
-0.011699519753023177
-0.06373612198105372
-0.030855711401267583
0.056493343022168685
-0.02854471548782618
-0.10637519009322002
0.009385195816342996
0.1100733860082271
-0.011055537128522933
0.038430711981706264
0.049123351366443704
0.011165986680302654
-0.08228415199768793
-0.03080329596290913
-0.023458141471430244
-0.038242866689441074
-0.04509754593514095
-0.012319881319851567
0.08492876878955102
0.056269602311551425
0.09065416826947999
0.15624712525263834
0.006758493234228646
-0.20680385068226464
-0.12233866505058374
-0.15564569171183332
-0.0965403181230438
0.08616846845805036
0.2327093644970618
0.17827703625141667
0.14269293328428198
-0.07212764838346464
-0.2765773015645634
-0.08311316991802586
-0.0966613090823162
0.0901080158930704
0.09542731842526923
0.14277357986877035
-0.14597170578444035
0.04401951821535387
-0.0825138229565021
0.0683274003917835
0.0807682209375624
0.1323417208569272
-0.20151069096664978
-0.1422703094451013
-0.10463546369384563
0.10380189221756311
0.07931113788034039
0.21737329140458247
0.11002081173009662
-0.05234659457443064
-0.2748746864586057
-0.15107408672858144
-0.05908265722920164
0.03542592746180397
0.1698292430694932
0.17214897106158844
0.0507034036120427
-0.010048726387077532
-0.046034020381423325
-0.10400489488356618
-0.029360828411930454
-0.05513664704398059
0.005036421701509694
-0.041225773197823196
0.03190975948183316
0.06207232438299412
0.09101117535144869
-0.04216772608217005
0.09464790159157879
-0.0750497805390705
-0.13621929892613793
-0.0819943368854798
0.08516208554432024
-0.04946598951281946
0.08383980402209597
0.238209182621899
0.15429105768241802
-0.02896161807454031
-0.15801288195760765
-0.24749634456955538
-0.268747336445803
-0.15034494605519955
0.006701575275487232
0.30200416703408084
0.4052562817848562
0.3329296897951423
0.04137580514695055
-0.1603517907464341
-0.3823564379347253
-0.3209057917561578
-0.23264829686356917
0.07540574234508432
0.2384343609929291
0.3141861844721857
0.1605481064904981
0.01921621253375666
-0.0897875060266314
-0.16346719082948818
-0.20587986161932706
-0.01886672951972468
0.002098695675699162
0.06580078858780629
0.1790014663386704
0.1398925386327467
-0.0650255688580502
-0.05890211245406207
-0.06825293506739316
-0.11530943449931938
-0.012206719198020147
0.040955820214214025
0.05401275055083534
0.04203313010675303
0.020161147490306848
-0.00020321640627904699
-0.013034295313152531
-0.01725504504985364
-0.015018935662918433
-0.009640387502503407
-0.003937152457259441
0.0006090408255524847
0.003839670885908315
0.00630157335429328
0.008417665149524247
0.009853390493745201
0.009388540336454827
0.005421809693616851
-0.0030022029255082523
-0.015004160260803884
-0.027076062519801068
-0.03329168078377817
-0.02695184480114369
-0.0036426816234116075
0.0349824919066651
0.07807403432656575
0.10487354654618075
0.08791482009645563
0.000489906813226223
-0.17316189691245776
-0.22846790902160272
-0.1364224832367458
-0.04818035613264003
0.09143282578608838
0.32534215897141205
0.26745288261770844
0.09485158724286702
-0.04687645893431204
-0.22631988090804167
-0.30308701533218596
-0.10748327642539413
-0.030457245642905174
-0.02707966830599158
0.16828472789515303
0.22092823322436755
0.1763477836249747
0.04889215608301915
0.02178457371029087
-0.14255916362259508
-0.28686145797090756
-0.24483242199673244
-0.034555161931327946
0.13815489019342642
0.268969992777235
0.34344451238099005
0.13206393465000782
-0.0035753728190182034
-0.2946896579574542
-0.5463884363360817
-0.3259399064040993
0.03365391077532173
0.21327451659333996
0.47751694972267406
0.6478681867869248
0.2927124791971456
-0.25856827421808415
-0.48070165733587483
-0.6104165653672285
-0.4154982226785965
-0.19002440180987945
0.21930895067637127
0.3633319303984819
0.7344319378130278
1.125405059522113
-0.9804926011529717
-0.3834517043462079
0.2863570649636247
0.6323919647261461
-2.052688594803928
0.44558514482997535
0.06289042350722213
-0.3805711572610403
-0.8455791963551703
1.6485235881890696
1.3575291259944462
1.1826321939263207
-0.9051001571294758
-0.9882100513583717
-0.9003803459459961
-0.9379455272021529
-1.0208585246996689
0.8810623276660543
1.0663570091669097
0.7958561504844062
0.6024832659522635
1.2498669913320273
-1.2468239075666032
-0.7478898746225833
-0.6927843496129032
-0.4162849692345931
-1.10567432346178
1.389872271346419
0.506038147597073
0.28904409753969795
0.12712842979008476
0.3078459981972477
-0.1912556542614976
-0.2824734345788296
-0.1294902494635583
-0.3045757584164532
-0.35391070425682347
0.2213380793840245
0.36708277442208964
0.06641240323203756
0.1256680570714046
-0.036705202627557054
-0.1957517907975299
-0.12131576704615554
0.021706453604742333
0.07151902512337083
0.06543054747644084
0.035095353371203106
0.0029743026001786384
-0.018733472268634175
-0.026667036644853967
-0.023310197064307432
-0.013674333938442008
-0.002677934502607975
0.00627629110820323
0.01156771454231049
0.01288335604872656
0.010547929341827
0.005104337832805731
-0.00265984729463099
-0.011342385269068509
-0.018556401033930067
-0.021000800173568177
-0.015309429443623464
0.00028632668920780524
0.02388511458875091
0.048264950961728864
0.060699793565254075
0.04508481349552391
-0.01351237852559255
-0.12287765507026349
-0.07833732383595313
-0.06059010255560278
-0.0384349696474135
0.023583672760628137
0.15463435686265556
0.16769823196671416
0.05412362745567493
-0.014896688586905434
-0.08009387481248528
-0.18209903903097668
-0.150201816969028
0.0038851321080711912
0.08523218136368785
0.10889588394488568
0.09056143001110727
0.03872513740713737
-0.04864303973540779
0.017882010470579607
0.025371320911999187
-0.033344438100142024
-0.15236631093906927
-0.10890333369360718
-0.06496185256716042
0.02501805103393875
0.20253448018731746
0.293581137382192
0.1022659174312882
-0.1873743168768603
-0.20199755112416345
-0.16646377939494436
-0.09414084521901618
0.4157932804256723
-0.4266342825424524
-0.012545036433306865
0.2538060400111561
0.3457100294220049
0.01183739492034662
0.18445574240035778
-0.20237987603832744
-0.38990718939297286
-0.3757218003387471
-0.30750621773227627
0.5062195596476133
0.3712036095512568
0.17778675090296747
-0.022356147413017197
-0.025580170672701047
-0.07064542399173393
-0.022229182733342318
-0.15003610294875727
-0.10990909364882283
-0.1318950385721009
-0.01788729878163719
0.051500115366586136
0.30421184830960324
0.1636550893111023
0.040721366013144494
-0.06603592122205668
-0.16302223050898454
-0.2515205004511951
-0.1207165240736211
0.05189457613770461
0.09208699822126258
0.21586439283071437
0.21770106479185564
0.06578051214552476
-0.09283778718504426
-0.11837666326746621
-0.2608151566568782
-0.14526995384026473
0.03436007166393356
0.11160460406073067
0.13569064984397658
0.15686301440357653
0.014091411165411558
-0.07142682156195328
-0.096516691981088
-0.07203444245494096
-0.017537070315124442
0.043247656688436865
0.08563279893340807
0.08673509639917956
0.029027819061057798
-0.09489176004690092
-0.07739793091597977
-0.09313112465452236
-0.10098843359789113
-0.05210768653445381
0.09703059787212416
0.16966310426294273
0.15696708352559569
0.21456837704714657
0.07047828579754213
-0.15614357039492727
-0.3303641796034994
-0.2791766214379093
-0.1800088439310853
0.03486051490502743
0.2588631177213692
0.3835600097825717
0.27304407300657535
-0.05068191647034409
-0.20745109776793605
-0.24643282234787678
-0.2286268138096444
-0.012116931199561143
0.15544452922235072
0.23754209755000782
0.20683340972661007
0.04530368870992428
-0.25126254851679314
-0.2664550986627522
-0.15912838526759437
-0.06705161405634838
0.07999591601160974
0.34088878034042
0.3446293936720791
0.08044799872123354
-0.09867373006242332
-0.25990204138209305
-0.2682058249930463
-0.16657623067650276
0.034031546028596524
0.1525503486754317
0.2261835796835563
0.09535618288110762
-0.00860415873669497
-0.06946780734418004
-0.08570038644120946
-0.06612334746436689
-0.024786698217411224
0.022732868271344818
0.061045855135971994
0.07554514351563231
0.05334237577290707
-0.01443560569223016
-0.12917943654166608
-0.08165929736629438
-0.051301540705661425
-0.009302975595774334
0.0746951675284154
0.2245343012797262
0.051272961293060554
-0.048559404247547
-0.089468510833439
-0.09000760574946048
-0.06554893498237574
-0.02385297557018625
0.03510349169225604
0.11556331545136644
0.020686470582978636
-0.05208307671654933
0.08678007959998708
0.019729839255843342
-0.07436061859982897
-0.01519255241019661
-0.016094012524043796
-0.080738751571253
-0.002641599922356244
0.03235125622680762
0.04136518390929254
0.039178561995506574
0.034120059304625514
0.026592592206817776
0.01072156778170707
-0.02144208423457149
-0.07467117587415145
-0.14632946422423482
-0.025106918592656444
0.10634665819722061
0.06568039055194765
0.06436727984028945
0.10333912550313154
-0.027370089445871857
-0.14490573301699317
-0.06754799622645458
-0.009005991139398345
0.024749520289999504
0.03540495401493671
0.029781155709921514
0.016414656474330984
0.0026508433573015225
-0.006973607717496249
-0.010971753848424713
-0.010163072415054137
-0.006520463325048354
-0.002113623041982212
0.0015541917565301446
0.0037530423020233406
0.004390110111939713
0.0037249381987112208
0.002119677858267651
-6.697612857251372e-05
-0.0024341109419767693
-0.004422878714756116
-0.005262926282624934
-0.004107988053717426
-0.0004253726738665406
0.005398699644402718
0.011383097024304248
0.013410712711735632
0.0049911848004444365
-0.022656588793587562
-0.08039553936705224
0.018878531873834536
0.06006810527178468
0.02596285140851727
0.09850723095073693
0.06202030325386697
-0.09178528961608504
-0.15855580823292476
-0.1185867556128869
-0.13947013304264114
0.014724443650491782
0.16953169675291868
0.326321294658738
0.25518642458342716
0.09984194341245685
-0.20430272457347654
-0.303528321159666
-0.3999901381471423
-0.23708981148108957
0.0971521667165239
0.34879556225893293
0.2659237249959636
0.16691933633318173
0.11915061319718885
-0.06684455549529339
-0.22886221511180369
-0.23633160067096995
-0.17348236035604153
-0.12898625874548367
0.00553595182579321
0.5310754259430204
1.1380050795554202
-0.8883214288154377
-0.45052048678913675
-0.2164172846919472
-0.20178458603628682
-0.5676653336981506
1.3668483988858229
0.7043479528863891
-0.046611767020528994
-0.7748144852968535
-0.7602350826719775
-0.4710095649368404
0.02374938379324948
0.6227122368380036
1.1538129395834882
0.5480861980589621
-0.1568829293924541
-0.5794379354965277
-0.7342853455695258
-0.7739037835661781
-0.15365810011217795
0.5675318044902107
0.49468335627004645
0.34862087525011753
0.22226387656715318
-0.04386723323358302
-0.2621074273444731
0.321383323630047
-0.7450487497897053
-0.29256315852563736
0.0822145442740636
0.21468729484966514
-0.24462486789197257
0.7464430237583959
0.20172760758212893
-0.10148152154079171
-0.2156869656869399
-0.20462884959500297
-0.1207499956055009
0.012928248789455907
0.01112551272233821
-0.07644461817155568
0.023093080643518574
0.18864656538657965
0.08723543119956562
-0.04042958811745498
0.012142654131616692
0.016802787080042333
-0.08303514432770503
0.03857914369593632
0.10381955676742272
0.04556482818174712
-0.1793083595263174
-0.18030662620302723
-0.13026121527031942
0.02911214760177968
0.1734854800190042
0.17763179268558946
0.09814523472702738
-0.03773178476579095
-0.03466719472140596
-0.12387979908167654
0.04723606260921033
0.027071827956317934
-0.029380133763556776
-0.15263516874561242
0.045129497504248904
-0.030647299866414998
0.03823688828352553
0.07535310047414677
0.10202168356170346
-0.06832556065235229
-0.03252510546193374
0.003191776889509259
0.02638233741523638
0.02271546901012927
-0.019546834683413825
-0.1057966307639107
-0.033007724834480556
0.009887409237793436
0.03915903424348868
0.07206418389537117
0.12310994298376507
0.0025341573641918394
-0.08236791814080802
-0.1240989385999049
-0.112333225491034
-0.034195097523867485
0.12163798357633594
0.15835813481204852
0.06508352854995615
0.014784059782999518
-0.032323546487962936
-0.1207461668530016
-0.0897881665272756
0.03501337019722599
0.04672429680436013
-0.04264799749787733
-0.005734520536963778
-0.006125358481568483
-0.006144331382496169
0.025300635251548104
0.10635476001771484
0.038938601052423166
0.009718308960530473
-0.004543248481503815
-0.028491907649853793
-0.0789558123856999
-0.15792068005873844
-0.050277499605640576
0.0724188118481812
0.04302257908069286
0.08761335195662287
0.21603671204579888
0.017681373315502506
-0.1358947794665555
-0.08254054462102599
-0.05860538437608659
-0.089579997064922
0.014767205510185129
0.05988066374220974
0.061674017599100545
0.03991938929394273
0.012261054675966013
-0.009478233757436678
-0.02024728719236268
-0.020540488283187434
-0.014065969752517726
-0.00536261690742051
0.0019274444051089249
0.005872426550717752
0.0062586574976164515
0.00409641759909076
0.000952348496512891
-0.001651808277289905
-0.0026600623281747672
-0.0017083299348617442
0.000815171507051327
0.003855118367653784
0.005929699177981766
0.0055475428336784795
0.0017832998170791052
-0.005098804805361868
-0.013202340300250009
-0.019049472105070162
-0.018414689650211237
-0.00804822173750801
0.011944070252727194
0.03570915272343126
0.05020366395674182
0.03567471726775717
-0.03137854124422009
0.027002788866334455
-0.003425950198515785
-0.12341689648479937
-0.1171703443037977
0.046459593593680584
0.007993516208234193
0.007762159154356165
0.0754188155420838
0.2218532368331731
0.036427152268814475
-0.10902130756718081
-0.05028262819291404
-0.01818617077524394
-0.22766388037568047
-0.07232127147798847
0.07344979897143827
0.045361199104095334
0.076243136970771
0.18387616288132808
0.16422918192798663
-0.007066480366964406
-0.16513457942095675
-0.14157889423342107
-0.1511760403836016
-0.18518505637880653
-0.014505342214283963
0.19798858559967036
0.28057371850703516
0.23832705633993811
0.04786094675171404
-0.1359109921875279
-0.16326747585310625
-0.2700636438045878
-0.2630681025683925
0.08372635633764988
0.22040689682213474
0.20382146173589638
0.07869905180477771
0.06416337700631093
-0.05045162838535529
-0.10058679131949926
-0.1354199893646004
-0.005191233307030862
0.049381507711091885
0.0036763765991220847
0.05164483819866768
0.005075308409088556
-0.10948714190576193
-0.05576784165820464
0.005435719209504092
0.10832069054240621
0.07463602422272386
0.1090257237491822
-0.0009583526681056889
-0.07985675604264933
-0.15600814799256613
-0.053050199647082255
0.01572451268600071
0.048579254083974975
0.05258861435734661
0.03889219997871185
0.01819172991580155
-0.001965492310441962
-0.017682213266917032
-0.027533156381969067
-0.030816892234466722
-0.026392595845835812
-0.012872042546704415
0.009725990828880437
0.037485579263527684
0.0604619014665398
0.062267514185703934
0.022330423408721246
-0.07919155137933151
-0.05508614909619275
-0.10551130378883268
-0.015356351991847584
0.044283875358958336
0.11095729990059283
0.023845267740461
0.017130029836180206
-0.08473551598139761
-0.06957172287277187
0.06158558737448501
0.09457459618794929
0.003252059602062954
-0.047941823874052734
-0.10001994783484028
0.005207266976797687
0.029623916529529355
0.14292381671517035
0.12692784817782365
-0.01934316935157003
-0.2745687318251725
-0.1926122062413838
-0.10609838705857422
0.06183909205958099
0.17912388872259766
0.28491702002714575
0.17557314656710213
0.002268108896233168
-0.11778178707069306
-0.07950090870482446
-0.16421576890207346
-0.2178093691377626
-0.03914399522652293
0.018100566804006277
0.03102166109754756
0.08496622582764252
0.24949631423271348
0.15972841609043642
0.008285061266422068
-0.050148628160520084
-0.08363311995331463
-0.16235114313956606
-0.13907847897916115
-0.03642183390042304
-0.04398530126687156
0.07464070273672621
0.16816301438041714
0.08204318710242725
0.046129203731177446
0.06889324720240245
-0.06086077165023465
-0.16653118115757548
-0.07392458967347622
-0.0028708067586876293
0.03721655478651398
0.04735326835933416
0.03586782928138636
0.014159738618362373
-0.007004241081053418
-0.019849646072949045
-0.020614993238578436
-0.009674352364740183
0.008800759898748674
0.027497248694801624
0.037118155162421604
0.028329869388739586
-0.005479236141997285
-0.0651947071171312
-0.14392117757047423
-0.027268934756988605
0.10328650105447393
0.06469078258495439
0.0664104170394387
0.10695627249892463
-0.02548600869572819
-0.1484618671900735
-0.07867395382516905
-0.026354638049906114
0.006989270915195204
0.026683754089419403
0.039888567138584546
0.04965051260721653
0.0503335498308065
0.026153540046034224
-0.04651703238787527
0.006388635491575257
-0.03610682223873443
0.016992217039470823
-0.026481203773403163
-0.14069746360128915
-0.0854065391035177
-0.014396060583010354
0.11253452593829708
0.1173499979259236
0.3959150378212086
0.11873173415262736
-0.15820990246299232
-0.4755599185114835
-0.25320458055089445
-0.28208483580851146
0.06951064789136174
0.4369588219876155
0.6365024489864527
0.25086052780829393
0.03269523240718897
-0.4728848445503959
-0.4954382354052409
-0.4107773890954065
-0.13113491106294434
0.0793046783378992
0.36706575208858483
0.4426084838111565
0.34037094620602787
-0.00035415405471968177
0.07322100929196224
0.36173067825248234
-0.9362097729800904
-0.5730589146337063
-0.01656033606639723
-0.04059615909498196
-0.14473989819661093
1.0058738515174357
0.3355073957275011
-0.07671962043623781
-0.210971019412669
-0.2998720686420791
-0.2079392044349364
0.19319962356335668
0.2470604511288552
0.1296967909414086
-0.13776015241077597
-0.28237581578163545
-0.38200325391409223
-0.2816132562727252
-0.024940820905747285
0.5032662575363608
0.5361948164571273
0.600931694649523
1.1249674206394853
-1.3228248264952698
-0.96720714915501
-0.5609051008215479
-0.3447184900469752
-0.6497940003015582
1.860112112447667
0.926261122985514
0.2408662478657443
-0.17550344803321233
-0.5587040834227576
-0.7603758826204543
-0.4046232660175406
-0.06295804334461502
0.14238317709955745
0.5102189344249789
0.521037743736778
0.20346024099807825
-0.08056144420346804
-0.22785375776963335
-0.3688143629651017
-0.23581487832201203
0.06390026023050419
0.2644743199827797
0.14645541078725774
-0.06587166531797872
-0.11094760654064312
-0.0985010083643071
-0.1206165118302664
0.13410229932222792
0.16427923752376522
0.040307574869435175
-0.20677803440613968
0.010488613055926216
0.2398695299173622
1.001727300419937
-1.1907910880946018
-0.2071704048701789
0.12184070650824946
-0.18654414257934712
-0.8751128143252586
1.3300098091778056
0.4889289919347345
-0.17772445881590482
-0.2998476066745015
-0.1517359604638955
-0.034095926538760146
-0.052459832114595956
0.10187855196005431
0.16595935687188293
-0.08579953477117547
-0.23732345403853797
-0.03191156700414401
0.02041193943453458
0.0292458895618906
0.10597557128198011
0.145549059390168
0.011879366834350605
-0.07040091014744208
-0.11721083412889942
0.019457797356528084
0.059899285384973355
0.10765072150744771
0.06261493523329713
0.035920510238438216
-0.23506447144616832
-0.17474969504013516
-0.1643012355299423
0.05370254110280041
0.1613966280529594
0.2467138949721054
0.1858201424752991
0.03263376107489496
-0.1822119888541728
-0.24507158533916623
-0.151020581342381
-0.099305679783112
0.10456324062999625
0.24148491577401662
0.27125694597977823
0.1310285850338342
-0.056314375779670786
-0.16443174635081695
-0.24188526829339604
-0.29469449828790184
-0.08054874114364358
0.08171144551575088
0.0892458860363739
0.22591761911249916
0.33608118210045906
0.21035853115111813
-0.011385804179616987
-0.22044356281587066
-0.3096517005942441
-0.34424387426612535
-0.14343626608638324
0.12136085670712372
0.31256274179845167
0.3036437476702346
0.15725369530513209
-0.08801607541305993
-0.21967820312029462
-0.24525916596171687
-0.18415397665228245
0.13732968103589185
0.28630198797677064
0.22182377026083172
0.09642410856865678
-0.1362884910450212
-0.3090516447063778
-0.2285885724499956
-0.06987179914585312
0.019031013480509097
0.30239113886140323
0.23797201720510408
0.06130787876099916
-0.021036862726649157
-0.0274707122302469
-0.18932870815919334
-0.13626915310113416
-0.08498555474592455
-0.03532897844937674
0.02515874644757639
0.11058582650857897
0.22460512735299398
0.15230367219646573
0.06029928266176143
-0.0937971963674083
-0.14531881648899148
-0.3058472085741439
-0.15285180331539402
-0.0307713723617759
0.13555361259108534
0.2191146948018409
0.2681906728674317
0.09114669846056714
0.05403318824460232
-0.1083348215200007
-0.27209706749149865
-0.30238873291866625
-0.03749199670290096
0.11603390384429685
0.17728007193685927
0.17850087234684903
0.15259631530135176
-0.07446215439919487
-0.2848366627220726
-0.0658593763486238
-0.006822980166417968
0.1015305764643008
0.06451551660073589
0.07995299987320949
-0.06392152768653132
0.012436976466201781
