0
4.9632129519594386e-17
4.928406229084101e-17
4.896495941408969e-17
4.884889248760067e-17
4.9110909794808996e-17
4.9841336175938804e-17
5.0952083166250635e-17
5.21165040060978e-17
5.279190456786769e-17
5.236159245537533e-17
5.039584351664882e-17
4.6972200005852905e-17
4.293168947327816e-17
3.990750138719005e-17
3.9979916533617116e-17
4.4910611886389697e-17
5.508954613342728e-17
6.85465930243566e-17
8.055258952050497e-17
8.434852420668361e-17
7.329831602396927e-17
4.42305501545681e-17
1.0124094848678576e-18
-4.3270724268446176e-17
-6.741346000014817e-17
-4.782770042932364e-17
3.121570447010122e-17
1.6527376528810355e-16
3.202124054458234e-16
4.317947372280776e-16
4.1986558170724736e-16
2.1861395155606646e-16
-1.8266826564822122e-16
-7.023257353658681e-16
-1.1529703254836282e-15
-1.2724588454624028e-15
-8.096918987515019e-16
3.4522953714818906e-16
2.0248867692644336e-15
3.706086615293967e-15
4.561198124939969e-15
3.6893192796833985e-15
5.17729345641544e-16
-4.725377182635632e-15
-1.0658473020268504e-14
-1.4758110151986528e-14
-1.3939715429419874e-14
-5.752030762822601e-15
1.0047265934746102e-14
3.009000502601216e-14
4.6961780043653244e-14
5.050734285175898e-14
3.1244428009725146e-14
-1.4572591692013514e-14
-7.977706833549237e-14
-1.4348811260758477e-13
-1.7344091088732523e-13
-1.352798387272748e-13
-8.27597562607465e-15
1.9654793881309376e-13
4.2342006685177076e-13
5.733311006500461e-13
5.277315098063386e-13
1.9561318839704767e-13
-4.2565417334396376e-13
-1.1977296116405652e-12
-1.8276537743321865e-12
-1.9224793947542336e-12
-1.124886876696224e-12
6.900426056726119e-13
3.2183721931445692e-12
5.628173906594236e-12
6.66305570742307e-12
5.014962599888038e-12
-6.117649246429779e-14
-8.053490624494457e-12
-1.6715858175851446e-11
-2.2168224220171402e-11
-1.986037771211681e-11
-6.425400137381197e-12
1.7974235204671696e-11
4.7678164641294896e-11
7.112651989582295e-11
7.313258932602197e-11
4.026197757455803e-11
-3.152957761809915e-11
-1.2945279398894233e-10
-2.2041692823803664e-10
-2.555539081919078e-10
-1.851437705323519e-10
1.737688711516892e-11
3.288831852301594e-10
6.59117711178217e-10
8.562052359709381e-10
7.457347413713489e-10
2.036319199931098e-10
-7.534777275480132e-10
-1.8947957168128653e-09
-2.7647796967812537e-09
-2.7771948269450837e-09
-1.4281631611344521e-09
1.407713501256171e-09
5.1958736909550365e-09
8.622176984906595e-09
9.788044887475873e-09
6.806889402609776e-09
-1.259181904053023e-09
-1.3386502884446142e-08
-2.5955780990396235e-08
-3.302916946561442e-08
-2.7930787156735908e-08
-6.108337991079791e-09
3.139083884955212e-08
7.51857151575607e-08
1.073475862298975e-07
1.0527433126780073e-07
5.011656035238481e-08
-6.17548567877976e-08
-2.0812597791038835e-07
-3.368871089456373e-07
-3.743610026109707e-07
-2.490938901965742e-07
7.164020561049444e-08
5.43232693923271e-07
1.020836972077158e-06
1.2725702564310633e-06
1.0432712017432935e-06
1.667365235711986e-07
-1.3007369400314843e-06
-2.9789503825986143e-06
-4.163169274427484e-06
-3.983058938647984e-06
-1.735482037346378e-06
2.6719359737421314e-06
8.320777569102046e-06
1.3147751715699917e-05
1.4297002587783114e-05
9.067500269048185e-06
-3.6659740738426546e-06
-2.198364758590887e-05
-4.009944595400034e-05
-4.896835842187002e-05
-3.885241112790449e-05
-3.7175416822900505e-06
5.364274510975466e-05
0.00011786007391392099
0.00016126577868762752
0.00015038634153376662
5.9069225368325686e-05
-0.00011438123178196222
-0.0003321751859140564
-0.0005127448825366746
-0.0005455335504029459
-0.0003286476910648342
0.00017592363913678758
0.0008865621457585757
0.0015729561993581334
0.0018836052563157124
0.0014492929506321234
5.580347018746403e-05
-0.0021588389760891593
-0.004565430913518927
-0.006065442679826809
-0.005357356970119235
-0.0014615469778897535
0.005596687770884742
0.014173116678162479
0.020767627979073257
0.020436827968693595
0.007923286895295848
-0.020803336383360356
-0.06733528526757432
-0.13096424211043986
-0.010973479418823885
0.0890653996210387
0.15666221612540046
0.16837468775607156
0.09321880958352409
-0.09755879495299902
-0.21660538479780497
-0.24764202461734203
-0.1397758948135174
-0.013065774601472431
0.22478368733506812
0.2553720424026225
0.12778693542181876
0.04520144197135982
-0.03630151111416261
-0.19741884395926892
-0.13818639746002523
0.040916775811887594
0.05472464352606001
0.043819139839967707
-0.020413517571407268
-0.13533585039913668
-0.07062190634938692
0.024707424261329478
0.21310872139564424
0.15981281441676887
0.1276952892767323
-0.022578478977661423
-0.22858039155368137
-0.423166614189196
-0.3389567178505277
-0.12470553684072407
0.2277054106235125
0.8545910482086214
1.204803983134485
-0.3487688908444016
-0.2656578900373294
-0.5723388599580557
-1.3979219992432892
-0.9372721944541267
0.9414946329840169
0.6468981345741794
0.7928845662640818
1.33846292111712
0.3652906132982399
-1.0975392466266045
-1.2151615822055266
-0.8863365836664275
-0.7150367908096196
0.16502488548787408
1.0160404907266585
0.997755514772244
0.8828227121137759
0.8200116601125005
-0.8377624152625329
-0.8471805777780014
-0.356754202407546
-0.39286710785473894
-0.7799281535352256
0.2889921282944951
0.6307326935932179
0.2128554514260162
0.07701212571357646
0.2646770012278279
0.1586791587871697
0.04592805052960277
-0.5001850360756877
-0.6241564730547746
-0.18767254567294628
0.03130009200762101
0.5428819910437791
2.1652976889092415
2.875766106532215
-3.5025462478278384
-3.197111237207987
-2.4125621281457628
-1.3374676766987705
0.752573775006651
11.738625348634018
3.338874887572266
-6.290087494173992
-4.4188458416631615
-3.9615863377126788
-6.3752013901035305
2.867662306489122
10.844690528684001
6.907232874809782
-2.4810353348767773
-4.490113050041323
-4.076371108274561
-2.265425530777573
-1.7070417222195549
4.0146557091074415
2.51688871621429
0.26172832316243616
-1.2179636432169636
-1.6630599544555085
-0.9929942212486967
1.8225250794341117
5.327114185170653
-4.006375146940075
-1.0938586995646638
2.0975636725744398
2.9077643614400204
-9.881411146301184
2.0240010088044635
1.6033889115212852
-0.4065471630460255
-2.1049079835317306
7.98214514434771
2.783908129273731
-2.7073990419540426
-3.9003101764925505
-3.9958046381192447
-0.5996462481105107
5.7714622657309045
-1.1235763995666714
0.4681966361067152
1.1954286531520497
-2.484052247354314
-4.977372000413424
5.9714310778710775
1.8144565089932845
0.16491961145650474
0.4289858590494935
-0.6840534893943149
-3.0010523318945035
-0.1286934263160186
-0.1577112597897282
-0.46239616729343375
-0.7991455450789946
0.719510984296477
0.41754679043768167
1.667935730258718
2.780968188534119
1.4137800309039088
-0.4815099647217052
-1.5963050739193407
-3.1599640000829075
-3.0849688062508216
-1.0493717255698316
1.2398789192424347
2.021268465839533
2.564560139388725
1.266874062232887
0.4440132331183015
-0.9396163624637326
-1.2076665106226767
-0.6157966681769698
0.043965189822762034
1.4335258859205695
-1.5744124373644999
-0.18831990549147365
-0.44929235596760225
-0.6498261693512953
-1.4197277203451122
2.335172683338991
1.4720509195874496
0.669437594709452
-0.05675226629471292
-0.561287883139953
-0.5108131387830753
-0.6869345242838976
-0.4849861033281792
0.1653474301156927
0.44531032751956584
0.25979510394037986
0.027415591171854152
-0.14126070073025027
-0.27083345910879136
-0.15183234942096535
0.024963470308642897
0.23276365753730655
0.3772975139035072
0.27761550598824797
0.06584216052636839
-0.19245373435796723
-0.262344531726069
-0.2985028117816837
-0.21092861962580292
-0.046414644261007505
0.21117931628601716
0.22515242203479585
0.08235989855689435
0.07030273553731756
0.06105075260644959
-0.0957452550399712
-0.17202616426969247
0.043946459149028276
-0.04639650401940127
-0.047728504672253154
0.03078269281234742
0.17522314466299535
-0.03361104818476751
-0.019499456750862683
-0.008153240990488904
-0.023188073769043516
-0.0820441909689097
0.0068036169945903955
0.044583137762455
0.040981560894690586
0.01167663674267272
-0.024461678714370154
-0.04802395522714636
-0.04164226395254637
0.007266155503078264
0.10376069082191916
0.04346955967395382
0.01264571759628152
-0.00914827752661057
-0.044150216551441045
-0.11080303198555944
-0.019400046867879536
0.029528218473919017
0.04373557623082248
0.03560879632950032
0.01796752194694235
0.0008022131436512409
-0.010275525611395867
-0.013895282039444345
-0.01166548282518507
-0.006519737932041191
-0.0012809363982550683
0.002219921594140969
0.003411168065921598
0.0027689430292847715
0.0013433883519422178
0.0002301243335716619
0.00013767095629770856
0.001137605067765242
0.0026358508007597275
0.003570879308994149
0.002812967354667567
-0.0003081795577468431
-0.00548548052670871
-0.011129423092770345
-0.014504643230670574
-0.01247612117743394
-0.002856161315817555
0.01393485310663309
0.033482246011439246
0.047039565450594255
0.0429223625756044
0.009833234510393347
-0.05852485718088372
-0.159130894032677
-0.07773510544300435
0.008987408594114945
0.1271543895862273
0.09728037119449891
0.1271359341093004
0.008954003953794457
-0.0777756844039007
-0.15916606916922554
-0.05853845080795874
0.009856836388982002
0.04299106393643249
0.0471452582453647
0.033595048314310344
0.01400454147999398
-0.0028877801987691764
-0.012651498768440088
-0.014820518643913804
-0.011511795873563877
-0.005784828916655829
-0.0003291219757787222
0.0032421366827085317
0.004499885009332893
0.003897114082368741
0.0023026208399761273
0.0005765763186546066
-0.000695067623138955
-0.0012829074109684984
-0.0012548561970972425
-0.0008458675501868308
-0.00032336810758862983
0.00010803989321375521
0.00034729906088312246
0.0003903796566763704
0.0002959021606855659
0.00014384986048656946
2.7831412085072945e-06
-8.734359077719993e-05
-0.00011713445610529643
-9.945879127113483e-05
-5.726089244021479e-05
-1.2705199725214983e-05
1.944875413272979e-05
3.372921627402245e-05
3.2247407239681144e-05
2.1254257241404674e-05
7.670852154938764e-06
-3.315859567127457e-06
-9.233608232203252e-06
-1.0098723583275761e-05
-7.497077074085888e-06
-3.513135369435688e-06
1.0314378284085754e-07
2.3591405955051226e-06
3.050956512489952e-06
2.5373284399900373e-06
1.4211315497987915e-06
2.717251895052541e-07
-5.402787313521119e-07
-8.855899972973336e-07
-8.279285716639732e-07
-5.332707705902309e-07
-1.8053960135934463e-07
9.894251632513874e-08
2.4492219105092246e-07
2.6090443820112333e-07
1.8964637644616213e-07
8.541145735054251e-08
-7.175496344332165e-09
-6.350459130206216e-08
-7.93088342341318e-08
-6.453166992932722e-08
-3.5017001662444224e-08
-5.408789251665118e-09
1.497485665558122e-08
2.3103103526859388e-08
2.08926336405561e-08
1.2824881777169039e-08
3.635073073559548e-09
-3.2487416978039896e-09
-6.3210609714048985e-09
-5.831538972324327e-09
-3.1651882906312343e-09
-9.840734683888914e-11
1.8419662609206658e-09
1.8104582229387478e-09
-1.5514998484925707e-10
-3.151325919048882e-09
-5.641140660812554e-09
-5.902890140736426e-09
-2.665820362716333e-09
4.1784784998686526e-09
1.301449932053857e-08
2.0406562577064437e-08
2.177307115187921e-08
1.2960443363333691e-08
-7.510147168656833e-09
-3.6213818539648665e-08
-6.370192616384478e-08
-7.567970295802754e-08
-5.723705487258026e-08
1.7316997470924126e-10
9.084562029840176e-08
1.8937459029960255e-07
2.5174690076988327e-07
2.262332804129977e-07
7.439992841335664e-08
-2.0223812791678804e-07
-5.397804007114499e-07
-8.072245392901484e-07
-8.320795863034117e-07
-4.612908794528832e-07
3.52051644688541e-07
1.4639870406870433e-06
2.4998434856195384e-06
2.9049721525798245e-06
2.1136241114866178e-06
-1.7868133020582463e-07
-3.7134551408406895e-06
-7.469861962464795e-06
-9.72531730587582e-06
-8.497091941868109e-06
-2.3684410649290477e-06
8.484683409332524e-06
2.145589559232356e-05
3.138215286674446e-05
3.160423760856586e-05
1.6380118137360753e-05
-1.5752908166328416e-05
-5.87735165403432e-05
-9.779982919372867e-05
-0.0001112805830679198
-7.774497197950514e-05
1.3569236841248485e-05
0.00015119589097586624
0.00029418843500443256
0.000375186630489507
0.00031827988420060133
7.145231965917988e-05
-0.0003539155110896883
-0.0008518573135337735
-0.0012191341084118292
-0.0011989057009817038
-0.0005761230190102733
0.0006923920482546652
0.0023572237379736573
0.003830034210746551
0.0042777954985244076
0.002892890721894062
-0.0006918863504019304
-0.005964187083691717
-0.011272621514658465
-0.01398289923593317
-0.011222663740333228
-0.001207840806453264
0.015130822593273618
0.03278659918725281
0.042304592121777396
0.03100606598081986
-0.014056288703471994
-0.10202651600971913
-0.0343784663393147
-0.0027809371638109607
0.010333696852973648
0.028591968451517034
0.07695447451762766
-0.023111347595560897
-0.05740014598132781
-0.021177884804230735
0.08014455158843259
0.03179494128421724
0.012000069378012313
-0.0040533117456509294
-0.03922360310981251
-0.10966946944104508
-0.021938627600851107
0.0269629347060636
0.046467205962049674
0.04748325745307047
0.03744823249052928
0.01707059270519778
-0.02043047406696277
-0.08786876294204589
-0.0014989951318864758
0.021452829969318715
-0.03564622427040647
0.011813589320713271
0.15002831010274054
-0.03236392355658927
-0.14239502324962097
0.01996374262822862
0.06459471781418637
0.01339323441651428
0.10164224955160868
-0.021364216958165018
-0.09302098919135618
-0.24100725086725
-0.19181827316465594
-0.08522190472654606
0.3073445603291121
0.5663910295300023
1.018469837653291
-1.0527660440788913
-0.5795833265832415
-0.2776677860643356
-0.22261703347516545
-0.444862186340197
1.6587080077333016
0.9085075482309871
0.1366935254402954
-1.0000390876864607
-1.1974933837365236
-1.0928050672016059
-0.6875584032526405
0.18811705942979867
2.18909001728089
4.387503340053577
0.670231153937418
-3.374508030421122
-2.1033637875258857
-1.8626932133269236
-3.1088662221917165
0.9504285505997148
4.805374424572026
2.8497589078886154
1.233559207782073
-0.7694279648278524
-2.6692123480939953
-2.19396641079496
-1.533402936092673
-0.8623305531974061
0.8266502240991068
2.603612772101741
2.655932725945446
2.788832376630321
-2.579550825374735
-2.5288576105559217
-2.103937229423294
-1.8134305113198566
-1.4159308899864442
4.3989278001624506
3.8815529082524103
1.9246113622650636
-0.5355169772837736
-2.2025329699658998
-3.4400165755984027
-3.7201270617025433
-2.58922488217028
3.012414072844948
7.715257895215354
-0.3278405970390023
4.614161816628969
-3.320602617239649
-4.2008554358544
-5.248876357486984
2.3653940369455055
-1.796555189560507
6.103331368279759
2.449007197802011
-1.755663450302945
-1.3547779634125632
-1.849137236537107
-1.3851099387373464
0.23282440882632388
0.889270334087191
2.084368160591259
2.083039553379434
0.5305988267161527
-1.2463447592643802
-1.073247981612392
-2.348575960230607
-1.9179357035284368
-0.051743767418321936
1.0599864262617187
1.7258443526092686
2.146928854872356
1.056721878992718
-0.1430349357280596
-1.1387561023133799
-1.5816137359677238
-0.9367478947328658
-0.1585571402605736
0.17373002642908358
0.2537219073658428
0.7955554925919552
0.3600201406684043
0.08718273311724295
-0.1450072003459033
0.4716105513722017
0.29889235873213627
-0.10275124452022888
-1.5233589801823308
-0.46551985495092624
-0.13782162264524145
-0.08822487405344812
0.5302698881195773
1.684471432132673
0.6059930517325979
0.18072290345004222
-0.40972235083386216
-1.2091741550987631
-1.0025657112826285
-0.8619121790493056
-0.7471606984912684
0.43613209309924783
2.3465072986861957
4.527754273932294
-2.612575155249158
-0.7452022010246038
-0.7010611725292575
-1.9471569078785578
-3.5176396954841054
2.1599991744679192
0.9428017653558989
1.1957853552639575
2.630266381595316
2.825948123118807
-1.9233501737593768
-1.4472132981265113
-1.4738170957969032
-2.6252317656700157
-3.3104648011587927
3.2417769083293404
2.0213693566016375
1.2061319095965515
1.1452294102831944
0.22577170685369796
-0.3466111075868931
-0.4629995098394328
-0.7600041529331705
-1.251561521396518
-0.38992600264594063
0.012311665980153009
0.1880455668699284
0.15874166180314558
0.2385338974592301
0.528681079027117
0.8301473621107486
0.3955084192922765
-0.0693608183741586
-0.3573955176001076
-0.6838034446436628
-0.8072410901711403
-0.37494113672944585
0.09122101984188863
0.3656952047761718
0.46014221401469674
0.5563060589226609
0.35354696900064025
0.04659301645364817
-0.26243487434203067
-0.32534467606317674
-0.4981076212607546
-0.29738413129315405
0.023686365993553414
0.2759733417673006
0.3157526155495712
0.2176174160265989
0.05021780283970969
-0.13783782683970966
-0.12051252210498946
-0.08866976980914867
-0.04142432667135141
0.02119202770926592
0.10226055958954097
0.008835855778335304
-0.049208119354640846
-0.06132700597047592
-0.019047364152592946
0.08085715338091393
0.03331545840564178
0.023151087673961755
0.025670606469299896
0.010153744866861844
-0.05422192177001042
0.008662200398747927
-0.011755993631945993
-0.10880758287878607
-0.05856865274939361
-0.024385632500421837
0.034586388666342
0.15285802936298257
0.14930245735935396
0.022369611216710814
-0.04830401085763409
-0.09448178439227407
-0.1490270524224137
-0.03661318395318392
0.03145710612610681
0.05726202130002428
0.0522016800786279
0.03122618749215888
0.007694630870921587
-0.009698930524626071
-0.017635373330817404
-0.017079919797982023
-0.011333985076430754
-0.004115326023674831
0.001766298370470901
0.004954948434302694
0.0054370851783737215
0.004051532269349785
0.0019136509098346204
-3.492808573290575e-05
-0.0012567159234561545
-0.0016378941876519343
-0.001368401874710398
-0.0007712478694248045
-0.00015296332043651716
0.00028591171993443706
0.00047442889201013995
0.0004457599349571394
0.0002886143938703767
9.918198224318776e-05
-5.160802887006271e-05
-0.00013092650698882043
-0.0001402882934539808
-0.00010246638798214036
-4.658332477378462e-05
3.3019731499018777e-06
3.383673670208299e-05
4.260613875777611e-05
3.48692198633716e-05
1.910067214293015e-05
3.1672303842906784e-06
-7.90209718630223e-06
-1.2442015061086205e-05
-1.1434861115376707e-05
-7.231916002763912e-06
-2.3174547988907157e-06
1.5147565816697447e-06
3.467205823314153e-06
3.6214334596472608e-06
2.589764450551244e-06
1.1294331994941889e-06
-1.4676095522033166e-07
-9.084947187625978e-07
-1.107181527323894e-06
-8.876510985062306e-07
-4.719535548679981e-07
-6.175850472797828e-08
2.170456843087978e-07
3.25775561272326e-07
2.929880900142892e-07
1.8088106772557742e-07
5.354330126926709e-08
-4.372440270130845e-08
-9.163507453800915e-08
-9.337587472783561e-08
-6.536038029984125e-08
-2.7252865582228044e-08
5.357372210468574e-09
2.432057017734421e-08
2.8735550173878902e-08
2.2568605138270335e-08
1.1629075245596929e-08
1.0809687722979327e-09
-5.9303011231018625e-09
-8.517384334226205e-09
-7.498393399610638e-09
-4.5154455665799205e-09
-1.2199847629763767e-09
1.2456051888310692e-09
2.417266621485198e-09
2.404850749724362e-09
1.6470904531490632e-09
6.540091547636396e-10
-1.7829727116092117e-10
-6.493308493484091e-10
-7.448775786866617e-10
-5.730293619636833e-10
-2.8556747036677413e-10
-1.4596343642920666e-11
1.6141754013279728e-10
2.2241552303221362e-10
1.9156230891114037e-10
1.1217088126012251e-10
2.6825312949082854e-11
-3.5606265014923356e-11
-6.393107873838155e-11
-6.165788022979353e-11
-4.056884415770018e-11
-1.4100047292110996e-11
7.3648004204011e-12
1.8568503462531735e-11
1.9191301508390018e-11
1.2318289370915188e-11
2.5189560756072493e-12
-5.7993508453434865e-12
-9.492361154259239e-12
-7.26033448300684e-12
1.506940485880442e-13
1.004717134260443e-11
1.8242315871230903e-11
2.001166597339284e-11
1.1628101408110146e-11
-7.705563637369582e-12
-3.409673582596879e-11
-5.829434253334014e-11
-6.710498271928403e-11
-4.747795515957852e-11
7.129550683246646e-12
8.986640203403955e-11
1.7614807453341594e-10
2.2548331548878644e-10
1.9216447966550123e-10
4.472090580342348e-11
-2.1034678882860345e-10
-5.097535146872074e-10
-7.316641040428761e-10
-7.217448313259716e-10
-3.503460736185081e-10
4.092889755663252e-10
1.408124278225771e-09
2.292746277077102e-09
2.560904526484688e-09
1.7226370142101352e-09
-4.511387893585801e-10
-3.664310229236759e-09
-6.936661119984907e-09
-8.68986552547314e-09
-7.178153628779165e-09
-1.251468559953007e-09
8.731995067987685e-09
2.0206880739764273e-08
2.838382005268738e-08
2.731883628809286e-08
1.2172475119932648e-08
-1.776412421027636e-08
-5.6322364897742384e-08
-8.950430153676406e-08
-9.783668948870424e-08
-6.278972598321218e-08
2.3543518081410253e-08
1.4838457240101152e-07
2.725605864928496e-07
3.3448931747906594e-07
2.6752089067986936e-07
2.9842678082205713e-08
-3.6049835867931805e-07
-7.997451832183092e-07
-1.0998152842564829e-06
-1.0320460916135935e-06
-4.163301902483902e-07
7.619415014095405e-07
2.248619742216304e-06
3.4900507448718793e-06
3.732085262792989e-06
2.2753634866439692e-06
-1.148226032366328e-06
-5.993106170386011e-06
-1.0696591582284243e-05
-1.2858647619735513e-05
-9.93864794924595e-06
-4.258378090827946e-07
1.4818369722434533e-05
3.160803580879056e-05
4.2565948268576844e-05
3.890693673459144e-05
1.395014633407608e-05
-3.236710562862341e-05
-8.961705993278762e-05
-0.00013593157221656598
-0.0001421388869952174
-8.190099692894903e-05
5.3661267456891175e-05
0.00024145796601477839
0.0004192519736792205
0.0004936062321449641
0.00036781896559989714
-1.2317916377193033e-05
-0.0006071405681801801
-0.0012481677898173113
-0.0016463358542582358
-0.0014643930384539209
-0.00045496883963055143
0.0013656894623347174
0.0035733662658336634
0.0053093037668597255
0.005453097583381485
0.0030258079353426546
-0.0022419294782736695
-0.00936222027938089
-0.01584814484251286
-0.018083675035756735
-0.012497505121981852
0.002532631187128842
0.024489351155358323
0.04503303022232758
0.049766982457539646
0.020155938185308135
-0.062362482911866066
-0.010942687022611577
-0.028182901654398622
-0.10306440925142264
-0.011319622347024433
0.08038922870593998
0.00728647492450111
-0.001917928664360877
0.06748196277114632
0.011393434097886622
0.005898393934069626
0.010261754300593286
-0.026541900192608832
0.04306506635269735
-0.025011179508394422
-0.05768282069482169
-0.05843290270937406
-0.005206217542217238
-0.05335567729140749
0.056460213669267054
-0.013342580998164757
-0.0105261403457281
0.09459044116841278
0.10011827434152991
-0.0309854184881976
0.03205196237766843
-0.0029068841073737113
-0.03695110926875641
-0.1640021651245762
0.14473506946490827
0.053494164483630015
-0.2295530789143618
-0.24868266324014177
0.4980673656490554
0.35367056840728534
-0.3050381396384971
-0.07538109049268833
-0.13985007415743084
-0.6850829069294224
-0.5332817680889645
0.4143668463218718
0.9311921382390143
1.2330221083355926
1.5806719502826612
-2.8723829725096364
-1.3959448310281677
0.6108431690150777
2.694780811612047
-3.2092616430636935
1.8307443966955197
0.12339877561904283
-2.0970979692195515
-3.5548666310309156
2.9544098603755327
3.0427989959271797
5.448473537800989
-2.5529854210101455
-1.6218283006725598
-1.5492077848158028
-3.8609769486355576
-5.124747528158266
3.383659079485094
3.06701768426338
3.931609389297968
5.9749672586096585
-2.458056865559907
-1.919224722618899
-2.161724166197301
-6.232746338512053
-5.890250180199994
3.570508599690577
5.688971138871543
8.517536401961205
2.364759854262533
-6.474594055557784
-3.388710109357409
-2.0129014847040163
-5.827488662292271
2.512124704541718
8.902463596276743
2.4482057823510663
-2.4482222613930595
-2.8973035292997125
-2.444499323805892
-0.57119231405041
0.9586591411482179
1.2817491346154108
1.369712422266879
0.357296309566247
-0.2994354729713484
-0.8221289099054153
-0.6774911491665654
-0.3363803578637445
0.35428002119070107
-0.022320793156550202
0.5354960245360534
0.4303599958667607
0.2545851323988401
-0.8083347785416728
-0.17135045038747343
-0.028967702349488818
0.05093847764839438
0.12384774869828175
-0.14524971485295413
0.09792498722342718
-0.12478155721365533
-0.2425328283084673
0.05396720239190569
1.4160582525839724
0.4617042988681955
-0.3749954245429085
0.025054390462444835
-0.4650331773847146
-2.578626595543616
-1.87593919676633
-0.04115490568115133
1.1556851773006611
3.6815105874756022
6.924876843211332
-1.8850950214620843
-1.9012437825359052
-2.975190100755667
-7.587234589733056
-5.921990539205535
5.031695598594631
6.583859467937142
9.987104793976615
3.8068425141403566
-7.452305175851452
-5.272727242805203
-4.349565421633185
-7.917123822548241
1.0788623707416853
9.947104900257742
6.6748021997106415
4.204972705174521
-3.8669103557036997
-3.1292900031642876
-3.0111122448843743
-4.422198319613226
-4.132684374642622
4.2247172784469065
3.342800720448132
2.3155095445280027
2.335513078442686
0.7251438650964149
-0.6520609493559036
-2.0232697399594395
-2.657938457279813
-1.635320551233875
-0.9093168056022304
0.2899678461148106
1.331124120298308
2.589936906213861
2.0697666486550803
1.104020183619959
-1.8236434539533852
-1.1536929624032457
-1.0728889076144563
-1.3538631182693757
-1.6701946472685454
1.1851215670294142
0.7862136700293674
1.1057823274537129
1.3481647241246253
0.8371898546385244
-0.00900376555190873
-0.6136014262095261
-1.312750571169785
-1.20654014760847
0.16572464602139098
0.49510977034149395
-0.09128851414984923
-0.07851448839718461
-0.046569091428222804
0.43233343510498645
0.10067437785935135
0.5435443146065989
0.3512157685125731
0.3239152986606903
-0.4825608899248608
-0.48164888636772324
-0.2701696030869148
-0.15274947858193744
-0.2927798380429197
0.30248079619894347
-0.23612022133369803
0.1171642408960849
0.22600069693122904
0.3338603103236169
-0.1833476520835262
0.5552497062440568
0.13257408470856114
-0.14554694590402312
-0.41226803710618903
-0.3957867554899363
-0.18287936201206867
-0.00023495935137605192
0.18306296026745322
0.23623545800304294
0.240021535222473
0.06247714730734307
-0.05561199053158305
-0.10359055574949055
-0.09442434664742577
-0.05354813551471194
-0.007737363788111857
0.022980038590916727
0.02937162107827014
0.01348144542006475
-0.013378213860619352
-0.03413362124702274
-0.030296881906900018
0.013357204987903328
0.1045108264369871
0.04051180890986918
0.008196359726065467
-0.013198485797993547
-0.046709261840748535
-0.1116261186758015
-0.018855889166354327
0.030793891139522345
0.04509423029991883
0.036624449364549595
0.018445041316553425
0.0007463948159352971
-0.010736213913265994
-0.01457607121565073
-0.01236374141621993
-0.007030158668601796
-0.0014096297635839666
0.0026192161167226864
0.004370380043475479
0.004125456426237907
0.002688846213691284
0.0009434989592032077
-0.00045426934832285004
-0.0011968356378525204
-0.001293502528130758
-0.0009514017879304239
-0.00043834943132365766
2.29081209462816e-05
0.00030758189037792094
0.0003917713667153756
0.00032286451505196057
0.00017858073147619495
3.1597787816503226e-05
-7.125825945289626e-05
-0.00011411955686105
-0.00010565426064905276
-6.735221100648694e-05
-2.2114817238970045e-05
1.3404659798787868e-05
3.169934139696305e-05
3.33904646946321e-05
2.4048525868007123e-05
1.0638586804505456e-05
-1.1637789307649144e-06
-8.268695954366334e-06
-1.0185862752771585e-05
-8.222718014639512e-06
-4.416508158853563e-06
-6.309923317399019e-07
1.9610097338859312e-06
2.989577374435116e-06
2.708165943121362e-06
1.6856311691248837e-06
5.130111904076057e-07
-3.889208650571301e-07
-8.38332878106645e-07
-8.612798405905338e-07
-6.072303761743022e-07
-2.5713359288465104e-07
4.4566998912680036e-08
2.215675466778556e-07
2.644722792105834e-07
2.0915060371185473e-07
1.0892797084549164e-07
1.154671918635895e-08
-5.3670736306527347e-08
-7.820045356999918e-08
-6.933647249581124e-08
-4.210701715424204e-08
-1.1747848565148244e-08
1.1124852268768944e-08
2.2128286313283526e-08
2.2190425012132713e-08
1.5310205279107003e-08
6.182713061475434e-09
-1.5205320698238184e-09
-5.920533616790588e-09
-6.85841273012337e-09
-5.313218179886165e-09
-2.6787174472050978e-09
-1.7647458039243658e-10
1.4618208161007866e-09
2.0426010779255847e-09
1.7731484745581796e-09
1.0497427100022952e-09
2.646794346627096e-10
-3.145942995451075e-10
-5.83024766004213e-10
-5.710692110583734e-10
-3.854305886365515e-10
-1.4778278240545547e-10
4.866863878590185e-11
1.5779497349463185e-10
1.7763897956227282e-10
1.3480272840268516e-10
6.56636764747843e-11
1.4411320395462892e-12
-3.9644329208264494e-11
-5.327857153993533e-11
-4.529186019981145e-11
-2.6115191887717204e-11
-5.837975248375748e-12
8.81265059080969e-12
1.5334677452249722e-11
1.4679691021190875e-11
9.687771243927848e-12
3.5083126883124024e-12
-1.4956358189465157e-12
-4.19543546214893e-12
-4.595444733233407e-12
-3.415554384589181e-12
-1.6039199928418879e-12
4.252981201335411e-14
1.0710561142330313e-12
1.3878776587157372e-12
1.1555830010786632e-12
6.482765862822145e-13
1.2515057070371478e-13
-2.448611607637155e-13
-4.026125027957711e-13
-3.7686759289360953e-13
-2.4304540189521283e-13
-8.256767567818158e-14
4.473501663566911e-14
1.1135036992096908e-13
1.1879413290859121e-13
8.64765811894108e-14
3.907793546503167e-14
-3.0830036111507433e-15
-2.878299241279915e-14
-3.605359109483196e-14
-2.939604265250695e-14
-1.6001607665086164e-14
-2.5212077569364246e-15
6.81005490923461e-15
1.0606273125990356e-14
9.716496879335877e-15
6.1391649527067475e-15
1.976815112569342e-15
-1.2577720100319754e-15
-2.896701370016854e-15
-3.0149364223481485e-15
-2.1341005061051216e-15
-8.957806097027409e-16
1.825937187324774e-16
8.234998161579734e-16
9.877520172888032e-16
7.991888053663477e-16
4.46184386707256e-16
9.920736805624263e-17
-1.35759646320041e-16
-2.265849114690409e-16
-1.9788447901778345e-16
-1.0250502368872818e-16
5.323102895168588e-18
8.740444208897353e-17
1.2759974679593976e-16
1.287582171593557e-16
1.0485532764165636e-16
7.254867070299318e-17
4.4998659107736624e-17
2.9049153885859804e-17
2.5413199304116142e-17
3.070228874444925e-17
3.998932753602864e-17
4.891008974042826e-17
5.481737463490335e-17
5.69758742828638e-17
5.608929714491416e-17
5.3552439034245247e-17
5.0762440831845415e-17
4.868226327299929e-17
4.769986889176884e-17
4.7718419996811335e-17
4.836452343553555e-17
4.9206232141633695e-17
4.9909241766459e-17
5.03052748712285e-17
5.0383578856968955e-17
5.023642613476575e-17
4.999250415821038e-17
4.9763413579123005e-17
4.9615143653336126e-17
4.9564246413450776e-17
4.9590831699558154e-17
4.965815321916582e-17
4.973025757675866e-17
4.97829042540719e-17
4.980682273303791e-17
4.980510537809628e-17
4.97877027513798e-17
4.976580202511118e-17
4.974788437865988e-17
4.9738074157916206e-17
4.973645289556352e-17
4.974051865557827e-17
4.9746915008172225e-17
4.975279147213795e-17
4.975650655189683e-17
4.9757695583930794e-17
4.9756915517232024e-17
4.9755132769958816e-17
4.975327149360322e-17
4.9751940922024327e-17
4.9751361053909556e-17
4.975143700258333e-17
4.975190422925755e-17
4.975247333957459e-17
4.9752929452594143e-17
4.9753171840232617e-17
4.9753203412918334e-17
4.9753091749641164e-17
4.975292427485557e-17
4.9752773708849164e-17
4.9752680791982754e-17
4.9752653325799106e-17
4.975267583745412e-17
4.9752722952321464e-17
4.975277094298512e-17
4.9752804523092995e-17
4.975281851395391e-17
4.975281574723308e-17
4.975280324007393e-17
4.975278846981102e-17
4.9752776873337155e-17
4.97527709011174e-17
4.975277034987098e-17
4.975277340057731e-17
4.9752777779091266e-17
4.9752781632428913e-17
4.975278395189873e-17
4.9752784577561354e-17
4.9752783936388985e-17
4.975278269357478e-17
4.975278145761943e-17
4.975278061140617e-17
4.975278027566861e-17
4.975278036762031e-17
4.9752780701514725e-17
4.9752781084378936e-17
4.9752781378841465e-17
4.9752781525547937e-17
4.975278153301661e-17
4.9752781450055224e-17
4.975278133574468e-17
4.9752781237243244e-17
4.975278117946008e-17
4.975278116545921e-17
4.9752781183526925e-17
4.97527812162517e-17
4.975278124804615e-17
4.9752781269337637e-17
4.975278127734426e-17
4.975278127444837e-17
4.9752781265557045e-17
4.9752781255644725e-17
4.975278124817729e-17
4.9752781244585357e-17
4.9752781244565666e-17
4.9752781246812416e-17
4.975278124979263e-17
4.9752781252307633e-17
4.975278125374404e-17
4.975278125405006e-17
4.9752781253545424e-17
4.975278125268521e-17
4.9752781251868244e-17
4.975278125133339e-17
4.975278125114383e-17
4.975278125123185e-17
4.9752781251468063e-17
4.975278125172439e-17
4.9752781251913505e-17
4.975278125200113e-17
4.975278125199721e-17
4.975278125193659e-17
4.9752781251859e-17
4.975278125179486e-17
4.9752781251759233e-17
4.975278125175276e-17
4.975278125176675e-17
4.975278125178933e-17
4.9752781251810294e-17
4.975278125182371e-17
4.975278125182816e-17
4.9752781251825547e-17
4.9752781251819285e-17
4.975278125181266e-17
4.975278125180788e-17
4.975278125180575e-17
4.975278125180597e-17
