0
9.230805023484556e-17
9.336494725797887e-17
9.517727378862287e-17
9.72903565445069e-17
9.883739755581029e-17
9.872743826959733e-17
9.605289432139306e-17
9.064326593322579e-17
8.357699009279602e-17
7.737488849975721e-17
7.559506487303363e-17
8.168147636433624e-17
9.720043366787442e-17
1.199788499832898e-16
1.430047161133786e-16
1.5507408754743524e-16
1.4387946603703998e-16
1.0143462522427316e-16
3.051857061733406e-17
-5.044553140122417e-17
-1.0738927433076742e-16
-9.830756913676074e-17
1.064716869539367e-17
2.2374943597544543e-16
4.964289541212845e-16
7.288847039536248e-16
7.832110772776836e-16
5.292432228205338e-16
-8.680233603549795e-17
-9.714880934550466e-16
-1.8447516682305084e-15
-2.2696028551174877e-15
-1.7763946949320933e-15
-7.531917693274344e-17
2.696385921755647e-15
5.7941997355583055e-15
7.88074601498149e-15
7.3407651996307e-15
2.915852072307237e-15
-5.468249589216485e-15
-1.597773539522487e-14
-2.4666975493130078e-14
-2.6197224869044154e-14
-1.5659048263257583e-14
8.759034782341214e-15
4.307966991360048e-14
7.613676249070609e-14
9.090576755686945e-14
6.949327384269515e-14
1.450890343128791e-15
-1.0675427312277338e-13
-2.2510843608640467e-13
-3.0117527524237865e-13
-2.729227740783393e-13
-9.372410841607241e-14
2.3572214245093285e-13
6.402671375093873e-13
9.641332711820874e-13
1.000884820097457e-12
5.657597381477401e-13
-4.006961210870979e-13
-1.7305963141360803e-12
-2.9794958225880455e-12
-3.4848985970106054e-12
-2.566184267685137e-12
1.5048948528087864e-13
4.369887044181653e-12
8.88483884526506e-12
1.164184210516943e-11
1.0261826882329918e-11
3.0236364094427447e-12
-9.905881868267294e-12
-2.5458245631665473e-11
-3.749134362401895e-11
-3.8032352003648814e-11
-2.0144286841874055e-11
1.8054088498727896e-11
6.952664277755657e-11
1.1661149557918736e-10
1.3355760398216194e-10
9.452015141917654e-11
-1.3757078566973584e-11
-1.7810198036043508e-10
-3.500657658956472e-10
-4.493237422371398e-10
-3.84759040453184e-10
-9.310257784993104e-11
4.137230513984914e-10
1.0108356710178215e-09
1.4563725226988021e-09
1.4427855443033312e-09
7.10280948189791e-10
-7.974315415055043e-10
-2.7872780555748116e-09
-4.55847101641379e-09
-5.111220524439262e-09
-3.465899068706284e-09
8.424770693940403e-10
7.236380044198473e-09
1.3775280808926987e-08
1.7320849522809588e-08
1.438834174623195e-08
2.662875083868669e-09
-1.7180729831079753e-08
-4.007519710344351e-08
-5.650852553762152e-08
-5.463182215843997e-08
-2.474225106454838e-08
3.4689591812669416e-08
1.1152184696986617e-07
1.77989898804898e-07
1.9532135905588118e-07
1.2645456331954938e-07
-4.470379915226349e-08
-2.9317692234449353e-07
-5.413885460106628e-07
-6.668636158198887e-07
-5.36525600261751e-07
-6.612563714904565e-08
7.098969782418224e-07
1.5864968279707154e-06
2.1900474575208557e-06
2.06462173217501e-06
8.489112811147808e-07
-1.4907944036126626e-06
-4.453846852720591e-06
-6.9418089119202064e-06
-7.452809753596918e-06
-4.587529091230796e-06
2.201668555256596e-06
1.1846504977760995e-05
2.1251329599333226e-05
2.5641964321593034e-05
1.9944238598027614e-05
1.1105113907889e-06
-2.920213222877427e-05
-6.271775277343468e-05
-8.47783060094435e-05
-7.786303923197698e-05
-2.856147519846399e-05
6.343183380589482e-05
0.00017756001366237633
0.0002704251513841764
0.0002839172385658698
0.00016531131613922248
-0.00010362486366606997
-0.0004776274592460119
-0.0008333908207440559
-0.0009850375686475616
-0.0007393976529376683
1.305086949290313e-05
0.0011957199240635657
0.0024757783516955456
0.0032797483821528197
0.0029370224709474395
0.0009549888240839776
-0.002633234771605219
-0.006977551877894093
-0.010352636969267134
-0.010497769559404754
-0.005421711501959307
0.005446004168250956
0.020106390526552286
0.03337866663273986
0.037375805564555206
0.023361526523217945
-0.015283385310617448
-0.08001605988864198
-0.16567959463032983
-0.06235882280404244
0.03873634886147772
0.1366337479140281
0.21264111572088182
0.2275020028466703
-0.07305276063581122
-0.14432231785050847
-0.22419507842429504
-0.11693940115260525
-0.18581952687485
0.041758812056629895
0.057235028665219796
0.14686962420347469
0.16827171072722855
0.3354994945028199
0.21878969346652843
-0.039199620016368945
-0.29447012453510124
-0.36963373260857524
-0.431534819352316
-0.3900686470095142
-0.12352705298319254
0.27378504755612176
0.6360708351328883
1.2842014449620127
1.2191634145216443
-1.037221730931294
-0.9609101118058362
-0.9303606825928912
-1.1545318137602174
-0.6547534522172623
1.4898499928615554
1.2493955617120958
0.5375435739817763
0.1306570519447697
-0.36457614191289167
-0.29293687670719104
-0.2968291793568434
-0.2484803457482754
0.012409003167940174
-0.07697327480203885
0.01873467727460165
-0.06804830172037447
0.17281380451468847
-0.10248261946524397
0.07082969344752775
0.0290789978625708
0.049348463143959534
0.12985570527699533
0.18553488293598938
0.2612740825885882
0.16263476367223142
-0.1000999272481753
-0.6636285751809614
-0.5722868425141396
-0.36124900371908364
0.12970989363195137
0.5145403741735751
0.8051801784433511
0.36157089455704666
0.0645494885178206
-0.48159757486767474
-0.5229283275137365
-0.3208316673848209
0.07602349232659682
0.04329574772276137
0.17577110446953956
0.27209675187648286
0.3188279235421665
-0.3184893228796071
-0.09386052212982104
0.12952036334100497
0.2941181228551574
-0.8375948272690389
0.12625303925496947
0.00793207049992712
0.25177828458104096
-0.09063879845514967
0.4236818647966485
-0.18224665443670465
-0.10962025479535957
-0.1812446643371636
1.3652120979095168
-2.1155555630604743
-0.27300541020091595
0.8353738387435399
0.9338141856738857
-0.879519014927597
2.075070050888489
-0.11011341435121848
-1.2793767297463219
-1.560751878194073
-0.9376738245150943
0.33186806832639854
1.044889499567533
1.3529297895488268
0.8686951806704174
0.2144788677101063
-0.7719641050284218
-1.1833461194449217
-1.1681387567126076
-0.26579894653363223
1.030654765719834
3.2888009730034393
-1.0523252913486696
-0.6568948964574585
-1.254878838041866
-1.417491892069923
-2.3766684695167704
2.6965357558307517
1.9706716182834496
1.6347793651043574
0.4348366792939039
0.09868630442723268
-1.7564708890767342
-1.676112094530682
-1.239202915285732
-0.7995096726399317
-0.5211065103999867
1.705752996004341
2.715965110280583
3.7533343841974984
-1.156622450015532
-1.7257830899419146
-2.2482081739413635
-2.6446191443485176
-3.1848536521162365
2.468197303315399
3.5077640636806517
4.194964611224499
-0.47506807968523057
0.6128147446030242
-3.7961908915965754
-2.9492817678742327
-1.7246848351221973
4.447202977362794
-2.2379630422971504
2.9492343789347926
1.1612377549592003
-0.9120517398054268
-3.2853703220029686
2.1162139900198937
0.2695398910697539
0.2715141054178041
-0.03651766170970198
-0.0345772889563593
-0.4829687568080956
-0.28456003746720804
-0.26265967247205646
-0.16300492247509243
0.11892603589164062
0.09228703918121099
0.42048990705821
0.6827190695035968
0.5624737273112382
0.07164219936175302
-0.39263266722649615
-0.7739947529754415
-0.8909827281585116
-0.6053207671983876
-0.24116409743578185
0.34499778050754504
0.8630338373244487
1.4896841890899553
1.4072846431420962
-0.5936503245411203
-0.8452563344081473
-0.8904469763712446
-1.370018491325032
-1.1506369375370924
0.8813775959547335
1.1621722642102639
0.955218947413884
0.4581059815880637
-0.05529796502466152
-0.24278628472659336
-0.4581809071608004
-0.492099022741745
-0.3125786707076031
-0.02400034920170276
0.14706594900368158
0.24084982814661252
0.137349535253766
0.12499228479949863
0.07493174531509354
0.026798338238551402
-0.012755908521249446
-0.06099374118710869
-0.1441060970912267
-0.08179957234709753
-0.07641603470188346
-0.10972997649252843
0.052054069138619874
0.24734783205345492
0.10663332197948501
0.04327582633961977
0.051181881392423516
-0.09018899536016782
-0.20602434783358226
-0.11597589708994517
-0.027905582449144404
0.06212524329303969
0.16431560573819048
0.08722892018470388
0.03149147804539338
-0.01216735295305687
-0.06010588103472612
-0.12994088402288528
-0.034530868205472444
0.021709817001646
0.04303542207401515
0.03966647237382211
0.023773721954491202
0.0058643782950052875
-0.007345501506085039
-0.013334731581204096
-0.012869168049239564
-0.008483153798726727
-0.0030091101448700593
0.0014258005986959197
0.0038060478670929607
0.0041351711425404595
0.0030587747946603733
0.0014259805790232238
-5.109719473702465e-05
-0.0009697067449926817
-0.001248767169671073
-0.0010361764533018546
-0.0005786717328756935
-0.00010864026098784531
0.0002230072219266669
0.0003638696731239349
0.00034009452790044584
0.0002192747712159456
7.412985546388149e-05
-4.193484103882875e-05
-0.00010410845935301317
-0.00011301220856687237
-8.477681440313039e-05
-4.013302419855613e-05
3.511196049616949e-06
3.550650488851869e-05
5.155404871223831e-05
5.133129156060446e-05
3.621670096859579e-05
8.508647986086455e-06
-2.761131143226332e-05
-6.429372945809057e-05
-8.911333964205555e-05
-8.678118617675975e-05
-4.437358226785269e-05
4.066534895742314e-05
0.00015249474269825569
0.00025317767107612256
0.00028793359292289897
0.00020206548812342625
-3.203230271505919e-05
-0.0003853546638224655
-0.0007534719195527679
-0.000964004489826479
-0.0008220063164118022
-0.00019288849900068767
0.0008962387238266957
0.0021761272190344546
0.0031277121659458364
0.003093298835846182
0.0015208991764654551
-0.0017013655009229512
-0.00593342024305938
-0.009661233375867636
-0.010736425701310563
-0.007072757305603797
0.0022712214827569324
0.015918433896341563
0.029408073981435474
0.035409666897593915
0.02531289453073574
-0.007879984777623628
-0.0661166255346375
-0.1437038614153434
-0.027109481874927868
0.10200986984998033
0.061208930334523494
0.061209181519414596
0.10201038867489161
-0.027109299363133686
-0.1437047109001156
-0.06611891099823176
-0.007883449012960068
0.0253093690035066
0.03540792923130772
0.029410153055602146
0.015925605320934937
0.0022829336107622854
-0.007059659148023459
-0.010727633145393625
-0.009663621390209171
-0.0059523319419383935
-0.0017370848479219322
0.0014762215557982518
0.003056492057627413
0.003121496818261691
0.002221332812139901
0.0010004383863173117
-4.6804921177421805e-05
-0.000681726142485934
-0.000902038093479848
-0.0008458264015768263
-0.0006761070123917812
-0.0004930759624878425
-0.0003009330420628642
-3.351560841297613e-05
0.0003770686972809378
0.0009192569185889109
0.0014459197465584881
0.0016783617405921783
0.0012907925484007309
6.83012570215951e-05
-0.0019048397652159257
-0.004104750595114299
-0.005571576032236802
-0.005136610000961596
-0.0018893220395268372
0.004204501429873112
0.011742357523188767
0.01767546679872456
0.01772914765278288
0.007570988861184818
-0.01546453611508057
-0.050661872609568406
-0.09304635330499968
0.0659371544348752
0.036075590989836336
0.025136640757777395
0.036074829150451605
0.06593646760612294
-0.09304566932376974
-0.05065872395410194
-0.015458782958173062
0.0075779657412413486
0.017734379460033475
0.01767508052486226
0.011733062741719376
0.004185595856588148
-0.0019141088066122313
-0.005158417165042298
-0.00557784347283075
-0.004083296686726083
-0.0018501033705567195
0.00014867460977307587
0.0013720612726441056
0.0017209710060169124
0.0014064084740330381
0.0007694164268688144
0.00012670025488941466
-0.00031936940841112047
-0.0005019803989616004
-0.0004609903342918725
-0.0002913516383531821
-9.327170934202451e-05
6.098253812176464e-05
0.00013938993231643002
0.00014541255173378383
0.00010390132007911314
4.5473618142918616e-05
-5.215767475335784e-06
-3.5077843707516425e-05
-4.254122834634069e-05
-3.3892386637985395e-05
-1.8410338295399016e-05
-4.20741755008729e-06
4.189796636826435e-06
6.335226689093249e-06
4.8367104808915984e-06
3.483835397393164e-06
5.236775957095511e-06
1.0683327242772296e-05
1.7421859102652873e-05
2.0644829362811146e-05
1.4946789711277288e-05
-2.9737132812073276e-06
-3.148577339921955e-05
-6.223685655565429e-05
-8.071156531227245e-05
-7.009151233036882e-05
-1.836393752161039e-05
7.294091501322627e-05
0.00018170547428024764
0.00026427513268995615
0.00026456354804724576
0.0001345356601562766
-0.00013742811213536592
-0.0004996816632864013
-0.0008260721056548043
-0.0009348909654015465
-0.000646188390253201
0.00012854101707561263
0.0012897262852903857
0.00248975888412067
0.0031605815772586575
0.002666114606591128
0.0005769416015929084
-0.002997095007831131
-0.007146764149993005
-0.010146511297730847
-0.0098316270750246
-0.004415774220006334
0.006391195961100515
0.02032755241934165
0.03211667405445782
0.03412551329417367
0.018404316015964883
-0.020185356956735477
-0.08075589157049681
-0.1546487817869989
-0.02666813304362566
0.1202046732672468
0.09789003746898631
0.10696889714850596
0.1343138545224755
-0.04363483314278483
-0.25274342855804055
-0.11150519443996126
-0.024175568759496075
0.020037977057172352
0.041241848522597026
0.058871498312376654
0.08128961103690456
0.09885469557244325
0.08327487374816153
-0.005760387028338691
-0.0079252660504989
-0.14704046632684373
-0.21827246032685024
-0.18288253101008142
0.026012592527591184
0.08658340500502101
0.06428011423610268
0.18768091759631625
0.23211314092674368
0.11755649704816916
0.12404960245405862
0.12327519548013736
-0.17998680247667134
-0.40727592897409914
-0.6801157172467149
-0.42050527927699144
-0.18504690791541506
0.27105247070418725
0.7163142219562487
1.3772931319540718
1.5118860037390092
-1.1613375671870974
-0.9812959831974802
-0.8366270458957569
-0.8716032754782576
-1.040567543720973
1.4738728882101624
0.9882185587889513
0.2192226278714636
-0.20772636527798075
-0.21851464838402812
0.09110933818833282
0.6771511565812779
1.403935572179352
-1.0724675682517246
-1.2093132464762892
-1.2963597015710504
-0.4187535613528686
0.917144741910639
-0.7021787358456725
0.8816283509579584
1.6805723764086298
1.0834733185105214
-0.15131568093630732
0.17383392704526054
-1.1761478752736585
-1.3232728516559813
-1.3620498561177663
-1.7170509708635409
1.8104964807212973
1.7226112808025833
1.0752606548004404
0.754578507623454
-0.18073655079126305
-0.6801040483635299
-0.8236839672477704
-0.7228853298761809
-0.6356688282677754
0.07857921925319931
0.7585307634685438
0.6064740817272564
0.24196427777867932
-0.3348443933541124
-0.15741414306700566
0.31767911877327604
2.6415057558954502
-2.984570493378176
-1.2688429336647553
-0.4137952766350582
-0.14592774099144554
-1.7942814200383845
4.80581775094944
4.029395428974754
-1.752376105663656
-1.694252880883381
-1.9321361024009918
-2.638404549209395
-2.950548164775373
2.78727050490622
3.085645685138825
3.9410599468434766
-0.47791710273094445
-0.6310223386150818
-1.2930073550151169
-2.181479320170925
-3.6055860022884527
0.7965014603736736
1.0031510556008376
1.460999106562798
2.306911756590647
3.436572101885199
-1.924671717659917
-1.537559285933404
-1.389701716803008
-1.9315778332218683
-2.576925431922665
2.6942339395487775
1.836966429089142
0.9941274739400753
0.5635836692064116
-0.07085419068701733
-0.3280217952630643
-0.552024363988322
-0.5017193345614951
-0.6440279684600404
-0.681566287817086
0.0679585524727323
0.4392135667080764
0.5475399574616517
0.30222016871462076
0.5304758410955447
-0.06863734017373703
-0.13243055104708215
-0.20811285487675432
0.09718141185448524
-0.02448910506714071
0.0725737191134876
-0.8744845645553884
-0.8259131457990165
-0.2610688167652413
0.5693493392083285
1.175947886978307
2.974896819485998
-1.9292550611305612
-0.911159022436463
-0.5569502869473146
-0.7939730484466108
-1.6499554552437
2.7440488772278773
0.9158474734644634
0.2048118831048474
-0.46898175873665077
-0.8087252384877586
-0.5268948737487632
0.06838894860373206
0.07268784633991067
0.36792677148699293
0.39647840991902145
0.13882609670845922
-0.09549715653306658
-0.26042852423991597
-0.15270745467819655
-0.18495422302240475
0.2411784313873113
0.35888169706438033
0.25753988462396443
-0.2974937233646847
-0.4487902412712739
-0.24075563821736481
-0.23137978679174698
-0.12611020083505622
0.1691370886871596
0.48658664154013864
0.5428393427814142
0.5092961753117995
0.01805626848872174
-0.19567531293050502
-0.42553262903473915
-0.7201319344786135
-0.6257158738332047
0.037684851532465875
0.3610849533554642
0.5005082569436232
0.41827231247534746
0.23206443906432042
-0.013343054369362995
-0.14686015291145232
-0.24917636545067787
-0.21918899871011702
-0.14113534058434316
-0.06207298845114655
0.01567514428615879
0.1277955677162372
0.13166345897433135
0.08696583089483369
0.03940494292383084
0.011522333069284674
0.0019208785229526647
-0.008277328178326649
-0.04450713827090378
-0.12688850416800992
-0.06091524242862005
-0.03342877323135881
-0.015049946989508078
0.0317474389204923
0.1415488046213722
0.13556182796046592
0.015352656693614884
-0.03716806798054247
-0.05374416030772148
-0.07016281322353003
-0.11650737606066988
-0.010412602682724485
0.04495731994115836
0.05836361322030525
0.04511190433339606
0.02120655756937279
-0.001009205944807877
-0.014821234462577434
-0.01887104006509107
-0.015457058649162837
-0.008400672205830986
-0.0012634851654118612
0.0036792344977219548
0.005678121474944642
0.005182236288273059
0.003257381536458135
0.0010258783856763806
-0.0007051491392996209
-0.001580327941408163
-0.0016413087287461862
-0.001168166808514423
-0.0005046037865159203
7.254873624717417e-05
0.0004150749652397962
0.0005023509402064849
0.00040091547003950055
0.00021171122674745852
2.5974374675819866e-05
-9.964929449038203e-05
-0.00014806353190892907
-0.0001325272195947091
-8.137140197232988e-05
-2.362939540739286e-05
2.027451728421359e-05
4.173216011837078e-05
4.229612426547372e-05
2.9463977740761525e-05
1.2156973818314529e-05
-2.5846875075459183e-06
-1.1106335611733769e-05
-1.3035075387487998e-05
-1.0190797002419974e-05
-5.213363229173504e-06
-4.382892323980297e-07
2.7197551645573555e-06
3.869884515774502e-06
3.3908892314676795e-06
2.030446714417788e-06
5.364983763298091e-07
-5.760745977026777e-07
-1.1004101326156117e-06
-1.089046050354707e-06
-7.422689395144211e-07
-2.913961921533723e-07
8.475184760416799e-08
2.963323738789835e-07
3.3781589722348497e-07
2.5874251708543807e-07
1.2804532918022885e-07
5.429755804688329e-09
-7.38559938197396e-08
-1.0102658489280079e-07
-8.677175197101789e-08
-5.075820415921262e-08
-1.2187864368984953e-08
1.6025249000254735e-08
2.8966097433670914e-08
2.8290137845576015e-08
1.9255499943400997e-08
7.716815937768818e-09
-1.9492598388111364e-09
-7.65954074402755e-09
-9.371040914738094e-09
-8.228882595796875e-09
-5.625974183944781e-09
-2.5546603035827075e-09
5.802267613407425e-10
3.728835924374411e-09
6.744034489221903e-09
8.984576169272602e-09
9.231026115797088e-09
6.062713549201333e-09
-1.3398511292433166e-09
-1.2223384474562196e-08
-2.3569801081384932e-08
-3.020882430407421e-08
-2.6132429430703412e-08
-7.028193752903149e-09
2.6543584306877395e-08
6.654547628556112e-08
9.705776815649294e-08
9.754733529909324e-08
5.032352821305333e-08
-4.907350092201595e-08
-1.8197787590360645e-07
-3.023637085751414e-07
-3.436443634509874e-07
-2.395566363736813e-07
4.2990014497992065e-08
4.6834576766148035e-07
9.097865063103351e-07
1.1591020219181368e-06
9.81909292566923e-07
2.1797081698654648e-07
-1.0967992739214156e-06
-2.634180549153807e-06
-3.7657350820258665e-06
-3.6982577003113266e-06
-1.7690464848856443e-06
2.1517568986287577e-06
7.287891367556921e-06
1.1813592389478339e-05
1.3144198413766379e-05
8.769433011524347e-06
-2.466308483483973e-06
-1.9008161893499225e-05
-3.578382087915234e-05
-4.4661635132883635e-05
-3.6682311715208244e-05
-5.993857953987673e-06
4.546081880156663e-05
0.00010437690308885107
0.00014604953719154405
0.00013993158491878925
6.129633177740396e-05
-9.319894331056192e-05
-0.00029145414398420424
-0.00046117350612491053
-0.0005021609863331883
-0.00031949660744168355
0.00012664250357636284
0.0007694194865367507
0.0014064529950725637
0.00172103790054816
0.0013721361628072587
0.00014874605195605448
-0.001850048625737058
-0.004083276836513546
-0.005577879311949413
-0.005158522836604615
-0.0019142779293196378
0.0041854026529701445
0.01173292051953352
0.01767508533136929
0.017734613373702825
0.007578447585835354
-0.01545814469365069
-0.050658151035674504
-0.09304548068785459
0.06593595645306342
0.03607346375749112
0.02513459763381856
0.03607348302762039
0.06593598237443936
-0.09304546885056003
-0.050658173853249805
-0.015458212224333471
0.007578345251996823
0.01773451063103309
0.017675036441193923
0.011732983304818399
0.004185611810652561
-0.0019139409990903654
-0.005158151171088889
-0.0055776371338720635
-0.004083359535650203
-0.0018506044072375905
0.0001477165357151029
0.0013708656068609191
0.0017200129234225898
0.0014063215670742889
0.0007707651837397626
0.00012965953467669207
-0.00031532506828823334
-0.0004982207476085252
-0.0004595407434496401
-0.0002942729056778995
-0.00010166391350330996
4.807962638877717e-05
0.00012571855792589722
0.0001372663694067524
0.00010850379041569882
6.795737767255691e-05
3.444801228156326e-05
1.2190439984378777e-05
-6.549751488170414e-06
-3.346082077738394e-05
-7.439160005227164e-05
-0.00012175653214661827
-0.0001527324692900611
-0.00013547960091207198
-4.321456092225056e-05
0.0001272947592581435
0.0003396352122472476
0.0005130765065150842
0.0005376788974235572
0.000312649262274608
-0.0001978462265055602
-0.0009089302547294556
-0.001586774430143849
-0.0018775714032509615
-0.0014124123302819839
1.9802098257029243e-05
0.002277392420012857
0.004732438559968159
0.006300636607100671
0.005714884208709893
0.002049267943233812
-0.004620472440379163
-0.012670122290112296
-0.018839437483165446
-0.018936670991837386
-0.009495130850576395
0.0097921542337987
0.03344974864640796
0.04833607107782503
0.033481904023861635
-0.03772789075244722
0.006870629445876419
-0.05598799289617088
-0.039170586336131796
0.059460236066331294
0.05966355753802946
-0.000778643285053688
-0.06797716129626559
-0.07665591205308428
-0.1585684521588293
-0.055167430117261364
0.0663824407004168
0.1970373288427692
0.2748074591247634
0.18451874921941447
-0.027932624585950767
-0.12749438496724874
-0.2536476721470181
-0.08483888889916001
-0.012966375915325498
-0.1347815924654788
-0.26329030945592846
0.041526748404046944
-0.17309659400338964
-0.10568517242387186
0.7509817154773243
1.9800342443824264
-1.3578902651976432
-0.28731105266414647
-0.05448457670896669
-0.4589085690962646
-1.6023646209809552
1.5295875482738779
0.251100214480546
-0.0659940431506262
-0.24389038210796868
0.05389996898452614
0.2882072973604514
0.4276588948911008
0.15334839394768715
0.08549735036428262
-0.3726580582435515
-0.7850792964522361
-0.442358430524654
0.25664649908086856
0.39633937747003756
0.315110823271298
0.1682958120183761
0.09630362700019547
-0.19485601963158317
-0.24056189978089382
-0.616907133998258
0.2620588728409208
0.5471608731614797
0.9606120228693679
-0.18723515301823582
-0.16825764537838106
-0.8013437713747085
-1.2284723911305264
-1.3207726966635374
0.8766515774560383
3.4719545745870515
-1.3435771939320043
1.073612891059061
2.650153159967552
-3.116399744354865
-4.2443741317647055
1.6224562098081519
0.039912493380940474
-1.0897876560988717
4.975200873180213
-1.0971243751018946
-0.1886434464013724
-0.14797559086468923
-0.7548256695528399
-2.2571317284269443
2.692278974646789
0.6847657628105737
-0.40964820153190207
-1.0175880252536882
-0.8497547227289121
-0.3115862548616445
0.05383868621190275
0.49544635653082403
1.377350243785687
2.5252591242649896
-1.9789838698065059
-0.7487595851871642
-0.4090415121617449
-0.7132999608165339
-1.8945394862478977
2.3329163281247682
0.7263903549953712
-0.15426683892161178
-0.40941681352243836
0.3641877708021071
1.6706985201978024
-1.6568735164341062
-0.4074812098838274
0.0626624591283693
-0.328031215282513
-1.3707506413870019
2.0208583612251103
0.37801761713934323
0.040539761665362085
-0.26762083089419947
-0.24494180766583376
-0.20632517281768936
-0.27545748992022023
-0.18487666749649617
0.11270308118862994
0.4249927394642466
0.3012189354211054
0.22419455314686249
0.2211058947916217
0.0941088666601181
-0.736253988242528
-1.1884022335464
0.3066640937459315
0.405384504770418
0.22669230583289293
0.31457208631050465
0.8046087650252874
-0.19323512353700498
-0.5926840983366153
-0.5172781087180135
-0.28824518966625384
-0.22684885318452294
0.12422906241022151
0.5669643297329512
1.016734147063101
0.49142024646322047
-0.46726012569034203
-0.5412321048208971
-0.3675527810231681
-0.6769463901448115
-0.4601163915841733
0.8278670364200025
0.4282111470362018
-0.18216882566309292
-0.5550918779277954
0.274875936679829
0.756807156607216
2.418286046012798
-2.3059640204069733
-0.6161637185988619
-0.27932601418105685
-0.578065158475701
-1.6971264199768272
2.8490918506278904
1.3639146974517886
-0.2817634604744724
-0.8731184596854756
-0.6426412714649703
-0.24260981614625401
-0.3190090649801314
0.5006363422706955
0.8061852373881663
0.400581810416487
0.10326119273762417
-0.8353600022526207
-0.7162161746882055
-0.5861702347175192
-0.05831248635996574
0.23988116649140565
1.0034931424694862
0.9964547565836136
1.0330435424119115
-0.3898035141781621
-1.2132592504948172
-0.7152419605904314
-0.8235929374690284
-0.8769059505760644
0.15112807311726076
1.1713468604789203
1.0710927797436454
1.0176989096680666
0.20824601061619533
-0.3180868166804992
-0.8131563325065441
-0.9263881957032294
-0.8203580628675232
-0.12479265661812768
0.4584173175031112
0.7066835663299683
0.6073497102505383
0.2947423485358357
0.01433576301800239
-0.27847733965322863
-0.29087007127832093
-0.3506662986072372
-0.1661007214926696
0.0006848945168857583
0.14139561667558487
0.09256528474839106
0.11631189239102342
0.0786737657725352
0.031931305463463046
0.004621661042348731
0.00016350849698694087
0.0028145464601448504
-0.011688827781116368
-0.06411460958796826
-0.1617783752329832
-0.09369035318423323
-0.03267132983268667
0.055802815457314074
0.20084379114114034
0.21427800921202486
0.08470884014650078
-0.01942291219848417
-0.13837386450182046
-0.30557851920406076
-0.1344660555382369
-0.013215625253036049
0.09034891342625301
0.21596526277970732
0.19580426856931119
0.043244626266643875
-0.05033678119634213
-0.11038415289384583
-0.1687014439772791
-0.05248945645622068
0.022973607582541775
0.05612764936709956
0.05608691048531122
0.03708485043272677
0.012979681585350917
-0.006422636127455111
-0.01665078061714266
-0.01785205494332621
-0.012976821226887335
-0.005796830385473652
0.0005846189869302808
0.0044579651503452895
0.005528278476244265
0.004486432549075652
0.0024304039537198065
0.0003724737478955249
-0.001045545823763059
-0.0016167366031978163
-0.0014740699542600368
-0.000924213049156756
-0.00028815657205796233
0.0002041197066077921
0.00045192943150314436
0.00046779103457238907
0.00033194967235031583
0.00014248289746407534
-2.183044759221329e-05
-0.0001189874682317754
-0.00014335292346756828
-0.00011406119333465963
-5.9954142308016576e-05
-7.023123150954426e-06
2.864947308856648e-05
4.226845940951657e-05
3.76801518664495e-05
2.3004491705456403e-05
6.537404891194947e-06
-5.900770191076656e-06
-1.1877313140488176e-05
-1.1874598794284846e-05
-8.086350867284654e-06
-3.120528888387586e-06
9.610594107540363e-07
3.0991495313750652e-06
3.2363165064623917e-06
2.0223729182511187e-06
4.089427280272622e-07
-7.268488747371326e-07
-8.532311119809333e-07
7.622461416252553e-08
1.6145649860187082e-06
2.942983527512354e-06
3.1187215386139823e-06
1.4285429308182555e-06
-2.216411385906989e-06
-6.968330337006078e-06
-1.0984058754174688e-05
-1.1785032678612113e-05
-7.106175173510673e-06
3.887458217109505e-06
1.938781693453452e-05
3.43238441522395e-05
4.097888688925298e-05
3.12596319167069e-05
4.603944367815013e-07
-4.8459994347831475e-05
-0.00010189523464592422
-0.00013612158370260554
-0.00012311831316391992
-4.1881706265795936e-05
0.00010715320415238293
0.00028988535454335743
0.0004358135113003699
0.00045165244334585003
0.0002540794163816241
-0.0001834227010711399
-0.0007845275366586336
-0.0013479855658290014
-0.0015742844128732337
-0.0011561889558138307
7.440317980782505e-05
0.001983016836694357
0.004023551623721368
0.005269046116411623
0.004648373886589519
0.0013918735049580325
-0.0044124404350260535
-0.011362456079545395
-0.0166697264897881
-0.016733958658538196
-0.008465282746907169
0.008845514114402432
0.03167912169867007
0.05132801644599387
0.05472106947423281
0.02753001571425999
-0.04080320953039704
-0.15158329846278695
-0.093225796455792
-0.041694210425882595
0.03409850228110554
0.16321742635478384
0.16321742635267714
0.03409850227434202
-0.04169421043804761
-0.0932257964729246
-0.15158329848166177
-0.04080320954427206
0.02753001571455616
0.05472106949700858
0.05132801649373497
0.03167912176306915
0.008845514173936166
-0.008465282724143992
-0.016733958705110286
-0.01666972662315664
-0.01136245628458328
-0.004412440652470002
0.0013918733749636366
0.00464837395884593
0.005269046472740461
0.00402355225346537
0.001983017588262642
7.440375356313093e-05
-0.001156188945823464
-0.001574285298804769
-0.001347987431117435
-0.0007845300305233413
-0.00018342495934849017
0.00025407864334832923
0.0004516543986038032
0.0004358188148516867
0.00028989333615898265
0.00010716148478096267
-4.187703391198371e-05
-0.0001231216460612004
-0.00013613592583456487
-0.0001019199080477837
-4.848883610231147e-05
4.391786368827167e-07
3.126092394946807e-05
4.101511426097688e-05
3.439743089914075e-05
1.948418268858926e-05
3.97233379724527e-06
-7.081287273531969e-06
-1.1867216384415155e-05
-1.1194960096644678e-05
-7.27872494590037e-06
-2.5310800416104923e-06
1.2621939635386179e-06
3.2687614470894725e-06
3.5191117839410773e-06
2.5801698299220233e-06
1.1815024298288542e-06
-7.191112084712635e-08
-8.425707891806855e-07
-1.0674621171726622e-06
-8.768978238066446e-07
-4.828814215395622e-07
-8.299728464920596e-08
1.9590557982837775e-07
3.112899133407616e-07
2.8722996737117836e-07
1.8244071767974097e-07
5.9246851518144986e-08
-3.717735753769903e-08
-8.65958521730721e-08
-9.086206782675133e-08
-6.522837074162895e-08
-2.866907583788945e-08
3.4031532707287904e-09
2.2635307330423942e-08
2.7745974400122642e-08
2.2327793228624493e-08
1.1937127636069792e-08
1.6402513138071367e-09
-5.386453711442305e-09
-8.152889659059253e-09
-7.3610432021286155e-09
-4.564651239931339e-09
-1.3718915105376283e-09
1.07608202280341e-09
2.289460204134887e-09
2.3432999220176044e-09
1.6466660827114058e-09
6.92406609906142e-10
-1.2730028964336352e-10
-6.062651556715202e-10
-7.202759259580575e-10
-5.678146325225016e-10
-2.9428742517635096e-10
-2.944983806843309e-11
1.4730641273074126e-10
2.1321310321534437e-10
1.8842959909171853e-10
1.1399101585176085e-10
3.13455759615811e-11
-3.0721716281995946e-11
-6.041426034754613e-11
-6.036315702707037e-11
-4.150802947496534e-11
-1.663437330488666e-11
4.2912025567379015e-12
1.619354958028959e-11
1.8675096010859017e-11
1.4421927332016426e-11
7.233689007625464e-12
4.2979327679482143e-13
-4.009286735607507e-12
-5.567838372828736e-12
-4.81777203449125e-12
-2.8408432525909875e-12
-7.040875423089831e-13
8.675022427028878e-13
1.5914280686491269e-12
1.5532655915793181e-12
1.0448003098167686e-12
3.9730856970589614e-13
-1.362462575446905e-13
-4.313328528975881e-13
-4.835158626213587e-13
-3.657323648858495e-13
-1.7713234621638648e-13
-2.5342366820702954e-15
1.0876020304643217e-13
1.4529552619253892e-13
1.2313521578690294e-13
7.07460478758298e-14
1.5566180408664902e-14
-2.417298877523113e-14
-4.175054834709917e-14
-3.9824468926923887e-14
-2.615828092661564e-14
-9.32513481622952e-15
4.262866665262436e-15
1.1560455769805022e-14
1.2602283575466485e-14
9.360980195579936e-15
4.420294159580937e-15
-5.50259948556644e-17
-2.840372775602765e-15
-3.687866075461227e-15
-3.044934397935909e-15
-1.659435422460919e-15
-2.3611903094413447e-16
7.672997575654519e-16
1.1921416164942153e-15
1.1184189408459509e-15
7.522237434091444e-16
3.1515878567477037e-16
-3.046027976839439e-17
-2.1044519121036647e-16
-2.295030875158957e-16
-1.4079348292926628e-16
-1.1557104584932565e-17
1.030229547092705e-16
1.726004230444754e-16
1.9200698601965066e-16
1.7361701159343673e-16
1.370461621421012e-16
1.0037528735985832e-16
7.507603402610991e-17
6.486099895374373e-17
6.73756440188505e-17
7.716072245889534e-17
8.849484782067773e-17
9.727484026338628e-17
1.0170089850912151e-16
1.0199188519243592e-16
9.957570833006967e-17
9.620003391221779e-17
9.326988869996218e-17
9.153537438401644e-17
9.109828697768058e-17
9.161845564338859e-17
9.258211356180458e-17
9.352584161201563e-17
9.4162580227625e-17
9.440639183214938e-17
9.432544091838725e-17
9.406420918551403e-17
9.37704785004905e-17
