0
2.684813267185024e-14
2.113559319801834e-14
1.7002428796876466e-15
-2.9844963481558327e-14
-6.498290143037106e-14
-8.84822790152955e-14
-8.200678782199363e-14
-3.134932658566103e-14
6.41697571256211e-14
1.8351597105557194e-13
2.8170330188594654e-13
2.980619481655626e-13
1.7703416211753684e-13
-1.0147867185808618e-13
-4.916294888804829e-13
-8.659429068936816e-13
-1.030757843704537e-12
-7.832510428871591e-13
-6.074110226987736e-15
1.2252027711918261e-12
2.5673573010111727e-12
3.42330776484324e-12
3.0890180572959432e-12
1.0383800327181701e-12
-2.714235782157292e-12
-7.307351675596036e-12
-1.0965247610068307e-11
-1.1342414266560522e-11
-6.3487399924634474e-12
4.672202855826317e-12
1.9787503611909808e-11
3.3924555159684603e-11
3.9548551262929716e-11
2.8946641540384073e-11
-2.0743757716515744e-12
-5.0078653404288196e-11
-1.0126640752002342e-10
-1.3225915601723154e-10
-1.1606129288159378e-10
-3.326453053238611e-11
1.1398342285283886e-10
2.905255255246791e-10
4.2636180126049387e-10
4.30922701228282e-10
2.2576423272376664e-10
-2.0973534397392475e-10
-7.946509136104814e-10
-1.3274509551463485e-09
-1.515312300943216e-09
-1.0654403001402062e-09
1.7062001827461533e-10
2.040043370208329e-09
3.989166940486293e-09
5.10368711579827e-09
4.349918092700563e-09
1.0149182074634274e-09
-4.755989405839317e-09
-1.1532671248975327e-08
-1.6559235900061013e-08
-1.6342677209221303e-08
-7.94644800041364e-09
9.239369214481584e-09
3.18470356493233e-08
5.188208512137691e-08
5.797764863551722e-08
3.9038810219765294e-08
-1.0131763627481895e-08
-8.284934234610198e-08
-1.569447717166341e-07
-1.967022030305396e-07
-1.6259760154432986e-07
-2.8566531489178537e-08
1.9733844022248945e-07
4.571136318719752e-07
6.423963571886848e-07
6.186381311835872e-07
2.762135990698141e-07
-4.010879072108969e-07
-1.2738526729659551e-06
-2.025419038892369e-06
-2.2150539143535787e-06
-1.4231392802607273e-06
5.297764581702658e-07
3.3551413721022072e-06
6.166959973542856e-06
7.571653389737989e-06
6.060223635603826e-06
6.849228637057585e-07
-8.147911988117564e-06
-1.809215667782137e-05
-2.4892200132654503e-05
-2.3371862402953124e-05
-9.45098418528673e-06
1.720763247566152e-05
5.085951853684128e-05
7.897953415524169e-05
8.449878237999865e-05
5.157914411073355e-05
-2.586702255785015e-05
-0.00013551731641722707
-0.0002420262961841976
-0.0002910812255145631
-0.00022515951107925656
-1.0014458320667232e-05
0.0003349360309993721
0.0007150281988502733
0.0009633259744664689
0.0008809360618669948
0.0003164713008321124
-0.0007317731440247131
-0.0020280941961603764
-0.0030777082494806794
-0.0032201134880583595
-0.001858172929037471
0.0012113335451562372
0.00546991379259686
0.009515799201291721
0.011245150558671233
0.008486096780920233
3.597396469416032e-05
-0.01317677720320894
-0.027311250586250026
-0.035831975611816676
-0.031227251866048297
-0.008309938916158843
0.03149870969694573
0.07625326432342995
0.10177620791769271
0.07384595029118733
-0.04505191461550182
-0.08547008672836919
-0.06007926593948204
-0.1558754735899411
-0.13288906334000639
0.06900328255379733
0.11621353884065459
0.06424152753613846
0.14242918666111476
0.14570616952251905
0.0364053987451872
-0.043756837291121294
-0.15466092700772519
-0.13738444783819515
-0.1989837530560357
-0.10778141801161963
-0.0013690318773229527
0.19457000336955613
0.14231947150427304
0.2708890948993481
0.16476231414542614
-0.033262225469792746
-0.20588424701321914
-0.23732330006496638
-0.1898993861373504
-0.08903130299340808
0.07904061355004534
0.15744754842946238
0.2016351632429833
0.06171445700225383
-0.030121703439236685
-0.06442912896850969
-0.05216823644688685
-0.017830443778787865
0.008931129734690586
0.000883964618627231
-0.06125130419024997
0.01417741148446482
0.030157856090941557
-0.0007773387716545718
-0.05983297989879591
0.07411446601266235
0.020757897163187777
-0.004450232653345944
0.008445270678978652
0.06439975601912025
-0.03472744249896514
-0.08775185051495635
-0.09252387828959212
-0.04635711982771094
0.0509864408306808
0.19276877073183768
0.161624381188201
-0.07059467436589328
-0.1383806185677103
-0.07494064177587552
-0.10458486849758275
-0.03823389114940003
0.12669353798456215
0.20313676738456213
0.010701845202595015
-0.025997504729873114
-0.07618182709918517
-0.10044347529901575
-0.04983646313423528
-0.069114001483862
-0.10516678244310072
0.08042449349855396
0.29796010899621356
0.12007043563858712
0.08075044978793348
0.0854403202152538
-0.16927709250756237
-0.37171904172966796
-0.1744984288597063
0.015729055024450617
0.034780604418108575
0.14546339409234302
0.21602704362426464
0.10003806858240195
0.023882751599473635
-0.015109747188601221
-0.04069651908328648
-0.0836527036646138
-0.16680974882619515
-0.094267837407127
-0.04833867119791186
0.0047878842317059704
0.10265227369747405
0.27190509588017303
0.11702397390833533
0.01695352728552708
-0.06869577420876079
-0.18607119561372532
-0.1712428362746812
-0.03793921410030426
0.02703150174114721
0.059735260616396925
0.10858966506241576
0.021242203198624427
0.03272562826403539
-0.04247184211258077
-0.013396432022283748
0.08909851412172513
0.01795291678057703
-0.08174271621123928
-0.06307883025093873
0.03185612080492727
-0.02105572814167638
-0.0242896850816547
0.041453014913229835
0.014197668851553286
-0.054891701483501996
-0.10895157272349722
0.10602448306962502
0.03258690294337235
0.09487011673099584
0.09523727015034703
0.015849892893036562
-0.17509170186623518
-0.11452627311312626
-0.03629297542118864
0.033831004636136565
0.07898586743063449
0.08924463036721413
0.05914314657965857
-0.013309041833517919
-0.12562887708005172
-0.06898746779607577
-0.027419217031007352
0.020383470685689745
0.09660960179992256
0.01859462369826768
-0.006131782077602509
0.017689104601817666
0.07383397459736767
-0.06154578415286712
-0.013931799291249925
-0.0038027230356002762
-0.04113514713931586
-0.1226919580087657
-0.0331774175287488
0.04966995145669504
0.14736145187980718
0.0729243517108986
0.026111949793338775
-0.006517487424029461
-0.04669833336736051
-0.11665906543182848
-0.03131947613814546
0.006854141741834741
0.00885599768537721
-0.003957160106543361
-0.005860393580919494
0.026123275002570882
0.10587427887601766
0.03431985799585938
-0.0007455260163273231
-0.02101241129455728
-0.05131895938087798
-0.11273797682294058
-0.017389215700435178
0.03344450073107113
0.04767214325719552
0.03835455694363759
0.01909997472369843
0.0005169848849759039
-0.011453675454189918
-0.015378704818872687
-0.012970066292882495
-0.007323263642408705
-0.0014131893871017166
0.00279995026108333
0.004611354048393845
0.004329398398565229
0.0028057593644407516
0.0009688879039156747
-0.0004947086336104255
-0.001266317061921002
-0.0013596939137344494
-0.0009948712095734374
-0.00045388685346767264
2.9889364548838146e-05
0.0003266346657447531
0.0004125211454846507
0.00033821775467227056
0.0001857318459681318
3.132920248699115e-05
-7.613782428605317e-05
-0.00012039509503997063
-0.00011085621335868778
-7.025276381703938e-05
-2.2654719188323295e-05
1.452678829864473e-05
3.352319287966634e-05
3.508960036258779e-05
2.5138915396549867e-05
1.1003787920702336e-05
-1.3713116280464447e-06
-8.773905596044188e-06
-1.0721886965862364e-05
-8.611093858208097e-06
-4.590355713256144e-06
-6.148894387723584e-07
2.0922803532407687e-06
3.152785573580282e-06
2.840689832172697e-06
1.7574155951642145e-06
5.239791972969132e-07
-4.1985386853421616e-07
-8.86132581302909e-07
-9.048465992605013e-07
-6.345335663477306e-07
-2.65632365208037e-07
5.0616643987601616e-08
2.349361070400221e-07
2.783031450117157e-07
2.189611733523817e-07
1.1313555870620239e-07
1.0897050501163096e-08
-5.7191196472241947e-08
-8.243960611582579e-08
-7.270849432312936e-08
-4.3878889820114247e-08
-1.1954729956389458e-08
1.1972712422520982e-08
2.337913804991238e-08
2.3306217851078383e-08
1.5992608598341593e-08
6.378103347034207e-09
-1.6942214801158133e-09
-6.273593315500095e-09
-7.214874010651389e-09
-5.560678115455151e-09
-2.780043728865367e-09
-1.5374033455551615e-10
1.5559638478613411e-09
2.1525710258795495e-09
1.858841299000798e-09
1.0933532503662369e-09
2.6806399607829317e-10
-3.3771768292770724e-10
-6.15710313685416e-10
-5.996129437644457e-10
-4.0245298530828815e-10
-1.5220717068953938e-10
5.359514174818354e-11
1.6710195204108264e-10
1.8681551453674314e-10
1.410352498012293e-10
6.808992382281633e-11
7.023821081351381e-13
-4.215541525469431e-11
-5.6128149792856917e-11
-4.746710344579548e-11
-2.7185451388099485e-11
-5.8752263474028675e-12
9.440845460183216e-12
1.6188292045677334e-11
1.540995774770777e-11
1.011228551399443e-11
3.606693138443131e-12
-1.6349336458331026e-12
-4.442561581903033e-12
-4.8345561186457465e-12
-3.5753612828607423e-12
-1.6631117884298536e-12
6.723311484598696e-14
1.143884678707553e-12
1.4713676478800622e-12
1.2215387996540468e-12
6.816127336974033e-13
1.2267391481806079e-13
-2.7769053232655104e-13
-4.545350264517868e-13
-4.324438304965913e-13
-2.838138218030259e-13
-8.942844540424188e-14
8.648313322456686e-14
2.0436407057243565e-13
2.45693778926179e-13
2.0582722094190907e-13
9.039105610964104e-14
-8.191795687049114e-14
-2.726521514782164e-13
-4.198744559501317e-13
-4.4548181089861163e-13
-2.7877696457940727e-13
1.0565110456277996e-13
6.472791449222515e-13
1.176371235124856e-12
1.4311394087225828e-12
1.1312771148014634e-12
1.0460220128929618e-13
-1.5650209843499053e-12
-3.429512660760266e-12
-4.685028672211564e-12
-4.3608908569720845e-12
-1.7007786976721708e-12
3.3401153989261886e-12
9.659795367823587e-12
1.488661273645848e-11
1.5810869074974974e-11
9.480047040578365e-12
-5.196885776113301e-12
-2.5831281207962033e-11
-4.5712181240846646e-11
-5.460471989503423e-11
-4.174861731482392e-11
-8.560602482658155e-13
6.419357996716796e-11
1.3536420078156536e-10
1.811344622204347e-10
1.6420481728238847e-10
5.652555876888054e-11
-1.4151087268380015e-10
-3.847545803819612e-10
-5.795702920994302e-10
-6.018401304310897e-10
-3.404381426333049e-10
2.404638624783079e-10
1.0400343641907885e-09
1.791152230608071e-09
2.0955292989224375e-09
1.543860725774998e-09
-8.885645047677555e-11
-2.625463170228351e-09
-5.340518306084592e-09
-6.999569540545574e-09
-6.172068392995582e-09
-1.8225506379476671e-09
5.949748655150087e-09
1.5301185355813228e-08
2.2539779059879314e-08
2.287185755078628e-08
1.2125010918830013e-08
-1.0835067883562986e-08
-4.178216651408365e-08
-7.010089712602706e-08
-8.030968004057235e-08
-5.6865863547080654e-08
8.210018405077022e-09
1.0701191060133778e-07
2.104240376622943e-07
2.701589168612586e-07
2.3142646817721835e-07
5.616126852887134e-08
-2.485105955140979e-07
-6.075528419180169e-07
-8.75581076446523e-07
-8.676786824010622e-07
-4.2758141734037974e-07
4.786819557977959e-07
1.6750653639870508e-06
2.7403636223575496e-06
3.073492178907234e-06
2.0853051207597065e-06
-5.041332828344198e-07
-4.348115900964307e-06
-8.280433453042724e-06
-1.0414439469119206e-05
-8.654660303281596e-06
-1.608273214106396e-06
1.0320644988384085e-05
2.408727908785529e-05
3.397385149347031e-05
3.285598017852942e-05
1.4897270796210257e-05
-2.082681166071173e-05
-6.702232320172596e-05
-0.00010700118680203718
-0.00011745278182940066
-7.608801789434251e-05
2.6783055851388646e-05
0.00017616253766046674
0.00032542561785656263
0.0004009397522447461
0.00032267429487065936
3.992524058844048e-05
-0.0004266767333839717
-0.0009539280182911844
-0.00131722408733598
-0.0012423643668380154
-0.0005118252513952945
0.0008952995479891015
0.0026791871255816046
0.004181465976333725
0.004502566996346141
0.0028066412833706636
-0.0012272928006040627
-0.006945763216433621
-0.01247579870914814
-0.0149434988843952
-0.011326325529663438
9.497025191592965e-05
0.01801761537466937
0.03676186065328064
0.04605769885571598
0.032591324018536205
-0.01661840322974951
-0.109779064136291
-0.04635660840680876
-0.015321515762453048
0.00330794644090262
0.03381731280898621
0.09847002508938701
0.011541815895857035
-0.024482830740647575
-0.01965281195805056
0.005609855765398343
0.02473931660527066
0.010338209255616012
-0.0603417573552152
-0.0006644184833849285
-0.011555223181429188
-0.08088034942992953
0.014476552851403257
0.10427408724630276
0.01945129726097138
-0.012950125670912662
0.02672756407295221
-0.05075513519773055
-0.04350299568495145
0.04230202873324048
-0.006696382142164938
-0.010221159514176912
0.006528284414622836
0.014186255353233257
-0.0187122491603285
0.07738100409087643
0.07735527353257665
-0.033190001688002214
-0.0524241244342299
-0.15844976003068875
-0.10956735148053742
-0.050524271610862495
0.07523370261427381
0.10991202752400422
0.2671297127732556
0.12452819362917275
0.02708208757005948
-0.09851379269528567
-0.12213957828006393
-0.28806658861281786
-0.19986189166140803
-0.017939905546765816
0.12887746493607183
0.12139516433350543
0.22506601127302733
0.27049651790804713
0.04603447783454943
-0.09516054979543158
-0.2162903759149057
-0.17328018046921392
-0.19486542572312668
-0.07330197844311233
0.03144034213978631
0.1759611210582017
0.21209040634811324
0.16758841437314853
0.0355254703436406
-0.02438553131407435
-0.07356857609544895
-0.17617455026176052
-0.1809486542426658
-0.10937468426317042
0.04635515566996263
0.11564748804845751
0.13573723461238094
0.1375066201701486
0.13630216426276429
-0.06913727220546827
-0.08989402811368037
-0.1356556698254672
-0.20427922329038958
-0.07701009219811393
0.07812596695504043
0.09573178151374176
0.19945116043289032
0.19114939074798
0.04778374343905811
-0.07209322642858351
-0.21422267349570084
-0.21223897151643814
-0.07537487709169675
0.015053551104008269
0.09940290329608942
0.22658028518246093
0.03918636756145407
-0.038093412930677015
-0.004010098437095755
-0.0800845413286549
-0.10554914525439327
0.06987820702402545
0.19392101922343
0.019990524578445152
-0.0842779548509838
-0.12913296414607028
-0.09782413921934487
-0.14759372389692987
-0.018156940456020804
0.1533453794132569
0.2148474815278732
0.18508908739828436
0.04801162755771253
-0.041505031101559134
-0.14199943685681207
-0.10494962337173726
-0.15622521009211882
-0.08556801997047615
-0.04768835772165375
0.02483874663593093
4.725311803393121e-05
0.12216603089267906
0.19141636450524896
0.35504251961883554
0.514761507232085
-0.4482952682635811
-0.43636973568044957
-0.297213636100433
-0.3999449821980262
-0.43559778208692723
0.5552303809713619
0.5355311633067521
0.4216961455857364
0.2477610051781127
-0.043631421475149944
-0.18156304484554114
-0.32667314929660074
-0.42483345708812587
-0.1695768869907602
0.016260424062397413
0.17668826548284666
0.20104052717696566
0.19412077765446764
0.04808948187911257
0.02344569181050599
-0.057890355521876276
-0.008441054476856096
-0.06361991679850909
-0.06733468061281189
-0.05900560238253325
-0.06519330233569344
-0.0974959464720928
0.04346526430527244
0.16010127148995787
0.24969276933005444
0.10021355339762593
-0.10713159227156203
-0.18916461494532782
-0.1497467970318141
-0.17212848392475308
-0.019006519062243637
0.15875322952776125
0.20771095690561472
0.15739288315988287
0.011503509127601359
-0.051937038429893036
-0.0720069537403641
-0.09146634854321767
-0.1434812032385994
-0.042893385306309685
0.015498843890970265
0.05175687418720376
0.09118771802969354
0.15414295581622098
0.04899973152559819
-0.029377415078783414
-0.09574320300188555
-0.1674836491451424
-0.058028283514098895
0.02642703803410364
0.08600828279764085
0.12355162487286565
0.14118385301813782
-0.06031906337765907
-0.07864154822444519
-0.10511971235178164
-0.12122067891633374
-0.09944686185906415
-0.010070209454061164
0.16759227272151273
0.23328303323239571
0.158604744931917
0.08900284004536638
-0.04375007875623031
-0.3016253405237155
-0.31971233307900127
-0.09281443631458519
0.02507087195340475
0.10766505128714014
0.23433678865806268
0.26696547224882217
0.033671117019249734
-0.0756734206811478
-0.1018604927163099
-0.10060534370153033
-0.12463177604438085
-0.009141652738018948
0.03591454681911724
0.02598881929052373
-0.004146602557865735
-0.010297572620147629
0.04998989824881765
0.00726256103686553
0.07288296830656726
0.03608127123844113
0.06604738806043199
-0.08128710216514044
-0.05336873301032199
-0.09064184238821714
-0.018515209749914465
-0.0437637335408184
0.044034655545345254
0.06702767012258404
0.05171177185415788
0.022072717962377707
-0.004918275131488739
-0.020750924487500454
-0.024199147321867197
-0.018645904814134365
-0.009148865745725512
-0.0001656545047445417
0.005647082009106896
0.007609024851751012
0.0065020007575624
0.003786202311969032
0.0008927291258947816
-0.0012142349549737232
-0.0021680753773558803
-0.0020954833303264424
-0.0013962644348115595
-0.0005186139591303597
0.00019829629028372204
0.0005899911379334497
0.0006538034764234909
0.0004902770416134509
0.0002339107422184995
-1.2491790419749488e-06
-0.0001496578219238795
-0.00019689586514057638
-0.00016538838951006988
-9.388004636680164e-05
-1.9359624599058095e-05
3.382929164517179e-05
5.69352488712986e-05
5.380149292915708e-05
3.504201127473144e-05
1.2245192060947589e-05
-5.9975908980581215e-06
-1.5670301595883956e-05
-1.690420143459752e-05
-1.2413778343149896e-05
-5.701582432708333e-06
3.2338222057424904e-07
4.03477218000736e-06
5.124968183476324e-06
4.2166823556502116e-06
2.3271061305782704e-06
4.058472136829759e-07
-9.363613020625581e-07
-1.4936475026938995e-06
-1.3805069301876401e-06
-8.784414286960132e-07
-2.86844793080821e-07
1.769268294867296e-07
4.1520285356731624e-07
4.364985573821323e-07
3.138618546947446e-07
1.3839476905135322e-07
-1.5785061840613753e-08
-1.0841843927997691e-07
-1.3322355160428552e-07
-1.073762262092283e-07
-5.7538990117078026e-08
-8.062921078967724e-09
2.5756730411444583e-08
3.912413409070507e-08
3.538231168594316e-08
2.1981613347738663e-08
6.648047122048734e-09
-5.1271247574675494e-09
-1.0978965259043e-08
-1.1258131931515617e-08
-7.924200443492271e-09
-3.3437259801733773e-09
5.971764726573213e-10
2.9045235693891898e-09
3.4587674781424137e-09
2.73092768441155e-09
1.4188227035996809e-09
1.4617808429972702e-10
-7.046555642961313e-10
-1.0232815379325783e-09
-9.058034101597791e-10
-5.490179594185598e-10
-1.5206823437254824e-10
1.4651599337951947e-10
2.897544201883738e-10
2.900341581319106e-10
1.9977115847138134e-10
8.036454887129198e-11
-2.0248344027952082e-11
-7.759607155551258e-11
-8.968577468501712e-11
-6.936909405363308e-11
-3.4882893595986717e-11
-2.184760225933107e-12
1.9185886462381226e-11
2.672528329484198e-11
2.3162136705641116e-11
1.3685059746305199e-11
3.4212026386513356e-12
-4.139949825903583e-12
-7.633237197012815e-12
-7.46333310600158e-12
-5.0285663300817976e-12
-1.919955341078483e-12
6.456791822705009e-13
2.0677216991693767e-12
2.3227407919868255e-12
1.7598182795265345e-12
8.548867580835616e-13
1.5733983696149887e-14
-5.201291895270044e-13
-6.969949406635972e-13
-5.915603514006381e-13
-3.403835300635946e-13
-7.531551634211743e-14
1.1588701576339045e-13
2.007336769839342e-13
1.9183486113170294e-13
1.2640435834072403e-13
4.5615874590462454e-14
-1.9695225483903226e-14
-5.485520367567794e-14
-5.999451136910969e-14
-4.456748116159232e-14
-2.0970560195811245e-14
4.191439366037151e-16
1.3755436317379474e-14
1.789388088153721e-14
1.5019272622312647e-14
8.71741964627735e-15
2.295981289453384e-15
-2.203499993958564e-15
-4.226314394098165e-15
-4.341231075000696e-15
-3.59323342046221e-15
-2.8677788635638937e-15
-2.482021065914482e-15
-2.1087047532284366e-15
-1.0290093875868684e-15
1.3849183953493067e-15
5.132685472938472e-15
9.214928516329388e-15
1.1648479734323933e-14
1.0012027394139515e-14
2.504287018536223e-15
-1.0739106578199496e-14
-2.6572084545658595e-14
-3.8663806097720655e-14
-3.8810080572774005e-14
-1.9927758523997893e-14
1.977824773210023e-14
7.285150766499936e-14
1.2089260473957658e-13
1.3728597083896833e-13
9.555967012586693e-14
-1.7476360700275793e-14
-1.8751651415491343e-13
-3.6385028790826793e-13
-4.632255995416674e-13
-3.9199243981244467e-13
-8.62230903241443e-14
4.3952965600432837e-13
1.053851510130413e-12
1.5054006696072386e-12
1.4771651055296691e-12
7.045759003698853e-13
-8.63668052911198e-13
-2.9165304473883373e-12
-4.723610244897425e-12
-5.251684797546977e-12
-3.498134312583691e-12
9.97185524322385e-13
7.610306247400145e-12
1.4311397140653146e-11
1.784909735005628e-11
1.464383269713762e-11
2.3613908300342066e-12
-1.821388917629395e-11
-4.1755549685946214e-11
-5.838360481172361e-11
-5.5890571010312106e-11
-2.4406588655886353e-11
3.737969947489444e-11
1.1660726707588633e-10
1.843547649127407e-10
2.0057158661356976e-10
1.273557813270681e-10
-5.1120018686528687e-11
-3.0799580670401145e-10
-5.621842336501038e-10
-6.868567209060332e-10
-5.453972986522948e-10
-5.3048573503166254e-11
7.512179376800562e-10
1.652091596512021e-09
2.261679010111374e-09
2.1104926785214454e-09
8.314633560685429e-10
-1.5997147163808716e-09
-4.653654932925196e-09
-7.186789607971876e-09
-7.64845151504373e-09
-4.608778140944738e-09
2.466506862209061e-09
1.2432966457127171e-08
2.2057072647463713e-08
2.6397175644761196e-08
2.024739331146198e-08
5.49797371272197e-10
-3.085184406784138e-08
-6.527561297690388e-08
-8.751097677864739e-08
-7.95254094590373e-08
-2.771318093805937e-08
6.783003832023335e-08
1.8540160793138712e-07
2.798460245124955e-07
2.91195619040121e-07
1.6562629153047402e-07
-1.1445106065106592e-07
-5.006903927124009e-07
-8.643655330917467e-07
-1.013153701443199e-06
-7.490022842528364e-07
3.759295129194373e-08
1.2622259225076313e-06
2.5756255474790183e-06
3.382047126260484e-06
2.989805401814104e-06
8.964629596312494e-07
-2.8537140010569204e-06
-7.37424708531118e-06
-1.0884472422833298e-05
-1.1068071446089916e-05
-5.903684294891304e-06
5.167724567857383e-06
2.011858666514364e-05
3.383261012670456e-05
3.883339536065708e-05
2.759906632795197e-05
-3.7572060872414984e-06
-5.146182007037574e-05
-0.00010149413079019385
-0.00013054848174524336
-0.00011213057728029552
-2.7764028200293423e-05
0.00011924945255348612
0.00029281503303498076
0.0004227964563018804
0.0004198184033418164
0.00020814135872378975
-0.00022910063853649555
-0.0008074122605078584
-0.0013237217131370996
-0.001487565045408049
-0.0010133440792874353
0.00023644945809270574
0.0020981939219796263
0.00401422960962419
0.005081062007436038
0.004297096957319796
0.0010036116435100913
-0.0045871892134801895
-0.010990158726815816
-0.015451336732916168
-0.014611559018533666
-0.0059250159249950715
0.010353770817556226
0.02913467008388242
0.03917707084981525
0.02326734261308919
-0.03967786290990604
0.029245045941026917
0.013737847506314715
-0.09314596430755497
-0.08604899084730022
0.052902894288690806
-0.04887613066459628
0.04005927176347788
0.14886976746627165
0.09951950539559297
-0.09495725803181858
-0.028615700347432115
-0.09855720925258518
-0.10118219275504088
-0.031009581936340447
0.11713047727987184
0.14367072760328103
0.0401952320158526
-0.011806791101079617
-0.03824281135002836
-0.0667313419708609
-0.12030223773513664
-0.013026273900255379
0.050889491104134654
0.07465601270175247
0.0647031384853244
0.02686440727961462
-0.0355459697962992
-0.12157886299673483
-0.03140325963878247
0.03475357769867111
0.07692654209375208
0.0955881445183392
0.09286533098377316
-0.12458933716881902
-0.14198188652443064
-0.13442205984314323
-0.06930285156524614
0.0858496643016234
0.1516661348624881
0.12547626965615238
0.17508931946805456
0.04148733327631795
-0.14892258288333007
-0.06541621182325956
-0.15302584108802295
-0.21791895715980736
-0.022960833756065092
0.10476343775954858
0.056417404895169825
0.11887650828297204
0.1534596224573843
-0.018586863888731705
-0.020611841224628284
0.08541770884404302
0.013556243950721126
-0.12619611889750476
-0.00692782956703956
-0.06739382117553466
-0.3023568279597487
-0.06359207698404491
0.12792115485543068
0.16132411990515563
0.11249132769088617
0.2250259884812988
0.10143250269696846
-0.09315684839679991
-0.21656724849202555
-0.1299148841718222
-0.07959943078039892
-0.08662802102838228
0.05425760293562448
0.1667910153508296
0.08053572577595268
0.018137934495446973
-0.013662175766797537
-0.027437825372063896
-0.053077068836189394
0.06833981298123297
0.09334102483867361
-0.013693603931893247
-0.0701885734005545
-0.06691118782291562
-0.1640232082045444
-0.09409244393581516
0.026934724810007433
0.08224673449145674
0.13421336832173955
0.2076434705951857
0.08174246778666129
0.09410551043178952
-0.04345393164367523
-0.22130592491429366
-0.3076548560875095
-0.13131631261149793
-0.0775315883805039
0.10172240856558774
0.26678131737915683
0.26652370670802195
0.12057554916611128
0.01382097817674826
-0.09531297363121842
-0.2565241994060689
-0.10640091385102333
-0.051925905122884496
-0.06413146984297978
-0.08362922481993437
0.16392063429076006
0.14706889986598248
0.10864173906214442
0.052411113868105846
0.1401462195744456
-0.10030209698936608
-0.1584115964385167
-0.12075046332902849
-0.052699934485286974
0.013414445289018032
0.08185715581783315
-0.010648125311739014
-0.004480611606083383
-0.02956628644256216
-0.018514898088464158
0.08142475847529619
0.0994644363243092
0.03728846464594666
0.07126013157179059
-0.039253863906695115
-0.13930514053855034
-0.06488581298903875
-0.03238291137829031
-0.033958701852945576
-0.040060665168457556
-0.008286251087593798
0.1037910741670936
0.12530634420468117
0.06211343172004961
0.09321437948171811
-0.025144156557520492
-0.14891087961458344
-0.1325659386866185
-0.016666776173122202
-0.02018457593367561
0.06084881376659538
0.049158958185191316
-0.021231559055044587
0.08683422318986485
0.006823216850695081
-0.03583766713693587
-0.025436637575669472
0.04448364832009789
-0.027165512060651993
-0.04691861318783943
-0.02492185292531664
0.02624767825563858
0.09214797844542384
-0.04307044349191391
0.004326268886939203
0.019453400628319382
-0.008894033309392155
-0.08615521742191942
-0.010941063348547008
0.024418398497891725
0.031698014854568204
0.023655324150784824
0.011045169140336732
0.0007101039979102466
-0.004838215446415358
-0.006494730358365589
-0.00681641748456457
-0.008115914883542156
-0.01100219172100475
-0.01381507162118903
-0.01317111965585984
-0.0055547295191367314
0.010440790868630673
0.03194641998749134
0.05067129669268279
0.05368280109328855
0.026571998091313297
-0.041413190618334844
-0.15178260518016554
-0.09310028836129747
-0.04139688268985541
0.034418683268875566
0.1634579131926516
0.16333352405769289
0.03409283788306606
-0.04179108804239384
-0.09337261750995308
-0.15173759589208083
-0.04092387510635898
0.02748212817004857
0.054778533053582434
0.05150492364113837
0.0319539174608083
0.009146557136282634
-0.008259578752417406
-0.01676947900269527
-0.017061990504225705
-0.012122848086619818
-0.0053812153240475466
0.0005679423537720403
0.004455958934747064
0.006167126820839233
0.006201812958526553
0.005112386144744131
0.003168547215963508
0.00036478611818663797
-0.0032760781774741235
-0.007282019077459858
-0.010446308974905187
-0.010920203743076506
-0.006818826887887291
0.00272287754496179
0.016354337248434766
0.029698095047176565
0.03551699743663247
0.025271245297775916
-0.008002819448131922
-0.06625246713654385
-0.14380559717805685
-0.02715805568757954
0.10200982028318382
0.061239281092277574
0.06124904993771447
0.1020438208239535
-0.027090019037782614
-0.14369963364532548
-0.06612335630704207
-0.00789155325815286
0.02530186751299134
0.03540241497747682
0.029405467205112053
0.015919578538137146
0.0022743892526072952
-0.0070692829243440515
-0.010733820978491442
-0.009659972521103408
-0.00593339519940722
-0.0017021436174757152
0.0015198153942538846
0.0030922970467850293
0.0031270074513694486
0.0021757888160036792
0.0008962573690168752
-0.0001925430867742709
-0.000821370390927092
-0.0009631519149217077
-0.0007525682053492654
-0.00038469008978041675
-3.198910160821797e-05
0.00020113708368923737
0.0002859158651523555
0.0002503977149827248
0.00014984106878698775
3.9489557364516764e-05
-4.264843932263487e-05
-8.132161503700858e-05
-8.043350346914405e-05
-5.479032442723255e-05
-2.147984245870762e-05
6.294979210251839e-06
2.1906271010738624e-05
2.4953221550232234e-05
1.910010449230681e-05
9.440716661409671e-06
3.8499400958255235e-07
-5.4649631952220935e-06
-7.462343667099553e-06
-6.399215696529991e-06
-3.7310956471125094e-06
-8.794223668887057e-07
1.1991681116804122e-06
2.140441890521357e-06
2.068578244163341e-06
1.3780721594302643e-06
5.114443184955413e-07
-1.963860474421552e-07
-5.830196294190877e-07
-6.458573887458897e-07
-4.842225627725586e-07
-2.3095706215486519e-07
1.3121145392431877e-09
1.4786868246630095e-07
1.9449150292543573e-07
1.6334418676615774e-07
9.270121137335e-08
1.909607160811009e-08
-3.3431395111812664e-08
-5.624280410533299e-08
-5.3138534735884735e-08
-3.4604400242712366e-08
-1.2086604715855799e-08
5.930187941564189e-09
1.548092858291913e-08
1.669670653263728e-08
1.2259519850748215e-08
5.629110495272404e-09
-3.215061292968139e-10
-3.9864383384257034e-09
-5.062310536552001e-09
-4.164499790890672e-09
-2.297823442670841e-09
-4.0018527076325114e-10
9.253119380651038e-10
1.475469717494347e-09
1.3634870135253759e-09
8.674613865807785e-10
2.8311027485238466e-10
-1.7491230051083252e-10
-4.101788548704199e-10
-4.31136954897081e-10
-3.0995851509499227e-10
-1.3663128352263214e-10
1.564468486395206e-11
1.0711719341758352e-10
1.3159354609445632e-10
1.0604648443839764e-10
5.681388973193902e-11
7.946511104108687e-12
-2.5451693109155918e-11
-3.8647543455265954e-11
-3.4945779990088864e-11
-2.1706544492127322e-11
-6.560909855591567e-12
5.068184466388323e-12
1.0845980767154425e-11
1.111977039773658e-11
7.825586941107875e-12
3.30101844930479e-12
-5.911871762904202e-13
-2.8695838568198143e-12
-3.4163991436650928e-12
-2.6970648348844082e-12
-1.4008952406370953e-12
-1.43918137194905e-13
6.963030165357401e-13
1.0108242482406995e-12
8.946390489094466e-13
5.421586741645758e-13
1.5007749583980277e-13
-1.4479979174907638e-13
-2.8622218988257543e-13
-2.8644863599753464e-13
-1.9726431423021004e-13
-7.931626454779654e-14
2.0052518317311384e-14
7.66797716287888e-14
8.860498735778548e-14
6.852690507492323e-14
3.4459949917130997e-14
2.1646328491897386e-15
-1.8939201134607484e-14
-2.6381038948172273e-14
-2.2857848025930706e-14
-1.3495278342397751e-14
-3.357393871679781e-15
4.109812845924342e-15
7.558713707500202e-15
7.389621812398788e-15
4.984012689182118e-15
1.9134022906166288e-15
-6.204860128843961e-16
-2.0246387881658474e-15
-2.27611362149413e-15
-1.719828174292436e-15
-8.259053732331644e-16
2.9058784397050666e-18
5.320741583137891e-16
7.066386154498534e-16
6.023978527838763e-16
3.542511254505793e-16
9.242795484085343e-17
-9.640572700595782e-17
-1.8017299662749978e-16
-1.7133991222583295e-16
-1.0666937134047979e-16
-2.683422046842412e-17
3.7701542594933186e-17
7.24329018009037e-17
7.747573982804509e-17
6.216101400829241e-17
3.874078773765457e-17
1.749491743249836e-17
4.2498476965533206e-18
1.973435208852905e-19
3.2250057631967532e-18
9.788462083325553e-18
1.6542500336715872e-17
2.1311046748733787e-17
2.333634173830286e-17
2.2994336790838307e-17
2.126109515538915e-17
1.9188032797888444e-17
1.7546386107132178e-17
1.6689619918312865e-17
1.659663949788269e-17
1.7015929615831685e-17
1.762860788302533e-17
1.817260171183282e-17
1.850350515937636e-17
1.8596393968964388e-17
1.8509716597161765e-17
1.8336448939348272e-17
1.8162421498620664e-17
1.8042179483483404e-17
1.7993464103514705e-17
1.800519709133862e-17
1.8051519463255218e-17
1.8105283389914618e-17
1.814699092104252e-17
1.8168064437020446e-17
1.8169510754410182e-17
1.8158087183413788e-17
1.8142082493937424e-17
1.8128169821174697e-17
1.8119919172763592e-17
1.8117823868234093e-17
1.8120276657655584e-17
1.8124842360604124e-17
1.8129321283932227e-17
1.8132348656539597e-17
1.8133513565136715e-17
1.8133136772459127e-17
1.8131901979091103e-17
1.8130509335290978e-17
1.8129451075056192e-17
1.8128934384655774e-17
1.81289214836698e-17
1.8129231372644413e-17
1.8129648872107336e-17
1.8130004273979542e-17
1.813020956097968e-17
1.8130255850783727e-17
1.8130187102558938e-17
1.8130067002750734e-17
1.8129951860969805e-17
1.8129875760452597e-17
1.81298480929288e-17
1.8129859698274412e-17
1.8129892534246916e-17
1.812992856457163e-17
1.812995538091786e-17
1.8129968005205596e-17
1.8129967713054272e-17
1.8129959339271087e-17
1.8129948463083882e-17
1.8129939394999596e-17
1.812993429863083e-17
1.8129933304497587e-17
1.8129935216003854e-17
1.8129938369964823e-17
1.8129941326590058e-17
1.8129943236402588e-17
1.8129943888328124e-17
1.8129943541052846e-17
1.812994266983369e-17
1.8129941738763148e-17
1.812994106015372e-17
1.812994075289386e-17
1.8129940776412702e-17
1.812994100189428e-17
1.8129941284854648e-17
1.8129941515949854e-17
1.8129941642166616e-17
1.8129941662665126e-17
1.8129941609879645e-17
1.8129941527184392e-17
1.8129941451350543e-17
1.8129941403505084e-17
1.8129941388288398e-17
1.812994139846215e-17
1.812994142152898e-17
1.812994144556094e-17
1.8129941462709804e-17
1.812994147015601e-17
1.8129941469141054e-17
1.812994146308888e-17
1.8129941455736686e-17
1.812994144985452e-17
1.8129941446736705e-17
1.812994144634022e-17
1.8129941447789258e-17
1.8129941449954182e-17
1.8129941451896998e-17
1.8129941453093454e-17
1.8129941453444574e-17
1.8129941453151324e-17
1.8129941452541803e-17
1.812994145192223e-17
1.81299414514895e-17
1.8129941451309938e-17
1.8129941451346564e-17
1.812994145150856e-17
1.8129941451699364e-17
1.8129941451848878e-17
1.8129941451925622e-17
1.8129941451932368e-17
1.8129941451892703e-17
1.8129941451836056e-17
