0
-3.289483951927953e-16
-3.619473162243658e-14
-7.50037198282882e-14
-9.933845432459735e-14
-8.88050230743019e-14
-2.8355931383518906e-14
8.119098848972236e-14
2.1434689266700436e-13
3.19193478799212e-13
3.2762880737449783e-13
1.7953571054310545e-13
-1.429567484082949e-13
-5.821451254450731e-13
-9.893232056153193e-13
-1.145246343100676e-12
-8.27236579904732e-13
8.307034500514673e-14
1.48084599908268e-12
2.96018268644659e-12
3.83937652001677e-12
3.336803028580635e-12
8.981191265778773e-13
-3.3986252153410626e-12
-8.514390906385469e-12
-1.2403419516573756e-11
-1.243708970280838e-11
-6.361038649510878e-12
6.376615054521015e-12
2.336512108948136e-11
3.869955639865535e-11
4.386275416002853e-11
3.040649363682856e-11
-5.84504218331224e-12
-6.025751130419628e-11
-1.165566126809963e-10
-1.480921693043018e-10
-1.249493475753924e-10
-2.6796331875370396e-11
1.4153350056465042e-10
3.3781689929740904e-10
4.815468969134302e-10
4.713870733932098e-10
2.2302195539241057e-10
-2.7941127640680723e-10
-9.357732549082507e-10
-1.5119416915235241e-09
-1.6774233231466359e-09
-1.1122903948811783e-09
3.290204857251922e-10
2.4447655403459063e-09
4.583729032785563e-09
5.705266954207e-09
4.666119368735533e-09
7.242685580695996e-10
-5.8624875243572295e-09
-1.3383258840504513e-08
-1.8673801789409374e-08
-1.783234543397379e-08
-7.714372548130846e-09
1.2078170698683091e-08
3.740657398155391e-08
5.900171716598377e-08
6.405421501474364e-08
4.047223919064102e-08
-1.6742913170735017e-08
-9.891629650120619e-08
-1.800378808127839e-07
-2.195189545097972e-07
-1.7373307235103336e-07
-1.575277855838788e-08
2.416874346355518e-07
5.294458959884757e-07
7.233075726559271e-07
6.732332462003911e-07
2.623124524603504e-07
-5.163919270165998e-07
-1.492592986702177e-06
-2.299834012863412e-06
-2.442222083661598e-06
-1.4636844736628873e-06
8.041574053477236e-07
3.992021327785789e-06
7.062878348053523e-06
8.435438918680951e-06
6.447535862305603e-06
1.283271961511042e-07
-9.92198835602891e-06
-2.091607945414952e-05
-2.7983650497996966e-05
-2.5362595347714736e-05
-8.721033557492382e-06
2.1877714345586136e-05
5.94552257488241e-05
8.954333770208847e-05
9.296705359081461e-05
5.256234588243912e-05
-3.719787766861486e-05
-0.00016072553487206875
-0.0002767437043608886
-0.0003237183844427675
-0.0002384264302216558
1.3866037486070204e-05
0.0004057477586022736
0.0008250963285072548
0.0010811595519645205
0.0009529153091919787
0.0002804194699517317
-0.000920917099327043
-0.0023661134816572063
-0.0034845022602462985
-0.0035349082965891406
-0.001871427874237525
0.0016839978283377873
0.006484208754383421
0.010900097838001702
0.012558763923114785
0.009088576727919302
-0.0007029152437076649
-0.015552102174900122
-0.030947834784628626
-0.03952604379960938
-0.03320434351651746
-0.007129168119218731
0.035254333401123904
0.07752320190678978
0.08802781390348603
0.021970753784587828
0.028741661437306595
0.06385434903106275
-0.09688793398558664
-0.24477578628640656
-0.13154017438029503
-0.07234048532093458
0.04042036125461642
0.11492957923752761
0.23525862421499114
0.24146854653029812
0.12086917682336733
-0.18666652753198065
-0.17122270988239247
-0.1292577749608485
-0.14160904993523055
-0.059292303760859526
0.10023259680178843
0.14754631090933737
0.11052146146158544
0.023177871826961703
-0.08226191388158043
0.021092040669183746
-0.045270297957258156
-0.06382355303603028
-0.019946819916777138
0.09760787430976485
-0.1055090047108479
-0.032669134718292615
0.10013718989963154
0.06185574261397337
0.006590763135124994
0.0777899542957881
0.01678330593538081
-0.025291120983155876
-0.0744968079376008
-0.1233384765779533
-0.12573723428750408
-0.0003559182795906889
-0.042901098696107524
0.054535989174953066
0.18134585071670573
0.18900977648687683
0.07972363773813941
0.006275288231412316
-0.11696056899205126
-0.19553423826868035
-0.13467734088507616
-0.02286445276111352
0.07758657386638802
0.13295447588271472
0.13633567958723763
0.10516823564141563
-0.11974689258017814
-0.2741520583810139
-0.07196612012118651
-0.011984076199787403
0.00887934640544239
0.07754767963530046
0.24646063168697935
0.1205632456582205
0.05421813280808319
-0.040119007785511536
-0.07329135130754803
-0.15591656182877559
-0.17649694293849746
-0.18716640221133643
-0.0006144746087945597
0.2020630499639032
0.25681629597099515
0.2021222876995497
0.07079749984308382
-0.1090087222150966
-0.30572540066149034
-0.27525981229850416
-0.15797084046109242
0.11389851112387799
0.19920795510195297
0.32747282324671123
0.2837352955265839
0.006081942328804136
-0.2017740252541291
-0.24662963888147205
-0.21903205592414415
-0.17288253346824403
0.08234871535908157
0.17577584448162545
0.15960055086426905
0.09067730994997196
0.01550151193879006
-0.037706777671309165
-0.05948862856480409
-0.054348176892720014
-0.033795443295796514
-0.009992897821449931
0.008351637803375502
0.017453472182650958
0.017823960202459056
0.01252766507194413
0.005282903190699541
-0.0009426675364333742
-0.004585103598608343
-0.0054584990388843934
-0.004308201238898549
-0.002237112638848081
-0.0002306731263161466
0.0011075603847727426
0.0016045500773765246
0.0014145076734970313
0.0008513483471643052
0.00023225461663428193
-0.000223364543837091
-0.00042849690750871563
-0.0004099684360505647
-0.00026104909663661154
-8.913150515022937e-05
2.490494277294724e-05
4.8113309535851945e-05
-2.5579319579951056e-06
-7.385612105197676e-05
-9.993554591590486e-05
-3.0347709088340236e-05
0.00014412562971870477
0.00037532289520008044
0.0005593709944806069
0.0005625845131169263
0.00027223847139002045
-0.0003372717807824262
-0.0011446870149825837
-0.0018599408336516846
-0.0020715845211895286
-0.0013800055989894595
0.0003993252675071998
0.003021752728623375
0.005687391644231094
0.0071162850850742575
0.0059046268374866005
0.001149617155912197
-0.0068100564311926685
-0.015839642870310675
-0.022030702543575788
-0.020646404382270347
-0.0081044674412866
0.015293119372959992
0.042649362061930714
0.058894272076895154
0.04144229127838381
-0.03633134722910828
0.0008445377759491849
-0.06283546881829853
-0.02811699128431657
-0.0773951745786248
0.02442189894355107
-0.07534443285944224
0.07419335869497447
0.11750350288519006
0.08403554455328267
-0.01650064502564349
0.0062951575618185795
-0.07144789786267147
-0.08032760067064357
-0.050345366599372866
-0.006061150051604556
0.03478842109542398
0.05973261618469949
0.058689220318259225
0.02162831869952491
-0.06199162713926299
-0.0018862835901127125
-0.004544405030469405
-0.07098791730979313
0.004301931227018242
0.03286425739273273
0.030397888783300624
0.01435234325626532
0.0018953709780262528
0.008853578763980026
0.04966444587839342
-0.06215361379385593
-0.11392015934874757
-0.09518627208150608
-0.0012831295988117246
0.16155931338692142
0.17183440225265326
0.19247072196809267
-0.022801857697140285
-0.11663941939795736
-0.31264169772826333
-0.20361500170851102
-0.14965405493897718
0.11117420040976182
0.2419550052988038
0.28299729519764766
0.23398995805990788
0.049582013738120614
-0.14920307099637417
-0.25128618455786716
-0.12764900247513475
-0.20854534325206028
-0.07286901881896866
0.14771060906698794
0.15207142063605408
0.04619962631360016
0.11994845196904856
0.029718154082547417
-0.00985918503273957
-0.02494663080417326
-0.0741272545690545
-0.0357025582699426
0.006122928493170566
-0.026347478478856996
0.005245963939428089
0.06150316257628129
-0.07182765527561684
0.01607833254414042
-0.041661122093635296
0.0051402001708974665
0.016572680209084846
0.05442036988397892
-0.025907803122192534
0.017854632800345414
0.010176103202889647
-0.044460033763909695
0.038751783886506776
0.02762709266468287
0.07790452454948836
-0.0599338176650733
-0.03272996977148549
-0.07705982602719604
-0.013791518093411616
-0.046233691224524205
0.037708692739439935
0.06019059528232063
0.04665933686427955
0.01971286479146403
-0.004844172495958637
-0.01916216521795184
-0.022148167006173874
-0.016942109246248747
-0.008195920549117762
1.519541080513597e-05
0.0052831266855524394
0.007013925353176321
0.0059462669195834055
0.003428698445064391
0.0007721476352985607
-0.001147298371081738
-0.002003357935374642
-0.0019202579222896256
-0.0012690296057608574
-0.00046141969614474257
0.00019333842545558497
0.0005472530754302623
0.0006004871360995611
0.00044689274072164185
0.00021033911691483158
-4.934345419304816e-06
-0.00013961093625093998
-0.00018129305604479146
-0.0001511354857665533
-8.492569767527079e-05
-1.655007038733631e-05
3.1874705827111785e-05
5.257569638506409e-05
4.927964386625544e-05
3.182749816177033e-05
1.0860247877367249e-05
-5.793035099314808e-06
-1.4523793169673167e-05
-1.5519193438445327e-05
-1.1309743033948505e-05
-5.119595651220502e-06
3.935704082276879e-07
3.759239086180402e-06
4.716602030100881e-06
3.851606496308828e-06
2.103261631928953e-06
3.4116566785554275e-07
-8.801649266505191e-07
-1.3784904326036211e-06
-1.2639520370308221e-06
-7.973468514608954e-07
-2.534746804133989e-07
1.6969417380169644e-07
3.8453457693705015e-07
4.005648024020975e-07
2.8580148666517357e-07
1.2406613682750686e-07
-1.69570578437447e-08
-1.0090026244811528e-07
-1.2255112747558164e-07
-9.80359292353758e-08
-5.195413622881937e-08
-6.59579344082763e-09
2.4160919587232098e-08
3.6087905616020875e-08
3.238147397432318e-08
1.993894729646174e-08
5.848653799045644e-09
-4.890550759014926e-09
-1.0160674637649676e-08
-1.032699827849671e-08
-7.2121430939174875e-09
-2.9924787119650364e-09
6.104730973577998e-10
2.699824123110374e-09
3.180128324868373e-09
2.492758227324687e-09
1.2810345990965348e-09
1.153493469064902e-10
-6.579969257132243e-10
-9.424880400017707e-10
-8.296363848671873e-10
-5.011370268846214e-10
-1.387420808745318e-10
1.3275936859330102e-10
2.636603452160093e-10
2.6701384424531774e-10
1.9079633997817175e-10
8.901560335839377e-11
1.479102595813672e-12
-5.4110099569960245e-11
-7.917222525591618e-11
-8.486818094727423e-11
-8.16467915492259e-11
-7.218927540151686e-11
-5.0318414760716886e-11
-6.105587431361041e-12
6.489574367585977e-11
1.5222568833715814e-10
2.257936739183012e-10
2.4025595745874043e-10
1.5052983767800805e-10
-6.376356429269085e-11
-3.724572184144891e-10
-6.797500273148549e-10
-8.334327169396356e-10
-6.676929719405549e-10
-7.757219035072223e-11
8.93484454872876e-10
1.9886389017578406e-09
2.740347769602626e-09
2.5786061373540554e-09
1.0525730778110467e-09
-1.8779122672346725e-09
-5.584066050332148e-09
-8.689731697097191e-09
-9.315803925958814e-09
-5.714412864085195e-09
2.7934668785846845e-09
1.4862952679460737e-08
2.6613283132994333e-08
3.2068430007213456e-08
2.4886051792439237e-08
1.2705136605201078e-09
-3.667835332310313e-08
-7.857817016121604e-08
-1.0607319008367186e-07
-9.725236327589186e-08
-3.538390370097607e-08
7.983276825840027e-08
2.2258171060286983e-07
3.3849419342616644e-07
3.548696907220617e-07
2.0586370093143247e-07
-1.3108341627028221e-07
-5.990047566458851e-07
-1.0433215421807706e-06
-1.2313654408401016e-06
-9.217162205941622e-07
2.190177470394726e-08
1.5024312929107694e-06
3.1018801255145176e-06
4.101034788294181e-06
3.659064040500763e-06
1.1573053314834028e-06
-3.3668932698480383e-06
-8.857809972189482e-06
-1.3170532716926153e-05
-1.3495811505307724e-05
-7.358906021428125e-06
5.966657472805688e-06
2.4086319464333835e-05
4.0853027731322254e-05
4.721855784778643e-05
3.400871848885147e-05
-3.6285496365438635e-06
-6.13232906807532e-05
-0.00012228439823795475
-0.0001583650057214363
-0.00013734265793531383
-3.643377949585243e-05
0.00014099904633297803
0.0003519272602640634
0.0005118366446343803
0.000512295407344636
0.00026050530816976327
-0.0002658955545260533
-0.0009669314344700334
-0.0015985452227715517
-0.0018092187580293637
-0.0012507578278112468
0.00024836212893664133
0.002496302584592194
0.004822239053012187
0.006130279022353165
0.005195057451905826
0.0011938783356111062
-0.005649624380180907
-0.013563954153645858
-0.019203889456829937
-0.018398928558298843
-0.0077782106148586655
0.012976799824302906
0.038917065730821924
0.05862261483329843
0.05497139042592112
0.008336375847442614
-0.09830900110091499
-0.07401731150965764
-0.11652668071558661
-0.01289506342502776
0.05541788272852099
0.10457248393064499
0.14065603240413158
0.15582528286931752
-0.0694293717378102
-0.1581687278919718
-0.1260949943429567
-0.17247462240317332
-0.07688141420744966
0.19694507286813046
0.2923319875899811
0.25070759394876424
-0.09300298859875396
-0.309269024407862
-0.37030553917361025
-0.24973717275654106
0.07011379325851576
0.5844552598188049
0.6531500480475957
0.19880887783548346
-0.27784324526635046
-0.6681930874587979
-0.6237937343836683
-0.3379088084315145
0.24908704942916152
0.6216049529919648
0.6507354235327553
0.36410513198120065
-0.06222587603290498
-0.4866799758523946
-0.5689424027743236
-0.3369857364109086
-0.16990122109169448
0.1958493762323205
0.43994038128103585
0.4232348971702534
0.15913011932345636
0.0025276499836111425
-0.13991323200954106
-0.18274677354226893
-0.22779665767490392
-0.13436747616983527
-0.102302435728754
-0.07207236597583858
0.05899031069724544
0.20960418010748053
0.28475772688704176
0.1520077757642098
0.030533368979802467
-0.10477001918114873
-0.10697244039138316
-0.2351780738654002
-0.13476862706930676
-0.026049453671664162
0.09595886565709599
0.051871467655669835
0.06278911504592279
0.1351777372191601
0.05065094751908686
-0.03628878478221996
0.008225867596604255
0.11128114407944156
0.011506645608737104
-0.12205387480971987
-0.2752455079796228
-0.1833240957508513
-0.1386093413922798
-0.011899196142419419
0.3165452466336489
0.5251691220876504
0.2291614352722116
-0.023184572608161078
-0.1337160163924154
-0.4230925898160885
-0.3963311055750467
-0.11738910712351751
0.19942513706254641
0.18077070015817137
0.27463311932903317
0.12911781116903295
-0.022369207619754784
-0.16602155442144098
-0.1038978927034569
-0.04584037500509002
-0.0016352605482957221
0.02373084437169901
0.03113658971778567
0.025730541789031433
0.01425365414961678
0.002626051732683115
-0.0054575671512866455
-0.008796954327586246
-0.008116964402650395
-0.005125154523464533
-0.0016167531478443356
0.0011163077437309635
0.0025018419007026356
0.0026001686061326904
0.0018520961695113291
0.0008011798646101079
-0.00011380325407482172
-0.0006573505912785306
-0.0007961190383302281
-0.0006351885612905232
-0.0003346000998634166
-3.94209847549194e-05
0.0001598761305667016
0.00023557320703927674
0.0002084810253356663
0.00012400156462909895
2.943960577486083e-05
-4.099331140463838e-05
-7.188184198344138e-05
-6.490066248931668e-05
-3.307708289405594e-05
5.841487237446476e-06
3.4994244805717606e-05
4.2398975985871944e-05
2.3559225518307526e-05
-1.7014074340811956e-05
-6.557554355338899e-05
-0.00010104039741789912
-9.999307500312692e-05
-4.508725151954511e-05
6.453261811802435e-05
0.0002042863074426871
0.0003218481331610641
0.0003466153343530943
0.00021339454108261897
-0.00010285412735775791
-0.0005517456234356156
-0.0009886792191809005
-0.0011913686769075746
-0.0009240985833654053
-4.5779615486545265e-05
0.001366040631195736
0.0029271537386115036
0.003959085732721419
0.003654292474935605
0.0014015573506271277
-0.0027960356772687945
-0.007964090356924794
-0.01207584616789776
-0.012455842405192446
-0.006768874283856003
0.005518262176665744
0.021585058490153835
0.034223254279064134
0.03197243475316097
0.0008315736740600788
-0.072576930221982
0.0028736082705990208
0.026320889199027947
0.007052297903042736
-0.035355143189443425
-0.07324661906262472
-0.07565135901210447
-0.015397242871630688
0.12256479430606944
0.1340427452607568
0.19291179551625862
0.05550048053709681
-0.12755480662279242
-0.19486097939698857
-0.15883975943798267
-0.19759740821520008
-0.05835525253995774
0.12731128702440522
0.2207024468981589
0.25330315036921147
0.21249440216575063
0.04152565041144482
-0.14530348505591803
-0.23685084831914943
-0.2973354891969416
-0.1459515217213268
0.04947106223564338
0.16331176466287495
0.09140484300061501
0.1258601744926858
0.13291260982743175
-0.060877157134998534
-0.07193662476456177
0.04664658810111618
0.018359301588085693
-0.039951047977955824
-0.0009917209268151483
-0.11270952231827493
-0.1895862394311375
-0.011660439902899779
0.06824048648169641
0.11095390345081106
0.17520224636276313
0.1044317227244367
-0.08009477882173656
-0.17899154259174693
-0.009038099891034221
0.004739965316944725
0.036508175882568376
0.06545346393432318
0.08012464117368094
-0.11843562485248824
-0.11521917707990957
-0.0827219940581495
0.013386580553593657
0.0044200235579824184
0.10667005267885873
0.11087187743836756
0.17720347110285867
0.038859806171670966
0.014906506091380339
-0.16996880523874036
-0.16401135659081617
-0.1718551885117242
-0.14867273656476024
-0.007873843477608397
0.1589868448357018
0.25551397207245635
0.1548614183973276
0.08280811528326407
0.014100095551693765
-0.11785696550206926
-0.2020041971738165
-0.12769914066975993
0.033921511273447426
0.04131975297788665
0.08585290712351137
-0.011394972045030797
-0.006793489939046626
-0.04338583721680756
-0.06102237914656999
-0.0066821215988989305
0.1560395068565263
0.03995954443469662
0.031852850601572856
0.09588734745467838
-0.01721353920258388
-0.15730609423315628
-0.16179827958662346
-0.04651270307795614
-0.003478341375385843
-0.0062796871204940175
0.17918955239967274
0.18264872821110192
0.0204204433018313
-0.10758724191171344
-0.014651479028322431
-0.1200451618313655
-0.04131525163544677
0.011083216069851414
0.03547398925402758
0.03732988022409438
0.02579795205386945
0.010084094473970599
-0.0030783339673357154
-0.010415276591521349
-0.011754565789575528
-0.008887932013074204
-0.004267956715957228
8.068095023649939e-06
0.002723889996724269
0.003599773185665664
0.003034896195374882
0.0017326733176466357
0.00036903245138654667
-0.0006086824338454066
-0.0010375044619605925
-0.0009853579042248604
-0.00064515048545976
-0.0002287511514643707
0.00010602608552291254
0.00028477566831444786
0.00030906856113633853
0.00022805969769819497
0.00010568528210433696
-4.702048347286145e-06
-7.308251953827967e-05
-9.356059468230772e-05
-7.734328479165783e-05
-4.296432489035502e-05
-7.814018884506618e-06
1.6863580534743474e-05
2.7219580887081422e-05
2.5284478968548766e-05
1.6175728879015832e-05
5.368269745728071e-06
-3.1439902075082177e-06
-7.549650858563727e-06
-7.983110469624452e-06
-5.7680408440689925e-06
-2.5678589661550045e-06
2.577437679605188e-07
1.9652411576281668e-06
2.4328289388484983e-06
1.970072089771318e-06
1.0629494298117933e-06
1.5752313835299934e-07
-4.6449491184045513e-07
-7.132285688105417e-07
-6.482092462555258e-07
-4.049409157398929e-07
-1.2474475824803707e-07
9.144479967424385e-08
1.9972151187420414e-07
2.0595415534254515e-07
1.4567606162661816e-07
6.211028274245068e-08
-1.0132588691236058e-08
-5.268385779361858e-08
-6.317953338511632e-08
-5.011957359246999e-08
-2.622747619235516e-08
-2.9316270405039186e-09
1.2722716118009541e-08
1.8660560775028506e-08
1.6598829338836585e-08
1.0118355933109951e-08
2.862749033363859e-09
-2.6208326492306384e-09
-5.27326539106179e-09
-5.307224568852948e-09
-3.6737846106317474e-09
-1.4946645412664599e-09
3.5022359873265494e-10
1.4083473183528827e-09
1.638704854391909e-09
1.2734712894421412e-09
6.452732154234007e-10
4.6575385064397213e-11
-3.4676732818166555e-10
-4.875196533602481e-10
-4.2455808703898685e-10
-2.5233184048449336e-10
-6.467409444375335e-11
7.423131635888323e-11
1.3897499080353086e-10
1.3660491009963802e-10
9.250836594582216e-11
3.576025462372735e-11
-1.1297508084535069e-11
-3.754998075333332e-11
-4.2451874095112324e-11
-3.2315771390258765e-11
-1.5825109231113354e-11
-4.557985083207372e-13
9.411408393731585e-12
1.2720166263197477e-11
1.0847011615784842e-11
6.2787093479331346e-12
1.4292497038380042e-12
-2.0859382191768235e-12
-3.6602383954397505e-12
-3.5144549856120268e-12
-2.3242845088995785e-12
-8.430619092890135e-13
3.6092008720428075e-13
1.0129170074712076e-12
1.1092169722788194e-12
8.191416601257129e-13
3.7009819666762023e-13
-4.234942735475635e-14
-3.011453905625661e-13
-3.7359533446940323e-13
-2.909341989170021e-13
-1.1871794422722823e-13
6.924828835734686e-14
2.0809896219160325e-13
2.513890356555671e-13
1.772273577903881e-13
-5.4278124879722674e-15
-2.506707144471259e-13
-4.747309291372356e-13
-5.67834122335674e-13
-4.246986417426042e-13
7.500593302359982e-15
6.758913266559244e-13
1.386759050991846e-12
1.8174103026704486e-12
1.597796081908714e-12
4.632066325176092e-13
-1.5554107674308028e-12
-3.975400215833507e-12
-5.837668032410867e-12
-5.902074016710144e-12
-3.094761349183991e-12
2.8665824557841847e-12
1.0874336049803549e-11
1.8169974168866775e-11
2.0745085823479473e-11
1.4591100583036755e-11
-2.325471969266119e-12
-2.7914582239949314e-11
-5.4599225227446973e-11
-6.986467935035193e-11
-5.95599223320497e-11
-1.3921700872162985e-11
6.506719248080153e-11
1.5783731369156444e-10
2.2666890172414869e-10
2.2374584765635028e-10
1.0886010480045316e-10
-1.263571000684376e-10
-4.358304837109942e-10
-7.101464370336256e-10
-7.937105394560209e-10
-5.346225827158575e-10
1.383199701839469e-10
1.133692632138201e-09
2.1481058020336825e-09
2.6926896395655984e-09
2.226359669103133e-09
3.921662074536668e-10
-2.6999167003914588e-09
-6.256171517556831e-09
-8.793429959602446e-09
-8.46982713120543e-09
-3.784307929501249e-09
5.485808714258144e-09
1.7433080579244772e-08
2.7723575326198897e-08
3.032430231605504e-08
1.9490195709871983e-08
-7.2374905121610015e-09
-4.591198522349839e-08
-8.44080811576006e-08
-1.0365064314149736e-07
-8.298123340368703e-08
-9.419973308640542e-09
1.1148085903110377e-07
2.4761645576520395e-07
3.4073941024777926e-07
3.199911400711091e-07
1.2950238773909476e-07
-2.3537310873003472e-07
-6.960374378821716e-07
-1.0810655187532452e-06
-1.1568067803398062e-06
-7.06414875125189e-07
3.5353274352709173e-07
1.854479339280066e-06
3.3127001778123048e-06
3.984757732371139e-06
3.0831360700127783e-06
1.3875877405575195e-07
-4.58300936217214e-06
-9.786846538247132e-06
-1.3188013416491938e-05
-1.2064026114333488e-05
-4.342265755390246e-06
1.0001395402111326e-05
2.774169651817772e-05
4.210741184218669e-05
4.406014984915422e-05
2.5432708449865907e-05
-1.6540310407881013e-05
-7.47242902046069e-05
-0.00012985441077224577
-0.00015298900522772683
-0.00011415590959135224
3.4746158128528613e-06
0.0001876671871233708
0.0003862800620901218
0.0005097974033612654
0.00045374934555613913
0.00014151440320370103
-0.0004217583577176302
-0.0011042247124374537
-0.001638774732831035
-0.001676128700034255
-0.0009092012643403377
0.0007512345019318723
0.0030064560545803747
0.0050924555673294404
0.0058874822065947486
0.004258965813839207
-0.00038210188242057816
-0.007472413704838262
-0.014903040787036257
-0.01916433846994172
-0.01627915967597656
-0.0035411807122461988
0.018293984889232805
0.043115401314447334
0.05885670260858603
0.049069429984603376
-0.003059984385575068
-0.10901423002992443
-0.06941834973149812
-0.07105597240729013
-0.08828551109841289
0.11082546977647989
0.15531804917275063
0.06232575045105768
0.03167330043071863
0.04618495357610167
-0.12251268486680707
-0.10506595203288341
-0.12584366952103593
0.0020785989899325384
0.07694875087900732
0.10427680415222826
0.09138042292268052
0.04358031818522119
-0.03611977983707136
-0.14407854812607418
-0.07179741161143549
-0.003075255668672208
0.08564735723192843
0.021610482101638726
0.02997549903458297
-0.07239780511834858
-0.08251818815835578
-0.015610890393130907
0.09241426016418462
0.18580993856308073
0.19525203328371876
0.05105196708489322
-0.09749151647961116
-0.26093314916302196
-0.394040486439869
-0.19353475469370413
-0.11406651463431694
0.19877607335743555
0.46662197590809246
0.5408240516037794
0.1829211036748483
0.07150274985781062
-0.36530196878126125
-0.5020900854410565
-0.46941100185570317
-0.12365457821130753
0.15737436890388792
0.25408781245919787
0.2696235240643544
0.2930607656951146
0.17382266637976324
-0.08565711975892985
-0.11894763882940852
-0.17247841536662553
-0.2799507621623291
-0.2440588953595036
-0.03215610094952907
0.2127168313713241
0.1497148679368037
0.2153644658893423
0.20530986963750036
0.0694273053813905
-0.07755977596647569
-0.13299927574696707
-0.17786832196920893
-0.25182199882560713
-0.1395282893292144
0.02738773872415138
0.1533055452671985
0.15165395431709564
0.11605335331174167
0.0976496321801846
0.09440085262354729
0.05451951686709466
-0.10738248936774956
-0.0859678769152618
-0.1591626275263639
-0.16733475595424893
-0.10309310658588314
0.0858439158240366
0.0819766329011649
0.17609288433939357
0.04427093024393688
-0.07048635623051741
0.03163292935358463
0.10661893352350264
0.07502603558420246
0.03783775603132535
-0.10287866790298475
-0.22270880625743186
-0.15830340278286162
-0.10033569452034442
0.0015871745730242693
0.2235032970859431
0.2462868924894757
0.1363679142114444
-0.06617251139933782
-0.14980755380277444
-0.12588437418526982
-0.01942810063882392
-0.06074547801902023
0.11986136356236715
0.09437703678598162
0.0379786595570322
-0.06973984575151708
-0.04265246248326236
-0.0858991807838158
0.0049754610468776715
0.04260400109017077
0.04430612936763717
0.027742001320326788
0.007211869239139557
-0.008360982574828065
-0.015543141947579256
-0.015074643651886923
-0.00992237482462885
-0.003454903369588908
0.0017874348352661848
0.004589731591786252
0.0049547942160801895
0.003652546431724919
0.0016954757986644502
-6.838329716642687e-05
-0.0011611020996038484
-0.001489076027441035
-0.0012317629452222557
-0.0006857276745088757
-0.00012900885076088222
0.0002593508723222132
0.0004196454216770912
0.00038715469967223845
0.0002466621901624677
8.731475507431759e-05
-2.8505972960948746e-05
-7.75874640433077e-05
-7.181407799131679e-05
-4.3593544163564335e-05
-2.757501035398295e-05
-4.44913425678299e-05
-9.135765911249834e-05
-0.00014063722517089413
-0.00014932675674863007
-7.681917283584985e-05
9.24128743053476e-05
0.0003284887743941244
0.0005477838550181488
0.0006261068892817157
0.00043844681927986026
-7.91363477562592e-05
-0.0008628713849922436
-0.0016794700751240257
-0.0021436637455168233
-0.0018205140990417328
-0.0004110918607368464
0.002021654137405824
0.004874844201792526
0.006991005280735508
0.006909018625515218
0.003411329815335396
-0.003730467311538915
-0.013065261163714995
-0.021203619730851865
-0.02337867440248346
-0.01504794171614609
0.005605709702013484
0.034904807698073824
0.061712958790429547
0.0674992498496655
0.02928691169264688
-0.07460645496825614
-0.057401046872221126
-0.11763732790469453
-0.036420890183871
0.02034493732628909
0.09496793285914733
0.028175470613605376
0.049380077879173256
-0.030392528375818368
-0.02135904702948152
0.04678803309202673
0.1309267011289473
-0.015927688270345297
-0.03286930039856619
-0.13950740789839752
-0.12786157807135534
-0.1611264081684103
0.018784651768558272
0.07578994332161079
0.26030240173967706
0.19215583556533283
0.05186095879026145
-0.016356130810510336
-0.09045006775374329
-0.25003092987774145
-0.15613605390360122
-0.037513756528662505
0.11316853519024166
0.1336517375350025
0.0805541503975208
0.016627805594383753
0.00030101909294721766
-0.12123017035411633
-0.11604801333378448
0.029870688208826664
0.11069346855124902
0.10013018613305864
0.15400749207291356
0.01753045833018747
-0.16313362902291909
-0.22787048528159723
-0.19289439791954202
-0.04850612825978867
0.23436778756169976
0.29168661449779637
0.15369684742763942
0.03797626382953782
-0.24948002183955628
-0.3074254061135945
-0.1322566063957764
0.08417043612047634
0.150159419242765
0.2661159150221637
0.2184017818535464
-0.0199935703815503
-0.28071131765075247
-0.18658647023924302
-0.1399135880864872
-0.11848754417400385
0.11793314514840408
0.21272946972856532
0.19474285498270585
0.06463737270057672
-0.009587840072746403
-0.08648222218892589
-0.03674393023277329
-0.12519657773129644
0.005780745379151526
-0.05264069649069806
-0.07233028198592052
0.007141941586206338
0.06704198060084231
-0.00621611700881656
0.06241510025454073
0.1227852642360458
-0.008715857635414727
0.049816978270653726
0.05207479097369453
-0.0645469695344994
-0.1644687470056254
-0.10079620181020461
-0.10721280864204387
0.0030500548323001207
0.23180324763322802
0.1873567507064963
0.07738974895988221
-0.09330782023555967
-0.11977232068640077
-0.19123647692195264
-0.08719257118664099
0.021564032168410453
0.1664218136410961
0.17154662898337794
0.045841217559716006
-0.020052575359141588
-0.05044772156085158
-0.07654449369652842
-0.12691858510397278
-0.0200454156624078
0.038875438751058
0.05645818830159345
0.046461830270548905
0.024204997734975524
0.002101958114733986
-0.012606888820112357
-0.01791391417458038
-0.015593715654778928
-0.009186835576325205
-0.002215562166444133
0.0029189754113080877
0.00527624024099054
0.005132392411552436
0.00344580508878419
0.001306295323990877
-0.0004539717844758051
-0.0014259779558995903
-0.0015963565849721885
-0.0012064525140521366
-0.000583618898800035
-7.598471996309594e-06
0.00035920344815216023
0.0004792618156559802
0.0004057688560417812
0.00023273154166434632
5.0669480902996175e-05
-8.032955749251203e-05
-0.00013816937952743408
-0.00013168224610460912
-8.65156784733475e-05
-3.095918663162717e-05
1.3847480899003188e-05
3.78804445692543e-05
4.1274976535263025e-05
3.055225964317663e-05
1.4240619620489487e-05
-5.209700213257392e-07
-9.698746891401638e-06
-1.248156634956457e-05
-1.0350295008725465e-05
-5.7742724532835365e-06
-1.0782809200306943e-06
2.2292903733765876e-06
3.6269697169442647e-06
3.380354481514877e-06
2.1702311762791672e-06
7.27806084072741e-07
-4.118206287272429e-07
-1.0044905452649953e-06
-1.0662701659720192e-06
-7.728704484233797e-07
-3.4622445796890347e-07
3.169257802933933e-08
2.609327976540859e-07
3.246165134677681e-07
2.6368800915138737e-07
1.4291157199734808e-07
2.1928182298376992e-08
-6.146046501313085e-08
-9.505876527095946e-08
-8.667597929591937e-08
-5.434409676663774e-08
-1.6940592769346846e-08
1.2008561696910902e-08
2.658124067327035e-08
2.7513235004124913e-08
1.9523619528600444e-08
8.380320172028237e-09
-1.2836739600989184e-09
-6.998175820942328e-09
-8.431754097756296e-09
-6.709599888357727e-09
-3.5277026748418552e-09
-4.143656856383579e-10
1.684773156102676e-09
2.487624756919549e-09
2.219915642571643e-09
1.3582997251098362e-09
3.8956962938360283e-10
-3.4486114935465296e-10
-7.020275175957358e-10
-7.091105260457469e-10
-4.924735503378959e-10
-2.0183316529663852e-10
4.500300433918416e-11
1.871527696284469e-10
2.1873748377106717e-10
1.7051448599259302e-10
8.683120665240265e-11
6.8054004405927305e-12
-4.595210464234625e-11
-6.500476966079282e-11
-5.678997069474463e-11
-3.3883572143990635e-11
-8.824024628169566e-12
9.783701287383003e-12
1.8506748520831257e-11
1.825530873501845e-11
1.2403768168122645e-11
4.83348534888379e-12
-1.4637061873334837e-12
-4.991739451119972e-12
-5.66748860243974e-12
-4.327771223695482e-12
-2.130547842310671e-12
-7.58971243630666e-14
1.2478501345799683e-12
1.6963484528531918e-12
1.4511896624514078e-12
8.435738390109705e-13
1.960874141541309e-13
-2.7472399805082654e-13
-4.869353369418957e-13
-4.69347500020105e-13
-3.118411436045455e-13
-1.1491738867915882e-13
4.554146221903881e-14
1.3289241448239474e-13
1.4674692089684408e-13
1.0977718840456863e-13
5.2177088557020496e-14
-5.154730376917596e-16
-3.3671967704817977e-14
-4.412819901204639e-14
-3.6960574969534424e-14
-2.0876700929251205e-14
-4.166529474347647e-15
7.7292693865622e-15
1.2869416156982777e-14
1.2132171650756262e-14
7.905965217914755e-15
2.789995578290017e-15
-1.2936726735545983e-15
-3.4507724602131607e-15
-3.7162192198120874e-15
-2.701970694590379e-15
-1.1942777331922948e-15
1.5549976153589612e-16
9.844631585035112e-16
1.2253954605377014e-15
1.0191288750695381e-15
5.942213580391927e-16
1.6346818223936835e-16
-1.366640036290803e-16
-2.6055839447682625e-16
-2.3430688235838317e-16
-1.2123812011155303e-16
1.1505576457176539e-17
1.1530551597433824e-16
1.6842416387077399e-16
1.7291105087249026e-16
1.4522761102593758e-16
1.0582115605606584e-16
7.128502673680124e-17
5.059978241999268e-17
4.512871415854035e-17
5.0990263130612634e-17
6.219461902077304e-17
7.328577377873973e-17
8.084679844083753e-17
8.381645359449971e-17
8.295495735420257e-17
7.993797938257981e-17
7.649791475053772e-17
7.386284617511256e-17
7.255881104542907e-17
7.250360363795455e-17
7.325579304577697e-17
7.428430200545365e-17
7.516693388608196e-17
7.568203667405528e-17
7.580396743423005e-17
7.563910189669977e-17
7.534417847188734e-17
7.505892698019462e-17
7.486874394546707e-17
7.47980183051065e-17
7.482493204067526e-17
7.490523361177261e-17
7.499427567099637e-17
7.506108260376718e-17
7.509298841345919e-17
7.509286188799332e-17
7.507250671528363e-17
7.504569935182841e-17
7.502316865280941e-17
7.501036960868289e-17
7.500771922672996e-17
7.501231675338373e-17
7.502006668759773e-17
7.502739464632268e-17
7.503217056135231e-17
7.503384244779645e-17
7.503302895820613e-17
7.503089654134701e-17
7.502859452966115e-17
7.502690303449185e-17
7.502612528820014e-17
7.502616822773415e-17
7.502671705784538e-17
7.50274148456468e-17
7.502798929661738e-17
7.502830657839087e-17
7.502836220135181e-17
7.502823491639033e-17
7.502803158803122e-17
7.502784354714144e-17
7.502772381723279e-17
7.50276846492951e-17
7.502770867494425e-17
7.502776519843751e-17
7.502782466030814e-17
7.502786743486997e-17
7.502788630059374e-17
7.502788413813015e-17
