0
8.422078595380635e-16
5.09236053879036e-16
-2.756294524943858e-16
-1.3878855540799211e-15
-2.469419552653399e-15
-2.9693994599630653e-15
-2.3038739246184392e-15
-1.2433073711908385e-16
3.3738937418652216e-15
7.232213380653269e-15
9.75818740067036e-15
8.933634463956199e-15
3.2201597897395764e-15
-7.404212498943666e-15
-2.055403272411105e-14
-3.121467489659805e-14
-3.268758158749487e-14
-1.8914030731861254e-14
1.216763397293495e-14
5.5285959910798694e-14
9.61778910392714e-14
1.1339885998317258e-13
8.472269509053072e-14
-2.358579069586405e-15
-1.3882983812510944e-13
-2.861030034422489e-13
-3.778689006245699e-13
-3.3668546200688803e-13
-1.0568073142409628e-13
3.114800552384798e-13
8.172631033611951e-13
1.2138482938143504e-12
1.2424092997367657e-12
6.752580863646016e-13
-5.538725908060819e-13
-2.2234778342549552e-12
-3.766410437795327e-12
-4.34875999429486e-12
-3.1259817141765426e-12
3.470688310593273e-13
5.664935964912391e-12
1.1277665285631884e-11
1.4590347284915206e-11
1.263541234218493e-11
3.3188003566404013e-12
-1.3041035763895348e-11
-3.24697722509039e-11
-4.71738538618637e-11
-4.716450150462981e-11
-2.3906191075877397e-11
2.463336839418867e-11
8.920700614287694e-11
1.4729831700029272e-10
1.6651628674311422e-10
1.1482665291822653e-10
-2.3453949251392045e-11
-2.304383672693737e-10
-4.439986816994326e-10
-5.627052798205953e-10
-4.730013209624512e-10
-9.812662568267572e-11
5.426955675675704e-10
1.2880204186031383e-09
1.8311946583852868e-09
1.7871975102015288e-09
8.368991082433514e-10
-1.0774212841032562e-09
-3.5718994683581056e-09
-5.753952093622507e-09
-6.366881851641335e-09
-4.197858091474925e-09
1.2989162705441937e-09
9.346058911484708e-09
1.745810212714818e-08
2.1674951519043716e-08
1.765757460654713e-08
2.606408755217976e-09
-2.246540664220576e-08
-5.101831353718815e-08
-7.100144552007247e-08
-6.759258313697609e-08
-2.889423815668651e-08
4.650543986242332e-08
1.427506884276583e-07
2.245094869254389e-07
2.430812049860597e-07
1.5263761703366443e-07
-6.552486906084353e-08
-3.780237584092035e-07
-6.856095997942263e-07
-8.338467251784383e-07
-6.571902083474621e-07
-5.412130425686482e-08
9.256594580190149e-07
2.017953259168267e-06
2.7497635894206453e-06
2.5512050105876918e-06
9.801158857470884e-07
-1.9859013465607925e-06
-5.6947981525034605e-06
-8.749952018953231e-06
-9.266273942881884e-06
-5.515693880959491e-06
3.1300760127461692e-06
1.5251562342716552e-05
2.6892489905667604e-05
3.203707006256504e-05
2.4379288814464228e-05
2.621730883396499e-07
-3.798239909935741e-05
-7.970677993328091e-05
-0.00010636819409416763
-9.608442659113457e-05
-3.24795665167853e-05
8.404940696622975e-05
0.00022679236398146825
0.00034061559835406584
0.0003526336542470868
0.0001978232338621707
-0.0001443708813486353
-0.0006140971555911326
-0.0010539222036660561
-0.0012297690504656923
-0.0009017604868595996
6.100203713750244e-05
0.001552830016286655
0.0031465233053679115
0.004117869086351526
0.003631157672581984
0.0010879147086570642
-0.0034382082732097325
-0.008845018655765832
-0.012946404481544682
-0.012923763135893529
-0.006364594011233791
0.00726475381219195
0.02515142346764314
0.04033821860782952
0.04227647195181505
0.019090846771990244
-0.03875717848087719
-0.13456873922845106
-0.06303011305597427
-0.010943161825678241
0.03852691630104978
0.09942939048909283
0.17719033422759103
0.06635812640662662
-0.04633855928688324
-0.17430191011940813
-0.12188678592091892
-0.07800769054225579
-0.01586800441985356
0.10039275432596452
0.10416868651672469
0.013835614509966091
0.023245087996161495
0.09817528595195295
-0.020078722049568225
-0.004444279790513596
0.0730147726895441
-0.04192772319956477
-0.17051087642460658
-0.29171963887498054
0.057575494836457235
-0.028425517075886544
0.15546731095825903
0.10151297680347011
0.2681509032920948
0.06834420423306721
0.0705953170798261
-0.18796178877452516
-0.18105794258541405
-0.1726384740899661
-0.20333917051801972
-0.08866170361236961
0.17108858761420495
0.37388204132687597
0.30023041246481774
0.10699524851061856
-0.06461802044154394
-0.26850982370768206
-0.32811492022491884
-0.2160865598101778
-0.047902935668811104
0.10707338624917095
0.19989322616238603
0.16937349138592134
0.11191612286310555
0.06161921579847344
-0.015181604473582107
-0.010941293590017264
-0.056807852432684644
-0.0966073494693973
-0.060621534963492416
-0.044216962194280396
-0.09489811580515921
-0.0094052999800415
0.05957115070390322
-0.010676157334142471
0.06927894137330133
0.18343398634614763
-0.003267169221237808
-0.05227166684389842
0.047950476376380044
-0.11352935261421497
-0.16300269598388953
0.06482521990204239
0.13200355485249196
0.0006811156899672652
0.03576471612027079
0.00799331331005012
-0.10251873842871508
-0.10335146167460217
0.011039060650282892
0.0571228964447936
0.05748923500961753
0.03504847790038651
0.008195801292368977
-0.011753124776344341
-0.020621901119856716
-0.01959101852381406
-0.012634362819287271
-0.00415191472807626
0.0025986868882639357
0.006110240155066943
0.006453768470036103
0.004673804567303078
0.0021013755586167726
-0.0001701058940294427
-0.0015422714464220395
-0.0019198890743466646
-0.001557938974229556
-0.0008535028014750857
-0.00016681310272499082
0.0002834739699416139
0.0004440761738922881
0.0003894227306883708
0.000252973230972677
0.0001566954921373407
0.00015990380288633451
0.000238975752394488
0.0003008302552556787
0.00022582527565707724
-7.099331941210288e-05
-0.0005781314844660324
-0.0011488435191390034
-0.0015099856085642122
-0.001335799566574976
-0.0003848734229956613
0.0013308393235683157
0.0034081211980260383
0.005029628452669867
0.005132336975603341
0.0027943117581615937
-0.0022245666247441677
-0.008965909349693251
-0.015051820116971175
-0.01704856017787712
-0.011594106743567272
0.0027843474778870094
0.023587718101139184
0.04275016813364984
0.046416348920503614
0.016745848775109682
-0.06423289441496334
-0.009544965450971778
-0.022458566676136715
-0.09355979129816701
-0.0008577336754014927
0.08682679104585973
0.003965412102318848
-0.018537172271500944
0.040526938678604144
-0.011440544734723156
0.017815342344556017
0.10715038974922507
0.02676057489806824
-0.054832227809698944
-0.1632557113435924
-0.11280434275087371
-0.10553810488485836
0.06402409398350403
0.2002658244993456
0.29808171081380896
0.13979144446792366
-0.09940018280345073
-0.2382755022139246
-0.2741316034496095
-0.1725087205427306
-0.06822560377265745
0.12068787393078777
0.27006567051983804
0.22566860945823036
0.1871855508751901
0.1065870264999869
-0.09781427373983428
-0.31594987915510514
-0.21789112466245245
-0.23298873844659648
-0.14378581422453557
0.10306579279675748
0.37293149431275396
0.31536496160494076
0.14293646639928767
0.024664794469037986
-0.10390484667364963
-0.31839515086223846
-0.2797590221295962
-0.014184725792962443
0.09504661441216344
0.102654452957381
0.08692853172365668
0.13145640207775922
-0.09187082682412455
-0.13559486589523817
0.015596996814340914
0.14182854061959274
-0.010475973452675152
0.07795447261142943
0.1113091426961177
-0.004342944832881836
-0.1415478769764662
-0.13346341089902378
-0.1623438801596355
-0.15888501195833143
-0.014349673402720352
0.19631637328033888
0.18592962423295964
0.2289459914396595
0.14532804766420557
-0.10113792330748693
-0.19034388203112762
-0.02385001693799184
-0.10032641821118209
-0.09502851781696377
-0.047670492740234674
0.039720536412561375
-0.004042550172663613
0.06783916598144059
0.10540486838992863
0.14949978163585628
0.02489718061643601
-0.059690042527165144
-0.10583706337366651
-0.11711887214820092
-0.09232971219982605
-0.023282884680739843
0.10197007894602506
0.0921913742732854
0.14571005808209553
0.04649052304881678
-0.034333665621674274
-0.13175915932918947
-0.07763590269077045
-0.09245560569937421
0.01879289472295883
0.06560135459645315
0.06680402537428036
0.04377479054290935
0.014561555124070513
-0.009356468317603428
-0.02334701993489849
-0.027719904425346453
-0.024974352174233126
-0.0174949391099016
-0.006528815841082478
0.0073792598190240265
0.022950526255794777
0.03662993940051605
0.04195651044358391
0.03060255904860169
-0.004800099978577359
-0.06680945505632313
-0.14987769263357364
-0.03947979254769837
0.08512297726091193
0.04482542252702246
0.05334391872763827
0.11142667763340695
0.004944440680026646
-0.09224225165699512
-0.011456245716100115
0.019485331528858132
-0.015669473205964568
-0.11630607834917008
-0.06387931758998111
-0.02577333461328371
0.03641192942100891
0.15619888832331194
0.1525259342345385
0.024462334270846466
-0.04762294503227259
-0.09493684587133719
-0.1500781957967136
-0.03772471167901789
0.0306481049437783
0.05689380939100365
0.0522258894057316
0.03149064183985309
0.008028488653543558
-0.00942526636246863
-0.017485091059511584
-0.017054524769657943
-0.011395496638367532
-0.004212623810223118
0.0016767104834945496
0.004898182097694983
0.005418791333656393
0.0040632877762519955
0.0019407549224217608
-6.563919964914314e-06
-0.0012363990170469446
-0.0016290044411009948
-0.0013695146223926123
-0.0007783426346961597
-0.00016163083724011817
0.0002789517980873998
0.000470719702731124
0.00044526422462083827
0.00029030654889791117
0.00010173082657196763
-4.9311918747958174e-05
-0.00012950629711532536
-0.000139865157117488
-0.00010280608336373892
-4.729976770433526e-05
2.5705525365745465e-06
3.332391464666278e-05
4.239154342488964e-05
3.4910240416917266e-05
1.9290639529503068e-05
3.392205550174437e-06
-7.725124214633857e-06
-1.235059960662917e-05
-1.142608687135086e-05
-7.278168066400658e-06
-2.3841015365049755e-06
1.4559875294608896e-06
3.4317469988098826e-06
3.611780873888843e-06
2.5994503320302523e-06
1.148334857764822e-06
-1.2792228226957032e-07
-8.9557039814128e-07
-1.1020296002413383e-06
-8.89023420200213e-07
-4.770257534625341e-07
-6.758963469227867e-08
2.1255311069245932e-07
3.235310533280254e-07
2.9286561610632633e-07
1.8213852062525817e-07
5.5280256275839924e-08
-4.222734686681018e-08
-9.075771216347634e-08
-9.316381216359034e-08
-6.563288816506914e-08
-2.7742363865702527e-08
4.888924691805198e-09
2.401610340286012e-08
2.863033141133132e-08
2.2616167673433547e-08
1.1744871541625903e-08
1.1850690414120527e-09
-5.88372733363375e-09
-8.528958060595145e-09
-7.53031609249801e-09
-4.512077389229802e-09
-1.1358484548778784e-09
1.4184080839219712e-09
2.6314545098130093e-09
2.5593726222263344e-09
1.6139799651686404e-09
3.303275014534882e-10
-8.044875360991722e-10
-1.442163907258766e-09
-1.4048167383002392e-09
-6.92197976815952e-10
5.124176291377019e-10
1.8411243124012893e-09
2.7738747459244616e-09
2.7418878003010347e-09
1.320728982693775e-09
-1.5137320389698575e-09
-5.1526548099375236e-09
-8.27876044264323e-09
-9.086262624375106e-09
-5.868544386348248e-09
2.0965137831671696e-09
1.3624941622459147e-08
2.510295002247757e-08
3.085278196102558e-08
2.472709500140856e-08
2.8613591365375485e-09
-3.309901951804191e-08
-7.36117340075376e-08
-1.013554534478278e-07
-9.524921819974767e-08
-3.865781142433362e-08
6.983057668572972e-08
2.0687271200170552e-07
3.215054652148437e-07
3.442294631443332e-07
2.1050017074357287e-07
-1.0458776361454428e-07
-5.510190179997272e-07
-9.85019760094163e-07
-1.1854915747543924e-06
-9.18091113559776e-07
-4.303093996741422e-08
1.3611475157952202e-06
2.9095557848820186e-06
3.922825154872434e-06
3.5909866114309897e-06
1.2968340302278313e-06
-2.96801969102113e-06
-8.245631826675228e-06
-1.2522933755577704e-05
-1.3111380270693522e-05
-7.579846180762414e-06
4.8978567579395585e-06
2.220426551902989e-05
3.861320668842303e-05
4.5517156167401796e-05
3.3996763375004205e-05
-9.645228990402158e-07
-5.5742912327551934e-05
-0.0001148450629175872
-0.00015165413329919772
-0.00013509085547870863
-4.234029261165245e-05
0.0001251068286927569
0.0003280795787330087
0.0004871579603479732
0.0004984475786997334
0.0002705714565004692
-0.0002230341320919687
-0.0008934037346685859
-0.0015128048663420714
-0.0017463533301267295
-0.001254689852324744
0.0001417247813156614
0.002282042373158652
0.004547941922635157
0.0059048402371112765
0.005173192111261739
0.001529623252100981
-0.004876798666214221
-0.012433674250333072
-0.018023532689560723
-0.017732353410821543
-0.008434263823417148
0.009946729804048447
0.03209396693379475
0.04578427767838834
0.032155042902364414
-0.03165306066270406
0.03241514466945878
0.009609373545103245
-0.1014849632066565
-0.08474054893784162
0.09412268670516345
-0.11642229686063303
-0.0620996948676209
0.10566938384417016
0.017507077795701473
0.07619809673533653
0.25254370057065323
0.08949196982932174
-0.08496820431880361
-0.1387041929776874
-0.31571682512259347
-0.22280239219462064
-0.02815618500447483
0.12673473744613428
0.30593130819469827
0.3567327248401003
0.09506446581988943
-0.09584056612847126
-0.2537412911613358
-0.21860570028258547
-0.21538526628256963
-0.045628932513767484
0.10923260938318695
0.27547660610945013
0.2720857646861753
0.10060608185596438
-0.05527292668036813
-0.22046935479547708
-0.21449722600045626
-0.24003219391851413
-0.08031945997905529
0.09235377256674476
0.3001764982791351
0.34266330173258175
0.1874653806237981
-0.024858542121208988
-0.1618123397499807
-0.27167716387221624
-0.35806380312552194
-0.16653829516495824
0.010293376284704494
0.10924772870715323
0.2611291500433496
0.3542467947948369
0.20828998631592657
-0.033335230041113995
-0.0906067165456566
-0.11781728836991058
-0.2673257729932726
-0.2564444097103499
0.05412946784337484
0.06613894496862341
0.03464399281745996
0.048689199529140734
0.20821968215002742
0.003305007219926699
0.09999070981793345
-0.06537062378535866
-0.08409441073711352
-0.1682839411894136
0.05730421815192893
-0.038184907611382594
0.11224068250370142
0.07551532000599544
0.02033553322961852
-0.08016432281454984
-0.044992239478920656
-0.08239447804681242
0.01100575323272617
0.04826867303385189
0.047909326375506205
0.028875047783014904
0.006403225561791742
-0.010160248481720301
-0.01741554375944097
-0.016412997776805403
-0.010506951238917808
-0.0033806317619005013
0.002255599484362549
0.005161558140189682
0.005414316189944421
0.0038979017311288316
0.0017285666519568678
-0.00018068403208674376
-0.0013315600701826176
-0.0016444142278429384
-0.0013297957116343725
-0.0007164338887989489
-0.000105390351199339
0.0003136801242904361
0.0004807976764540512
0.00043674876001781093
0.0002732980266567199
8.56950383738178e-05
-5.853588982688027e-05
-0.00013069920655728112
-0.00013573308617850178
-9.819733939245298e-05
-4.6972522162312646e-05
-3.945717755193537e-06
2.1063351537416596e-05
2.949839733987007e-05
2.9369416536333718e-05
2.9218730712482296e-05
3.3088233209945684e-05
3.815186334199027e-05
3.579250737491862e-05
1.5920656950721172e-05
-2.669533054629665e-05
-8.628107046639952e-05
-0.00014292261330181783
-0.0001651883316801297
-0.00012001575134156453
1.1154167023631222e-05
0.00021445728494603715
0.0004316477773039768
0.0005633040263592804
0.0004942528240547957
0.00014145180473393572
-0.0004862923577181427
-0.0012393288079384582
-0.0018192166387996293
-0.001839507665960919
-0.0009651278967190893
0.0008927810229469421
0.003390474794893804
0.005670550942336537
0.006487465774718267
0.004597847312723275
-0.0006229596052013674
-0.008510940199465713
-0.016690581129615308
-0.021254850714912676
-0.01781826408061631
-0.0034499346061555385
0.020918290942113543
0.0484532503437057
0.0658603736990777
0.05527017437259924
-0.0011542452772437429
-0.11478375375854503
-0.08439170962443633
-0.09307729459625781
-0.11045253962383748
0.09944876120468915
0.16646748681343074
0.1027824577001374
0.09613280617376457
0.1110922972729755
-0.10111099838901598
-0.186944136670969
-0.17423108947617696
-0.060905875971006454
-0.01301814522858079
0.027115439577460224
0.1251920535971466
0.13654731144002955
0.0906053591937508
-0.017534531710776544
-0.026458015999649892
0.000499298239201319
-0.010260264732849788
-0.12617013452557052
0.006293230970257619
-0.028161355808075213
-0.009837800143079703
-0.0872688135295137
0.013134773517851193
-0.027401218997658974
0.06322884776585744
0.1324056433652312
0.19212530792931706
0.016448646665504527
-0.0516936185904453
-0.08592206618830601
-0.15825444926529492
-0.12274297181542164
-0.00547148829157674
-0.003105306432329683
0.11078940974779049
0.17487312158041196
0.02882635874466276
-0.09470771001781518
0.02644451541988941
0.004498342815806638
-0.15578322672851214
-0.054670536331240596
0.10347604718336828
0.1094986066402116
-0.05185196816975289
-0.0022509483932484226
0.03180026228015459
0.02249202624030187
-0.05458249133890797
-0.01558777952517208
-0.06468783624104943
0.007546903019199595
0.023023201586282026
0.012559875853098685
0.010822608659715375
0.05097657480860863
-0.03990141954746172
-0.04404646385202068
0.045301364752836366
0.02369719332597009
0.07680279168066743
-0.016773624412880717
-0.081498039616059
-0.14089267561853014
-0.014979867255623546
0.07986335205100499
0.12915696210104216
0.11864748432890794
0.034960765413654234
-0.13052337712164794
-0.17594789908213487
-0.08455938113380133
-0.024794738616507536
0.043802599948860425
0.16030691238639627
0.15145048802341846
0.02418110249169063
-0.03544707585652658
-0.056834853969481
-0.0751658411175323
-0.1211427884890021
-0.013547117982387199
0.04340230005978068
0.057884047436437415
0.04518203747517202
0.02167768669581712
0.00017625219405497354
-0.012399567387821327
-0.01497092334062459
-0.010628659507761358
-0.004256349814149711
-0.00025869281596510926
-0.000925636402621996
-0.0056936372538282775
-0.011378043273276997
-0.013326133663871262
-0.007309939213511695
0.00821618292196289
0.03011702391769216
0.04966281486260954
0.05350980730788635
0.02698360469678658
-0.04075861633840244
-0.1511786972272913
-0.0927195918028658
-0.04128157737186029
0.034323253044184016
0.16325321066647697
0.16312248451929195
0.03395044976510092
-0.041829701690222695
-0.0933110900796056
-0.15161023331153986
-0.04078481948877376
0.02757135014028822
0.054764032620498046
0.05135861318150769
0.031692352912349134
0.008843631669591295
-0.008476141208960187
-0.016747110689273852
-0.016680228670884135
-0.011368006809881948
-0.004413127362936068
0.0013944783225042917
0.004652249377344108
0.005272517313691352
0.004025684806252353
0.0019836383701567666
7.387440382297363e-05
-0.0011572809637938335
-0.0015753928198940909
-0.0013487594084672988
-0.0007848489742160399
-0.00018335779633937426
0.0002543691679162598
0.00045199565976626507
0.00043608576514018457
0.0002900300252044144
0.00010717312937359366
-4.194814087481532e-05
-0.0001232229401889451
-0.0001362247344745705
-0.00010197312384905763
-4.850293689730484e-05
4.5422440921737407e-07
3.1289720232190766e-05
4.104363161372384e-05
3.4416879328192e-05
1.94918283443439e-05
3.970127271063562e-06
-7.0890396066279065e-06
-1.1876060390643124e-05
-1.1201737061402346e-05
-7.282080783878065e-06
-2.531224764600752e-06
1.2641261658341077e-06
3.271405290868751e-06
3.521381493316012e-06
2.5814950569639185e-06
1.181816806823251e-06
-7.233437864571127e-08
-8.433287946455342e-07
-1.0681955651773356e-06
-8.773870256980972e-07
-4.830635339173605e-07
-8.292830235479562e-08
1.961119289995745e-07
3.115188349247303e-07
2.874017878066294e-07
1.8252283000006037e-07
5.924659729613125e-08
-3.722964902733736e-08
-8.666476388204878e-08
-9.092000740905387e-08
-6.526130083719091e-08
-2.8675913056824307e-08
3.4149580107054825e-09
2.2655226509601682e-08
2.7764816561331055e-08
2.23400784228329e-08
1.1941433116169894e-08
1.6381651295147537e-09
-5.391933657874978e-09
-8.158808220168576e-09
-7.3653937735995786e-09
-4.566653106944601e-09
-1.3717830704395166e-09
1.0774918830645082e-09
2.2912538625112535e-09
2.3447770963263645e-09
1.6474823751887307e-09
6.925501905159446e-10
-1.2762714518877133e-10
-6.067877880324594e-10
-7.207595338501447e-10
-5.681228537255468e-10
-2.9438869041091506e-10
-2.9388694818955035e-11
1.474511938767618e-10
2.1336570645804348e-10
1.8853974071806697e-10
1.1404021792079004e-10
3.134115291764718e-11
-3.0758561739645215e-11
-6.046031518954341e-11
-6.040128241756951e-11
-4.153023733103604e-11
-1.6640708968054927e-11
4.296083110983949e-12
1.620409047108325e-11
1.8687360818100173e-11
1.4434290750932862e-11
7.245896618686845e-12
4.4119531861096883e-13
-4.0012438154339694e-12
-5.567870529406766e-12
-4.831221024976989e-12
-2.8705289661896364e-12
-7.465901406040105e-13
8.243646992795416e-13
1.5679090518955607e-12
1.5723230089247956e-12
1.1221149605751222e-12
5.290639608744101e-13
1.6995465665791112e-14
-3.1946951193626154e-13
-4.92189020640786e-13
-5.607807605617222e-13
-5.708173848358474e-13
-5.163307394741665e-13
-3.417995103789589e-13
1.663821818728474e-14
5.665915088065783e-13
1.1998337003990646e-12
1.6718025334902317e-12
1.6489399628376654e-12
8.334540758517547e-13
-8.570313547494501e-13
-3.115435065981027e-12
-5.167066430646182e-12
-5.880778509255784e-12
-4.122731145794008e-12
6.826505010761605e-13
7.942073445876686e-12
1.550583543528475e-11
1.9823738569709336e-11
1.6882590960391384e-11
3.916359144201257e-12
-1.8505819075168212e-11
-4.482370127153078e-11
-6.432898940300706e-11
-6.345465440517038e-11
-3.080203976637979e-11
3.598276709659811e-11
1.237988217033648e-10
2.0157614962973468e-10
2.251578472087415e-10
1.5146544538723555e-10
-3.964517129978444e-11
-3.2214448899398736e-10
-6.098565477185504e-10
-7.640171831563552e-10
-6.311357670806033e-10
-1.1009055644245708e-10
7.676400952759137e-10
1.7765256316205927e-09
2.4954949997515277e-09
2.40195048115431e-09
1.0703842830276786e-09
-1.56156935326039e-09
-4.951620257059352e-09
-7.869111894522992e-09
-8.601962462995039e-09
-5.52097627526056e-09
2.069148846098857e-09
1.3045103074400211e-08
2.396297362996226e-08
2.9408518716516033e-08
2.3521765833499867e-08
2.6261985263698266e-09
-3.169204284359638e-08
-7.031123122871433e-08
-9.669552035870378e-08
-9.074073055660815e-08
-3.661088844227623e-08
6.698011371215255e-08
1.9768950734656237e-07
3.0684164439540006e-07
3.2813183610776975e-07
2.0007008650189371e-07
-1.009209051554866e-07
-5.268807117305172e-07
-9.404242478845763e-07
-1.1305428339989359e-06
-8.738597543251152e-07
-3.753563645365039e-08
1.3027151719683165e-06
2.778886987898972e-06
3.742387837730389e-06
3.420816578427592e-06
1.2267537648079164e-06
-2.845378086944219e-06
-7.878846694248531e-06
-1.1951055404342706e-05
-1.2497199409748089e-05
-7.201491271823106e-06
4.717039119954142e-06
2.12288129657586e-05
3.686258753126252e-05
4.340413833433379e-05
3.235227053550566e-05
-1.0582003263596508e-06
-5.3339581253650414e-05
-0.00010967988036356927
-0.0001446694732706938
-0.0001286722855129204
-3.997793438917276e-05
0.00011989847425195656
0.0003134818456469731
0.0004649325629294704
0.0004751526369112413
0.0002571216330765688
-0.0002142096512202755
-0.0008536056754779013
-0.0014435374143575022
-0.0016645872685619842
-0.0011936944199241776
0.00013882223624051877
0.0021767712834647544
0.004326221223902553
0.005594677589260081
0.004849798354293989
0.0012976959285503319
-0.004927444804070277
-0.012288837992767173
-0.01778985016034869
-0.017608390546118957
-0.008520515450841036
0.010112501918042012
0.03441262233246749
0.0550354163501654
0.058148095497184055
0.02884052658831207
-0.043454067213987216
-0.1591363770719079
-0.10471942457793555
-0.053626936765042335
0.027506683400097282
0.16844107397770267
0.184465593693046
0.06951098325383277
-0.003538351712221323
-0.07496470107765359
-0.18558222979199876
-0.1641632261879505
-0.019674301050183557
0.05903328898555217
0.09663038314470908
0.12115953157528465
0.15482041964991325
0.00932365247515926
-0.11292746545556824
-0.2134294114553459
-0.09157749313502232
0.05822507513469831
0.044630676611738196
0.07368719564089392
0.14255228408788667
0.035951233678287856
-0.07253594748803534
-0.014351756457111274
-0.016931582661601254
-0.09472520509270167
-0.04316306940034131
-0.03761264803154339
-0.038073042927932774
0.0011718277935247098
0.11921569413407311
0.13688301531149719
0.04942175455887815
0.026267251292927903
0.01858638924282889
-0.02712021479515972
-0.15307478821782108
-0.17668238576635334
-0.08389890596582049
-0.03229589837884079
0.03636046079234789
0.1775105055577497
0.22508618797134772
0.1791022322985882
0.004174032983531103
-0.16016892737182856
-0.1808602920791295
-0.1109020500551496
-0.17410605685339692
0.040426810110125735
0.1732703922091127
0.08190187727024574
0.025122095231973188
0.04951792439822926
-0.018936419854005997
0.022755166943169106
-0.04253251136006219
-0.04574480848613663
-0.024011709436782006
-0.013580843976158845
-0.04457609324536918
0.062039212174848174
0.09574618727140206
0.05692883864169157
-0.0427649957041457
-0.1803840396695285
-0.12332446497877943
-0.03431958775646503
0.11987303022166386
0.15813219527464065
0.2770642880145009
0.04976168233524125
-0.16681760482233665
-0.21774733212544198
-0.13461549696728212
-0.12485769058836783
0.02986486806824329
0.1659551731431261
0.12431676515921873
0.1364288674399693
0.01514251894500297
-0.047124396054466895
-0.07325971841641264
-0.0923634104067942
-0.13064514078221215
-0.005623243577653455
0.07491917864916513
0.11005023630042292
0.10144146634055617
0.05066701921335708
-0.04026025400400666
-0.1655645125476137
-0.11196357523754291
-0.05750409621940041
0.025148479675266684
0.16145184188024816
0.1665811463366636
0.039677803881663046
-0.03644237424172771
-0.089813284610269
-0.1503959475364957
-0.0413930580487127
0.02599920095899326
0.05307063740464943
0.050114158809278025
0.031117589814114686
0.008870525111681923
-0.008075884019616064
-0.016231179562276276
-0.016244827902277277
-0.011111106478903466
-0.004343435493808971
0.0013231825111389428
0.004503064765595376
0.005099054659466177
0.0038632826338973894
0.0018551175883791291
9.970784956761398e-07
-0.0011469334959805406
-0.0014535353976062467
-0.0011047256514851347
-0.00045063163500872193
0.00014780272883150285
0.0004317563995250909
0.0003056431844397233
-0.0001499927193658733
-0.0007067372144343199
-0.0010533705101587341
-0.0008943134974931677
-7.09713631525185e-05
0.0013205340053752846
0.002860792425714365
0.0038434981566966412
0.0034604472972576345
0.001135186021949796
-0.0030669620438505815
-0.008106462441540162
-0.01192447832140453
-0.011882329775664415
-0.005769756597388971
0.006746905071351751
0.022627930339439672
0.03451337351899005
0.030943733962804483
-0.0019066622295837096
-0.0771849333843564
-0.0038101764318084503
0.01646373410110931
-0.009550954341374701
-0.06700855290781481
0.06462545260033857
0.007923667684540258
-0.016659968531229828
0.005491110564702065
0.08072837850829372
0.006592212165412113
-0.026651158459549816
-0.032757793253962234
-0.025522904027369314
-0.015345893979124564
-0.007388498221574857
-0.0017660422724631517
0.004447765298083094
0.014124061103538423
0.026886714681175147
0.03685971384631878
0.032174212326920776
-0.003429761579008119
-0.08727086891173125
-0.03370909660208486
-0.05076635227556896
0.061708558650624364
0.11239080396548924
0.11829421447981066
-0.09494929498126899
-0.09241117437355197
-0.23041203988579792
-0.060667348318936505
0.06064538230812832
0.16024314263698602
0.23573089944238615
0.24973204581163222
-0.06571903175213449
-0.19418006144479502
-0.21343329293926477
-0.17503596970896565
-0.09195157828647361
0.06177561781613336
0.13995687474097954
0.20643681096543468
0.11696802935714799
-0.09361098920584819
-0.016162612243429214
-0.06460378893424185
-0.06863901593943045
-0.06513580205058893
0.10949576758593947
0.025007832024868462
0.0614131741147097
0.01217156675919402
-0.1134213008255754
-0.08954976212246084
-0.07641369782768989
-0.027039338315694703
0.10213143927966177
0.13933817608831686
0.08809577773503878
0.12398715548931848
-0.00037367021564651924
-0.1430032300165943
-0.15638419559412234
-0.07263342531648921
-0.09485512288491298
0.002612712261075968
0.06539668671636761
0.1448390856290542
0.08302576438851018
0.10182408509583009
-0.0008986356379854526
-0.04725090683343724
-0.06945928480179339
-0.09792957223010346
-0.1514344782463786
-0.03269438342696236
0.06943832540889708
0.1725449977464324
0.09140003111322105
0.03094264589943453
-0.015810701788687286
-0.06461189362900271
-0.1335481316716118
-0.03639179438844746
0.02157706654204801
0.04406646617423293
0.041130216254046593
0.02506613146557793
0.0066540749371980495
-0.007111802199351095
-0.013517550176127267
-0.01325232769572479
-0.008872424812147254
-0.0032877262506758945
0.001288073421363888
0.0037778845398597394
0.0041633705586942285
0.0031040326372954626
0.001481782905392924
3.84090133584664e-05
-0.0008159473365147344
-0.0010246457296376192
-0.0007872716688535954
-0.00040973814127149096
-0.0001599062928929566
-0.00016719131285558776
-0.00038440933480532604
-0.0006145590157611108
-0.000593947854418041
-0.00011275612493218514
0.0008577823569484041
0.0020746268612449746
0.0030179752563991163
0.0030125757615932203
0.0014837141289898333
-0.001699400237198403
-0.005907294691563965
-0.00962797563169116
-0.010709045026938377
-0.00705766029840057
0.002273812559443761
0.01591229257570411
0.02939833947031883
0.035400748127651
0.025307358324918514
-0.007881561337172528
-0.06611514566863062
-0.14370093214065127
-0.02710669091173444
0.10201144302212412
0.061208924064297086
0.06120792413653463
0.10200870525516972
-0.027110381782541774
-0.14370431208986362
-0.06611665183062584
-0.007879736992632927
0.025313233594253887
0.03540995197725762
0.029408231168852036
0.015918460542871445
0.002271163610606761
-0.007072836319181887
-0.010736473716614235
-0.009661228187747783
-0.00593337533601941
-0.0017013228706605384
0.0015208869614104737
0.00309319317588552
0.003127513138224991
0.002175889768917626
0.0008960707513861809
-0.00019285346933404726
-0.0008216622992046602
-0.000963341109399942
-0.0007526334131854421
-0.00038465651300125485
-3.190349006212332e-05
0.00020122892379957893
0.0002859830082412496
0.000250428294390065
0.00014983897749982193
3.946744617791394e-05
-4.267632304748342e-05
-8.134445641815242e-05
-8.044603184188405e-05
-5.479242069512882e-05
-2.1474684259692637e-05
6.303119134617292e-06
2.1913759353530093e-05
2.4957962556872372e-05
1.9101628786664272e-05
9.439730303469915e-06
3.827266359500874e-07
-5.46733409258425e-06
-7.4640407620235936e-06
-6.399957253284043e-06
-3.7310013616055016e-06
-8.788286121812529e-07
1.1998927521397074e-06
2.1410233861891885e-06
2.0688878414609507e-06
1.378113175781389e-06
5.113026033137514e-07
-1.9659919357613448e-07
-5.832115083276325e-07
-6.459759783562584e-07
-4.842578001631801e-07
-2.3092857146099453e-07
1.3720443329328433e-09
1.4792981735793982e-07
1.945343369090724e-07
1.633620843223966e-07
9.269774976216014e-08
1.908017463076327e-08
-3.345020335751747e-08
-5.6257589545941406e-08
-5.314616432678508e-08
-3.46051229604651e-08
-1.2082731835809268e-08
5.93576096188836e-09
1.548583952836621e-08
1.669966718978002e-08
1.2260323266334299e-08
5.6282984045802405e-09
-3.2308719351097453e-10
-3.988012956600612e-09
-5.063390080689011e-09
-4.164929463740873e-09
-2.2977079443591275e-09
-3.9976084731520364e-10
9.257994739319425e-10
1.4758451504849623e-09
1.3636744346454736e-09
8.674713921345377e-10
2.830048922057291e-10
-1.7505784326988884e-10
-4.1030443507068504e-10
-4.312107554242838e-10
-3.099765502419564e-10
-1.366084204376937e-10
1.5686286053330688e-11
1.0715766812290017e-10
1.3162067648626142e-10
1.0605670091742585e-10
5.681020786123563e-11
7.935172805332102e-12
-2.5464350861574232e-11
-3.865709957266413e-11
-3.495040424662687e-11
-2.1706616712214876e-11
-6.558089809281441e-12
5.0719446961798285e-12
1.0849152848784746e-11
1.1121570696000381e-11
7.825947376456204e-12
3.300344930940959e-12
-5.923154008764145e-13
-2.8706584863380194e-12
-3.4171152684722997e-12
-2.6973413176823417e-12
-1.4008178342383096e-12
-1.4365145235740013e-13
6.965958023819658e-13
1.0110317474490693e-12
8.947173767316506e-13
5.421203419322024e-13
1.499667975214566e-13
-1.4493226406020883e-13
-2.863376349233378e-13
-2.865278122382629e-13
-1.9730635634035362e-13
-7.933220436286217e-14
2.0047561169428495e-14
7.667280569881449e-14
8.858841884099093e-14
6.849892340658258e-14
3.4422968392818137e-14
2.1229848379801433e-15
-1.898131861302903e-14
-2.6420823884852346e-14
-2.2894254826778472e-14
-1.3528698807898619e-14
-3.3890071243009406e-15
4.078697194844223e-15
7.527111851279838e-15
7.357062869476392e-15
4.950497158431039e-15
1.8792287760389194e-15
-6.549233969041281e-16
-2.0590083889745915e-15
-2.3102267261046714e-15
-1.753645358685261e-15
-8.594939677257287e-16
-3.056800879267054e-17
4.9860715172004e-16
6.731081178121992e-16
5.687791352847552e-16
3.205560503715754e-16
5.868783814854996e-17
-1.3015702530275848e-16
-2.1391056516227562e-16
-2.0505226975519783e-16
-1.4035711455362767e-16
-6.050540227130001e-17
4.036662390992837e-18
3.876586607126176e-17
4.380186909698256e-17
2.847947827669562e-17
5.0534518024208196e-18
-1.619522979004239e-17
-2.9440342005157277e-17
-3.349112197960304e-17
-3.0461153742510143e-17
-2.3895741413839015e-17
-1.7140579057158142e-17
-1.2371788049010617e-17
-1.0346885844626225e-17
-1.0689569904017082e-17
-1.2423464273907289e-17
-1.449695922960141e-17
-1.613875786462605e-17
-1.6995437383549796e-17
-1.708818890305692e-17
-1.6668634692715798e-17
-1.605574670684729e-17
-1.551165723998577e-17
-1.5180799008955048e-17
-1.5088088989984314e-17
-1.5175034770330362e-17
-1.534857836135358e-17
-1.5522776320565897e-17
-1.5642963937079436e-17
