0
4.0060997413713025e-12
3.0356520961403505e-12
-4.420165759437955e-13
-6.168315725618181e-12
-1.262639420848987e-11
-1.705833909185855e-11
-1.610397535034531e-11
-7.107250585829829e-12
1.0166118703703605e-11
3.200751815783628e-11
5.030452906897478e-11
5.398277359643139e-11
3.274435979268104e-11
-1.7406430591819082e-11
-8.853600141537665e-11
-1.5776712101373058e-10
-1.898794952083348e-10
-1.4750268264254733e-10
-8.284926344741546e-12
2.1537417774023424e-10
4.6226366826875784e-10
6.241954812608126e-10
5.72054559538696e-10
2.0728246181787853e-10
-4.718152103607113e-10
-1.313010889024568e-09
-1.9958345163631213e-09
-2.0918539516365673e-09
-1.2131497028723849e-09
7.729963866595004e-10
3.5305684149394225e-09
6.1483434868961416e-09
7.255091217564887e-09
5.42833878356702e-09
-1.3435089991258483e-10
-8.860035404285794e-09
-1.828443649759629e-08
-2.416859204343844e-08
-2.1557813279239972e-08
-6.808017020079919e-09
1.9857686752199768e-08
5.2214308830723645e-08
7.761909369275849e-08
7.951703240986919e-08
4.332868363644942e-08
-3.521812779481779e-08
-1.4200024729048455e-07
-2.407821223369222e-07
-2.782386308186717e-07
-2.0031537006949844e-07
2.1555632303904784e-08
3.6158397998375647e-07
7.207796094915938e-07
9.332495658805957e-07
8.091206025700207e-07
2.141933189274813e-07
-8.316070715475709e-07
-2.0745915523859136e-06
-3.016646181791707e-06
-3.018840043149415e-06
-1.5345676694721303e-06
1.5674851262863347e-06
5.697579252225499e-06
9.417034970337816e-06
1.065448837907141e-05
7.3594683439371594e-06
-1.474966498609865e-06
-1.4710291033575665e-05
-2.83783037791526e-05
-3.599429628862772e-05
-3.029217542499294e-05
-6.351782901170477e-06
3.461471517574241e-05
8.230082712144911e-05
0.0001171063504847744
0.00011440236398346344
5.3749972105903895e-05
-6.859510090649033e-05
-0.00022814745183962528
-0.0003678741000581643
-0.0004074110872688777
-0.00026912885413098343
8.201874255874511e-05
0.0005964986289379492
0.0011155052916121822
0.0013857826844612447
0.0011295966868483784
0.00016739900468024685
-0.001436650827881287
-0.003264679183143835
-0.0045452860483861275
-0.0043275172027707285
-0.0018432774445828234
0.003011794295556846
0.009248267407014886
0.014646308831354168
0.016150832620654854
0.010910644941894488
-0.0021849131414394805
-0.02096365565298331
-0.03923426263676636
-0.04780239374281419
-0.037979841473693966
-0.007707778448358577
0.030535117168732563
0.0418866922608021
-0.03610481487523227
0.10673421562917777
0.36127600953821315
0.2164477935922911
-0.21496249690957356
-0.3667440347104643
-0.39478570554391146
-0.5680268127573119
0.1183003910537315
0.7083485345073299
0.8406691245819847
0.10799099030059578
-0.5660101659636055
-0.7308638894184509
-0.6023087553311072
0.3456593923678977
1.7866436971940471
0.15274298779109236
0.6608507254885
-2.044369515488247
-1.4457568071283458
-0.7323273202546443
1.3800107148025658
0.3890779677358302
2.335496324255558
0.5568451663994168
-1.1076391137642216
-1.0620578373389589
-1.0745167779142297
-0.4106473640007892
0.19142166923174633
0.4973320484815259
0.7180416487462435
0.6426032686123269
0.18763514937909287
-0.22147552029116233
-0.43727130137852305
-0.5569439062695116
-0.28665957555859956
0.0817882121689627
0.27599593222607416
0.2334297614180354
0.28744878007863855
0.1595973587911147
-0.035249533487919274
-0.1706831679637983
-0.28320706767312503
-0.1483842935555285
-0.2674547991366286
-0.06957128823454904
0.470749544932677
0.6067922246287231
-0.007982435391198866
-0.34180967976475
-0.6004736174354598
-0.8429527116113155
-0.0030524541257213656
1.484166252080774
1.6635132065709688
-0.3334243730606687
-0.6447479763746823
-1.0062005279432118
-1.2768660513786336
-0.7932516309053983
1.4303299402474783
1.2597793566149516
0.5820236665126853
-0.34189084259598396
-0.49372457849448
-0.4863486813683814
-0.13804330150245175
0.15105776117837327
0.2111286628884462
0.10250239432608976
-0.09301306357907121
-0.08542797198154987
-0.1926907702331084
-0.15938442762223307
0.022899561061801764
0.29704830083410355
0.3304726769060132
0.5219250227580626
0.431191862683331
0.03123168419952612
-1.0275437903947031
-1.5609132102824235
-0.6263244657341304
0.253597306105831
1.0226352476398555
1.8031367180562732
1.62669577173488
-0.18506272955580633
-1.5826428850775043
-2.518473180345006
-1.6899444983137044
0.06311713103922029
2.495848757432679
2.8603393159832975
0.8275648638057523
-0.521879990974073
-0.42517470361202886
-3.913205375765429
-1.4918981566780307
1.5183925465907366
1.7647672272197712
0.18520571919177192
1.7187944835339717
-0.5552681836899613
-1.0312786509222622
-0.5507679588303441
-0.15957670643339977
0.1280512828888022
0.1453625613535876
0.16864402536985776
0.09966646397656814
0.0435628208857407
-0.1117912750894548
-0.11224308344972658
-0.1494598015185465
-0.06893637654986898
0.22728433542717857
0.5868404160471087
0.627331618552071
0.17362281844730465
-0.6920615594692131
-1.1818991623176638
-1.3784302311928402
-0.6548156508659821
0.656111350807548
2.1642412691231865
2.7384208748335555
2.68382444296421
-2.994205109015408
-4.059008897774075
-2.507560968197112
-0.9078496017769327
1.1483004225239832
5.496534032121319
2.6289516392005914
-0.41324336909251264
-2.23468835672603
-3.3834899747320297
-1.6162983441214467
1.198342224711015
1.7028498122219515
1.412470260509591
0.45868220403028176
-0.845572785904213
-0.6029375013739696
-0.30094962356147137
-0.17602850140021414
-0.19170340620999393
0.16014260617596832
0.23706307090177664
0.21194205308848169
0.23852468741494615
0.22639314502616428
-0.1696074790019221
-0.34656082146064987
-0.34346226679022834
-0.23203230973284972
0.08625637240692188
0.47774876292117774
0.5760855308240361
0.3937701646745326
-0.04728237482448835
-0.26818297484901504
-0.6810426220205332
-0.9521280637812355
-1.1993310806933137
0.9666972127060841
2.7653759558085977
-1.8429734713103534
0.3708811026567155
1.2700474131241788
-0.2420613547872491
-1.981097540997139
1.5787278560688656
-0.4323138564168778
-0.628971894102139
-0.34259793601786226
-0.4191675761959611
0.7575382890427724
0.8268418647501258
0.4123599935658195
-0.3003966530710323
-0.3625358896237643
-0.24094381569898898
-0.19052780454531862
-0.032258163086454524
0.055532196498584416
0.13164636704516436
0.07610883830541204
-0.03044829372335401
-0.12683007715672817
0.013015089683726293
0.17130099184160444
0.2872514054063576
0.26992757591038735
0.22376894373413658
-0.1166825426693124
-0.7524558390640345
-1.2009956091032916
-0.7072363172619434
0.108350158505841
1.1748229505576788
2.8978897795499328
1.3273320681477367
-1.4074832897473035
-1.5966282688315718
-1.6212437375547117
-2.054441276147007
0.16236957342804398
2.4555652879257934
1.4951628418814067
0.46252050454016763
-0.04049610794114051
-0.6166839548814008
-0.8395748194705128
-0.38653764423391496
0.23200036551829056
-0.07266675607214579
0.06440818574977163
0.2739320899324777
0.2518626384398232
-0.2468532629128085
-0.21631343919599713
-0.00892384031700382
0.05284714556241337
0.061824290566979266
0.11043694514613081
0.07728685269095167
0.018948529284134853
-0.031702173114816344
-0.06143862003061023
-0.0693790202202442
-0.059537056600529915
-0.03584751228494996
-0.0009630502114956186
0.04152889873493034
0.08326450865463768
0.10823083067251855
0.09329935367370323
0.01339121324111672
-0.1495393380910096
-0.19669858637467758
-0.10607887776943778
-0.03316660326836505
0.08014185790206073
0.0906511235103437
0.2378579708180988
0.1324077477344336
-0.04686576056734376
-0.14634985372137155
-0.02408592126151788
-0.1341212525856395
-0.11386662399023331
0.02208829904082258
0.08077622745094828
0.08384228191969455
0.05792797510458734
0.025848668439350568
0.0008297660655163356
-0.015662866120054734
-0.03350149802173436
-0.07279874800632535
-0.1642116558106453
-0.15208496869597415
0.09970987862882456
0.3018349114002263
0.13850007757548083
0.27732490959924233
0.1938977186827377
0.010143509662737407
-0.460424129567738
-0.07291453410942175
-0.7317973497494431
-0.6055460322189582
-0.38189989382665523
0.24066418133387996
1.043269432017089
1.788432463844335
0.3660408700902464
-0.39414249052156625
-0.24312410480188357
-1.1901265219295942
-1.3749942070990262
0.027072038575774497
0.6457132913579862
0.29942209683193294
0.34089565466401844
0.3891042994113156
0.2699503641527502
-0.02227339746507729
-0.3411473181702332
-0.5894615125048964
-0.5176031275296687
-0.12943114815143275
0.30166988272585865
0.8147756905424433
1.1583403815541404
0.8198723231937152
-0.3035751919653563
-1.2046458477222162
-1.465067588952221
-1.3959719916218571
-0.4529526267348191
0.6642287781078503
1.2490683152263384
1.4108028240727406
1.5392966982330334
1.0582581238982036
-1.3156839752668443
-1.226084413718057
-0.8896144663094671
-0.9281945171396314
-1.069851640397306
0.2570498203760255
0.6409984910643947
0.9462354559680998
0.7588355017485854
0.8663026487587383
0.804221709227825
-0.11797207969583967
-1.124143583575687
-1.2442515401484948
-1.196072008689764
-0.11424073026912723
0.6546880337125851
0.8985676878370533
0.6552990568718675
0.332113569325769
0.05460080986881948
-0.3447714064305237
-0.5049555763013285
-0.2976031677351399
0.010925501402689103
-0.015691767502957248
0.02348582491751304
0.1592257270791791
0.23679267156862643
0.10016977502903279
-0.018529547688721663
-0.10225035174732817
-0.14632391283819235
-0.15391720783842494
-0.1337175307499124
0.09812285515966877
0.31307576456787994
0.2666162019787819
0.10094521769024097
-0.043319604280278444
-0.20876778572290988
-0.4033951069554759
-0.5930399875381761
-0.1118363478118644
0.3079414808169121
0.49439068449865115
0.39848352423944733
0.27861884548330046
0.7206759479458194
0.49709322179642207
-0.5441680932019207
-1.383151193986831
-0.9564907835295563
-1.144701924619226
-0.8391811054361517
0.9147591370528528
1.9314824513273288
2.3102557077397674
0.9316548979816531
-0.1347001394829732
-1.3089317306005
-1.304341971006774
-1.7183291952209665
-0.6735553619055848
0.2500952703260863
0.7858797374739678
0.8775084123728073
0.7462587725707029
0.37138372605165754
0.013875265403407272
-0.20591187758036147
-0.2841559245379526
-0.2817105283086268
-0.2667571696230113
-0.2714235482371943
-0.27523916540058
-0.2201158733190768
-0.052999604269538265
0.21587050865082347
0.6581034382911805
1.1985937194724492
1.2342678561170708
0.3107044749135919
-1.1523909973976945
-2.5197567670905805
-1.633103953267317
-0.5851796132019514
0.8030460928476423
1.8203218880269412
2.270902498541848
0.5129787709559314
-0.42105545958798024
-0.007912676668422164
-0.9421084303405106
-2.6149545004116486
-0.8124406656465809
1.7343747998462764
0.14104173954570426
0.9270765470519299
2.177462421906541
0.3409423062908053
-2.3240680220089702
-1.4729034113246724
-0.8045875544437747
0.36488816187727
0.8710184332827076
0.8249141445762543
0.5253167546701198
0.19104521162038318
-0.06688515179965904
-0.2319751005431146
-0.3407111702414357
-0.4331496973610305
-0.5161815522246394
-0.3544166616167669
-0.09390083015658075
0.2879901601296717
0.7244758982098939
1.218439852068009
1.04365113494439
0.40273294354587713
-0.8634885219921438
-2.3446320082434395
-1.9543546695856697
-0.29545465097841594
0.6800472156580027
1.5299399160016733
2.1477437483529638
1.0161108198890287
-0.4653940643200122
-0.3639718968342391
-2.1305390107534707
-1.294715124462523
-0.3834375165186406
1.9112231088850946
0.11929659764853834
1.3628625248324937
0.5414189712500479
-0.048013273127224594
-2.259218876815423
-0.8367534661114532
0.021814077386015034
0.660820883421016
0.7197553609432222
0.4652218250178813
0.12790898082021657
-0.13662502943193663
-0.2578712833774363
-0.23691034306455633
-0.12090574729649067
0.023735488363920247
0.13304627325921123
0.16028838243652857
0.0850271179128123
-0.0821535187360522
-0.29986629884947497
-0.3038603781573436
-0.22585975298048855
-0.023674717709707443
0.28263487104994767
0.5799760285739242
0.651966470922704
0.8027645972883186
0.32023624140531076
-0.8304989276900874
-1.508419607917046
-1.9295435518955302
-1.0663208286968209
0.4713442080827967
2.291546650278938
3.6632039556130622
2.210704599066838
-2.694073353205978
-3.0443385872970787
-2.468334408934615
-1.1305243479583529
1.4857914316928285
3.916975860215848
1.829155355454028
-0.03537466759464498
-2.037167363642059
-2.3537115304767293
-0.6753721724208198
0.6656009933734179
1.1072277226172813
0.8189834237088127
0.039726676111495544
-0.3813396445052342
-0.6290769042125871
-0.555023783730694
-0.10611467941843511
0.44796030482479676
0.8969245589409892
1.0983241655295626
0.6288281999208996
0.08382199913210478
-0.38908440821739454
-2.3581709669093747
-2.826079241827049
-0.6434480327268178
0.76366948638153
2.177017953934835
3.9457300427128317
1.2049214378313962
-1.1839447602865676
-1.5573330803909216
-1.678588268197911
-2.1421939525825207
0.7806686890511795
1.620815205310452
0.7179058344078938
-0.41563339349626466
-0.14239140566779346
0.05814397339267712
-0.2433393606778925
-0.053373416351487436
0.01941254111472967
0.14177882750919701
0.23823625135463838
0.18205124663703054
-0.0023214112613771988
-0.1258152078842074
-0.21492354696720103
-0.29309461918746493
-0.17126051132761835
-0.052497654874938286
0.0494066752777019
0.2834579021075016
0.3372746392029068
0.2266766367720558
0.30793136602938953
0.11567593980322408
-0.5781631966483491
-0.29640940843391417
0.20416950481255564
0.17083659009818847
-0.9414600735679469
-0.9073484872229903
-0.21064481401780766
0.24081802864826335
1.5855426537554407
1.4968429431574946
0.9248164129383449
-0.8864173123020899
-1.1107646077738245
-1.812628230433975
-0.22325955874816744
0.744171540920349
1.1293839192884159
0.32153393690172566
-0.36082886336423453
-0.490688563065615
-0.35139371212977066
0.041353173714935874
0.3099097611363894
0.27947577162180837
0.1448096679403643
0.0472797589633969
0.06691828869400843
-0.17138980194534081
-0.28308675304183234
-0.30824730907233194
-0.10200108059792981
0.06575291136938076
0.30391660348274213
0.4949161476770853
0.7005306350881914
0.18573652338090155
-0.7408980247648094
-1.68281561400448
-0.7272122785381682
2.1498792885320728
-1.7575322330133334
1.2523001303050907
3.6300327535934622
-2.058018604203212
-3.7296536593837377
2.2349342138914015
0.4132046756168981
-2.0567460136329996
2.1122406257767343
1.3446780062833523
-0.5938557885087132
-1.169478188881587
-0.23447116623419956
0.2197854302404747
-0.30611318969696655
-0.013094626067032327
0.17991276895082217
0.204294325396552
0.20504960134341438
0.1089504753779604
0.004587038340273
-0.06317619094548876
-0.08629057426644812
-0.07909523548065711
-0.0622160063035929
-0.04978417360371364
-0.043106147768113466
-0.03177267895075433
-0.0012146519919486304
0.05592659653741072
0.12842711394375034
0.17940397637604233
0.1472387839421209
0.15620354716545104
-0.06488051984666411
-0.3617218121266047
-0.7405852832330505
-0.5711027848858823
-0.21124476901893857
0.7503086647711709
1.4519495005321084
1.5432748857643879
0.8186182039470458
-0.8954336546803241
-2.822742434239102
-2.540054551398881
-0.9536193956540666
0.6200916820061039
3.085848284369509
3.574388347185255
1.2993007584676177
-1.8770105163751396
-2.563511136025229
-2.69517026300316
0.4068629786749695
0.9168434923787757
1.91815652632979
1.1775595352886914
0.11990946268555563
-2.1725913089681748
-0.9404061976286824
0.07109762645209305
0.6055858911141266
0.661822530468145
0.4459693135319112
0.1304664569173879
-0.16676867552741476
-0.38144147083507446
-0.48932521581722843
-0.29323812786926745
-0.020830927510982707
0.2644460777029027
0.4459252075326781
0.5427264910289584
0.31841245549245895
-0.28335265486799965
0.12130633246160816
0.028442500845001155
-0.68922967456643
-1.34688103623023
-0.4598821626213536
-0.41312460828199404
0.2203800090000802
1.739875602957511
3.2001679101251654
1.5630160169253362
-2.4587376253033404
-2.679169295520778
-2.2938826116028728
-0.9789467425027246
1.3231575560975182
3.3371077108064324
1.958182890834109
0.3891713806572927
-1.6496249797437537
-2.442894824675092
-0.7789674385121547
0.32265298143836435
0.6227821900443433
0.6135989205136305
0.2335812892221119
-0.023312748821172243
-0.18122352741943895
-0.026802235542767457
0.2795608336386782
0.6264938910906421
0.6079430107357723
0.2090815604093989
-0.6903169037464659
-2.21830013474468
-0.6495470941553635
-0.006496741206301899
0.4706892811427021
0.8054712129606973
2.5582117875909742
0.9362380571352241
0.5705285724773934
-3.6416323638646224
-2.2626879290240307
-1.0623120299910378
1.7736425697609546
0.37220195664503647
3.881930391391934
1.8220312585620753
-0.4817275840582369
-3.5694806793652014
-2.0717134639691284
-0.957111330361556
0.5351150644273772
1.2585543883381558
1.2443159940714261
0.7588668033555287
0.1856601296331833
-0.23905294992251824
-0.43170101134158534
-0.42365386296860946
-0.30467910553914895
-0.17044909400810626
-0.08890390143698162
0.1097510992195567
0.2233052721524659
0.2574694485667658
0.2065499245418621
0.24387813119656276
-0.07392717347011926
-0.3910160113411189
-0.3323039183521238
-0.2894797729782809
-0.2209598271617127
0.13262758364380003
0.8239892456752862
0.878688739653084
0.09240052847080082
-0.34741321051863355
-0.6217145606694224
-1.0405682318667555
-0.8270343303068847
0.060221822185218675
1.2665245468103128
0.962455651802908
0.5773378430083729
-0.027742339872139303
-0.1361514631213948
-0.9100551143962355
-0.5062262701966705
-0.20039793848266724
0.05929653039089628
0.06166805934414137
0.10874933681597537
0.17096522987619
0.23571030272141663
0.2625939945922581
0.15500572081974845
-0.04754082386824681
-0.15780986805359
-0.21688074828952536
-0.2677580540308993
-0.13619127630422564
-0.024888380795015895
0.0780061657111128
0.18064642243221074
0.2675636859058555
0.28707728192541515
0.15279577843093267
-0.038898258688166445
-0.3797425838798871
-0.31880237928996463
-0.4424062594260873
-0.27501442640758594
-0.3044317691417876
0.7748235349633235
1.0156665910176927
0.9910286693025798
0.0023526858653472537
-0.872113104363103
-1.1040710193253922
-0.6456744071421013
-0.2930619226962701
0.500955119063341
0.9683743635867604
0.1404946815715324
-0.8408808693424424
-0.1970625060099507
0.6395136523251105
1.2097230218851378
0.45187838129094515
-0.030269527069218434
-0.8628455263258304
-1.1831649540563844
-0.9395020584090952
0.16156843675850974
0.6472547805084714
0.41813028841872285
0.258840344972502
0.1474353865243357
0.18465095103957502
0.1543197705934773
0.116810323898242
-0.1697304422786099
-0.4108402279737202
-0.5336164502101411
-0.25444794020573336
0.13482704262639136
0.36235568215687214
0.5621420963661075
0.463892535201517
0.1982927909373332
-0.2791327046849837
-0.7535352517688737
-0.9224372016091417
-0.3921710052306722
0.09003492376757703
0.7722899221253555
0.6221104991212233
0.8665041382903657
1.173640134332192
-0.31175679099893566
-1.8873113065081395
-0.7939175230450567
-0.3360031035155037
-0.6513424197758577
0.6601928683116248
1.463165897302463
0.5984891754596388
0.013220195297407306
-0.27052084710209
-0.5447609577883769
-0.17583964717117956
0.04564550991514143
-0.05070698370889338
-0.18513439996922462
-0.014896456592471274
0.06270644570909167
0.09538223173426688
0.1546800099953542
0.11495768744565882
0.037761778240763925
-0.03563570069995921
-0.08387248139514739
-0.10014354836256618
-0.08581986192197189
-0.04649265161342025
0.007855192080274626
0.05911910910347465
0.0763459780303639
0.21364679233130668
0.21413318418862437
0.0214630834354954
-0.20269203175780232
-0.46084803178961553
-0.5097634720562388
-0.06551052726003809
0.37492150786235984
0.7023908694618314
0.7682908027372756
-0.025179541304715843
-0.7114935884944908
-0.5297664761782656
-0.6944361737631392
-0.18130632770512434
0.6625433022038637
0.8909584576120895
0.3291624874876303
0.15950278441230398
-0.46937747879195296
-0.6150831171747548
-0.5107676694683451
-0.14771367822155992
0.11933168938506696
0.5460917148589087
0.5641452678167712
0.35403092050934315
-0.16131796435429635
-0.2996345957166788
-0.38616939440919607
-0.3180378127159996
-0.13959204414520465
0.16343559768084315
0.25135586294229734
0.20658824118608415
0.10830239331184066
0.014069189512883213
-0.04733985448638294
-0.07254750288419001
-0.07335313809140509
-0.06469739398753725
-0.05527243493346295
-0.0436676059420009
-0.02097208154181497
0.021168987017455475
0.0796579478872395
0.1298690116164935
0.12023823416140927
-0.02558166219671996
0.0018843691556930883
-0.08459345762428892
0.05181114351198649
-0.008466446884400769
-0.027508065102848846
-0.505754828417548
-0.09079101737560955
-0.00024631719984276904
0.14402524109636175
0.27836378044314786
0.6677403047826059
0.29538328230721494
0.07777558233406155
-0.497754411614259
-0.9255718245612757
-0.6432638383738232
-0.019041733533963552
0.6287783843706423
0.5887182979581199
0.7089280354790944
0.16644590127394765
-0.3352509896598062
-0.9423182847180741
-0.21352784586216517
0.11330579999930956
0.34069632165874947
0.21578973067767232
0.1258591641412146
-0.10789438383715308
-0.23495258578824718
-0.1797745804848752
-0.04916320938147647
0.05517136286885957
0.22016325247553908
0.3056847724701619
0.13532650367451554
-0.10257476780035221
-0.24428291433183985
-0.3356174160535957
-0.21994336433683945
0.06511539327077451
0.28158791380292336
0.38081912933090906
0.29734494681344353
0.15422886042867084
-0.3184603929744192
-0.5578063988729598
-0.5462087921527959
-0.005247173376755432
0.18907144052479913
0.37376863059599313
0.26166356144518677
0.7151831096585931
1.3434395425522623
-2.0745182695019784
-0.9503026237047384
-0.05136209023011768
-0.09162538699112388
-0.5556562406344963
2.253865798849454
0.96858287797069
-0.2684901258351589
-0.7884393318961033
-1.151711902273514
-0.49667907841276254
0.09327464234589611
0.5916703844753873
0.6050547683478292
0.3403831627256971
-0.018360863472739915
-0.3144965976781033
-0.20514563757338836
-0.13893285798137944
-0.13577807883583448
0.02337852566885651
-0.0058873453592650565
0.055076478537365435
0.0883140520060271
0.15927126750138398
0.10210317327017068
0.114230365039667
-0.0386126828905587
-0.20882575454530888
-0.24965474074213234
-4.35682911846316e-05
0.12381988310638463
0.12887372884987147
0.03914617577309403
-0.11385466967266106
-0.3023713926214318
-0.11456376411566122
0.2333654463220411
0.48841771183738003
0.3613481612186238
0.1421880202870322
-0.26842390844999897
-0.5190992488406938
-0.5724147637268815
-0.28954000359192816
-0.044364928848806474
0.4337317378858972
0.40035661257823607
0.6385786610774522
0.2220377742524314
-0.08972476827047532
-0.2232068887763889
1.0594407612890635
-2.9847462780284033
-0.6406533105667267
1.6720112892203607
0.7717561853012874
-1.1305360262915183
2.328240245561406
0.24902309109238124
-1.7115266541822012
-0.8999304349608206
-0.022197878507537912
0.2814801372350489
0.43474885788395784
0.3023132287934747
0.16094263776632878
-0.12288184897557236
-0.10289883182025385
-0.1518670661954265
-0.054446961995135136
0.0003535494327528502
0.023763348826906956
0.028074003780181964
0.024792402578332404
0.021936494540920837
0.02212839146253517
0.022527832176718974
0.016907820429910906
-0.0005593178505528807
-0.030910456356155438
-0.06703065930391407
-0.09317452748224246
-0.08888579497173636
-0.037758921028574303
0.060281218804049234
0.176555773858358
0.24597074912793976
0.16906679756897802
0.026622014024823268
-0.09438753049322195
-0.2693344745210529
-0.30826057257006195
-0.34174121570172045
-0.22696964371788825
0.22550174489843122
0.8116025252761748
0.29350235725488794
0.37359343637162606
-0.30884862247181544
-0.560294904787103
-0.8064359765539781
0.12852454530729762
0.02658049584786821
0.6648453317330093
0.7987238954801542
-0.04721181855794133
-0.5721987622815025
-0.4779730506170088
-0.043927927532184614
-0.31126846818441856
0.3169177227810312
0.26122016111894164
0.34504741649551746
-0.022900721536297554
-0.05596214514566157
-0.1853062131750749
-0.04791734254287137
-0.07278891170546388
-0.0706642990430983
-0.030296389478830708
0.07845595722172893
0.09655228557279073
0.0658859286016988
0.020889712369858364
-0.016135696467241716
-0.03544977083196908
-0.03706337157249024
-0.02647456382602551
-0.010667018673956632
0.0045413194873665805
0.015522536332529669
0.020624475700318744
0.019440932615680355
0.012256826125729656
3.70297657729393e-05
-0.01513772955433392
-0.029720861248908752
-0.03921149599608124
-0.040226356118074326
-0.03437634856865045
-0.0333922819551214
0.13607040484518182
0.23045044419996566
0.19287820702675787
-0.036116292229624945
-0.3022400961700705
-0.4205327123869373
-0.16500948566281537
0.1298105962970686
0.355445092902391
0.4099656557186372
0.18125653054581037
-0.26048212884201644
-0.4606130940834731
-0.3740736005849056
0.036738284854587376
0.3960888713264073
0.5036857121623777
0.12572886733689795
-0.20462632327029712
-0.3758576516068753
-0.28076698118659654
-0.0012800226738204693
0.1989611493520369
0.273959578000789
0.19102690575175377
-0.07196165444851663
-0.3252353960351017
-0.1634050575953575
0.03653244917792887
0.11226962593229488
0.10840436785746708
0.0668056231423608
0.0189093157492682
-0.01760786290951366
-0.0374854899542891
-0.04334519509878618
-0.04026450232912069
-0.031635034988206225
-0.017703340929283447
0.00288662399664544
0.02930265579372119
0.054061086068913196
0.05984580607202588
0.0193638692396712
0.09919933048718783
0.0673738863609544
-0.09721082772844129
-0.3968551805767823
-0.21304617576811535
-0.11385021220760905
0.12938435468991807
0.5215897511419703
0.6299988785743902
0.3873675933738934
-0.08223632868257814
-0.6200629647850545
-1.1877763382397288
-0.6427550853607121
-0.15093887187992278
0.5599429957856944
1.3226648615140617
1.4578732840294197
-0.2632860135164304
-0.6053609594873619
-0.21036767249263694
-1.9211200846923868
-0.518162166048541
1.1068135499318312
0.9374709902166968
-0.20512722283887813
0.8990413384834562
-0.35169076017754036
-0.5786636507689729
-0.40556816926425365
-0.03900102893550612
0.14182648611732906
0.1821821452098773
0.13915175142862093
0.06631078119899655
0.002065930603355215
-0.03515278218415833
-0.04497823620933899
-0.0387566406776842
-0.03176656300070826
-0.03662737300097226
-0.05954872844201926
0.1000843009109662
0.04738942586460488
-0.011728540997567793
-0.07425740401276831
0.05719404120452824
-0.027040095393363113
0.05633973708130248
0.08534607007073879
0.03634663463043836
-0.11083889223520903
-0.1678423987406099
-0.13487729405594556
-0.0019179276735100381
0.24621806878335803
0.22371586722641906
0.14096566443623812
0.008561010103624625
-0.1519810265884991
-0.2951714816232965
-0.3433813223844088
-0.19039070688864704
0.08045287278661974
0.56690307451165
0.3167291826560026
0.10665741281752134
0.04009498967453395
-0.034666100311345684
-0.4916005707509181
-0.29008413699007407
0.05482859440548706
0.08745175779599679
0.010280774069118337
0.07031448795099338
0.1391809045811299
0.09325451590854686
-0.0016516453700928305
-0.0987203639100994
0.028230551916621764
-0.011890727047962448
-0.0214703727822358
-0.0077062988826533665
0.02276089284620437
-0.13310252714075155
-0.07481374374822487
-0.0018028627612380495
0.08073583915268587
0.15596404836221012
0.19294451065045176
0.15072749466037413
-0.010109447388870957
-0.3111950097838832
-0.34179171363342126
-0.25408972761882204
-0.17470797855914771
-0.033263341451131904
0.39848852845280613
0.46997478259117254
0.4337340297663739
0.85991874620302
0.2893384428731003
-0.6817386362020624
-1.1063534273629663
-1.0134593784920713
-1.1894046066965258
-0.43444380476930966
0.7095483690160979
1.7913344708026828
2.294085854268942
0.9454096620341356
-0.2708408426011551
-1.6019178969205907
-1.5517869720800244
-1.5059614787352955
-0.4125155231224325
0.6501599043032614
1.6237106470803726
0.7716493488767443
-0.023819853596211145
-0.13620692988004623
-0.22723648175381508
-0.24308229249419477
-0.18937550805655984
-0.1004273858407192
-0.013618515525329089
0.04586429585471189
0.0697205423911598
0.06357198955224763
0.040371945866339694
0.013733347410656157
-0.006628959492565918
-0.016637659245059333
-0.017203566326387996
-0.012190601212843986
-0.006060070652693146
-0.001995824812084095
-0.0009341474805651018
-0.0015835740735519138
-0.001286266452804301
0.0025614718944084003
0.010880887853147548
0.021447333916933254
0.027912081791954115
0.019442699811934656
-0.019254190016204892
-0.10826280488001273
-0.07425938946403285
-0.15474878252745483
-0.00462222342477183
0.09710246220313065
0.2449058979019345
0.5149475970107245
0.5893646644003392
0.1979597523222474
-0.829802696732454
-1.7198186082602869
-0.7390564066986977
-0.23098085485191755
0.8981888195489102
2.4653992237163753
1.1087761286959787
-0.7642532849025595
-1.3626126942699277
-0.24449256671714165
-1.2301621527171325
0.6736516026764034
0.9220902316457692
0.8555142394117204
-1.0906518324723946
-0.5813444049586854
-0.18389127944250358
0.21683810378109875
0.3878768709409937
0.30868154784327895
0.13450270205729514
-0.027130319718178107
-0.12264776096443941
-0.14382146428107795
-0.11079779009112312
-0.054004287758348875
-0.0002809074837797551
0.03439427897663427
0.04595248766565086
0.039120086782412244
0.022689122899546804
0.00525846076652415
-0.007394327946311448
-0.013089842530430629
-0.012611722610307631
-0.008377766399986263
-0.003087705118151022
0.001221317451282859
0.003566279237187543
0.00393755645063708
0.0029444162718896614
0.0013977541419710473
-1.6791541123940038e-05
-0.0009066180123202579
-0.0011869480280745106
-0.0009942051337448192
-0.0005622302742961526
-0.00011358418787365823
0.00020571108836864419
0.0003435964271745776
0.0003237002379258343
0.0002101734883792211
7.280344011666475e-05
-3.6817800161462456e-05
-9.469865224376687e-05
-0.00010179265714821307
-7.453977286815291e-05
-3.4052423920524184e-05
2.1839006728858155e-06
2.443103203265204e-05
3.088943856076827e-05
2.5343811706039078e-05
1.3932034576721192e-05
2.3669982877392495e-06
-5.688739296713856e-06
-9.012024113482644e-06
-8.304617959593324e-06
-5.2674244329182585e-06
-1.7031580214761724e-06
1.0831791887281273e-06
2.5084398061868493e-06
2.6280620550077194e-06
1.8842550071369371e-06
8.260606502312059e-07
-1.0108691438935004e-07
-6.56207964282058e-07
-8.028325832778094e-07
-6.45264388301415e-07
-3.4435535895944506e-07
-4.6580091137053925e-08
1.5635844155411195e-07
2.3600870901788434e-07
2.1281273275899006e-07
1.3177504160105724e-07
3.940826328840361e-08
-3.132455824399751e-08
-6.631244033018152e-08
-6.777299562977862e-08
-4.7564068611374455e-08
-1.9945680013580148e-08
3.748832808991855e-09
1.757198190090189e-08
2.0838699537646003e-08
1.6407289105686487e-08
8.486805576729622e-09
8.284982026496104e-10
-4.2757892264563614e-09
-6.172307156383796e-09
-5.447683498838957e-09
-3.290504317666643e-09
-8.996513849526111e-10
8.933043484390827e-10
1.7485450227817047e-09
1.743469781648662e-09
1.1954875036183306e-09
4.750578907284029e-10
