0
-1.2700268844407602e-10
-2.2512908851376124e-09
-4.498200697028538e-09
-5.831586860734767e-09
-5.064094610785044e-09
-1.3545433534480267e-09
5.176593783463682e-09
1.294838770636482e-08
1.885087049926157e-08
1.8890183520193397e-08
9.643787121970915e-09
-9.7212373522741e-09
-3.5534613585237363e-08
-5.881785629495734e-08
-6.662798557850138e-08
-4.6134950871471416e-08
8.989935510404925e-09
9.168151168249166e-08
1.7718840301092423e-07
2.2500533055906501e-07
1.8969080621925677e-07
4.0396408429393087e-08
-2.154602778666094e-07
-5.136404078466617e-07
-7.317611454827841e-07
-7.158596106207652e-07
-3.379385933139738e-07
4.258827772747457e-07
1.4231677479114828e-06
2.2979453736264963e-06
2.548002018717877e-06
1.6874977193048588e-06
-5.040991241539838e-07
-3.7193365018218298e-06
-6.967838761452078e-06
-8.66799194398885e-06
-7.083219251863888e-06
-1.0878528053909406e-06
8.923526205721446e-06
2.0348145163436964e-05
2.8376032381032413e-05
2.7079334256178176e-05
1.1684818985833012e-05
-1.8403607245728548e-05
-5.688659427019662e-05
-8.967145984748288e-05
-9.729384940000577e-05
-6.139228738971512e-05
2.5602708585104454e-05
0.0001504740500483455
0.000273666180901936
0.0003334905171692441
0.00026367906854319223
2.3383157411412995e-05
-0.00036794296011577194
-0.0008051286680279308
-0.0010993624581817575
-0.001022683581744193
-0.00039757229298562557
0.0007863573439095857
0.002270376394522628
0.0034982297812066036
0.003718088344530014
0.0022404000418940763
-0.0011848487601133274
-0.0059881143435588135
-0.010583666438758646
-0.012561215775330873
-0.009400517931428177
0.0003313370533574023
0.015593176964038225
0.03183614383991236
0.0409846030534658
0.032946367381305644
-0.0013209703063139931
-0.06592657369254963
-0.15685560489836795
-0.06127689012741933
0.039511635190809
0.16402820915741623
0.12387156796963479
0.11959982063735349
-0.05847018388781633
-0.22475275500291497
-0.19103910366868934
0.03870412063931959
0.06864521508216481
0.10668299107410457
0.15816396713927378
0.021366607276672667
-0.11287253467900694
-0.05739327680978635
-0.022876547083304062
-0.012730095477037129
-0.02082362604460032
-0.032934057767888075
-0.03161406546816208
-0.0033268157358434286
0.05406611379583028
0.12604414322337645
0.18125418522831516
0.17865281185383888
0.08219590897908247
-0.12006653601710185
-0.3996264184514374
-0.6839984008781125
-0.6758908380020406
-0.2993887379905754
0.43370647836345405
1.3584208033637453
1.9241953655307376
1.6279182786379172
0.32839100995252934
-2.1739164096219175
-3.5451425146105184
-2.7911787201149383
-0.8644574730525778
1.1707993359845512
3.8537884915936225
2.8154349404549173
1.1493422179127242
0.5464456216028768
1.014742056790698
-4.459038303595417
-2.5955715131516626
-0.9620092752408048
-1.0478627863825427
-1.1106808603474485
3.635861709028173
3.3668260764542843
1.6198526078175648
0.17880778042533638
-1.6999321403899044
-1.9452331491937715
-1.681772783500305
-0.6698714378721949
0.17310193082024275
0.9572667806367273
1.1348837068728435
0.7894938950727307
0.3436310497378122
-0.08706549091910391
-0.4883034182363838
-0.5048411493253568
-0.3866745271568893
-0.3489842096342301
-0.36314155346636345
-0.38410823168009467
-0.006874697533666694
0.8671554575191723
1.582058751103605
1.728557977367726
0.8164918640787794
-0.7828660009034375
-2.659188571833635
-3.8135656872748913
-1.4072803660012434
0.7473964179224662
2.564858229565005
3.4003050600769678
1.3994357754572548
-0.22898457938917208
0.22283190995531096
0.7441657267381215
-3.5269002150593853
-1.8356220813532487
-1.6262727544925795
-1.701730638142429
-0.3424238514868544
4.054710849789491
4.7034222047955225
2.026920515942293
-0.5901084580856809
-3.2784854364114477
-2.8472074855462024
-2.133791754165341
-0.038759068092921636
1.3067674234561388
1.651867799164381
1.27057914556361
0.608382830929081
-0.018737455550661877
-0.453555477154788
-0.6664838909072531
-0.6940934538824659
-0.581343397368018
-0.35343370215806735
-0.027731221212789453
0.3412298399338317
0.8054435842618792
1.2858910418633922
1.3826980172112846
0.6495167579312249
-0.8744934671210728
-2.7102844523128367
-2.4199221895525795
-1.9831819391075596
-0.10378827102332346
1.9700961294513177
4.780256412538991
6.649397779213103
-3.580162225582538
-3.6280914451154365
-0.9286647783149183
-2.1640054325410443
-5.689911793612591
3.881254652124241
3.545258034898328
1.6858701494749073
0.46830976393985313
0.5282778967786909
-0.011024471271055672
-1.0133677693981067
-2.548520816032226
-1.120347529578906
0.041210984438600815
0.7973155659854273
0.835036315207688
0.7552127716648308
0.3568540782471217
0.1520924248946751
-0.0724552363254791
-0.2500218717091443
-0.3983929772134202
-0.375193233396935
-0.4429438962217958
-0.2568283397974336
0.12154788436550792
0.3918781344762903
0.5808398305056488
0.8263847720953258
0.7983015744149714
-0.03785964474758961
-0.7226978225361448
-1.297125311738945
-1.1261140189668906
-1.0872823680761419
0.15729700723961712
0.6146147158608809
1.175641054535083
1.2456834728694177
2.0458619095103248
2.6251316406360723
-2.609608590126516
-2.2794416551757997
-2.207329850403296
-2.2660044856618335
-2.5638305988568293
4.019312312270242
3.595598501754854
2.6269495735556707
0.5767056389172672
-0.8862439632590359
-2.3392807590214737
-2.1795794635420953
-1.4079129861776503
0.10440501694288327
0.8338811340069218
1.122820370084215
1.0427140558200425
0.656908206374846
0.12369326065565787
-0.34292077874981475
-0.661764374494732
-0.8460423782908768
-0.7663489668874761
-0.33666006685524347
0.47095495975848467
1.195995000641059
1.4711642106557141
1.2464349072241114
0.2731123653732396
-1.1608580273963118
-3.0835062391734147
-2.738657388028965
-0.38807680216863294
1.3623801892909777
2.7421587964639427
3.1741990414217396
0.49723672855479817
-1.2893495364535448
-0.9509856131242568
-0.25517220811799446
-2.586504217412261
-0.4014237844922989
0.23846353286658942
1.0471333425524452
-0.7686163858441738
2.1856763070399787
1.8087627027290243
0.2754224212808992
-2.125569820163782
-1.3048904515248392
-0.6776388696502497
-0.10188228074333695
0.5268487483592502
0.8302846891792112
0.6763642264205633
0.31235998011257415
-0.07624565828029213
-0.374927422700459
-0.5258940119968878
-0.5074421820984797
-0.32362659809249467
-0.013308330913176777
0.3240358365955594
0.699661904895665
1.024681965821358
0.9364581663917071
0.4713127095315972
-0.6260842226340747
-2.7883233635134035
-3.553450868169653
-0.580592353392824
2.631959824813447
6.360400592236776
-1.9242956136720817
0.746870116083784
-0.5384345341849748
-1.4575985419774862
-5.099822398041629
4.161029959849619
1.327524696168972
-1.031502430027142
-2.6439144568314497
-0.4297631697346718
2.3862521834964197
2.1686674272827027
1.209218719112698
0.3451253890214377
-1.1332735674335017
-2.915825125513763
-1.7056013200937052
0.2879474732163949
0.9619515285496921
1.0457645952697048
0.7779414347455978
0.38263763870304845
-0.01823646563526489
-0.2422004713582395
-0.43758308224374787
-0.24588545661280106
-0.15481575915640447
-0.05762259208286004
-0.026968819107861794
0.29567546889997315
0.09915236864062747
-0.003761144973711481
0.01683610031453614
0.0030963023012778655
-0.1939022764608583
-0.11789344601342121
0.08646792956527873
0.06456722131188132
0.04135022463357423
0.012369176578553763
0.13943643381757095
-0.047056360350711306
-0.038583531711274294
0.06740759338085872
0.1876844934707374
0.07485388368752838
-0.06346325809917121
-0.3535453025721974
-0.4600402660276055
-0.6134030590244263
-0.46366701613076117
0.044932647263749854
0.9962602513232555
1.6509746272461872
1.8556957247758692
1.137531799945128
-0.11689590873633172
-2.436147599266211
-5.466075818149405
-2.887511777743036
-0.11395832935126951
2.4301507255426174
5.9309214962325045
6.043775382826654
0.12607268175295414
-2.486530055974307
-3.794177803919579
-5.161170111242396
-3.212517058071909
1.488235692661991
4.155038964334807
3.156053295164213
1.5692225094096253
0.22485527209427322
-0.9138708424132982
-2.649721308058473
-1.793433897793451
-0.6235963290038974
1.183412123747801
0.9412167514163141
0.4827980277734719
0.27118924052545323
0.1258339138506759
-0.01764552447673544
-0.11282874536514813
-0.1823575735278624
-0.2866149163605239
-0.4960586670996729
-0.4788919811695758
-0.10926925749470566
0.30810503457563243
0.8114881378234835
1.5757184849387633
1.5475303744859872
0.13174630206803264
-2.286944053448318
-2.830759381346054
-3.0855971053609634
-1.378482301238823
1.6171358247615826
6.0033109541667
6.013228277156072
0.7143718687446675
-3.68050583997039
-4.129734888960485
-4.826908916107503
-2.9586345694078258
1.746606770530318
5.074752928234607
4.674808627654203
1.629634568821796
-2.447468592365699
-1.962918922355488
-1.9914068366327062
-2.314087116404994
-0.5262804952558034
2.150752800147599
1.9722361959560282
1.3418522619482298
0.11531245931820643
-0.42565534158761376
-0.9270099641056472
-0.8722499469608773
-0.6890073248909306
-0.08679005721835088
0.15729269452258662
0.5680893212183846
0.5156358803829106
0.356373910328571
0.19316318353374792
0.06493076241248394
-0.23519967897224478
-0.3245573676544193
-0.3954103000405084
-0.5968437522205032
-0.6467776243331752
-0.27736851460501877
0.4959990596443845
1.3060321311784024
1.9992206216166828
1.8691700477701523
0.17343497084460774
-2.483686233217103
-3.95842045185778
-2.0444204127738383
-0.6885252186505437
1.2323104490080263
2.414692372954593
3.006121581259992
1.3653372977706777
1.7916113068015778
1.8566126067403455
-3.290991467808539
-3.33559099081693
-3.642527094187946
-3.0651522167247123
-1.9854788958596095
5.817903996479753
5.367007382426525
2.693613150284445
0.0005069935991160868
-1.1538058697296623
-3.2694063458377163
-2.811826011315808
-0.3257207041742768
0.5577794126267185
0.3863782992250906
0.8416262052180642
1.0294039412691935
0.5555287370630063
-0.1767409823668026
-0.6306375727085695
-0.5638056997865503
-0.23412633939450242
0.20240686771053187
0.6957114783149082
0.5108873155256509
0.04999809477084561
-0.31052254222065534
-0.773054820766266
-0.6768797082673269
-0.07653160619094763
0.05188107773353523
0.5816509789076983
1.6008117133071273
1.1931543678032392
-1.5511327817859109
-1.4991971150783596
-0.636945686057589
-0.6583357593729898
-0.00037275126044718275
1.882844800528729
1.6361789495126542
0.5472735613537257
0.5448920963004712
-2.9482010789665223
-1.936912087843983
-0.3933081137167914
1.7541182999238025
-0.019359148827270314
2.305254097762569
1.2526559123376295
-0.33248255584580305
-2.61681321731757
-1.2832062963834643
-0.25311195441678735
0.5385563189973622
0.9085426074906067
0.7507789190297777
0.3554377630554154
-0.05047611172877632
-0.32851233146268777
-0.42388654882212173
-0.3440836178472035
-0.13621512677420441
0.12698359515828794
0.35102992550148043
0.41915130014478896
0.1958709624370317
-0.059315318520171995
-0.4687564032448461
-0.7114940689487795
-0.20685316899126696
0.2857520363616398
0.8519476927568804
0.6025496709843133
-0.13830366056726687
-0.6299758819784947
-0.3010133878698249
-0.7359041843346027
0.1247985593910657
1.1665483783662562
1.4707526822277108
-1.917127045017794
-1.6164447265105408
-0.5422959411520839
2.05508492355273
0.3494371379842356
1.9202170840289623
0.9845740104571082
-0.7095938267474425
-3.347920421044546
-1.5160111135417575
0.08010791093948165
1.0080750944878212
1.224145671427538
0.9476684265274496
0.3435673766631352
-0.151460855533354
-0.4469184819769396
-0.3700586430296775
-0.2122775205413218
-0.07270068734686021
-0.015280006078699379
-0.04757206823338679
-0.12266514104602945
-0.161448814580775
-0.08969108176818873
0.11813155011169155
0.3991228144399529
0.5794375575976332
0.5815187406874283
0.46854256171639497
-0.07680081084868591
-1.255623088823762
-1.4668269306962236
-1.0643996875882062
0.21898447533348298
0.9817904210492079
1.8232721399599638
0.6163619235156513
0.22526090989684336
-0.7105147138071071
-0.33040799848957325
-0.07049453953735275
-0.97694126904373
-0.8434842371410317
-0.19021517166392307
0.9139214262020091
0.19892833116500183
1.5384087448701937
0.9199666734611728
-0.14009354748409106
-1.9392048955962216
-1.1110426619658627
-0.16246138607867436
0.34740090186947725
0.579076624128147
0.550817682190196
0.26867661908234
0.07225506452009033
0.009373206017047263
-0.15892299386429767
-0.3304437955610983
-0.02266700259491862
0.06621250400350935
-0.11245811617530048
-0.34075232840792835
0.2683870978432599
0.06053055770213582
-0.3803393013054895
0.34410991671834185
0.8248802755152868
0.43216071968612796
-1.0873956316644058
-0.6069381706326075
-0.6204146985374958
-0.05950489901274976
0.6719415556086901
1.2585706763086957
0.8514897310592624
0.08379161028404718
-0.6703530485686587
-1.4071206108399337
-0.4042240044619053
-0.16282548641588465
0.0011757668321898808
0.3167727964876953
0.48488827652132827
0.5974237268385116
0.47239156547569466
0.22163298197249945
-0.34456416706213155
-0.6849138451848541
-0.8854311283993701
-0.4294668546574416
0.2070407139671365
0.7360100056699297
1.0290607081968037
0.9039194843366368
0.3438975082831426
-0.6469953550919246
-1.7716081302240527
-2.3840030751256642
-1.6851053687294122
2.216844701345405
6.004710676255696
0.06631104867583369
1.2817308772560179
-3.0981909156961014
-4.524948287303088
-5.660807495269373
3.4016304343414236
4.191791791949213
4.846875086228461
0.9394569693305342
-1.3628872782493915
-2.786622734765401
-3.3461889778882536
-0.535643937445868
1.2044437713618863
1.5161786657916847
0.6705575197039947
-0.323729465518268
-0.008095397815704244
0.06280180616860852
0.08641353726605748
0.0014885374393291471
-0.10595893777908903
-0.18765086623877358
-0.2171172194967792
-0.18009414999680723
-0.07570697168517379
0.07157687931437542
0.19421037702391464
0.3669037845778309
0.4051723371067624
0.08496048160527918
0.1854217984881664
-0.05105123147924771
-0.8553453678363968
-1.0836535943637833
0.596359777014726
-0.5257709205662293
-0.07782478353533041
0.49244693583758653
1.4101701351683784
-0.5121004219978068
0.6836038540813613
0.31269741853902516
-0.08935051030570608
-1.0698490245353687
-0.35170369571678683
-0.5431591905910005
-0.28560695340725856
0.35219873151536407
0.6399313646771829
0.32893061503062715
0.19386232960691938
-0.010717234375186194
-0.17177878364268076
-0.2194039463910215
-0.11633065877601236
-0.04425483167840712
0.006778526627582492
0.04341925138495951
0.06937001201605962
0.0837890991007168
0.0807250506515455
0.051581584918911405
-0.009172906410734673
-0.09692033217654915
-0.19207824748643101
-0.26195300570230756
-0.27267334940682114
-0.011460751257920489
0.2855689497952939
0.7103966741978585
0.8784383248774956
0.5534957528676127
-0.4960706099451153
-1.6235006290297231
-1.6395145322863474
-0.18823046589153372
0.8203123795298989
1.1302435444260805
1.6455280584821836
0.961895032638692
-1.0471451899660207
-1.3889975446538811
-0.6804132329589726
-0.282383638862868
0.12953370006217
0.3502726987576683
0.7956437843776724
-0.1619583775218613
-0.6527762404083473
0.04946335108839155
1.512098561060125
-0.04206584901603046
-0.08792874570973831
0.07728647845117396
-0.5764854832104153
-1.5315619757643308
-0.4749332400260165
0.5005124807111583
0.8465050296851941
0.6799845408440085
0.30168882260356533
-0.06304885013123936
-0.29035452388298344
-0.3542112270122333
-0.3055878585585319
-0.04794517154981649
0.08193294352962106
0.1259652311162486
0.31387915947108286
0.476312571057235
0.06744842537205771
-0.4022880466154251
-0.5298280385787426
-0.19107066403514786
0.06747160465305711
-0.18967604236637559
0.06926038483921908
0.28204546592318924
-0.17452587892185514
-0.2443613059330275
0.9678585762962465
2.587170421787556
-1.804241800579588
-1.7077117123726215
-1.0381794605262324
0.12623162034162336
-0.8448532757410123
3.2420664982338447
1.9734613066400322
-0.07521038013678973
-2.4996346048895743
-1.9982453203857142
-0.31614778927535314
-0.6410054592890373
1.7371661535434917
2.325431467717666
0.730914812461586
-1.1918838558556746
0.06655638433027454
-1.475589593131139
-1.2244347962108695
0.2389417823768297
1.175703392191846
1.2818306099749674
0.8781837983937361
-0.2816471971466912
-1.983020469607432
-3.520238742934246
0.7078813938525187
6.164867892249154
-1.4753086498498218
-0.3605880293481112
3.7522235068368994
-4.654173484169779
-8.217608517506557
2.481006004367456
5.805071012002786
0.49114112010945277
3.5036553935615933
1.002403312407166
-1.5418335957343863
-4.918280072255087
-2.1206002204014363
-0.362450329533999
1.173006720447898
1.6478904122471654
1.4001757428626393
0.7625721093015717
0.12989821060836268
-0.2958526042152924
-0.486060122839169
-0.5174931535664178
-0.49041255103693604
-0.464233717434253
-0.4314989972882251
-0.13675168922612768
0.2677626331423083
0.7505281303766091
1.1426789691499442
1.323346848299009
0.6684269943820857
-0.6378102994518365
-1.8554015426187165
-2.755365870083126
-0.9560998535310177
0.23326053959452384
1.2641563613622866
1.938845688317581
2.6100279657750516
0.2582793447394277
-0.3133793871464109
-0.9722565278319811
-1.8807799515781105
-1.7187669977351712
-0.5637867334454431
0.5362297733737295
0.9008759634173733
1.5010638820414082
1.040058227263893
0.4777289872957591
-0.7780980609937058
-0.8177470438673897
-0.5406277347612506
-0.36710756734132055
-0.38122327719508575
-0.11906198808639641
0.39879942017591835
0.6055139125432424
0.5189936419630612
0.2880709218016701
-0.031068826814716774
-0.2647915351854636
-0.2864097368641771
-0.17038213955722312
-0.15279481875561993
-0.21091251095745192
-0.26853887724657444
-0.22744278750565694
-0.018700863040145052
0.3386363667093655
0.6899111152688395
1.1294930193131216
1.03581792503651
0.5634089258384289
-0.8214909674639155
-2.7987987667641216
-2.900627090170247
-2.3182594005925288
1.9671829179617244
3.7603723905988007
6.615284812108566
-2.913993177509766
-0.07000847184835791
-1.9417514836851157
-2.638135360195216
-4.080805516322217
4.90807829067329
0.39553132703853244
-1.372790983828712
-0.7340880416103407
1.6277694543356749
1.7544821542009754
1.5540100518352473
0.233279263465564
-0.7765405687317765
-2.634871109270556
-2.105877180960322
-0.43489487730453047
0.8736617141480241
1.3785762247249962
1.1633392154185083
0.6921660948889207
0.10692928326920935
-0.4132778106468245
-0.634976214453648
-0.6188869558692622
-0.4631312196808307
-0.06375647751624276
0.29783491005347
0.5451021913844684
0.5885068098799463
0.3158753007594822
-0.19868709615980704
-0.4679938939441629
-0.5585441340453791
-0.8676687181292623
-0.12488571497285929
0.5793621042245074
0.9486077049954292
0.44099110179763756
1.4593195231828464
0.5840606376062204
-1.9566212308792441
-3.0077583740734823
-0.6411809874722821
0.22329842436663402
2.3242048931081176
1.7247016397568402
1.0924039805948143
-0.9620422570476557
-1.2733517220649606
-1.856382861045361
0.5764345536013636
1.285788170182857
1.1564989939513657
-0.2614765990436213
-1.3117933797248422
-0.7930294300829108
0.06277776679129697
0.3809011650640537
0.40325349276781086
0.22896087645513383
0.15421631163022312
0.02603597515382021
0.016960548348640758
0.02047592728191043
-0.13803840271808893
-0.28258565845425443
-0.2682958393321318
-0.17021805442175897
0.11826583854096166
0.48044074987767577
0.5726862129867174
0.431695307086325
-0.3024913426921112
-0.9517858414297923
-0.7672777338412281
-0.7152123907175217
0.7085035817716121
1.6406644037896312
1.409939785165305
-0.884005028142301
-1.5610894510409499
-0.9316371059665998
-0.2707669258196892
0.7861405019635331
2.2288641355860914
1.8577483251498605
-1.9116710094262035
-2.625376042251176
-2.1756524704843105
0.16987157739956135
1.679408739572708
2.8327704636446924
1.817697230611443
0.30383679114784307
-1.480072041452482
-2.186630323403396
-1.3645205444723254
-0.31178830640722766
0.5897110271192509
0.6520811472754543
0.7958177880358192
0.4393811484026168
-0.0012136953776856895
-0.182011008648667
-0.26502274543682613
-0.12277273123488187
0.07594676832735979
0.08990457132359538
0.033180568193457674
0.003787022834189954
-0.0893249478389963
-0.1040992307712956
-0.051903360029975754
-0.09619607372022794
-0.16522086894727553
-0.1782613290875459
-0.0820844349806771
0.10928730089302076
0.4820921442307639
0.8109608086740356
0.7802810237997608
0.2448490896673633
-0.6771214957993512
-1.301691408687819
-1.102763329211301
-1.2970781898922092
-1.3112439220773213
0.8762783464883565
3.3582614367641166
6.3529712917437156
-2.8424016022198435
-1.3663322221439376
-2.204754220811436
-2.382414679371508
-5.2278250855776776
4.828487560164514
3.124129295111657
1.364228388728755
-0.7633982035707606
-0.09144483029310584
-0.37545578025076864
-0.4149211731053398
0.27170414783857977
0.18431123372990885
-1.036270926561996
-1.1216848595858702
-0.1412684979365352
0.47462029347360596
0.6618758157350614
0.6239103423942517
0.3364640108265369
0.08015437160411996
-0.18792815464632254
-0.2260781516635316
-0.27545310609932616
-0.2188679017310898
-0.14463217441828616
0.07623754454673594
0.19752452937204582
0.19343428212466116
0.048300302818509236
-0.054341013668154886
-0.1409558784148022
-0.45624916667720156
-0.2723361241969389
0.30130388473793124
0.7121974573938408
0.973759670147948
0.6993301590282945
-0.4359701612790048
-1.4183626572488008
-2.0321449637962177
-0.844172862930253
0.3422981584675781
2.171140980643355
1.191598545167142
2.343932061985179
-0.8848711662688352
-1.8241424343831913
-2.126856656610923
0.9312741792090496
-0.8822333301488716
0.45600598982864093
0.993973776920909
1.1555279905623406
-0.4965036768343359
0.13466055891249737
0.11084192967337357
-0.2845795837424136
-0.8838307517803842
-0.5863249131240246
-0.14117695305141306
0.4326851587351054
0.5954243546005681
0.42176898396810514
0.1437445049103073
-0.08421984335183184
-0.1930220944662926
-0.18426294085564252
-0.10328639846504835
-0.010199224940618937
0.04373448574132903
0.030676603456304078
-0.04905911205542629
-0.17166417482841084
-0.10300370161014434
-0.018790886612426103
0.0713837242756848
0.10170297763739654
0.33695280242566683
0.3763198190673133
0.37969011900691685
0.11674571517814339
-0.36870801347775045
-0.6953839585221988
-1.104227055935042
-1.0624031839924253
-0.522309628508213
1.373153602316428
2.3709194688050257
3.0213808663770427
-0.131282148538053
-2.4686594907977097
-2.559087390312109
-2.2261508675793666
-1.2917951541726753
2.374749676017479
4.124719909159485
1.178717516217641
-0.8726098226302769
-1.4782890999462808
-1.2582272517500945
-0.9000548018411586
0.5325688763688389
1.2559949001615238
0.3884639121466428
-0.44664194648536404
-0.5226364765260355
-0.21358347424790472
-0.005473745187358451
0.28131306120237426
0.26027914293126
0.14511651091494085
-0.07789296120475274
-0.06665067592862202
-0.12903330270044594
-0.020663851189868368
0.06178688453893806
0.08943729210695218
0.011357727533012146
-0.034132896826475634
-0.10771192792651597
-0.0583595505372078
0.08451282309285228
0.11505419575141713
0.05105686240673854
-0.0695753726523713
-0.1964857102539459
-0.280318888241301
-0.2936254623698379
-0.05845570354858884
0.32499628593633
0.8601351816025827
1.0610699123798004
0.7973818193277444
-0.4226540638224462
-1.5483571689429476
-2.098925254671241
-2.935046619215221
0.08134773346553385
3.7471138282557663
7.350695006687433
-2.844039485101977
-0.804756027249395
-2.431060894015365
-3.4126581656636117
-5.130643590609556
6.943182623540554
5.157006741987069
0.16541448796005195
-1.9309543662354554
-2.3595268149810256
-2.3941073006992872
-0.8796054536295633
2.5913258191632247
2.2484961542465003
1.0978606404234572
-0.6971299803422993
-1.7863696985815896
-1.1711250748780435
-0.14503275508198302
0.5308676297219286
0.6100559188071968
0.5125577338239063
0.07006822998422878
-0.11658695798179229
-0.09920267626549142
-0.18492444518235443
-0.12717599290636333
0.08751793910960944
0.05159580883343788
-0.054701004317736286
-0.05770669023835901
0.012845624951923484
0.12546284091982818
0.04808816248043008
-0.04998596178604517
0.005097942754627496
-0.004229697736115035
-0.08360304091733245
-0.025717760150967765
-0.013044053594528836
-0.024813513244100062
-0.047800375778666346
-0.0893609393148586
0.009818239794743631
0.1669051939105581
0.4567167412739927
0.5248424635345967
0.2162495708100884
-0.9847338207766817
-1.5154678664562091
-0.5143229804389071
0.7697349082465171
1.5414388323768746
2.21932898403537
-0.18113075968099027
-1.8291612478735024
-2.240788732971523
-1.6592095497466886
0.3110720487217168
2.4093737377556157
1.7945595735964928
1.1464985765868454
0.4426714412573527
-1.5722670543566943
-1.445456508245383
-0.4518720415154954
-0.4600085532250946
-0.46311468436734393
0.2138989766743241
0.8451175620321885
0.8003028313110724
0.44120772408686026
0.045618367551358494
-0.22661465127150912
-0.32732101756743603
-0.2869634840026633
-0.17232533636405908
-0.0497882555442616
0.03731042700209444
0.07553807970189537
0.07572667341760651
0.060492441421491114
0.05066736193170297
0.05506379540271604
0.06609074269094152
0.061776371666438956
0.012871013220767356
-0.10809552146399641
-0.3204592626283065
-0.4370141463136436
-0.2772921220752104
0.10830191538343757
0.6115788506206125
1.052155005069252
1.1934173245707402
0.4004279330765091
-0.8650619838612056
-2.139339076163473
-2.285309812336231
-1.0992501050128427
0.3833052424933575
2.302527089391881
3.970854284160522
2.9306198449961296
-1.8658067021865132
-2.7438588455921
-2.914405053213341
-2.088665110571548
0.22306008156825893
3.1016621953905945
2.3292168343215476
1.0840879985452134
-0.7184396189110379
-2.0166162597447532
-1.1434522191928809
-0.16160636701445488
0.37078256419712763
0.5901804006609018
0.484808090824029
0.24181830983880945
0.005395691054903714
-0.14328546352767277
-0.18415631383235018
-0.14152695200066326
-0.06192607721984532
0.005751664943907705
0.023519364102913748
-0.029912868679127503
0.040469768797410724
0.04168450140173805
-0.013027640365773752
0.09070757687681595
0.16558032818388907
0.022681835827204344
-0.12638358394885177
-0.26818644670656283
-0.39126197057710826
-0.29872273868830396
0.17036404023025378
0.7173519019142751
0.9709768111746495
0.4994066136512835
-0.544676807158555
-0.7518366622481142
-0.5767972490043509
-0.27954497876771167
-0.30893914827578917
-0.33828752082731695
0.25250581246157844
0.46616755788469566
1.3748978019429197
0.2330249352508412
0.03699003931445306
-0.6604438231294442
-0.0916463681156995
-0.9922949216897328
0.08134424434721453
0.8207987860753759
0.6147963817139477
-0.6174042965371743
-0.8058246341070329
-0.12517775710561854
0.1885179711058024
0.198630976916481
0.21275063508934847
0.12439981331480336
0.16466777490888937
0.2729693825593134
0.09075280083464206
-0.22360397386902367
-0.36567251807967904
-0.4522160720996032
-0.19549085274831593
0.3091540273232035
0.5837126720025648
0.5640934835105201
0.2024860987123324
-0.5203385084183335
-0.9786988858153356
-0.8958545875738934
-0.3622868679888809
0.7180736526368434
1.5675313492921794
1.0885476605099327
0.6618934478621774
-0.5958210860510893
-1.1255887046585467
-1.0044548843169003
-0.8532951587347369
-0.41087384651939757
0.00957870093480638
-0.009765788123035538
0.03560673293458637
2.401020729026208
1.9712569056688838
0.829784552125232
-1.0650233398265887
-1.7166745676005315
-2.6943112616803
-0.9705381681509576
0.5560194246531028
1.8413040813215364
1.608231036637234
0.6417381593625523
-0.8884941194280501
-0.8586712189730704
-0.383781038778237
0.00426499674463103
0.17332178257357575
0.19465363339111252
0.13637367034300016
0.05392020263445722
-0.016307428499190577
-0.05756911465654593
-0.06842801361489025
-0.056064766888743456
-0.030132980154224345
0.0009406102060742905
0.030779645557365468
0.053916054515789805
0.06436720638201193
0.05561622557884606
0.02291713985290806
-0.03246275522773854
-0.09891204020059999
-0.1529833976478047
-0.16379371059093267
-0.10511402930894877
0.025730791704899968
0.1865909222589285
0.2745711887877197
0.5247057242034391
0.5308729055835352
0.29104281062124937
-0.5304209417077675
-1.3418289909524732
-1.9910367237098363
-0.7844621882463071
0.8345253632284385
2.5698069500660785
3.9689114077188536
1.1882097076420508
-2.5425151918194655
-3.7775690653404324
-3.1059115975390825
-2.0792211203768494
3.134245804248563
5.18892346518216
1.3719504574994812
-0.524401789219093
-1.2143289943190025
-2.0229651836439633
-1.9389215584584358
1.1212928910001476
1.1965984743009974
0.30626465627242727
-0.7663961116139405
-0.31092240590402853
0.26496349063353675
0.38712557376910267
0.26974941828078397
0.08107897264665632
-0.07344012238765742
-0.14967714238254456
-0.14975666486427544
-0.1011464851538909
-0.03723085599442687
0.015936050484477188
0.04529807735911104
0.050145228504660036
0.0377840450347329
0.0182825344692032
0.00028736780196841145
-0.0111713134727434
-0.014933536887036795
-0.012657615095732377
-0.007272196957028171
-0.0015986002892268134
0.002488565126206443
0.004297872920377192
0.0041020270689640075
0.002698726811060675
0.0009691369864880068
-0.00042750708157133696
-0.0011779372913397403
-0.0012854621061866333
-0.0009526592619035183
-0.000445017743006513
1.495604232144345e-05
0.00030133690828103185
0.0003885776055442873
0.0003226103954048018
0.00018027260803474445
3.399657354280311e-05
-6.91588539404263e-05
-0.00011286376994192691
-0.00010532376375050867
-6.771028343166654e-05
-2.279699087913584e-05
1.273007100034435e-05
3.1239861565275486e-05
3.32103425526501e-05
2.4101315139845438e-05
1.0822278985409221e-05
-9.545430350912717e-07
-8.108544000553818e-06
-1.0106707750430773e-05
-8.219495117899434e-06
-4.462334870494793e-06
-6.935640744531657e-07
1.907354850357118e-06
2.9582961068207616e-06
2.700796226295629e-06
1.6956898733119757e-06
5.309615557419842e-07
-3.7157394138085665e-07
-8.267764109959538e-07
-8.569902451550611e-07
-6.088758429384285e-07
-2.6202073203595334e-07
3.9153233799992865e-08
2.1750928378282503e-07
2.625377313503752e-07
2.0916361870979772e-07
1.1016979097922293e-07
1.3179389329662459e-08
-5.229929290147574e-08
-7.742136492977854e-08
-6.917453684184885e-08
-4.238547883442277e-08
-1.2217547933856541e-08
1.0681181199180709e-08
2.1839970618415313e-08
2.209082133086695e-08
1.5361558338280806e-08
6.314075052518235e-09
-1.3789476133472045e-09
-5.815980086785725e-09
-6.809137370877116e-09
-5.313454754460187e-09
-2.709387513050886e-09
-2.1615398872955947e-10
1.4292247181608304e-09
2.024710060276117e-09
1.769895712769006e-09
1.0564429003427897e-09
2.755815042798559e-10
