0
4.732908650252072e-18
4.732908650152707e-18
4.7329086500899e-18
4.732908650115823e-18
4.7329086502692e-18
4.7329086505484255e-18
4.732908650888935e-18
4.732908651158492e-18
4.732908651183072e-18
4.732908650808366e-18
4.732908649987281e-18
4.73290864886537e-18
4.732908647820922e-18
4.7329086474136225e-18
4.732908648214017e-18
4.732908650528639e-18
4.732908654095706e-18
4.732908657884258e-18
4.732908660155783e-18
4.732908658910303e-18
4.732908652720235e-18
4.7329086417661665e-18
4.7329086286812906e-18
4.732908618677289e-18
4.732908618472555e-18
4.732908633855782e-18
4.7329086662935684e-18
4.732908709698969e-18
4.732908749046943e-18
4.732908762591028e-18
4.732908728679069e-18
4.73290863647855e-18
4.7329084975951e-18
4.7329083533768296e-18
4.7329082718006694e-18
4.732908329428281e-18
4.7329085786578965e-18
4.732909007876301e-18
4.7329095100278084e-18
4.732909879975518e-18
4.732909858667184e-18
4.732909229506812e-18
4.732907949740089e-18
4.732906272427598e-18
4.732904793432025e-18
4.732904356738987e-18
4.732905782543574e-18
4.732909449234307e-18
4.7329148504780515e-18
4.732920331230477e-18
4.732923236624875e-18
4.7329206400116115e-18
4.732910627513871e-18
4.732893829066239e-18
4.732874584478281e-18
4.732860958022675e-18
4.732862926006537e-18
4.732888570067092e-18
4.7329389946664774e-18
4.7330037330237205e-18
4.733059189029552e-18
4.733072645175712e-18
4.733013092004537e-18
4.732867501547862e-18
4.73265768476416e-18
4.732449764288275e-18
4.732347307846269e-18
4.7324620224589695e-18
4.732863427458139e-18
4.733520107033619e-18
4.7342566066398796e-18
4.734756295689734e-18
4.734635466004667e-18
4.733593496378157e-18
4.7316092305117144e-18
4.729113613324107e-18
4.727039726896395e-18
4.726654406363668e-18
4.729127640782765e-18
4.734899768453054e-18
4.743040958155524e-18
4.750914158292089e-18
4.754483760988877e-18
4.7494926587722955e-18
4.7334316605159315e-18
4.707790611989992e-18
4.6796453373172695e-18
4.6614128171476816e-18
4.667832044084135e-18
4.7100481426476845e-18
4.788033853667435e-18
4.884118170320775e-18
4.961453958625484e-18
4.97104648696357e-18
4.868848092437221e-18
4.640337114602584e-18
4.324812244893352e-18
4.027264406134598e-18
3.90476509411193e-18
4.119287822555548e-18
4.76072986752506e-18
5.760773947268431e-18
6.8347236070898535e-18
7.496213711134399e-18
7.179845409892697e-18
5.473951517535854e-18
2.4127043259534748e-18
-1.2819460801050562e-18
-4.1568546085799394e-18
-4.3194096514156164e-18
-1.1516704916358491e-19
8.918569505076703e-18
2.113299578908305e-17
3.2354787868053815e-17
3.647748371079498e-17
2.7348807179407084e-17
1.776031397993402e-18
-3.718277235925414e-17
-7.809765167642417e-17
-1.019403653250777e-16
-8.705156960492971e-17
-1.8287769481783742e-17
1.0173368687685509e-16
2.43615541722706e-16
3.5012424966759253e-16
3.482386816644266e-16
1.7597268300808284e-16
-1.8067196377657396e-16
-6.529532727013792e-16
-1.0752413958630383e-15
-1.210407353121589e-15
-8.251842601643838e-16
1.9263276298799715e-16
1.708621815385708e-15
3.2648299824950454e-15
4.117673561481575e-15
3.4386008792478725e-15
6.730998144682602e-16
-4.0269673390219116e-15
-9.468202810486079e-15
-1.3399262339293736e-14
-1.3006294268887272e-14
-5.973160879675885e-15
8.088237574457741e-15
2.632760714484809e-14
4.218127360859046e-14
4.6451521331157975e-14
3.031051811005689e-14
-1.0134474281708046e-14
-6.905820530278146e-14
-1.281476047964856e-13
-1.5837848459127505e-13
-1.281021295413129e-13
-1.711901201136818e-14
1.667210445767909e-13
3.751066909486656e-13
5.195886533672605e-13
4.918718737115762e-13
2.056662056521418e-13
-3.4801587485242657e-13
-1.0515612137641916e-12
-1.6452349557225036e-12
-1.7726908368421847e-12
-1.1005089483081032e-12
5.041816081345318e-13
2.7918166260218255e-12
5.031409455530012e-12
6.091362216002774e-12
4.764610953704563e-12
3.196862014631877e-13
-6.862755578652429e-12
-1.483201416986101e-11
-2.0117384632821163e-11
-1.8556326940555865e-11
-6.9442800460492275e-12
1.4830030561916838e-11
4.193431534298154e-11
6.41047644285023e-11
6.755161992056535e-11
3.9708453719824385e-11
-2.3864806107872964e-11
-1.1257693689201296e-10
-1.9730034219680256e-10
-2.3396658338287235e-10
-1.7661199208468107e-10
1.070635273042589e-12
2.8135814031632207e-10
5.856747156708637e-10
7.779947503072939e-10
6.985331159757682e-10
2.2869946897555164e-10
-6.265475086505826e-10
-1.6694321552594682e-09
-2.4949123767158625e-09
-2.5699880087507118e-09
-1.4221023109859315e-09
1.0928901079248497e-09
4.529065653394509e-09
7.7276967986774e-09
8.974560912969606e-09
6.522314254857702e-09
-5.676092824998779e-10
-1.1493015854050725e-08
-2.3095896573079408e-08
-3.005136454160863e-08
-2.623413428949647e-08
-7.2725994314419595e-09
2.6278869278980467e-08
6.635393828269756e-08
9.698937331080934e-08
9.760841009310744e-08
5.0483527977239264e-08
-4.8873311208722444e-08
-1.8181426907846764e-07
-3.0231684997821704e-07
-3.437755372213584e-07
-2.398791984007775e-07
4.253869412839462e-08
4.679168298552973e-07
9.095995629182501e-07
1.1593811772999406e-06
9.8277931987387e-07
2.19340459339765e-07
-1.0953170273343508e-06
-2.6332500336993347e-06
-3.7661328022340123e-06
-3.7005560429945782e-06
-1.773214048235707e-06
2.1466899255705575e-06
7.283900030079187e-06
1.1813267437622619e-05
1.3149827302905634e-05
8.781696868298262e-06
-2.449602739861318e-06
-1.8992669028201485e-05
-3.5777879921644926e-05
-4.467371789716775e-05
-3.6716924908296306e-05
-6.04702077748256e-06
4.540453923604282e-05
0.00010434343331314716
0.00014606861117678072
0.0001400243006140624
6.145974105835956e-05
-9.300433882928275e-05
-0.00029130614232231194
-0.0004611720949395792
-0.0005023919467187169
-0.00031998099350049117
0.00012599631013263956
0.0007688360237504666
0.0014062562149932713
0.0017215492226537723
0.0013735146025682398
0.00015081559075536463
-0.0018479067595496335
-0.004082076213112293
-0.005578757947236957
-0.005162254589118115
-0.0019206797602220782
0.004177935887898919
0.011727450459312031
0.017675466672486644
0.017744054520038393
0.0075975543604644745
-0.01543317822650988
-0.050636227654693965
-0.09303917092339892
0.06591448043534179
0.03601865805057278
0.025054125972935097
0.03599210606565286
0.06589327869733129
-0.09300600713628415
-0.050508303610535474
-0.015207709601414475
0.00786443401689202
0.017935842862637368
0.017643181476705242
0.011348264823555563
0.003432772340427532
-0.002877614339186398
-0.005980181380324886
-0.00577073358910725
-0.003187214588258665
0.00032582427663972166
0.00327623745789513
0.004465310927251962
0.0032419211443952237
-0.00029484823730611395
-0.005163904639439119
-0.009534512951332499
-0.011055899491132228
-0.0075749644921314285
0.0018099465604779707
0.015626863574726407
0.02931480286330598
0.035470995227307664
0.025452999364326594
-0.0077336336028979566
-0.06601190042311043
-0.14365815455167774
-0.027115513040345925
0.10197272259336282
0.06116335980964328
0.061172237629265505
0.10199039675866048
-0.027111985467633142
-0.1436948459115055
-0.06610313310744162
-0.007867869543662776
0.02532035564866325
0.03541185060037153
0.029406232686023177
0.015914619387765488
0.0022673542949101975
-0.007075437647599316
-0.010737499544457478
-0.009660937256136832
-0.005932341959488301
-0.0017001419534462049
0.0015217929933955964
0.0030936427535678784
0.0031275337098377516
0.0021756324769964613
0.0008957178745741482
-0.00019315679047497488
-0.0008218396813254987
-0.0009633834927731639
-0.0007525771614033355
-0.00038455539166233475
-3.18055102120933e-05
0.0002012943633055223
0.00028600745251153124
0.00025041917704099747
0.00014981146743292146
3.9436876661512447e-05
-4.269929604574241e-05
-8.135545924118547e-05
-8.04460297114117e-05
-5.4785455967988665e-05
-2.146548580609729e-05
6.3108626424771e-06
2.1918167638645786e-05
2.4958885902079004e-05
1.910005915275254e-05
9.437072716629326e-06
3.8020936207169176e-07
-5.46897763516345e-06
-7.464618962649085e-06
-6.399681073102029e-06
-3.7302707015216186e-06
-8.780382233717514e-07
1.2004744703605878e-06
2.141291675945193e-06
2.0688741533244542e-06
1.3779253376080135e-06
5.110631463690075e-07
-1.9679664296514508e-07
-5.833208081729929e-07
-6.45995420095598e-07
-4.842143227592506e-07
-2.308588400251994e-07
1.4366436892705692e-09
1.4797102573716328e-07
1.9454789509822667e-07
1.6335391938274758e-07
9.267838579780302e-08
1.9059762790553906e-08
-3.346491329363882e-08
-5.626410472866975e-08
-5.3145462765604195e-08
-3.460007384369762e-08
-1.2076506288305872e-08
5.940789605477383e-09
1.5488542792135594e-08
1.670005615565183e-08
1.2259126603050392e-08
5.626471608506356e-09
-3.247430513724101e-10
-3.989044310420497e-09
-5.063704677971025e-09
-4.16469243561878e-09
-2.2971957864985337e-09
-3.9923430168012935e-10
9.261709393129437e-10
1.4760026645724474e-09
1.3636474628885738e-09
8.673361058311887e-10
2.828432631137033e-10
-1.751857340899108e-10
-4.1037109244977603e-10
-4.312178762423358e-10
-3.0994377319040534e-10
-1.3656061284608674e-10
1.5728702757318612e-11
1.0718345352525638e-10
1.3162790440264476e-10
1.060499392710641e-10
5.6796709254826074e-11
7.921626996956647e-12
-2.5473696283691987e-11
-3.86608667816445e-11
-3.494946086628445e-11
-2.170298060301592e-11
-6.553877410972222e-12
5.075214528508563e-12
1.0850812992574449e-11
1.1121700978640157e-11
7.825075357338875e-12
3.2991169604682167e-12
-5.933793570713531e-13
-2.8712805696395992e-12
-3.417257454130479e-12
-2.697129190219087e-12
-1.4004413396698288e-12
-1.4328203072880705e-13
6.968518798255181e-13
1.0111425823597421e-12
8.947080760927412e-13
5.4204425321726e-13
1.4987850196248896e-13
-1.4499442439678992e-13
-2.863575491498973e-13
-2.865084597797597e-13
-1.9726186674282635e-13
-7.927935633569275e-14
2.009554471557016e-14
7.670907498395057e-14
8.861229254728634e-14
6.85138356936732e-14
3.4433886584514956e-14
2.1342974129971812e-15
-1.8966957872689874e-14
-2.6402686323626837e-14
-2.2873057104565898e-14
-1.3505848619027046e-14
-3.365910452594283e-15
4.101073869280693e-15
7.548381512403424e-15
7.377325832054237e-15
4.970130809649381e-15
1.8986681386534413e-15
-6.353424830097034e-16
-2.0391175641654778e-15
-2.290016100804161e-15
-1.733208397290203e-15
-8.389603861254499e-16
-1.0050011885013659e-17
5.190434272702919e-16
6.934463076019997e-16
5.890394705910978e-16
3.4077560933722233e-16
7.890279663913515e-17
-1.0992234293341331e-16
-1.9364691847508551e-16
-1.8476284391820755e-16
-1.2005196365255641e-16
-4.0195791400531854e-17
2.434221479516529e-17
5.906323594218428e-17
6.409099897155904e-17
4.876290167572858e-17
2.533455137863933e-17
4.086410589463631e-18
-9.156517872626966e-18
-1.3204756987583836e-17
-1.0172815836329631e-17
-3.606406117275062e-18
3.1488258887435563e-18
7.917080414570074e-18
9.941234514151627e-18
9.597907237495874e-18
7.863640805011619e-18
5.79006146831962e-18
4.148380321645061e-18
3.2918957323299463e-18
3.1993090820631306e-18
3.618941157379202e-18
4.231821966993945e-18
4.77586696711411e-18
5.1067098510848084e-18
5.199486283361434e-18
5.1126987917808345e-18
4.939356780757977e-18
4.765300802932887e-18
4.6450681389202245e-18
4.596383167506213e-18
4.60815040557914e-18
4.654498778437474e-18
4.7082753786288165e-18
4.7499831985907886e-18
4.7710490770582114e-18
4.772485123201226e-18
4.761052817326265e-18
4.745043088847735e-18
4.731129286895889e-18
4.7228803352958625e-18
4.720787986588662e-18
4.723243606757334e-18
4.727811178614413e-18
4.7322907794853505e-18
4.7353178645372185e-18
4.736481964590778e-18
4.736104285844662e-18
4.7348688336536966e-18
4.73347588025543e-18
4.732417627931133e-18
4.7319011438745386e-18
4.731888510445623e-18
4.732198622278204e-18
4.732616246823478e-18
4.732971672907764e-18
4.733176912745505e-18
4.733223124932185e-18
4.7331543040230544e-18
4.733034157316647e-18
4.732918999577452e-18
4.73284290765507e-18
4.732815261581708e-18
4.73282688982321e-18
4.732859742466672e-18
4.732895780325167e-18
4.732922596074502e-18
4.732935214806873e-18
4.73293491569508e-18
4.73292653623281e-18
4.7329156569481956e-18
4.732906588365877e-18
4.73290149329911e-18
4.732900501200814e-18
4.732902414571234e-18
4.732905569706981e-18
4.732908526704459e-18
4.732910436265344e-18
4.732911087622957e-18
4.732910739756753e-18
4.7329098681164345e-18
4.7329089368635366e-18
4.7329082582797684e-18
4.732907951169195e-18
4.732907974868919e-18
4.7329082004948235e-18
4.73290848353117e-18
4.732908714635224e-18
4.732908840815522e-18
4.732908861260419e-18
4.7329088084276166e-18
4.732908725704439e-18
4.7329086498643475e-18
4.732908602028738e-18
4.732908586828779e-18
4.732908597017251e-18
4.732908620090918e-18
4.73290864412017e-18
4.7329086612592715e-18
4.732908668694256e-18
4.732908667673492e-18
4.732908661626746e-18
4.7329086542934294e-18
4.732908648440059e-18
4.732908645350865e-18
4.732908644967712e-18
4.732908646399211e-18
4.732908648506832e-18
4.732908650358332e-18
4.732908651455269e-18
4.7329086517432886e-18
4.732908651475707e-18
4.732908651019416e-18
4.732908650679e-18
4.732908650586698e-18
4.732908650676506e-18
4.732908650737395e-18
4.7329086505243306e-18
4.7329086498938504e-18
4.732908648921656e-18
4.7329086479547256e-18
4.732908647555492e-18
4.732908648317761e-18
4.7329086505768476e-18
4.732908654094105e-18
4.732908657850914e-18
4.732908660110665e-18
4.732908658868594e-18
4.732908652690283e-18
4.732908641750961e-18
4.732908628681294e-18
4.732908618692501e-18
4.732908618502511e-18
4.732908633897493e-18
4.732908666338682e-18
4.732908709732303e-18
4.73290874904853e-18
4.732908762542804e-18
4.7329087285753155e-18
4.732908636336684e-18
4.732908497461319e-18
4.732908353320586e-18
4.732908271894152e-18
4.732908329712358e-18
4.732908579103579e-18
4.732909008358232e-18
4.732909510329923e-18
4.732909879844775e-18
4.732909857916808e-18
4.732909228146861e-18
4.7329079480868145e-18
4.73290627112538e-18
4.732904793326302e-18
4.732904358576316e-18
4.732905786546312e-18
4.7329094546867384e-18
4.7329148555346075e-18
4.732920333169444e-18
4.7329232326811615e-18
4.7329206287142605e-18
4.7329106101621366e-18
4.732893810697213e-18
4.732874573554081e-18
4.73286096424815e-18
4.73286295626786e-18
4.732888623402079e-18
4.732939058183334e-18
4.7330037813300456e-18
4.733059189490433e-18
4.73307256979304e-18
4.733012933906336e-18
4.732867290637187e-18
4.732657494327689e-18
4.732449700060479e-18
4.7323474747352186e-18
4.7324624723660306e-18
4.732864102933289e-18
4.733520806116939e-18
4.734256998513114e-18
4.73475600891626e-18
4.734634248004165e-18
4.733591406890737e-18
4.7316067934373436e-18
4.729111827947803e-18
4.7270398513503275e-18
4.726657487839305e-18
4.729133877019059e-18
4.734907917238458e-18
4.743048113720889e-18
4.7509162177469636e-18
4.754476751455385e-18
4.749474770756047e-18
4.733405395353107e-18
4.707764051282352e-18
4.6796313991286705e-18
4.661425696976152e-18
4.66788096052068e-18
4.710129905533304e-18
4.78812723383928e-18
4.884183891338689e-18
4.961443577727918e-18
4.9709209481380285e-18
4.868602422304572e-18
4.64002265600693e-18
4.3245440418817846e-18
4.027201482278878e-18
3.905057609834862e-18
4.119997928855207e-18
4.7617499934172224e-18
5.761781300855079e-18
6.835214332478462e-18
7.495646102772103e-18
7.177884905950532e-18
5.470755810794271e-18
2.409131369720706e-18
-1.2843544343124296e-18
-4.156235508220547e-18
-4.314310972113198e-18
-1.0550142777385994e-19
8.930689466575391e-18
2.1143021724913526e-17
3.235656337448549e-17
3.646534498052475e-17
2.7320660148627617e-17
1.736455729478048e-18
-3.7220906580780324e-17
-7.811471454184952e-17
-1.0191571747102962e-16
-8.697314775465553e-17
-1.8163009277199597e-17
1.018701975200524e-16
2.4370334815735107e-16
3.500918098289212e-16
3.4803218783994675e-16
1.7559287283970427e-16
-1.8113851100176797e-16
-6.533269787711679e-16
-1.0752842036407085e-15
-1.209906102518835e-15
-8.240701883878792e-16
1.9416632119659343e-16
1.710062577147786e-15
3.2654140518735916e-15
4.1166158474881345e-15
3.4354697009153167e-15
6.682347713336538e-16
-4.032175052730187e-15
-9.471385633902576e-15
-1.3397676409174113e-14
-1.2997953228522458e-14
-5.95825447243278e-15
8.10617393823924e-15
2.6341492774549827e-14
4.2181914237854014e-14
4.64309134372688e-14
3.026648434225891e-14
-1.0193830372763487e-14
-6.911252549061353e-14
-1.2816719609506887e-13
-1.583335343231297e-13
-1.279773281028943e-13
-1.6929515762054196e-14
1.6691939925932534e-13
3.7522129292301384e-13
5.195144119963379e-13
4.915357659832152e-13
2.0508187631145757e-13
-3.487045330328172e-13
-1.0520753730076202e-12
-1.6452199442671094e-12
-1.7718469055351748e-12
-1.0987708713084136e-12
5.064762642580455e-13
2.7938600681301802e-12
5.032048825214727e-12
6.089467452921967e-12
4.7596449428929895e-12
3.12313637381069e-13
-6.8702981983838746e-12
-1.4836108408516574e-11
-2.0114011226723208e-11
-1.8542813914052513e-11
-6.921401518188898e-12
1.485643565737265e-11
4.1953281016501576e-11
6.410262597485625e-11
6.751718171967222e-11
3.963993977863039e-11
-2.3953409469732116e-11
-1.1265362482397965e-10
-1.973204053849619e-10
-2.338872675611997e-10
-1.764147028972839e-10
1.357145469278027e-12
2.8164446064457355e-10
5.858196319805619e-10
7.778447698896332e-10
6.979909847494171e-10
2.2780474273644724e-10
-6.275585493627729e-10
-1.6701287634360017e-09
-2.4947687445933975e-09
-2.568587219378919e-09
-1.419405006202858e-09
1.0963071842405337e-09
4.531936280637334e-09
7.72828910275051e-09
8.971260586103288e-09
6.514488355430324e-09
-5.787307893122727e-10
-1.1503864956981104e-08
-2.3100968522194534e-08
-3.004480654758261e-08
-2.6212427873424383e-08
-7.237649302341005e-09
2.63175261135878e-08
6.63794025075973e-08
9.69814382861383e-08
9.755160038590161e-08
5.0377472079714694e-08
-4.9004931006952674e-08
-1.8192142619050492e-07
-3.023325364990679e-07
-3.436389301776077e-07
-2.39569224361109e-07
4.29699018108074e-08
4.683271318352331e-07
9.097746204851668e-07
1.1590981757033216e-06
9.819118557907349e-07
2.1797679494736555e-07
-1.0967928630795521e-06
-2.6341758294174212e-06
-3.765733048418016e-06
-3.6982583556724095e-06
-1.7690491507182648e-06
2.1517532815440274e-06
7.2878880223143704e-06
1.181359053545427e-05
1.3144199059450474e-05
8.76943664292452e-06
-2.466302289540713e-06
-1.9008154777133833e-05
-3.5783815679202126e-05
-4.466163530141267e-05
-3.668232007480825e-05
-5.9938750024035325e-06
4.546079647047364e-05
0.0001043768833903333
0.00014604953129998015
0.00013993160368545177
6.129638021757572e-05
-9.3198871867946e-05
-0.00029145407139477005
-0.00046117346748064534
-0.0005021610203615125
-0.00031949673953779245
0.00012664228159932928
0.0007694192319050233
0.0014064528143158438
0.0017210379256201499
0.001372136500815939
0.0001487467179591855
-0.0018500477695811324
-0.0040832761017630505
-0.0055778791311688536
-0.005158523620425652
-0.001914279851344273
0.004185399879302992
0.011732917766818422
0.01767508396835583
0.01773461487873455
0.00757845288190669
-0.015458136016104873
-0.05065814129039652
-0.09304547405775257
0.0659359548924082
0.03607345002102894
0.025134571423915654
0.03607345002102912
0.06593595489240857
-0.09304547405775218
-0.05065814129039628
-0.015458136016104804
0.007578452881906576
0.01773461487873434
0.01767508396835563
0.0117329177668183
0.0041853998793029675
-0.0019142798513442235
-0.005158523620425564
-0.005577879131168765
-0.004083276101762988
-0.001850047769581102
0.00014874671795919115
0.0013721365008159262
0.0017210379256201297
0.0014064528143158243
0.0007694192319050112
0.0001266422815993256
-0.0003194967395377895
-0.0005021610203615063
-0.00046117346748063927
-0.00029145407139476615
-9.319887186794492e-05
6.129638021757433e-05
0.00013993160368544903
0.00014604953129997725
0.0001043768833903311
4.5460796470472585e-05
-5.993875002403451e-06
-3.668232007480745e-05
-4.466163530141168e-05
-3.578381567920137e-05
-1.90081547771335e-05
-2.4663022895407604e-06
8.769436642924268e-06
1.3144199059450176e-05
1.181359053545404e-05
7.2878880223142485e-06
2.1517532815440087e-06
-1.7690491507182131e-06
-3.698258355672328e-06
-3.7657330484179415e-06
-2.634175829417372e-06
-1.0967928630795327e-06
2.1797679494736047e-07
9.819118557907175e-07
1.1590981757033028e-06
9.097746204851537e-07
4.6832713183522825e-07
4.2969901810810045e-08
-2.3956922436110207e-07
-3.436389301775997e-07
-3.023325364990615e-07
-1.8192142619050132e-07
-4.9004931006951985e-08
5.037747207971316e-08
9.755160038589914e-08
9.6981438286136e-08
6.637940250759584e-08
2.6317526113587243e-08
-7.237649302340833e-09
-2.6212427873423794e-08
-3.004480654758193e-08
-2.310096852219401e-08
-1.150386495698084e-08
-5.78730789312223e-10
6.514488355430224e-09
8.971260586103121e-09
7.728289102750363e-09
4.531936280637251e-09
1.0963071842405238e-09
-1.4194050062028163e-09
-2.5685872193788557e-09
-2.4947687445933404e-09
-1.6701287634359657e-09
-6.275585493627609e-10
2.2780474273644062e-10
6.979909847494013e-10
7.778447698896167e-10
5.858196319805505e-10
2.81644460644569e-10
1.3571454692797847e-12
-1.7641470289727838e-10
-2.3388726756119325e-10
-1.9732040538495654e-10
-1.1265362482397665e-10
-2.3953409469731444e-11
3.9639939778629365e-11
6.751718171967041e-11
6.410262597485449e-11
4.195328101650039e-11
1.4856435657372186e-11
-6.921401518188775e-12
-1.8542813914052083e-11
-2.0114011226722746e-11
-1.4836108408516247e-11
-6.8702981983837485e-12
3.123136373810173e-13
4.759644942892833e-12
6.08946745292178e-12
5.032048825214569e-12
2.79386006813008e-12
5.064762642580116e-13
-1.098770871308395e-12
-1.7718469055351306e-12
-1.6452199442670657e-12
-1.0520753730075924e-12
-3.4870453303280814e-13
2.0508187631145303e-13
4.915357659832038e-13
5.195144119963259e-13
3.7522129292300516e-13
1.66919399259321e-13
-1.692951576205455e-14
-1.2797732810289228e-13
-1.583335343231268e-13
-1.2816719609506645e-13
-6.911252549061214e-14
-1.019383037276321e-14
3.026648434225843e-14
4.643091343726805e-14
4.218191423785339e-14
2.63414927745495e-14
8.106173938239214e-15
-5.958254472432622e-15
-1.2997953228522248e-14
-1.339767640917394e-14
-9.471385633902479e-15
-4.032175052730155e-15
6.682347713336317e-16
3.4354697009152686e-15
4.1166158474880896e-15
3.2654140518735648e-15
1.7100625771477773e-15
1.941663211965958e-16
-8.240701883878703e-16
-1.2099061025188247e-15
-1.0752842036407004e-15
-6.533269787711639e-16
-1.8113851100176738e-16
1.755928728397026e-16
3.480321878399441e-16
3.500918098289184e-16
2.437033481573493e-16
1.0187019752005196e-16
-1.8163009277198907e-17
-8.69731477546543e-17
-1.0191571747102831e-16
-7.811471454184851e-17
-3.722090658077983e-17
1.736455729477999e-18
2.7320660148627087e-17
3.646534498052393e-17
3.2356563374484577e-17
2.11430217249128e-17
8.930689466575139e-18
-1.0550142777346089e-19
-4.314310972112133e-18
-4.156235508219031e-18
-1.2843544343109351e-18
2.409131369721464e-18
5.470755810793528e-18
7.177884905947805e-18
7.495646102767597e-18
6.835214332473361e-18
5.761781300851544e-18
4.76174999341789e-18
4.119997928862176e-18
3.9050576098483465e-18
4.0272014822960135e-18
4.324544041896247e-18
4.6400226560100435e-18
4.86860242228822e-18
4.970920948098973e-18
4.961443577672227e-18
4.8841838912841534e-18
4.788127233813444e-18
4.710129905565559e-18
4.6678809606288455e-18
4.661425697150983e-18
4.679631399322702e-18
4.707764051411105e-18
4.733405395315241e-18
4.749474770473513e-18
4.7544767509254076e-18
4.750916217087102e-18
4.743048113180947e-18
4.734907917154132e-18
4.729133877696361e-18
4.7266574893865225e-18
4.727039853509886e-18
4.729111830010854e-18
4.731606794331163e-18
4.733591405496175e-18
4.7346342436802404e-18
4.7347560020935894e-18
4.734256991103685e-18
4.733520801431684e-18
4.732864104862383e-18
4.732462483797953e-18
4.732347495551844e-18
4.732449725450162e-18
4.7326575144322705e-18
4.73286729248112e-18
4.73301290598185e-18
4.7330725085833245e-18
4.7330591058409876e-18
4.733003703440147e-18
4.7329390277815825e-18
4.73288868303461e-18
4.732863128805351e-18
4.7328612301944765e-18
4.732874856063366e-18
4.7328939801573174e-18
4.732910517442744e-18
4.732920167332092e-18
4.73292241603057e-18
4.732919357502117e-18
4.7329141093791804e-18
4.732909438978205e-18
4.7329069330001445e-18
4.732906776753953e-18
4.732908029653059e-18
4.732909205558774e-18
4.732908959255613e-18
4.732906701406023e-18
4.732902984978471e-18
4.732899525152136e-18
4.732898755948624e-18
4.732902922254295e-18
4.7329128702342896e-18
4.732926906597889e-18
4.732940271397135e-18
4.732945796398212e-18
4.73293609109291e-18
4.732907064947252e-18
4.732861838292421e-18
4.732813357273367e-18
4.73278368666929e-18
4.732798409387553e-18
4.732876054417625e-18
4.733014874926138e-18
4.7331819494957165e-18
4.7333113212835294e-18
4.733317334881731e-18
4.7331254182785436e-18
4.7327152661379765e-18
4.732162342336125e-18
4.731656274469095e-18
4.731473663675977e-18
4.731892251362863e-18
4.733054704773551e-18
4.734819907268363e-18
4.736667787105123e-18
4.737735661887129e-18
4.7370445230198766e-18
4.73391399004253e-18
4.728470947597213e-18
4.722055575780851e-18
4.717265118685155e-18
4.717403553275453e-18
4.725263538118133e-18
4.741453354632129e-18
4.762829254634778e-18
4.781866963303521e-18
4.787827187384805e-18
4.7701820409188944e-18
4.7239260892109266e-18
4.655248521352058e-18
4.5849807101382665e-18
4.546828904095313e-18
4.578236142662211e-18
4.704098584150934e-18
4.917213620473989e-18
5.163198336509721e-18
5.339905502427211e-18
5.320039726216521e-18
4.99929420087068e-18
4.361098312402314e-18
3.535708750238081e-18
2.8212397229975153e-18
2.6341764780199706e-18
3.3728298999272713e-18
5.210492587548634e-18
7.879429473473449e-18
1.0546836482468736e-17
1.189727819289695e-17
1.0500824512345504e-17
5.451290378336296e-18
-2.8831816593194354e-18
-1.2301889641713605e-17
-1.87924444858818e-17
-1.7456590062592614e-17
-4.409969582967252e-18
2.0715093039728866e-17
5.254720514562428e-17
7.929189344293083e-17
8.481598317537385e-17
5.408000776917332e-17
-1.8815242173549312e-17
-1.224161909744967e-16
-2.2348891718188125e-16
-2.7075545603205135e-16
-2.0969120543401349e-16
-7.511207863932142e-18
3.180544535932618e-16
6.781778723317922e-16
9.154419705587508e-16
8.416072614108463e-16
3.124894627779838e-16
-6.754128194599695e-16
-1.9015358310975364e-15
-2.8998942038951537e-15
-3.04627683888341e-15
-1.7740305450658496e-15
1.1132744097503964e-15
5.1301509288601155e-15
8.952646430028953e-15
1.0584139771734349e-14
7.948875342609906e-15
-1.3099833888807885e-16
-1.2833790275256603e-14
-2.658261505725985e-14
-3.5208947815005235e-14
-3.1488319318616186e-14
-1.0087764995135184e-14
2.8708103714827974e-14
7.587674589610142e-14
1.1303240084431844e-13
1.1605222749664946e-13
6.363450672886345e-14
-5.05660114627617e-14
-2.0612985332746734e-13
-3.504008398763911e-13
-4.057248414058558e-13
-2.932095812661362e-13
2.9114452147664237e-14
5.241795377638933e-13
1.048272719713892e-12
1.3599600062213463e-12
1.1823491812643636e-12
3.189663496839699e-13
-1.2027408129603812e-12
-3.0149587617001777e-12
-4.393214489377989e-12
-4.406392997077204e-12
-2.2556665438210063e-12
2.255044665790944e-12
8.272587147587725e-12
1.3706016413782921e-11
1.5538600766704115e-11
1.0777166798709199e-11
-2.0591355151875517e-12
-2.133124321208476e-11
-4.127704663846243e-11
-5.2457919404662365e-11
-4.42762835077787e-11
-9.525600041379333e-12
5.0089851149831415e-11
1.1962275665703006e-10
1.7056241444246637e-10
1.6701272316017823e-10
7.909572913202899e-11
-9.883084687795127e-11
-3.313258536284218e-10
-5.354846668033097e-10
-5.94246847991612e-10
-3.9426059735886636e-10
1.161027773218274e-10
8.65479282939818e-10
1.6232929680216874e-09
2.0209764543114944e-09
1.6535132460477308e-09
2.5788114106705105e-10
-2.0749076815643208e-09
-4.739166615984201e-09
-6.6142951846223116e-09
-6.318159677049633e-09
-2.736432172089877e-09
4.2728053033592065e-09
1.3244704102662778e-08
2.0896936276415436e-08
2.2692365081352442e-08
1.4346699839049603e-08
-5.913366805773357e-09
-3.5018787723852856e-08
-6.375999177193226e-08
-7.776138006418896e-08
-6.15673639577455e-08
-5.6323050281681295e-09
8.554489974849326e-08
1.8748607385198575e-07
2.562004655473332e-07
2.3853849928137484e-07
9.30688028183446e-08
-1.8270203899401714e-07
-5.284998860342392e-07
-8.14555017733415e-07
-8.652176590345115e-07
-5.188912277893096e-07
2.8417297628228525e-07
1.4133148407965675e-06
2.5013379796660096e-06
2.988177907530176e-06
2.2849655371292076e-06
4.751365619004377e-08
-3.5120403116041422e-06
-7.406871474827872e-06
-9.912140360560146e-06
-8.98665906112572e-06
-3.0952077678830072e-06
7.741201228010081e-06
2.105239385844772e-05
3.1714812961908426e-05
3.2936397102656765e-05
1.863538355770873e-05
-1.3150206238006996e-05
-5.6904417515591486e-05
-9.801130769524203e-05
-0.00011467605534174
-8.449905053217875e-05
4.836106209750734e-06
0.0001436400562819244
0.00029221960118435954
0.00038302348031571913
0.00033776224615142457
9.975664876474544e-05
-0.0003255880337383886
-0.0008374107966471196
-0.0012336933258741774
-0.0012520928381225455
-0.0006641851677568376
0.0005923466563479318
0.0022867356735900668
0.0038390281779002327
0.004403729672925797
0.0031332024406163085
-0.0004045677026681375
-0.00577016797339868
-0.011361954713799515
-0.014530883716716072
-0.012283677017425337
-0.00257767879193656
0.014070560034590332
0.033242714768972136
0.04630529116005812
0.04179425170690945
0.008685737981740943
-0.05909180235800925
-0.15847008932629741
-0.07544696499708925
0.012718851473102082
0.13132267589157628
0.10008617056099736
0.12642455149838677
0.0030815829090459954
-0.08882595015113251
-0.17282651354346049
-0.06943481650806531
0.008824976270344535
0.05797758819892226
0.07935714956552536
0.07493554761575202
0.043920306942629335
-0.01767170211207028
-0.1144343325916284
-0.04748554038039351
-0.011042029990843765
0.00864943545741226
0.0315658187681561
0.08011135903525
-0.02537437064353595
-0.07063071654834993
-0.050466752122251816
0.02935638650610074
0.15160187169265307
0.08920932885475968
0.010053298098992339
-0.11526530312169776
-0.10446969222232036
-0.15679394991777976
-0.051530988046019334
0.046618543682920795
0.17672625730503438
0.16914450773478473
0.036046873970596575
-0.031528880541044586
-0.05944125397623295
-0.08117839560062806
-0.12735614905872564
-0.017694177100945365
0.04225723453339767
0.059437473225265616
0.04825760887249924
0.024692176826991038
0.0016093939965878107
-0.013565664008124279
-0.01886863793881382
-0.01624812906184695
-0.009447147535437435
-0.002145329015574049
0.003176461106065859
0.005571918880464271
0.005360037476508372
0.0035594170876977814
0.0013123268838159973
-0.0005178915127819692
-0.001514226914857465
-0.0016724814115323988
-0.0012511683289591438
-0.00059451751501454
6.298816789101012e-06
0.000384456534626657
0.0005038256004922753
0.00042223688107803674
0.00023894191744336355
4.845289152861824e-05
-8.718702567288773e-05
-0.00014582497912531332
-0.0001374556442010344
-8.929784265356883e-05
-3.0981131688415496e-05
1.5578876601289165e-05
4.0181353903750124e-05
4.3218757355382935e-05
3.166395124160047e-05
1.4479162454376094e-05
-9.092859883152689e-07
-1.036261397252643e-05
-1.3112774717250877e-05
-1.0764012163826777e-05
-5.92136697947834e-06
-1.0108051620291555e-06
2.4114924212758033e-06
3.824948319436877e-06
3.5265807726859654e-06
2.2381147062435177e-06
7.249513035477127e-07
-4.58544089493287e-07
-1.064401861763705e-06
-1.1158440824505017e-06
-8.004450864583767e-07
-3.51280827649968e-07
4.246109456907361e-08
2.7835643700790865e-07
3.408179745255649e-07
2.7406412410721085e-07
1.463662286676171e-07
1.9926114219100357e-08
-6.629091894176051e-08
-1.0017259062440487e-07
-9.037448432218102e-08
-5.599378607053458e-08
-1.6779501943666216e-08
1.3265171128997915e-08
2.8139184512902577e-08
2.8776038389250766e-08
2.020590195410574e-08
8.48253148001452e-09
-1.5803682508390203e-09
-7.454756375982582e-09
-8.847127519700864e-09
-6.969376012878412e-09
-3.6080215910493456e-09
-3.560896112757986e-10
1.8125716775908552e-09
2.619561985526149e-09
2.3133301957244957e-09
1.398210438318524e-09
3.8318119297494643e-10
-3.785527992273803e-10
-7.424890807971919e-10
-7.412387563594594e-10
-5.09310582529141e-10
-2.0374467150669812e-10
5.313149161793808e-11
1.9909925985940106e-10
2.293745320198028e-10
1.770060761609298e-10
8.8675540304624e-11
5.13410268596195e-12
-4.932674766186337e-11
-6.840490794541983e-11
-5.914601339070651e-11
-3.484432311055551e-11
-8.602355791891553e-12
1.0684389117521578e-11
1.955619878100726e-11
1.9071619628510757e-11
1.2817994380501168e-11
4.8641088271018305e-12
-1.6853741370014909e-12
-5.3039422054030426e-12
-5.939645422559546e-12
-4.489745948543081e-12
-2.1723201737198228e-12
-2.8608985822837596e-14
1.336722726705261e-12
1.7837984939827139e-12
1.510448539900385e-12
8.664947329237693e-13
1.8884662044235462e-13
-2.9881331820351863e-13
-5.141956321409537e-13
-4.901356624645794e-13
-3.2207378004433717e-13
-1.1530225851653e-13
5.1485748767907427e-14
1.409659047549727e-13
1.536282021932089e-13
1.1373643505796345e-13
5.303093727367262e-14
-1.9147014909601927e-15
-3.6082410310584255e-14
-4.6448758644508747e-14
-3.852257255315764e-14
-2.1493576158482173e-14
-4.014951527005328e-15
8.297891878148981e-15
1.3502688252978147e-14
1.2586960016007392e-14
8.084085713389005e-15
2.715595349040593e-15
-1.5265724256988791e-15
-3.733256702387355e-15
-3.963911484037511e-15
-2.8723317374909785e-15
-1.2845051613526885e-15
1.2219143771221594e-16
9.756363974075422e-16
1.212891799085313e-15
9.862779121036362e-16
5.368198887160987e-16
8.651214633452041e-17
-2.2391587140667005e-16
-3.4903723199971334e-16
-3.1789186846365713e-16
-1.9758240079415139e-16
-5.837088882401671e-17
4.9390999711215616e-17
1.0365060156020045e-16
1.0713771111380074e-16
7.741172597568769e-17
3.593984347455599e-17
-3.2139156067807996e-20
-2.130714524950315e-17
-2.6648717641699438e-17
-2.0242950657545944e-17
-8.401666942164849e-18
3.186466455688029e-18
1.1000947864340785e-17
1.3990939675769978e-17
1.2995934390279782e-17
9.789734695000242e-18
6.184200962556595e-18
3.4502901518992556e-18
2.1203920153308068e-18
2.0935634680078044e-18
2.899603633578076e-18
3.9812882881240565e-18
4.9000866741319624e-18
5.429315012782388e-18
5.547019297506085e-18
5.367632255323535e-18
5.0562013538123085e-18
4.758334506602358e-18
4.561935385553792e-18
4.490984860946508e-18
4.521538239194491e-18
4.6067911276485634e-18
4.7000677778568026e-18
4.7693274839728426e-18
4.8017816940968175e-18
4.800814734145695e-18
4.7789947167100925e-18
