0
-6.3720355227924486e-09
-8.16501484977818e-09
-6.974008840233633e-09
-1.653969672368492e-09
7.56990792988234e-09
1.841783557136046e-08
2.648640315932993e-08
2.6186044861081294e-08
1.2807198813739007e-08
-1.4647952237340787e-08
-5.08193265524533e-08
-8.29401690253617e-08
-9.282968107441073e-08
-6.271037529084485e-08
1.579675616053398e-08
1.320877428940047e-07
2.507831597999249e-07
3.1478331926363195e-07
2.6080093811815937e-07
4.69588072827684e-08
-3.1414527565619166e-07
-7.300279514591965e-07
-1.027529750629352e-06
-9.91324362983804e-07
-4.455604788287e-07
6.36562923746826e-07
2.0330751325571025e-06
3.238230140969912e-06
3.5470356415578107e-06
2.2870375246102585e-06
-8.313961385699161e-07
-5.350137264720143e-06
-9.855048625080563e-06
-1.2117999385051236e-05
-9.72246187396856e-06
-1.1450694194884976e-06
1.2975222582576331e-05
2.889694776116713e-05
3.981920023642594e-05
3.745745485206391e-05
1.5265197398940994e-05
-2.7331036195294578e-05
-8.118210661890024e-05
-0.0001262818515975768
-0.00013532478293870726
-8.292608033107846e-05
4.075327802378979e-05
0.00021613400427692245
0.0003867915336933208
0.0004658757996045001
0.00036125094158066963
1.7831375501752792e-05
-0.0005337677247431013
-0.0011425740470524589
-0.0015417922828720354
-0.0014130298621497512
-0.0005131862252063643
0.0011621984216598376
0.0032385459427098535
0.004927418166345651
0.0051758609199139445
0.003033369419768856
-0.001818005344791032
-0.008537313297952829
-0.01486511825898111
-0.01741726701434769
-0.012717224738043478
0.0010948867430668524
0.022291272886284724
0.04408122044542316
0.05454579921918868
0.038684640910269213
-0.01739380637890452
-0.12111622338199567
-0.06883795058570115
-0.04417677306863613
-0.02070332292014329
0.03122472647707888
0.13548540270429343
0.10225769420734847
0.12435867606402054
-0.02022780439093098
-0.16008601634436875
-0.11935704470222261
-0.10843437811857899
-0.12035136315605614
0.06545522852059639
0.2734808192852246
0.12072062632773468
0.008452067564999872
-0.0793224214062256
0.029587143455136727
-0.09444756540861485
-0.07219845746384002
-0.1079377225850741
0.01258707704856246
-0.08228406058696837
0.04017739609439435
0.20521058749404408
0.22077554268185293
0.0739837692994201
-0.06408429323530704
-0.22648661086845456
-0.23620759198930147
-0.09582516961419181
0.01430108840010553
0.1285382253100143
0.2826074331649589
0.10023268382946053
-0.014665813445070107
-0.0776210350061201
-0.11633066506788439
-0.16042936760620397
-0.032894584541290905
0.05386618220992652
0.09683139690636536
0.09807910171821894
0.060461554288044464
-0.014325039639040258
-0.12463295213470418
-0.06597472366032786
-0.02860354965037319
0.0025730019790702763
0.04529510011704968
0.11556668252763158
0.02353820708841126
-0.028596267562897997
-0.046022982226602005
-0.03869476796505858
-0.018086607169977963
0.005382327282549856
0.02368353665661844
0.031492357815521975
0.026158483362344283
0.00797451861772413
-0.019068674844446496
-0.04647063358092003
-0.061252113676601036
-0.04775021585396296
0.008467895820494849
0.11526695561035323
0.06896617867109388
0.05199349494335655
0.0348648613584942
-0.017339537659939418
-0.13565524250042857
-0.1380882322014252
-0.023950690220986556
0.02610498936816293
0.044267992692309716
0.06606800590829923
0.1205300279066507
0.023220306951313305
-0.025809238005409265
-0.03899181143674902
-0.034658807603191566
-0.029386378169419542
-0.03176927607055692
-0.03942610925757084
-0.04005669161850197
-0.016317168788621553
0.046788603180742835
0.15427804550040275
0.09614793810055546
0.04737967747684021
-0.02611262064828849
-0.1570492958057149
-0.1654387415222399
-0.05065191075967204
0.009868776489938799
0.05463090215906275
0.12701957781844275
0.06307164464681007
0.08214373022003753
-0.016844804300505358
-0.053062155174643785
-0.056854402098202084
-0.06110721825022304
-0.09384840119704492
0.025851872377923125
0.08817369469074202
0.09010571505495019
0.03225547762737711
-0.08334657998003962
-0.053909704411563605
-0.07572970571091853
0.0556697623506831
0.14465268413504398
0.1943952679648292
-0.1936073691272504
-0.2198330931215709
-0.2889462309579336
-0.01646333194162679
0.15991108395795475
0.3683553759358023
0.29814417111085884
0.21011029591525857
-0.033371393280546155
0.07866974668367661
0.16036913450676193
-0.42393095934475333
-1.138345196099244
-1.2978671313557706
-0.9463572534406867
0.21374650185615757
2.8678071382588013
3.362349820270112
0.26308253864752285
-0.16621032375538713
-0.9734092345265883
-3.274651153820802
-3.8434614291475278
0.7888109953574729
0.682780285549227
1.31085594742839
2.5171868500948436
3.7077680825733474
-1.2553225048558456
-1.025290040366149
-1.4312421812778235
-1.8928463631347705
-2.264555936576779
0.8358380271223609
1.599534806422178
2.726824916832887
-1.493033030733418
0.5272688888886787
0.6366345896251634
-0.6384244542181728
-2.244381792192915
1.6574778745470695
-0.2629164335990969
-0.2808835287163367
-0.015205447226504002
0.15816006382633702
0.2840589831833119
0.005090178391583667
0.1443231404765049
0.0981965636185387
-0.159810765697007
-0.267819237236099
-0.06186744819173724
0.03464233233641921
0.015131804111074175
0.08766588844545671
0.06885424263122537
-0.02298275857644107
0.02709738344844303
0.02847423616602612
-0.014407814647466858
-0.09955401435102598
-0.024481129808442737
0.01580136462994671
0.02912457554218507
0.024967829619411405
0.01258682455443398
-0.0006034743032517396
-0.009849909947085119
-0.013056939036113734
-0.010272320842176948
-0.003053384599499699
0.006041914445251737
0.013837847559145841
0.01699418752537975
0.012771072927413696
0.00019716912434225554
-0.018567609390591593
-0.03721075072960848
-0.045300320234914634
-0.02994264160754672
0.020906177521520818
0.11426710463772714
0.048627217401678205
0.012745273795464175
-0.012323649502973459
-0.04843154618095076
-0.11445453369328243
-0.021502222963284478
0.029087928274525676
0.044515204141417256
0.036939007917787876
0.019226900388596212
0.0015801188063746128
-0.010129655255933937
-0.014302392348522899
-0.012386029991627344
-0.007232767811197133
-0.0016631562767658594
0.002412528158197998
0.004257779220036727
0.004107500007396289
0.0027363742763766756
0.0010176411588267975
-0.00038640675684901656
-0.0011541076673046776
-0.0012800018676625258
-0.0009606042261846093
-0.0004590474457883335
1.3905762029384303e-06
0.00029225551384483024
0.00038514153592017643
0.0003238046759908464
0.00018401755431126157
3.8184484317565354e-05
-6.599789179594589e-05
-0.00011133872445770862
-0.00010530945994872574
-6.865629915489896e-05
-2.4055573053055826e-05
1.1666237054614804e-05
3.063102745293324e-05
3.3079282482558334e-05
2.4313445296327056e-05
1.1185420009020609e-05
-6.090838894639105e-07
-7.88199388971738e-06
-1.0026039356389076e-05
-8.256286025080538e-06
-4.561974541284749e-06
-8.019005313127085e-07
1.8272975371649134e-06
2.921095902120516e-06
2.7023132568317903e-06
1.7212316776299938e-06
5.637401181956168e-07
-3.4443764948928363e-07
-8.116720454519629e-07
-8.54208928482878e-07
-6.147591401705247e-07
-2.715519624449665e-07
3.028583827262447e-08
2.1182694785725282e-07
2.6064255207290664e-07
2.102556367515539e-07
1.1281135704521278e-07
1.597765516436945e-08
-5.027450632087117e-08
-7.65174366170652e-08
-6.926176299919417e-08
-4.307272616565703e-08
-1.3070221746042392e-08
9.989669837325542e-09
2.146604195466243e-08
2.203444800124964e-08
1.5523717159858735e-08
6.563952498843071e-09
-1.1515293278290349e-09
-5.673822432591725e-09
-6.76549540590073e-09
-5.346070140292992e-09
-2.7803875153908147e-09
-2.8946720729489943e-10
1.3774168459450802e-09
2.0031245923589776e-09
1.774927002013445e-09
1.0775855771686546e-09
3.0084378761928015e-10
-2.8393331863286093e-10
-5.649000253246489e-10
-5.660191598327059e-10
-3.897116226628919e-10
-1.5610510241132626e-10
4.0924573178854546e-11
1.533794682833377e-10
1.7725087222894322e-10
1.376090333045916e-10
7.010636033836206e-11
5.981840446850564e-12
-3.604265261551016e-11
-5.0981634400423634e-11
-4.407675199821149e-11
-2.5400763265180506e-11
-4.960858069962367e-12
1.0350333978571787e-11
1.769048740093579e-11
1.7595821222711227e-11
1.2535953763666915e-11
5.467735173089155e-12
-1.1360861632327373e-12
-5.663233649631769e-12
-7.3006912371145e-12
-5.819879631475756e-12
-1.4602215061026032e-12
4.984909592625192e-12
1.1967486065362424e-11
1.7109999854846265e-11
1.7538661197109273e-11
1.079290361862471e-11
-3.785128669134855e-12
-2.3624833340088652e-11
-4.22073402151835e-11
-4.987242092495093e-11
-3.667662812677772e-11
2.903331733845863e-12
6.467587267710986e-11
1.311313605624025e-10
1.7230581712810823e-10
1.532914013859014e-10
4.855607691613771e-11
-1.4003284340783034e-10
-3.682181418903209e-10
-5.465486102669609e-10
-5.582211302285136e-10
-3.007620548324022e-10
2.551560440263429e-10
1.0088033782364222e-09
1.7035422312366814e-09
1.9628060348090995e-09
1.406065908973004e-09
-1.6593830697256612e-10
-2.567784751206409e-09
-5.097466686641715e-09
-6.582511600907957e-09
-5.684723698392531e-09
-1.4634802275684145e-09
5.929948551728768e-09
1.4693179398728574e-08
2.130260641487474e-08
2.1250847888631616e-08
1.0697053131990327e-08
-1.125338013716188e-08
-4.039783533183448e-08
-6.65490201625319e-08
-7.508176106025069e-08
-5.1564674900447e-08
1.101529692427468e-08
1.0449089822391064e-07
2.0072840744621803e-07
2.539032998309651e-07
2.12815128938405e-07
4.299970060360431e-08
-2.465720961750252e-07
-5.827042404964278e-07
-8.267696732499423e-07
-8.050500694609428e-07
-3.7397937890116914e-07
4.916028576796237e-07
1.6173256936671156e-06
2.5994057854158095e-06
2.8704812132145075e-06
1.8842718359626757e-06
-6.029672482236204e-07
-4.236722875038721e-06
-7.891686898446598e-06
-9.778935466472062e-06
-7.942360473872873e-06
-1.1256365733318288e-06
1.0202463375623884e-05
2.3077788586177396e-05
3.205320518392909e-05
3.0441845791944198e-05
1.2892943410959653e-05
-2.1195696943575408e-05
-6.462471072468648e-05
-0.00010141290230948685
-0.00010957586927683585
-6.847597377322651e-05
3.0225138280527528e-05
0.0001713179613003724
0.00030987204373105544
0.0003761264290532034
0.0002954550288654946
2.231768113983068e-05
-0.0004204163655220758
-0.00091303133125488
-0.0012417418286008865
-0.0011494211664360046
-0.0004370904448228409
0.0009044266575365769
0.002580128440141235
0.003960247005552139
0.004197307620935656
0.002519009376635566
-0.0013452956109621698
-0.006737488939793349
-0.011854446605342734
-0.01397542593185513
-0.010287242225947384
0.0007343317516642475
0.017710191543056458
0.03510930023706983
0.043092427554918426
0.029009450348028615
-0.019417078665696936
-0.10997620678716456
-0.04237453950621788
-0.00674900910570729
0.014825793161714828
0.044189312873259834
0.1017650650408227
0.0019017941977616576
-0.04974140769396128
-0.05645944828276658
-0.02912088384780435
0.01582860564074867
0.05844103956256782
0.07768492700141595
0.05488076087644897
-0.021592147245011666
-0.1512086477046179
-0.11796463922974589
-0.09136025246934282
-0.033228867309888756
0.09040842423357721
0.29599641420233147
0.17289765713182242
0.08258004721485918
-0.03136238901094458
-0.22467071904453656
-0.33171318072192124
-0.15064507802578073
-0.040810484627785075
0.06578024189879472
0.24261052206710107
0.34435973663405395
0.18916869493778754
-0.045984806085823116
-0.2154690294330049
-0.18517926765604378
-0.21082117152654742
-0.12239627796078568
0.080306810205686
0.2212355493868
0.1348594817645868
0.05239391914413609
-0.0073260152055233
-0.04004065439985201
-0.052186010426160744
-0.053773708716106136
-0.051345207471825645
-0.043652947961004586
-0.021433359587789046
0.02886078070673786
0.11887869949841236
0.052155508697055854
0.020336383608570447
0.0033944502928825674
-0.026148088512099658
-0.09645555413168784
-0.0293434236929254
-0.035167492758358246
0.08903031497682741
-0.04198727717193228
-0.005643691509997497
0.023261409316828355
0.06739685268543338
-0.057178656956128324
0.05674695097729379
0.00748177754976237
-0.013614078952919691
-0.01877178137612738
-0.020004848314276347
-0.025944400200101424
-0.04026651027050929
-0.06219983633305397
0.11110425970195699
0.08137550553624727
0.04681894569094981
0.0019468432774102666
-0.059993038003780856
-0.14311007650724444
-0.045551511803799856
0.041388495359168
0.13123838006748711
0.03854027980943203
-0.024781303603236497
-0.05141919387346097
-0.03884449567314118
0.01163765069623125
0.09612871345658658
0.009347963205412249
-0.05420243565903916
-0.09940239812852023
-0.13078196109133183
0.04543623821369848
0.21798804310053882
0.1680066098203591
0.07008925169982318
-0.10141218036444322
-0.1622246951322025
-0.30838707854734665
-0.1121332869620679
0.07321387752232586
0.3000826310263109
0.21024289871482374
0.222152234817673
-0.07257932814826006
-0.30276944322641325
-0.3054273846960691
-0.11446169273452354
0.04423250734728405
0.350424700339158
0.38407104527117086
0.12313380485191512
-0.25095632827538467
-0.34127343416299644
-0.3232676003562167
-0.1407162822928487
0.08532588042002082
0.43611968784585564
0.3710079203715374
0.1093880719702935
-0.17375626724253204
-0.1377174179806319
-0.2566357749713161
-0.19924775297250674
-0.015209061186998206
0.2686701768590972
0.043747746432960824
0.11116842620818705
0.07494760967118734
-0.06033604783016674
-0.08702439056382834
0.010782591386153102
-0.13825571626143965
-0.09188235156606749
0.0011785347908737159
-0.008596983704882858
0.11569550091309655
0.18565127433821926
0.18140141221442962
0.054472569517256195
-0.059716892086644706
-0.22284642997418247
-0.27446910463740437
-0.21987886857106004
-0.030336887899997406
0.14372247137151145
0.35140200960634843
0.42082314466516146
0.14855139093607905
-0.09587869440196278
-0.3521862087489681
-0.44700211392553374
-0.3788481385150274
-0.11995583154080897
0.1628320483776331
0.4751381250674924
0.5645968828472491
0.7095235861105055
0.5385412621374519
-0.3183050537476402
-1.5613314229323005
-1.5630705902938917
-0.550183503854051
0.3573239605262394
1.6576988794793905
1.9636041600351823
0.7276413604077278
-0.5692377239610682
-1.161622448938256
-1.7018543662612555
-0.5628530577132547
0.821972079793079
0.9674855565313598
0.3039764327185396
-0.07571940769292561
-0.6712571561525633
-0.8255323240258986
-0.37242623279313397
1.3193463184152687
1.5169628740335317
1.3274869458872367
-1.05046587276863
-1.2322917864816196
-1.7394054289915355
-0.919677977530447
-0.12938427217028453
2.017175277504342
1.3547312059981031
0.4728747280487482
-0.3414886134714391
-0.7094124469933172
-0.5228260699133279
-0.2899208576680976
-0.0878016807056992
0.06282929130163882
0.19845519902938996
0.19556939494807263
0.34610013856030497
-0.06472355161625724
-0.1722064665637793
-0.13703461750196472
-0.1443564626412676
-0.0012308280847896527
0.2653741332268039
0.21081165962335702
-0.02229483883988795
-0.09477122948576128
-0.25856867514105714
-0.14543928595627842
0.03886734838515778
0.11259988309381515
0.10940022088812688
0.06691480877239694
0.01687692348466811
-0.020568283102568436
-0.03771644366307138
-0.0365137905831445
-0.024099534060727578
-0.00853582496555696
0.004097750628532111
0.01088646416466209
0.011826790117722134
0.008753775445119492
0.004088872181340086
-0.00013409287297923658
-0.002763131457996835
-0.0035648725360886277
-0.002960751569761181
-0.0016555185142693373
-0.0003136213929576285
0.0006331024421156498
0.0010346267617082296
0.0009660144384396911
0.0006213468988075822
0.00020949797960181612
-0.00011642716475311572
-0.00028634979436024444
-0.00030457584641144144
-0.00022113365101909094
-9.938124177689788e-05
8.646031269183897e-06
7.43031804595321e-05
9.267748917942876e-05
7.54044938391423e-05
4.09621985856279e-05
6.396188892277686e-06
-1.7469546689595925e-05
-2.7122863638760268e-05
-2.4773284268100834e-05
-1.5561669266545838e-05
-4.880601511922109e-06
3.3996066158719925e-06
7.578707295939506e-06
7.859722723032783e-06
5.586646556169912e-06
2.406322008990761e-06
-3.5631202899042386e-07
-1.993156974198251e-06
-2.4072333858543224e-06
-1.9185024202815963e-06
-1.010984620693211e-06
-1.215792267507745e-07
4.788891332702818e-07
7.091783211704317e-07
6.334053522226273e-07
3.877335463126256e-07
1.114797407867908e-07
-9.753480600415101e-08
-1.983903166417956e-07
-1.9915152625733987e-07
-1.3659880222197122e-07
-5.435653402675676e-08
1.3296877334213413e-08
4.9065363227700836e-08
5.246884022044009e-08
3.4630505812224835e-08
1.1174732326288764e-08
-4.2730680725093445e-09
-4.540994932298718e-09
9.221261959109287e-09
2.8263607443309752e-08
3.929610374722872e-08
2.942332367543525e-08
-7.923739031453213e-09
-6.758509035229096e-08
-1.299844922440655e-07
-1.6353994271314996e-07
-1.3375448835179083e-07
-1.8463700079988944e-08
1.7447741344076564e-07
3.9412332398765166e-07
5.46921044219788e-07
5.18290579959517e-07
2.1691509298737905e-07
-3.6684782177317746e-07
-1.1089495392951399e-06
-1.735313174424271e-06
-1.8699017275833189e-06
-1.1608788446034173e-06
5.319717778953466e-07
2.945354201560189e-06
5.308047017032991e-06
6.426188345105989e-06
5.026331340414708e-06
3.368264655863538e-07
-7.240647204218556e-06
-1.5648013030982313e-05
-2.122364026067673e-05
-1.957611566107725e-05
-7.32482478553172e-06
1.564732316398337e-05
4.424194554337812e-05
6.763054626671046e-05
7.126506809165207e-05
4.188849924421791e-05
-2.5182461901301947e-05
-0.00011877294695412832
-0.00020815254723657815
-0.0002468292459716291
-0.00018631316109915188
1.14606218196924e-06
0.0002968449018201315
0.0006178790464504987
0.0008207342250418341
0.0007368300127905512
0.0002410465079132698
-0.0006613921458800649
-0.001761837243081541
-0.0026329573146850506
-0.0027123663338928096
-0.0015012866834922991
0.001152953180022034
0.0047812587225830655
0.008163945056122793
0.009497716925663978
0.006948149651072249
-0.00046066182852597137
-0.011862360830299864
-0.023902516547944393
-0.030950482146601274
-0.026575015438753936
-0.006316888553145798
0.02880262115849655
0.06924435697943923
0.09599642849331609
0.08313901504416409
0.004386835800667872
-0.15762474476797428
-0.20236291326519942
-0.1067101851584273
-0.027659958244897125
0.0872544990509926
0.2849098252582807
0.1924844347745513
0.009908130719938428
-0.08813976610048
-0.1418183858295874
-0.19195010308554616
-0.06792671772380156
0.017911940065612583
0.0681664818422193
0.09253254602477216
0.09826029688708497
0.0831899192442082
0.03428905040986979
-0.0676302969092165
-0.038708355422855764
-0.081794248325909
-0.17921956494906352
-0.09195140437180617
0.033385122910279216
0.05082341117834492
0.19869276886182935
0.28629426174720063
0.08905111386137456
-0.045057241883409066
-0.1792865150655369
-0.3679625452902119
-0.2403573289819805
0.004734618759900234
0.19168107790023292
0.3518206113625171
0.30647702957709155
0.057487784336764255
-0.2104659891124181
-0.31764811361178846
-0.27416723160116563
-0.07017698870458457
0.12364289260394092
0.3460076561701114
0.2309499461416347
-0.003125470663731521
-0.1566030971269659
-0.2441053137770154
-0.08622112559967059
0.0976069632988762
0.09227052553832302
0.08659812803174023
0.0715865975133222
-0.16076450248556498
-0.21762436843279395
0.09452968900460151
0.1689713893805349
0.19763705763599748
-0.028230424780218217
-0.11447677175957734
-0.25859192040920553
-0.0456768947651546
-0.049109381037315505
0.16311558804238224
0.21861855941458894
0.13182934628810988
-0.09972361627026667
-0.09240882377440486
-0.0684100636253189
-0.04629666546632573
-0.03401002123005341
-0.026555491568467024
-0.00879454381414514
0.03788366690326313
0.12735390143336703
0.06185542671015402
0.028909830334662774
0.0032977292414855166
-0.04650208948115027
-0.14969889069177827
-0.12554742327237636
0.020567785728587185
0.09621489453112843
0.11732658815025926
0.10278480601766103
0.07109449137496766
-0.15955054681382524
-0.16890708853387593
-0.13292943195413215
-0.025532762428224814
0.1752658276849396
0.2789868563972388
0.07635042633184731
-0.061171353634025497
-0.17486375750268476
-0.10782744301438342
-0.09409170493122053
0.04824878979747246
0.11830181449791757
0.1290874343697316
-0.09790802826399621
-0.13829790836984207
0.030223036401473894
0.023307845937299843
0.04595810930705633
0.09021973427047943
0.13616548697890957
-0.04285808756541012
-0.07130885281018462
-0.16134729432284386
-0.10532852237623454
-0.07442756916321674
-0.02502238551853132
0.08844819026895138
0.29822611560842105
0.2112112438402356
0.005217359897359329
-0.1644548292661105
-0.1504295730411196
-0.19642983205406528
-0.12474871386748412
0.06764263765048216
0.2039068118305784
0.1163383005525797
0.03465236559846417
-0.022053160647780862
-0.04777877329623796
-0.047290569212193365
-0.031218715702469032
-0.010967674330842234
0.004936522924332254
0.012456940562814968
0.011838872559606839
0.006247013078075301
-3.091343283482596e-05
-0.003262907208310091
-0.001514595616918501
0.004693888103696687
0.01238862308148002
0.016846141031164066
0.012981312281508733
-0.002778009030289563
-0.030614114849351875
-0.06621396401591365
-0.10128215602652166
0.07387769875536516
0.0662166403910129
0.07588827502340266
0.09456772401670148
0.10790963405023433
-0.09770652880094462
-0.12618474762476975
-0.16442155418894608
-0.18129386047654844
-0.13617024660306823
0.0030171515303907288
0.23633392740772496
0.3111378009642135
0.5141446945010151
0.48473828950892917
0.052151999838960385
-0.7102763514299687
-1.230715078219425
-0.8069305752670188
-0.015403642668870484
0.43489433600517613
1.4204043773918136
1.523831571402353
0.1904385795532314
-0.8625460284024326
-0.9903828832256207
-1.3478207421614747
-0.6340836933314578
0.5202619406235764
1.1238539512162224
1.174357077186088
0.8197967395285026
-0.04340766693074875
-1.1310826013219841
-1.3092934182750042
-0.9423618884738888
-0.28077728224827536
0.6996874312160897
1.621422331831609
1.0237175855864642
0.31263544211433536
-0.43664650029638424
-1.0282229143357242
-1.0695019507598862
-0.30424846961959007
0.019558176290773565
0.539323691844222
0.7361226367050361
0.4841470099270129
0.013747596087987491
-0.09888724820840296
-0.31543484978299186
-0.3031320262307974
-0.30153056925762245
-0.10154282005421557
-0.043931356619228853
0.16317785544713778
0.21477438538184118
0.37828822525858397
0.2728001514852523
0.06566508100042649
-0.3122426068457646
-0.3385215129622994
-0.2692415714356913
-0.11810287002129506
0.14838777043914644
0.1995460432205435
0.11854437108100159
-0.022011575328921663
0.020235112323580124
0.0468301295053006
0.21866788456528236
0.0664872562073674
-0.09047647455146313
-0.32209971667865234
-0.26773983391860184
-0.1261148214430588
0.1413517232023215
0.19487789928782956
0.2944664284578127
0.08014402901119021
-0.038945882796664354
-0.08405156280336284
-0.09695262632101227
-0.12563409844662224
-0.010804069465849638
0.022961346358522667
-0.029998452759113305
0.04094733816071438
0.05664345869337123
0.04099617387567547
0.01487549594180739
-0.007549785351102704
-0.019687616039425274
-0.021173117739090988
-0.01536292276999029
-0.006757468791807183
0.0008962158038968296
0.005524964391650872
0.006769470118855789
0.005467062780293335
0.002948857269325464
0.0004408966042646577
-0.001281449263380385
-0.0019709980792245434
-0.001792603828736621
-0.0011208465033589502
-0.00034642192413209677
0.00025150212782222017
0.0005513332259234955
0.0005690827547179844
0.0004028331420586293
0.00017201284801113433
-2.7681769000374387e-05
-0.00014540895055570395
-0.00017456020113993748
-0.00013857459479605443
-7.259387382712478e-05
-8.206309822242427e-06
3.509778461572971e-05
5.155953833481538e-05
4.590309000601155e-05
2.8011645823782053e-05
7.951051027640427e-06
-7.234471878820992e-06
-1.4606029557723785e-05
-1.4734733661622634e-05
-1.0231095126171272e-05
-4.181198289804527e-06
9.86547908757337e-07
4.008042726673044e-06
4.737031607191197e-06
3.767288821294432e-06
1.9693892664424353e-06
1.248095937903582e-07
-1.2600057806301877e-06
-1.9697307515956753e-06
-1.9947081752139976e-06
-1.4275960384480177e-06
-4.047242998854936e-07
8.873907507360531e-07
2.1651779632513014e-06
3.017172719568847e-06
2.9510257970035373e-06
1.5537863041089102e-06
-1.253683578504064e-06
-4.95518224079061e-06
-8.31305534569661e-06
-9.531414721988988e-06
-6.80234409917575e-06
8.119948392378121e-07
1.2405270587943105e-05
2.45929337045934e-05
3.173251475243388e-05
2.738808316867466e-05
7.039775149303398e-06
-2.857519373761883e-05
-7.077157154632623e-05
-0.00010258009332843864
-0.00010229990740408487
-5.144598322031819e-05
5.427429218599239e-05
0.00019460694479164837
0.0003204840497801917
0.0003614793917457034
0.00024811726738789265
-5.33386726454514e-05
-0.0005035173692812015
-0.0009669111796914658
-0.0012228555181326825
-0.001024840936420331
-0.00020696978161391946
0.0011875650063900229
0.0028065554491063733
0.003983298927264036
0.003883195568259337
0.0018186037380046223
-0.002325376945072146
-0.007699557130559211
-0.012346877116704267
-0.013522038974222522
-0.008589626895636379
0.003597674395252084
0.021223612462192256
0.038572200203757165
0.046344105681014935
0.03369553383529519
-0.008157200669614966
-0.0818308933400268
-0.18107981849053903
-0.09166298949414678
0.0029981403347373713
0.11230586002151713
0.2286708231901341
0.3226161755440199
0.14743044906767575
-0.14533138669127663
-0.3834309448476114
-0.553394430367457
-0.1921217211049252
0.0027050232923976607
0.5447058042479878
0.5231920958881467
0.3741731270798773
-0.1300366086003384
-0.2688924263354765
-0.545565151720402
-0.25529851307700674
0.13745187917336832
0.20660281191313462
0.15795894218160061
0.015067042034078116
0.0045761497512881565
-0.05416749155022884
0.04639807829839453
0.10322566622080963
0.10840666706432271
-0.1421603462581048
-0.2398332007023082
-0.15771501774222055
-0.05204410707039319
0.12837585002011628
0.22727746467376014
0.2662056592650107
0.03616964717270854
-0.10060767323039814
-0.1994762334519934
-0.1172745539363406
-0.09752375470513341
0.03829440971701177
0.09169120028206253
0.0818042773649071
0.03694085368310909
-0.013732664827303733
-0.046379169588091906
-0.04611040554801692
-0.008521968768714307
0.06033789303784326
0.1455973331054912
0.02724529646489261
-0.11404509637570207
-0.09011082996454811
-0.09996307179448227
-0.12859652029465338
0.04871365316243016
0.25767720923705806
0.11516893600198468
0.022560391502660145
-0.03484857474180329
-0.08220693970757594
-0.14596583936010402
-0.04512273361768089
0.013835063085943245
0.03686533890399777
0.037912360692907314
0.032242014188388325
0.030121274653487334
0.032878074550541495
0.032440585757390304
0.014416521456823138
-0.03623476700065703
-0.12875828308936604
-0.06169931944353864
-0.02158659459136072
0.013945738266739305
0.06951259751520104
0.16427647203113915
0.10624114133741892
-0.1091791763794928
-0.0959760406892817
-0.07159567137427683
-0.05121654866121455
-0.04471053169752918
0.14301324570745333
0.1094825358816398
0.052225892195229905
-0.03162257703009655
-0.14329193799233184
-0.07936363214594155
-0.0300895440699577
0.019347323217484
0.08480061170073318
0.17829489677721752
0.10498190459645383
-0.13625996377125613
-0.14888365867000564
-0.13394954166990172
-0.0880338114481391
-0.0058460514473435855
0.3132619553180469
0.2585512955685833
0.00560102350617382
-0.07863086530426878
-0.2244223845330224
-0.24642511921293192
-0.13550195873300105
0.14052787661559196
0.22723027841816335
0.1691248071914267
-0.003563970961144124
-0.0823613673472144
-0.08087434835643653
-0.02965049242023034
0.03160665048948248
0.06217262406576924
0.027617803092474528
-0.09422836768331076
-0.10932313027469512
-0.006446362496416653
0.040087186027748314
0.06447164440795537
0.10191508541743037
-0.018181757183270742
-0.07676944031826276
-0.06707059379155404
0.005473612473327205
0.12451473211808943
0.06533564527159892
-0.0008786577670037981
-0.10092189396398726
-0.05263629189618435
-0.059169146975429604
0.09364135536594236
0.035815021958157556
0.007908982269274901
-0.14751784337504806
-0.19722518026273092
-0.13098862573984443
0.22397073481105712
0.3920425423700273
0.44834082435071104
0.2340622256529862
-0.21042200381772314
-0.6011975654140738
-0.7690731617343031
-0.23676752791040934
0.17399170466615504
0.5057876654987745
0.41138446662233713
0.5005195315452355
-0.09601260706372221
-0.3370272323496134
-0.2585603788277862
0.05235658962283653
-0.112857165408268
0.14081565833216175
0.1295718687599132
-0.19972483192712068
-0.2680133005675555
-0.07057835402690467
0.008871766430668613
0.3796389561575681
0.4271980597121752
0.10551392144586515
-0.05675860358160621
-0.3375297727076805
-0.5977334288605483
-0.2637512824259002
0.27598475333572325
0.4592353953906019
0.330027965502534
0.12135617846213843
-0.15128754111724174
-0.2842327633543705
-0.27318006074920465
-0.10221834107865747
0.059303906368720946
0.2505506653331968
0.10707089236841195
0.048745286387161205
0.07305509646063561
-0.04398973488240998
-0.14020266454498215
-0.05608780533918452
-0.024207998306974596
-0.062269910702681314
0.028599676718469233
0.0607986614988965
0.05421730406305904
0.029612402783011176
0.0034720122068111186
-0.01450708621066337
-0.021336959606345077
-0.01887591974038825
-0.011303965870597272
-0.00289125728583676
0.0033967034211319514
0.0063539273065470565
0.00626460338368749
0.004265292944044489
0.001675242218625002
-0.00048386543218862234
-0.0016984178083092008
-0.0019371724962752536
-0.0014842584646361245
-0.0007349710728352945
-3.178677598213858e-05
0.0004229857114009422
0.0005787954093046484
0.0004968733088675915
0.0002900864839061561
6.878126419269497e-05
-9.269796266813489e-05
-0.00016596776572252108
-0.00016057580605120217
-0.00010709250669122463
-3.9857296420984405e-05
1.5113645608725122e-05
4.5183153120154276e-05
5.0120096146514356e-05
3.761520617213786e-05
1.7973519890426146e-05
-5.9126745383719185e-08
-1.1450639745802996e-05
-1.508788967418253e-05
-1.2684530962710618e-05
-7.2084735498336695e-06
-1.4957742446496625e-06
2.585292991132462e-06
4.3613830608971504e-06
4.125194754239545e-06
2.6894093818618828e-06
9.423067190614886e-07
-4.56987540034215e-07
-1.1998744848297794e-06
-1.2957760642305994e-06
-9.524003581944739e-07
-4.381501259455123e-07
2.386278319490354e-08
3.087557689952207e-07
3.927412498718838e-07
3.234159556039761e-07
1.7870237150047006e-07
3.1413057631364025e-08
-7.15774767659706e-08
-1.1442339424317918e-07
-1.0585303568538172e-07
-6.742205985695108e-08
-2.208086605515892e-08
1.3494156551477031e-08
3.179654947999138e-08
3.3462729254364745e-08
2.408297448799631e-08
1.0638873860157064e-08
-1.1846845159954958e-09
-8.295977572433473e-09
-1.0208156026631883e-08
-8.234387244517261e-09
-4.417300063996548e-09
-6.241384172665672e-10
1.9710806122283073e-09
2.9990597626358573e-09
2.714835473016139e-09
1.6889575047522527e-09
5.137012520133815e-10
-3.89597729597026e-10
-8.391472637628687e-10
-8.614109740224866e-10
-6.063719783340596e-10
-2.554004303917039e-10
4.682953485026786e-11
2.2397584155235255e-10
2.667381539142288e-10
2.1113612637916484e-10
1.1063328752247032e-10
1.3059297625692146e-11
-5.223545118787288e-11
-7.674531327340414e-11
-6.780619874367166e-11
-4.049006175193123e-11
-1.0063934058444076e-11
1.2842367113267273e-11
2.3847816672425233e-11
2.3891357454467497e-11
1.6985296189034083e-11
7.835437167590568e-12
1.1899836474363882e-13
-4.284278535734419e-12
-5.2181359597063335e-12
-3.6655566627531565e-12
-1.0238459978245782e-12
1.4832479496056711e-12
3.123389199813303e-12
3.703538207706522e-12
3.4320838292915066e-12
2.7064333120404237e-12
1.9196715134441553e-12
1.3395745191647443e-12
1.0711313189751735e-12
1.0835909623493853e-12
1.2699034990718247e-12
1.5081225314501342e-12
1.704902081210238e-12
1.8141004084095078e-12
1.8338318906502107e-12
1.7908014528147002e-12
1.7214770952889392e-12
1.6571326476437649e-12
1.6160034128493e-12
1.6023884823422206e-12
1.6104284001521965e-12
1.6296631302643835e-12
1.6499833757173778e-12
1.66465410094023e-12
1.6711754513466569e-12
1.6705068537161553e-12
1.6654973827415803e-12
1.6593033529084496e-12
1.6542912623309312e-12
1.651589927534241e-12
1.6511930422662291e-12
1.652378030506269e-12
1.6541944220920762e-12
1.6558439300981316e-12
1.6568734859461493e-12
1.6571897323744424e-12
1.6569560265932035e-12
1.656447220103903e-12
1.6559230055088454e-12
1.6555525050488875e-12
1.6553947969732892e-12
1.655420908316076e-12
1.6555551871732527e-12
1.655716036224068e-12
1.6558435403533932e-12
1.6559101866830566e-12
1.6559175437451557e-12
1.655885091974827e-12
1.6558375709545546e-12
1.6557953335638633e-12
1.6557696104912453e-12
1.6557623583324794e-12
1.6557690552642889e-12
1.6557824900483844e-12
1.6557959981518077e-12
1.6558053390771197e-12
1.6558091286711276e-12
1.6558082223641478e-12
1.655804626845717e-12
1.6558004524369267e-12
