0
1.2464929053561041e-06
7.802559671328929e-07
-3.40743601567271e-07
-1.9441010381109146e-06
-3.5196276489823753e-06
-4.274720958643845e-06
-3.3610521375023945e-06
-2.6029281733113124e-07
4.768900614075145e-06
1.0367371616222516e-05
1.4106516540455611e-05
1.3064405130029024e-05
4.9794197322918055e-06
-1.0251911659083274e-05
-2.927126742742501e-05
-4.49042420425389e-05
-4.748105055378826e-05
-2.8153578736362998e-05
1.6267184292807562e-05
7.84548302701962e-05
0.00013807465372981469
0.0001642545568938159
0.0001246831530824471
6.979624714763759e-07
-0.00019559525690842486
-0.00040942992983167677
-0.0005456076638665094
-0.0004919472309721552
-0.00016471461430239391
0.00043359558426242164
0.0011654334744910875
0.0017475822738591794
0.0018061745006181255
0.001008322082417522
-0.0007500230396352957
-0.0031598826775847922
-0.005411565913343426
-0.006302561767139143
-0.0046011067299870576
0.00036574829412073124
0.008059652674717593
0.01629889743109553
0.021388106244717865
0.019071134715137928
0.006311431490924971
-0.016508945093869295
-0.04384042745832934
-0.06485016064511047
-0.06606150537683746
-0.03726011761840493
0.019990071025892415
0.08335427267765617
0.10367861985832001
0.20580441617408443
0.2993658251680824
0.10028431657874178
-0.2403753108765238
-0.5084678840416199
-0.8117665738228619
-0.3894021149004881
0.14961581593906534
0.7663329024771912
1.1303598707031524
0.9831537104158586
0.14677514981487852
-0.6180054365967678
-1.122170808594026
-1.4621585926810954
-0.9745232336872468
-0.055697022853199184
0.9549382880892342
1.6586784342777203
1.896158269992628
0.9085159503798677
-0.013442084234146676
-1.4024630644956337
-2.656566551697642
-2.3152726450958254
-0.629542481235813
0.5494958744371672
2.187206868256222
3.0549702888383767
2.9774257750327635
-0.19601019835784697
-2.077980991631035
-3.1313618912212022
-2.2449858800837794
-1.5872419143897323
1.2089240488603938
2.334750379361445
2.425861890428052
1.1949619038079433
0.143866343641444
-0.6199375844096967
-2.0846490483161486
-2.408734044926618
-0.8304466827498124
0.3471858939718473
1.6949325469398964
2.5583786534564683
2.3809737556401536
0.2988740002364945
-1.3804704441778224
-3.853906200886267
-4.327818023418042
-2.63064552604271
1.032939577022054
8.428386391539362
5.854595128816331
3.465643063884803
-1.161599132877823
-8.643567257305138
-9.539703578542774
-2.038641992670217
2.6683663056486533
4.310621868189578
8.684067389443973
2.4190190713702875
-1.2612869818405033
-4.527570395178301
-2.732215207479207
-1.7246094660683284
-0.21885400421098203
0.9170955468640326
2.2495166449413446
1.0895672202238773
-1.2152539108303475
-0.9658670994763544
0.8447498954419629
3.7290168644663537
-4.061870616486499
0.3220535078355234
0.9968115359009103
-1.807767225938448
-4.142500936751339
5.0164281401402
2.2855625427631616
-1.211381366646625
-0.8953663677145983
-0.3331529707002891
0.20250978714445397
-0.0074711731310695235
0.5352008185504358
0.006818475953380564
-0.08528231077026818
-0.664390480291224
-0.8718052117021157
-0.09107542364324363
0.18630645247109287
-0.1388141228487926
0.11296795789669524
1.099934209954438
1.7037937109033607
1.7432632396934187
-0.7342142250362602
-2.500420782438794
-2.381331072449045
-1.5410119804414752
-0.6618556706115014
2.7726494949088623
4.934770967560057
1.1202610842695249
-2.311726977779829
-2.712286687399889
-2.670514772646006
-1.7603997182122764
3.050133925753007
5.736480392523695
-0.44624179578041184
-1.5698373730130522
-1.163593462743592
-0.5018128191987555
-5.909736795001903
2.2601482707362868
3.5672963497348054
2.370713777000399
-1.0718774852935085
1.3621876410048614
-1.090204144942624
-2.1729136679194268
-1.9014446415588528
-0.500810415554377
1.9814972325944655
1.3946455000844045
0.7722441599147688
-0.7679373994703454
-1.0853605122033219
-0.43583445076266175
1.1418531674210748
1.2643286164409497
0.6677655473271534
-0.50139340476546
-1.581158301378771
-1.903529521598024
-0.9552317334838943
0.7866837365830649
1.549802713359845
1.7279420968015122
0.5602512881681333
-0.3305498058156349
-0.9262314452839406
-0.34199099068433075
-0.12791290888948995
-0.17548805960789302
-0.25220343628120107
-0.3756204040785477
-0.42886287909962817
-0.011381351290938794
0.8894606547695006
1.428193509901027
0.6575518211628831
-0.27071558075898633
-0.8601454050687275
-1.1993020612101573
-1.0997737543064985
-0.07204740153166882
0.8487931584929502
1.039053091218267
0.8131048741496105
0.17275601976736435
-0.2006556199775726
-0.5108427608321756
-0.5841961484210909
-0.4046327287868882
-0.06726568484228367
0.03733615602062693
0.20857684171817795
0.4008454405125941
0.38254080010187425
0.10249450566344455
-0.128392190628995
-0.4402664748928182
-0.39881469632682426
-0.20005617882212515
0.3288859137734122
0.9243264088065114
-0.31664116432235145
0.2724192981174291
0.3502272492913325
-0.999890479882502
-1.0398488213898012
0.6379292603872315
0.10171285799459102
-0.1495438579695341
0.7747201543881236
0.5244192886575895
0.49629596704402756
-0.9540296501772233
-0.6814847811996866
-0.11754588652918489
-0.049311613751977075
-0.22064703281608286
0.8469230709277248
0.4246331633056945
-0.04805403766956915
-0.17302383557906936
-0.18627484907656136
-0.13963159479571416
-0.08041887575405492
-0.03669889324235578
-0.011919577952583478
0.010981806904245333
0.05875078466144596
0.1545324973151837
0.10675523211153577
0.10394974327104181
-0.08276525532979202
-0.09058603797870551
-0.15291322059331894
-0.08901544530579107
-0.09952807672196881
0.03049752660492426
0.12232970701327822
0.19207580829226054
0.24224198350493897
0.060723052291864636
-0.17142814093162353
-0.26631270793144773
-0.21586065620235959
-0.18580059974665092
0.07894184163376197
0.2383554255364731
0.3368776871928759
0.18673583180816034
-0.03789031257723548
-0.19352702682544046
-0.15013779470457567
-0.17092203268088402
-0.0965143698698526
0.06174234436566695
0.1187819662093635
0.10593336737090793
0.05883987454137287
0.00749567314526695
-0.02916860723016986
-0.043964951412831736
-0.03881877916265553
-0.020830330706641805
0.0013127906630721374
0.01973758560646164
0.028615076352572974
0.024752978650404423
0.008140814393517718
-0.01731872087734855
-0.043201434088609256
-0.05681373316157751
-0.04307226474798827
0.011738267590297667
0.11503723256203946
0.06353851171427886
0.041433774358818884
0.022618113907558454
-0.02306851524543395
-0.12128328666017231
-0.08515989532694102
-0.11082030535968361
0.021655269493944102
0.14190039674209406
0.07985823888150927
0.05685033926791717
0.08033840925999301
-0.05612641663392499
-0.16850678513419326
-0.07591270283789217
0.00479244032739153
0.061529651721257565
0.08675154889776143
0.07606228443358008
0.027682983121854358
-0.05628299328486803
-0.16748202274127397
-0.08982998087895751
-0.0009801848563247692
0.12260179381470353
0.09845727197230238
0.13191956688311052
0.013877393034788748
-0.07619265302167172
-0.1630992761866598
-0.06779747638381409
-0.0016571301391053476
0.03480289948993885
0.04885063920809061
0.05007709236419845
0.04512271520373065
0.03473755001659473
0.014203180649678206
-0.023187563090729772
-0.08110020395104232
-0.15584578847202926
-0.03502922027377071
0.09965728182803553
0.06618737574581028
0.07499576367406337
0.12398936343826804
-0.0018931234112101623
-0.1261583134027114
-0.07298354254246589
-0.05929511509056105
-0.0897874715661477
0.04342263581243793
0.15686135686203342
0.06959441262235105
-0.0022765478771148663
-0.04853319795448654
-0.06489640998794366
-0.051435079276845326
-0.01097033554122655
0.051551796050585436
0.1288961661938979
0.01158820777640896
-0.11089417239505366
-0.04780164166455878
-0.0047114916875059904
0.017693978499688734
0.023119367716568
0.017827335483989064
0.008407425307406366
-1.6293830335723452e-05
-0.00469673196614327
-0.005272278775724118
-0.00312261409296452
-0.0004135037535574854
0.0008667081712767522
-0.00033345280087254285
-0.0037057746629402797
-0.007580662256252982
-0.009395115597375147
-0.006614565280414541
0.0020313170279030526
0.015315207990968678
0.028765199119111903
0.034941056907926635
0.025094979899751017
-0.007881469309553578
-0.06599290787073715
-0.14354896211430354
-0.0269836270368127
0.10209205986222637
0.061267743929389454
0.06127518311006866
0.10209730095671178
-0.0270228564196052
-0.14367593301082757
-0.06622026803607463
-0.008164250033670136
0.024867707414117136
0.03492403287278966
0.029100393202722324
0.0160505012370435
0.00304074474102889
-0.00566916825789088
-0.00901899047109119
-0.008292212122305222
-0.005787249047695199
-0.0035541229635785597
-0.0025658263565142957
-0.002488532001277942
-0.0020337951901117255
0.0002622724075569327
0.00508789874992994
0.011553036068451442
0.016870726813568385
0.016787027734077285
0.006831284766080399
-0.01585645916954134
-0.05072740159870542
-0.09290076894255406
0.0661629172336112
0.03629000423743787
0.02530701931977821
0.036213709751779205
0.06606800910695575
-0.09292131835820507
-0.05058572778979959
-0.015518606018995686
0.007303525655005306
0.01722076595824584
0.017011677388116188
0.011149254093298257
0.004017037113202401
-0.001334311208406316
-0.0036708372543119297
-0.0033801535267805154
-0.001841992518145148
-0.0006440897641777424
-0.0008783211602747384
-0.0026815658697845303
-0.00512180211882961
-0.0064746255897649525
-0.004869530515799177
0.0008115150021898324
0.010027711122907141
0.020030608406836282
0.026082456027361985
0.022737928206095843
0.006163176031165767
-0.023038763852057744
-0.057577971180477285
-0.083238906597746
-0.08195898862690405
-0.038704232379256416
0.04888850781811796
0.16096490413088904
0.2502866398580753
0.245806602390198
0.0673234718324486
-0.35057948140660544
-0.4320662406756732
-0.3410648181897119
0.4211130642644763
-0.6022637529658372
0.34153963471428933
0.5717165982092133
0.335149522608205
-0.6166443937871181
0.5721714429761225
0.08480540638874927
-0.12641549031572077
-0.0876389285926301
-0.1509619397730559
-0.5539019470116225
-0.4021537525819191
-0.08268077725997712
0.09334053766121798
0.4274302983203363
0.7679843372887608
0.6617612910344094
0.33810301345012395
-0.6701934369759576
-1.2802327342523494
-0.6088269048961424
-0.14188273254392555
0.4649605882692642
1.1607634245568283
0.6693533813511248
0.4781443397368172
0.05835399631473385
-1.488996155120551
-1.5840632526759273
-0.5457936581968136
-0.6166934910324552
1.3681395850779812
5.6978680711572895
-2.8661530749285244
-0.07650322460976504
0.48137696773439637
-1.4975507661348884
-5.345259655138278
2.8049379495643545
1.1570158679113545
-0.0776464853557292
1.7717904688946973
2.1277870804039054
0.13755461664303034
-2.063220577853659
-0.6206023528279577
-2.016092615774643
-1.1568636857684178
1.6644878056662058
1.5408282997395575
0.8814204418846819
-0.2571993116791979
-0.012567967860960242
-1.325970559973531
0.26380056347336783
-0.7793865618420084
-0.21069509771351014
-0.6510455151984023
1.7516527721144888
0.06887290804791536
1.173431711962191
4.580607161010661
-4.445809811283968
-3.746177116542612
0.4711354679910636
0.29575315872586555
-3.3207889226374023
4.909595504110903
2.6467446809218913
-0.4176814930354055
-0.8243404835629249
-0.7203060039049627
-0.5682897226847433
-0.4358836455848894
-0.7058115030086983
-0.23176697706774724
0.254175605933541
0.8930653834690968
0.8316832338185363
-0.038156932360401
-0.5146678334702033
-0.28964121985049646
-0.12627654168737287
0.5787879498967335
1.0419939189891667
-0.25616049181014056
-0.9222220844446376
-1.6173690094906712
-1.2614316303376858
0.31308565461187293
2.664029582580898
1.4318423229512023
0.665800411854538
-0.3824764880172468
-1.195953905744351
-2.089726022326609
-0.7155371560982461
0.3876346753116258
0.9833575708398917
0.6838638618858011
0.8867914063227231
0.936727449393055
-0.6694886426836583
-1.036545752125727
-0.6056342686446292
-0.5015137481160641
-0.7172526127971036
0.6538180370307096
0.7484001948696968
0.8498326918734415
0.11999605631070893
0.5689386812350922
-0.13022183849234115
-0.9902249132595909
-1.0440337766289214
-0.29039520539706626
-0.2696827046227676
0.9266250495658342
1.8271289220322169
0.35673962698696154
-0.9617034603294792
-0.5770170580292712
-0.6665127897407389
-0.5054498552219086
0.13099543943915382
0.32810011904378455
-0.03552583962843773
0.23752217538889633
1.2044038193963742
0.958242390640788
-0.5492386602760511
-0.44160940675440324
-0.8276736908267985
-1.5181471009248704
-0.5785432291419034
1.6667689515823279
0.9862460944518132
0.37362203999917903
-0.8101560656184256
-0.26842622455506987
0.227246347031369
0.8527685245628623
-0.24136490916045317
-0.29855054799524244
-1.1296027576564136
-0.9041306826599058
-0.5698506091012617
1.9025310837100362
1.869241434274229
1.7907071213292054
-0.5372494048418857
-2.498359733779415
-2.5513383966675116
-0.7595806693582722
0.4019330712279872
1.7565017037747808
2.287590693802777
0.6100969779204363
-0.6991367595562775
-1.0914743526665571
-0.17036519584298518
1.419009031559603
-1.698651761569132
-0.5411174820980326
-0.12296471950113212
-0.26280411086570443
-1.2430319094595343
2.292871956723858
1.2335499773348442
0.31746928187477347
-0.297593997289978
-0.4055290515247442
-0.47835230083092
-0.5772071309052486
-0.47786936792953943
-0.23190565630060414
0.028819651694715582
0.4506536402993587
0.7972853338350258
0.5923433572454498
0.08545694587537113
-0.3486378577640631
-0.5822425187940347
-0.49339302150491726
0.27040708794234386
-0.4899784753028389
0.2701364110307376
0.4172860732909128
0.21086990435255562
-0.32120190684522404
1.0066434781076714
-0.45612764413997947
-0.3752627620556443
-0.2039363269159765
-0.1588367369867292
-0.4095469772379611
0.5149033525406961
0.30542669552576174
0.04650113791050816
-0.006561302184772892
-0.0403935286604488
-0.08497133474839634
-0.005824477800815751
0.10952425141738444
-0.032148748768669556
-0.11312097033017456
0.21012045778934713
-0.28236899820790623
-0.1696352905671683
0.0063606622797737255
0.12848217540730042
-0.11411902770149233
0.35376186175225316
0.17706519155416586
-0.03724053438971681
-0.11730867965392708
-0.11474583229371031
-0.08880324482409062
-0.09183323135723005
0.04010388514692274
0.09020630038854621
0.05859068048324328
-0.04294350314355437
0.0033042500649059963
0.016052122801168172
0.011591241937949798
0.0018527824676090841
-0.006121337427595724
-0.009574862499757076
-0.008740952744444511
-0.0053588165303165665
-0.0014225851752136176
0.0016047577499803253
0.0030804569126278054
0.003089572890643179
0.0021516873752945474
0.0008973680556141651
-0.0001714031243538619
-0.0007922535183118296
-0.0009373891567241772
-0.0007368115937570875
-0.0003802218948531618
-3.6147027069391126e-05
0.0001927360747987816
0.0002773910014159822
0.000244415367896688
0.00014731117052529732
3.992136793695735e-05
-4.048303597249606e-05
-7.873703767791469e-05
-7.83905060570245e-05
-5.3727171967963994e-05
-2.136798392261404e-05
5.770356226878373e-06
2.1142851928904692e-05
2.4277084689114416e-05
1.8690325073852845e-05
9.327507691085472e-06
4.949546288177165e-07
-5.247898849759813e-06
-7.245024914356903e-06
-6.249308997537653e-06
-3.6703359994173523e-06
-8.936741951862977e-07
1.142332211642753e-06
2.0748701148400687e-06
2.018372040056791e-06
1.3535260408788675e-06
5.107908323244222e-07
-1.8204028099390083e-07
-5.642147267767572e-07
-6.306319881138334e-07
-4.7613041337019345e-07
-2.2918623149593807e-07
3.34038243858841e-10
1.482080550571337e-07
1.9857236811029986e-07
1.70580948472292e-07
9.933646250456238e-08
1.942948969581849e-08
-4.457253213331391e-08
-8.037674061128981e-08
-8.540035610469583e-08
-6.279617807065173e-08
-1.8815790469079243e-08
3.741442930070326e-08
9.253271455738395e-08
1.282039642147584e-07
1.2349427050175686e-07
6.177106345249499e-08
-5.8735401555872904e-08
-2.1440007707101636e-07
-3.5165810007482885e-07
-3.947655140790616e-07
-2.6950696024533046e-07
5.953232283324815e-08
5.487706921565149e-07
1.0508429594053563e-06
1.3265802012740486e-06
1.1093168685572531e-06
2.202430852389742e-07
-1.2924463788879963e-06
-3.0454311642719574e-06
-4.3145293875605485e-06
-4.193645477757817e-06
-1.9356756825310393e-06
2.5870228168636947e-06
8.46014481016283e-06
1.3573206834660156e-05
1.4965301289030018e-05
9.790655252965984e-06
-3.2120965178329037e-06
-2.2178641900966757e-05
-4.122350774875576e-05
-5.100651230038134e-05
-4.133055123836861e-05
-5.669529782658455e-06
5.348469278141498e-05
0.00012061604166552908
0.00016727118463125097
0.00015857268790192244
6.667852860972777e-05
-0.00011141326255500791
-0.0003379672657270457
-0.0005294622691840194
-0.0005711769364066767
-0.000355617933512355
0.00016030822230881321
0.0008966747688336882
0.00161851311849855
0.0019616083621208304
0.0015369570912716142
0.00010806747204358074
-0.0022039893646036922
-0.00477270318116147
-0.006481439447347541
-0.005989017069491788
-0.002259725256527415
0.004750307578701025
0.013498535845338047
0.020700508770043945
0.021946349550308077
0.013234996544031498
-0.006796456645312313
-0.03464607723556216
-0.060833499221244196
-0.07112653876351378
-0.05093706520072225
0.007283271572764357
0.09524753006582087
0.1816173625489157
0.20994154591208042
0.10441165448595734
-0.2165966594945605
-0.42299193512363814
-0.35816922185037575
-0.03342847679767339
0.3663196020860746
0.6702401760221665
0.5122425003028376
-0.06670551632970866
-0.8034897256036307
-0.7941485023104073
-0.486922066587672
0.10073204727725062
0.7409255205436094
1.1439893703011381
0.5191261035771105
-0.23433744078192476
-0.900478048721568
-0.6971510916749754
-0.4248599980255014
0.16702130110971683
0.790303808152888
1.2118698873784042
0.44561806376016694
-2.0483557818797036
-1.3616901529020315
-0.1478635667823455
0.9443129638022244
2.221066889162192
1.1037863742554714
-0.67323644529469
-1.0185324618045277
-1.4116543960003378
-1.6410337850020573
0.4144225784093652
1.5482160348018694
0.9504861273550355
0.9292910473899292
-0.3364976612153153
-0.7966417915408679
-0.48839283916047654
-0.2764809428046388
-0.39682932105604407
0.3830178886842817
1.9863604190366722
-0.15942890995208084
-1.312384553419328
-1.212445118688318
-0.7005294384393548
0.22492520692266668
0.9148944497769609
0.7623922622734328
0.5164487751195761
1.0518972233873942
2.2152903879500725
-2.8547612104382907
-0.35979173501988376
-1.0745042983695283
-1.8357404206140393
-2.928942839885272
3.416859708133901
1.0533928194603441
2.7190062401265807
4.300296947832044
-4.398642339195921
-2.377467217903701
-0.10139432036863243
-1.3775229208859985
-3.3035293395286556
3.895180574657522
2.3687929558200014
1.747465658555082
2.7115117580175574
-3.338407181698614
-1.9297258227731833
-1.9505649855562803
-1.947292573025952
-2.344195037334552
4.208292465418455
3.406530126277888
2.0757467339982436
0.4490023183635408
-1.0117731929986291
-3.470610249765311
-1.5159248045354246
1.6160674308595349
-3.0657090973543286
0.684503971162603
3.66057315864976
2.0807184598634447
-5.120541906116085
2.249779042776217
1.2436579707501383
1.8222974623547081
-3.6568705953960086
1.0642469844089926
-0.7651702282661469
-1.8646369203896187
-2.957872064763792
2.9131553931945926
2.822857398792013
1.8012046101306862
0.14218003909241148
-0.37740097779842363
-0.9727188261628651
-1.0642794133137334
-1.2934852448368315
-1.399398982814911
-0.39385948351481515
0.359071422609573
1.1863462913242686
1.9248238059414797
2.3787899535684076
0.4676162591608624
-0.9168451644938093
-2.166198890727188
-2.1839947185368227
-1.4582552548045842
-0.03102608140962552
1.0232222221076335
1.4440566985213208
2.421308156817466
3.2912810931436627
-1.8595100094826835
-1.8795928570508034
-1.3721304756536237
-2.124606637263978
-2.8207553672638515
2.1278345319682948
2.2431106570236152
2.3933069498068
3.0362353418667545
-2.4442339033846148
-1.8926168049469134
-1.2626312434226008
-0.8874958384332815
-1.3948968085227214
3.311281174828595
1.817206161041318
-0.2503745625492843
-1.8570358677675807
-1.3689758744211697
-0.1520545260635955
1.0203117711923038
1.9495288027750517
0.8025540334590394
-0.26826068166259304
-1.2725559408876905
-1.718026246379239
-1.5721745759299817
0.3185462675025195
1.1455493678419062
1.816380682716946
0.8420372882417897
0.6811691764423286
1.56771708915285
-3.18394664607512
-2.0331459129686507
0.11982862297345627
0.0052862321615320855
-1.2262567379340767
2.9163727973139637
1.15281979968702
-0.47063419063828577
-0.4407224063435934
-0.18546188084686602
-0.24288780194963946
-0.21097542544920803
0.3031858507482817
-0.47610930421071934
-0.06793278340389196
0.2746024784178419
0.16023988593591235
-0.1530494291047745
0.42640049728280416
-0.1903818220425695
-0.28485787689745984
-0.14168859322610686
-0.06063867810838527
0.2295205278261205
0.3576806582762163
0.10293579205890008
-0.002013637983555065
-0.05520977690457222
-0.16111045702288118
-0.20487003203463006
-0.2334976709647306
-0.2503142425866357
-0.0249943643609301
0.28408789736018386
0.5040456569181077
0.6303212445700096
0.4288919947915147
-0.33870321463550657
-1.0754607965920624
-0.9126198922831593
-0.498548620302718
0.17398539306941146
0.9062793663522828
1.4198907589262668
0.5014319062756459
-0.008668072468974797
-0.5759240801870126
-0.6940160388955943
-0.7980563689044391
-0.39950099703137604
-0.0634915823123863
0.3669390889366344
0.5116555989775502
0.5816570961947991
0.5191115368305169
-0.03303924413348603
-0.32619332647661875
-0.47310535022723943
-0.40280222571178953
-0.22095276120045484
0.21225851623251188
0.2839374888716446
0.21553730148232655
0.04475009300287216
0.010650117162898367
-0.053872214075869604
-0.12294354074854535
-0.17516861086354046
0.008433495938502516
0.043610655441558156
0.13923333996544154
0.09307089419346463
0.08996846992487166
-0.0956649334005577
-0.09335469670723397
-0.12844306401726188
-0.015592546274837452
0.04369783591501851
0.05912310513215285
0.046599357636287496
0.022615923045966786
-7.463446968980749e-05
-0.014441558217839797
-0.018926289023118617
-0.015744964124217154
-0.008729710551560582
-0.0015063484397985242
0.0035718664658415207
0.005692616693084876
0.00527054689655078
0.0033653631129821468
0.00111279841291545
-0.0006586373488365075
-0.0015739130014527352
-0.0016622982568769587
-0.0011999782582150505
-0.0005333609443226722
5.4681726592066706e-05
0.00040966633272283246
0.0005065115813592668
0.00040983425566645234
0.0002208587128242454
3.2409996124640436e-05
-9.694422807270787e-05
-0.00014857245784068464
-0.00013491953589654242
-8.42111797698759e-05
-2.5856933409471885e-05
1.9152437100437532e-05
4.16929908067448e-05
4.2987451045579074e-05
3.0418105708245914e-05
1.2961440765331399e-05
-2.1896540169200023e-06
-1.1197675192289733e-05
-1.3521974149362714e-05
-1.0854246404198425e-05
-5.7607559704655345e-06
-5.74415829788486e-07
3.202335852924263e-06
4.9891868349184945e-06
4.890804521227794e-06
3.360336633629318e-06
9.465048401447745e-07
-1.7957578128054698e-06
-4.262593896305995e-06
-5.7369750473761895e-06
-5.4337187998189355e-06
-2.737330624204764e-06
2.3873446352900756e-06
8.95996651556668e-06
1.477701909209204e-05
1.6705096925705977e-05
1.1640307340916738e-05
-1.952151727996475e-06
-2.235187314182501e-05
-4.351201829274329e-05
-5.5500971550276055e-05
-4.712488110703579e-05
-1.0706144115076937e-05
5.208831994305818e-05
0.00012563644078178834
0.00017995124577770139
0.00017711504083057684
8.53600668825417e-05
-0.00010170579350449555
-0.00034721797067324115
-0.0005641128491625339
-0.0006288957427716639
-0.0004213557930405927
0.00011428353802748844
0.0009044721296584238
0.0017075067112554897
0.002135033567955847
0.0017583009989715023
0.00029599384287928426
-0.002161552383456109
-0.004981105930514701
-0.006983327437165621
-0.006706563580204495
-0.002962354650764809
0.004422246478493639
0.013933662185887383
0.022145166500614433
0.02430539902976129
0.015925713587902478
-0.004837854172373135
-0.034728674831491516
-0.06404973530167421
-0.0778012608482312
-0.060284854322116346
-0.0031334278763691477
0.0848138293571237
0.16894293829708196
0.1856137504689357
0.04765355709733474
0.059727121423767134
-0.05877310163722734
-0.3491839824937029
-0.39543547316267497
-0.12002421529675734
0.0018478840354718322
0.3122098414234589
0.3330560534123738
0.33419133888725855
0.11737045574657652
0.02244329028783149
-0.24641396410818017
-0.18322409585644986
-0.6441844298235531
-0.025335450796123104
0.13856282482696544
0.15391592362165435
-0.06584337712066334
0.36290058443761636
0.46587768104323585
-0.19967289448350728
0.26568983900209564
-0.06673765892021026
-0.3134713672093811
-0.540070177524031
0.06301937196319608
-1.0200058139167052
0.14153209739933578
0.8755962681074176
0.8538269797478281
0.6558107616779647
0.36997957728129666
-0.363696736741255
-1.0824170380550542
-1.228629140789823
-0.9094664778519806
0.2904977436989618
0.8424327075242054
0.9750099616714304
0.7819014862849125
0.9712217196958998
0.0778145342514296
-1.2637446238729144
-0.8099196483723324
-0.6006616132955956
-0.8903477257806943
-0.13922840079874974
1.1343746344634227
0.8613751824379331
0.5210766055376306
-1.1362932566350077
0.6760067664361651
2.994892659970736
-3.4370080504888327
-0.8895855077196836
1.63813435901455
-0.7235921479955524
-3.0989864090219372
3.504563727370566
0.13328720649335665
-0.5899704720962399
-0.33240754419123103
0.5100120009455921
1.009757058402231
1.743332231126541
-1.1374497893074422
-1.8136317371727726
-1.7185745803384331
-1.3080458536821378
-0.10656665036160821
2.177243179886927
2.910186414321536
1.833341588068743
0.6554885719311246
-1.2424800603146295
-3.427690044427845
-2.8354584932901417
-1.2721935915852984
0.14795283085646702
2.639315113846006
3.317705622706248
2.2041314382930217
0.5420271998864037
-0.5367343947776422
-2.824235856144248
-3.204608058557913
-1.4724222425213267
-0.2740838408734713
0.6064853122426899
1.8555209054625632
4.6108576129007846
2.3086536931166264
-0.7389442904640575
-3.226050005213472
-3.2505898958192883
-2.5218191173889015
-0.26376443734713234
2.55112264339352
4.069650877171151
2.0033395716088553
-1.2712329059982745
-2.3217230352954736
-2.199741461128464
-1.366535340490951
1.1453069875711874
3.3202779640790445
1.5238869760884977
-1.1171178499075327
-1.2949343578182444
-1.6728223494887786
-1.445259665900773
-0.33934607565834124
2.5363129070657653
5.222588731980097
-3.5335573082271168
-1.0629842942784902
1.699002360099284
-1.6923166935771627
-4.720166368942317
3.706203222439195
1.1950305186088555
-1.4355563599216354
1.321330014146598
0.36451518164093066
0.5367678329520583
-1.1645207583913861
0.6797784116083309
2.422167860132706
-2.3141392403743657
-1.097728038740882
-0.18477498709588894
-1.483597696087299
-3.011307642767646
2.9598471840822103
2.3012311116266546
2.2345346523090153
1.6168380672110951
-0.4502319303509103
-2.0906000912074068
-3.0562252010602724
-1.7416160227298052
-0.2808493223568124
1.8429912250301226
2.4977884057782274
1.5704000216755798
-0.1344054901590578
-1.128476715881959
-1.8132246359039428
-1.026097395189204
0.19921551495572618
1.0370801498221214
1.0444456029383937
0.7306099555816984
-0.05148365347067844
-0.6806933096210583
-0.7180219491582583
-0.453814331507755
-0.27536850495972914
-0.06909798201487255
0.34306230766784024
0.5463296742327862
0.6755427666048196
0.3780299039180574
0.00994869672399914
-0.33338073324112555
-0.565654774580241
-0.9572313509139494
-0.3035706029227575
0.07253201746261843
0.6862248985891204
0.8391312497541269
0.9746214533357912
-0.5398635220777763
-0.39616407525851377
-0.5035040379877148
-0.541450176670422
-0.5284206876918404
0.5822959104390419
0.4799557018805188
0.25929814432792586
0.18567149959794696
0.0756184860515967
-0.10210212021241791
-0.20853613192624218
-0.30860121812921953
-0.24783248756850879
-0.040264005929005565
0.12917285217564436
0.29044412374955114
0.2697389285528217
0.07484527882649815
-0.10957281136846558
-0.11595880096982501
-0.18101595846300614
-0.13223584328807442
0.02074415574763754
0.08739516928792437
0.09100760707540258
0.06006872819845969
0.020028716769778677
-0.011933523759598637
-0.028323407880599855
-0.029630700694175813
-0.021009138415305616
-0.008851949411862648
0.0016968444958296866
0.007898577708294526
0.009390141045265166
0.007421121074407621
0.003868168189096746
0.00041671214479068694
-0.0018962116599987842
-0.0027683079349302324
-0.002457053295968226
-0.001494139345786699
-0.00041911712786383805
0.00039167273313987517
0.0007824901932147165
0.0007857373200222797
0.0005427592548229486
0.00021976201764248372
-5.3142254277059885e-05
-0.0002092496163079253
-0.00024277562342544878
-0.00018828494259566863
-9.509414394724791e-05
-6.475540185688261e-06
5.161648791178302e-05
7.22785570643686e-05
6.281424984969505e-05
3.72390055681268e-05
9.444743639880197e-06
-1.108662799973068e-05
-2.0620288375035598e-05
-2.0222434781227125e-05
-1.3664588572983184e-05
-5.2539790839328124e-06
1.7063042128326938e-06
5.5785170308137354e-06
6.289333736755144e-06
4.7781618398925106e-06
2.3322733043043557e-06
5.764338414390883e-08
-1.399337259381149e-06
-1.884635965295861e-06
-1.6037853679660855e-06
-9.257387234960972e-07
-2.078028716230903e-07
3.1150182236048144e-07
5.431925030528937e-07
5.20651609734339e-07
3.442773593500945e-07
1.2556474077005272e-07
-5.173686433503477e-08
-1.475489775654884e-07
-1.6192288118179945e-07
-1.2028552265569126e-07
-5.6191250132925764e-08
2.1261633076322667e-09
3.860348534477665e-08
4.988718015934555e-08
4.1711347475720474e-08
2.3772148839560598e-08
5.2491869260149415e-09
-7.86721535375207e-09
-1.3472650727277797e-08
-1.257768905225359e-08
-7.848745743800467e-09
-2.16849798401253e-09
2.3424316916606726e-09
4.70686617492218e-09
4.975839242379172e-09
3.835059958916612e-09
2.157999587768942e-09
6.645633259915774e-10
-2.469955354272106e-10
-5.06130820929657e-10
-2.7164744633107183e-10
2.02049740222858e-10
6.793959886881406e-10
1.0102024734239133e-09
1.1451337130713187e-09
1.1140521039283564e-09
9.876197592629239e-10
8.402801169544133e-10
7.256558536822322e-10
6.67474632246662e-10
6.63149493409142e-10
6.94249875248237e-10
7.38067470450224e-10
7.762683023955972e-10
7.990032020854755e-10
8.048628881418395e-10
7.982177731679344e-10
7.857325008675736e-10
7.734451590257618e-10
7.651145602820173e-10
7.618852383593945e-10
7.62890676652491e-10
7.662620908528606e-10
7.700792573390896e-10
7.729881792669653e-10
7.744153439959625e-10
7.744599173052453e-10
7.736157723002587e-10
7.724725265637024e-10
7.714965212070335e-10
7.709306785501777e-10
7.708008058362347e-10
7.709872858237523e-10
7.713157852480925e-10
7.716317114275206e-10
7.718411682318541e-10
7.719179437884624e-10
7.718868262068091e-10
7.717971437022571e-10
7.716983701785378e-10
7.71624644504121e-10
7.715897571107554e-10
7.715903229785283e-10
7.716131450480349e-10
7.716429329796739e-10
7.716678398499405e-10
7.71681891689486e-10
7.716846934100404e-10
7.716795030963562e-10
7.716708743840187e-10
7.716627607148184e-10
7.716575029812314e-10
7.716556918035832e-10
7.716566261667118e-10
7.7165900638188e-10
7.716615592322626e-10
7.71663425272135e-10
7.71664274861775e-10
7.71664216380301e-10
7.71663601562997e-10
7.716628264460623e-10
7.716621916024835e-10
7.716618434756892e-10
7.716617853205702e-10
7.716619287760877e-10
7.716621550654228e-10
7.716623632041002e-10
7.716624949550546e-10
7.716625372889868e-10
7.716625098442526e-10
7.716624468056898e-10
7.716623809026972e-10
7.716623337379882e-10
7.71662313137677e-10
7.716623157702915e-10
7.716623322829701e-10
7.716623524288738e-10
7.716623685903671e-10
7.716623771887638e-10
7.716623783174354e-10
7.716623743652384e-10
