0
-1.5777376020889028e-16
-1.5938619524524895e-16
-1.5596153160525285e-16
-1.462638185782266e-16
-1.3143119593652135e-16
-1.157929933386405e-16
-1.0658842224358702e-16
-1.1208794440442184e-16
-1.3811600521809676e-16
-1.83760895765166e-16
-2.379141870498434e-16
-2.788266765716157e-16
-2.7865056221232195e-16
-2.136235371476778e-16
-7.81506415726344e-17
1.0189354647683068e-16
2.6365048585107064e-16
3.1678888368012287e-16
1.7207558805290069e-16
-2.1401127178261634e-16
-7.913016593796325e-16
-1.3862766646383845e-15
-1.7159863176530591e-15
-1.4639753802586034e-15
-4.167908352570434e-16
1.3710388432209456e-15
3.448331565110224e-15
4.9593724375202e-15
4.830822489389261e-15
2.1743641777964868e-15
-3.1681271504960067e-15
-1.0122829924319716e-14
-1.6198115676090183e-14
-1.788953049653387e-14
-1.181897935987265e-14
3.5271436509479955e-15
2.596981512772833e-14
4.8567928799761514e-14
6.027494039298854e-14
4.899988518221319e-14
6.959814692661732e-15
-6.298411640355091e-14
-1.425585127672545e-13
-1.9813746288913862e-13
-1.88402933022909e-13
-8.02423110815446e-14
1.3017040557014356e-13
3.984902294976065e-13
6.260952762381386e-13
6.771854568906956e-13
4.241278875840347e-13
-1.8490276938425569e-13
-1.0563827726081317e-12
-1.9131644178564537e-12
-2.324478505424e-12
-1.829058679391699e-12
-1.4476051140966432e-13
2.5884245959451855e-12
5.632339037252137e-12
7.66724249964529e-12
7.1046357313964155e-12
2.714106290052841e-12
-5.562456800618103e-12
-1.590178478194227e-11
-2.4405758563873585e-11
-2.5818166357759588e-11
-1.532678281713187e-11
8.807373950695324e-12
4.260923423804872e-11
7.503205184161446e-11
8.929682436970193e-11
6.783411631966263e-11
4.83809475322788e-13
-1.0619720580217347e-10
-2.224633173103639e-10
-2.9657992512727156e-10
-2.675561178270754e-10
-8.982946986787394e-11
2.3532478227694746e-10
6.332361694369714e-10
9.5003710796768e-10
9.825232265248457e-10
5.496596321110678e-10
-4.053338990673766e-10
-1.714879317465224e-09
-2.9394013618909025e-09
-3.426082753771869e-09
-2.506812331441863e-09
1.8143447500950135e-10
4.3406087176202515e-09
8.774764396518438e-09
1.1458275455240583e-08
1.0052529688296762e-08
2.8767731618289962e-09
-9.881741877759573e-09
-2.5175789683031237e-08
-3.6939882862854405e-08
-3.7327563972548604e-08
-1.9544554424744867e-08
1.8192182330215616e-08
6.88670472628439e-08
1.1501622172126114e-07
1.3126968926002124e-07
9.226504600654216e-08
-1.4849019763859545e-08
-1.7681753821810414e-07
-3.456586569015463e-07
-4.421534246862158e-07
-3.767553735765899e-07
-8.772626091935738e-08
4.122974285827296e-07
9.993625788981881e-07
1.4346742042440228e-06
1.4156202472393013e-06
6.878629828148377e-07
-8.012987352682788e-07
-2.759921256357329e-06
-4.495248833254854e-06
-5.022472684324583e-06
-3.3805463155715842e-06
8.804006489048817e-07
7.180655571518198e-06
1.359901399656586e-05
1.7040941247882813e-05
1.408257903124024e-05
2.4669363962893748e-06
-1.710653744601041e-05
-3.961064502675315e-05
-5.5655976937296944e-05
-5.358622270912687e-05
-2.39068353119399e-05
3.478112795436978e-05
0.00011039264398100858
0.00017548793950094435
0.00019188295197954895
0.00012323083022474724
-4.5999286527474325e-05
-0.00029078613606447226
-0.0005343496117481512
-0.0006559471191258377
-0.0005248608998638293
-5.9028974161888375e-05
0.0007062704875280292
0.001567694516293592
0.002156492262927547
0.0020242178899217405
0.0008174668873888395
-0.0014928034269713686
-0.004408693137850228
-0.0068448566794380335
-0.007322320664458732
-0.004468640288507643
0.002244434857309985
0.011751725068557614
0.02099675348233234
0.025285860754173727
0.019656947511915303
0.0011776588031664813
-0.02842088142060272
-0.06088220789033117
-0.08171245223773911
-0.07375342804361328
-0.02424931007649176
0.06592588586093708
0.17395243468850827
0.25191791720425666
0.23282562808914672
0.04736198399007637
-0.3513426800769281
-0.5626876612802765
-0.3239901226504713
-0.11531952716393636
0.21396345945946868
0.6039823589685428
0.5427214735720679
0.23968930395920068
-0.17508000359821765
-0.4269656742489898
-0.4580059010467911
-0.18879335055031674
-0.09426080288619317
0.20079706334306288
0.3092792640539502
0.26129967160656986
0.08599111954150311
0.002838147246811076
-0.1758276419338367
-0.23494481311162282
-0.14621275629308808
-0.06338711930825487
0.07329750960000594
0.12454289221982284
0.13575491922207625
0.12314501620329713
0.06724447495834546
-0.08371606731003493
-0.0013376560872079364
0.041036025190153834
-0.2129154292198606
-0.1882065559509236
-0.07303485794652641
-0.024256240153698046
0.017168548322578005
0.30529626902156226
0.2698485825495776
0.10545822130418074
-0.026089326509114327
-0.18101139942866348
-0.21140741333414778
-0.14401931243827223
-0.16762315691019775
-0.033576807782466106
0.1306033856410386
0.19925778618974735
0.22574264234629116
0.226622778502222
-0.021756204612516587
-0.17362567823004751
-0.29543197800105947
-0.24638520907166891
-0.0654477838251868
0.2312806937245762
0.2441063149625167
0.17971664632485948
0.04393843232160482
-0.15910459700570723
-0.2222553561276073
-0.12931505040274802
-0.0527575375085127
0.04206347662687703
0.18714007796809964
0.20056215030228788
0.07902068186285355
-0.0020987559587900073
-0.08043180473310087
-0.19312203437871314
-0.1633021945345798
0.008178637911205494
-0.057342274974919984
0.07536478455192963
0.24217830816201122
0.06638351100668123
-0.049831421463867744
0.07362200358320714
0.0012134272320106969
-0.10662514435986903
-0.08053990816046698
-0.13195539435133055
-0.04875828999610618
0.001482386218424092
0.06165542874391098
0.17182425167758328
0.15704956637077996
0.020540512010164394
-0.05563397014984612
-0.10300097714405057
-0.1556326865890668
-0.039939925515148446
0.031248295824947717
0.059094872181292064
0.05475698983692472
0.03344296964131429
0.009006539018331176
-0.009368397179879492
-0.018028759725286357
-0.017808659681882846
-0.012047674749497856
-0.004596953530368644
0.001581681161174768
0.005015823126876449
0.005634305576466696
0.004273522968306264
0.0020820909535231623
4.710374543373375e-05
-0.0012549378895859514
-0.001687450437640167
-0.0014349864787893088
-0.0008278442186018698
-0.0001855915331452278
0.00027862338829430375
0.00048544677931500706
0.00046492522519256824
0.00030695864148171055
0.00011128652447081657
-4.722609258471387e-05
-0.0001327973614434765
-0.00014553215107977158
-0.00010820930766837912
-5.085123234635175e-05
1.2982047886635346e-06
3.389040284159163e-05
4.394488904995484e-05
3.6603636451971165e-05
2.054460706351144e-05
3.977110755341396e-06
-7.745948964744062e-06
-1.2748199506149054e-05
-1.1938105299967688e-05
-7.702923233213146e-06
-2.621192464301766e-06
1.411569959177272e-06
3.523091826754663e-06
3.7605442125292504e-06
2.738156480482028e-06
1.237425474564399e-06
-9.800587822292403e-08
-9.124243646720627e-07
-1.1432214750190606e-06
-9.327703353077281e-07
-5.087483451305008e-07
-8.181262585197121e-08
2.1383734138356924e-07
3.342266056670805e-07
3.061812830896358e-07
1.9296099028980798e-07
6.115224052414956e-08
-4.131681475973245e-08
-9.326915821645956e-08
-9.705780507776615e-08
-6.919036782154031e-08
-2.9983018052250786e-08
4.173520662187713e-09
2.4483537596001797e-08
2.9699821518081092e-08
2.3740246495426916e-08
1.2568847536625037e-08
1.5840762443777204e-09
-5.857497461584418e-09
-8.738443299261421e-09
-7.838683059063051e-09
-4.831462665145069e-09
-1.4319397689359969e-09
1.1551580059804926e-09
2.4256822886056956e-09
2.476686790330851e-09
1.7537768986251557e-09
7.797076276845096e-10
-4.372045601887383e-11
-5.236274022889294e-10
-6.635984524139373e-10
-5.878145793370783e-10
-4.460928529667536e-10
-3.3691948999562764e-10
-2.709766582325143e-10
-1.816012822670031e-10
2.5651825534227115e-11
4.034134795109491e-10
8.995210918635502e-10
1.3298196104326241e-09
1.410845959204655e-09
8.61364697446113e-10
-4.437401037295676e-10
-2.3150214401347497e-09
-4.15996260201556e-09
-5.045869454450928e-09
-3.968016615681701e-09
-3.0777621236272755e-10
5.635842592656607e-09
1.2260568547802392e-08
1.669519466767547e-08
1.5479779153400396e-08
5.930627534828721e-09
-1.2085594805951142e-08
-3.460554905671777e-08
-5.314482271371561e-08
-5.625552371680909e-08
-3.3448420125442685e-08
1.9080983153610168e-08
9.269734147554855e-08
1.6336068606542562e-07
1.9453257301324106e-07
1.4792855522579032e-07
1.3721524354109579e-09
-2.3092654332679166e-07
-4.8425396269742e-07
-6.459713489704078e-07
-5.832079991082429e-07
-1.9659919176850826e-07
5.112971080056336e-07
1.3781017677550972e-06
2.0688727694955295e-06
2.1410099864394982e-06
1.1998886080777215e-06
-8.788160960297927e-07
-3.730968702434425e-06
-6.399908873414701e-06
-7.463991392079315e-06
-5.467307493423295e-06
3.8270414030304344e-07
9.439641308200037e-06
1.9101478557622728e-05
2.495778959213838e-05
2.1913635698968287e-05
6.303134350659728e-06
-2.1474457068333233e-05
-5.479197045731855e-05
-8.044545098162156e-05
-8.134395537772194e-05
-4.267619507903825e-05
3.9466921466832726e-05
0.0001498376798615346
0.0002504264146941957
0.0002859811349926323
0.00020122798391196593
-3.190249164321383e-05
-0.00038465294326211764
-0.0007526275388857062
-0.0009633344878647791
-0.0008216577599303978
-0.00019285445796769874
0.0008960615134924184
0.0021758720462421275
0.0031274907399992
0.0030931744265343827
0.0015208832188803583
-0.0017013010515576923
-0.00593332387137645
-0.009661155233100904
-0.010736402751896397
-0.00707280347213314
0.002271120027677515
0.015918317646108345
0.029408001735591337
0.03540969884798168
0.0253130677618427
-0.007879683133098675
-0.0661162773061049
-0.1437036153490591
-0.02710951916787084
0.10200940490960098
0.0612080214409293
0.0612080214426256
0.10200940491494227
-0.027109519158537265
-0.1437036153363175
-0.06611627729255991
-0.007879683123792601
0.025313067760330765
0.03540969882999703
0.02940800169998055
0.015918317599665215
0.002271119986597134
-0.00707280348469633
-0.010736402713210904
-0.009661155132372652
-0.005933323722078143
-0.0017013008989392763
0.0015208833016126975
0.003093174358064405
0.0031274904662833016
0.0021758715829967405
0.0008960609789609778
-0.00019285484176423832
-0.0008216577163699813
-0.0009633337903597359
-0.0007526261515975476
-0.00038465114948697316
-3.1900939438669756e-05
0.00020122838938076628
0.00028597952830228414
0.0002504224197287843
0.00014983187918083846
3.9461125656842855e-05
-4.267912691100426e-05
-8.134091602955007e-05
-8.043447244150892e-05
-5.477385499832262e-05
-2.145398983313923e-05
6.3172317751113815e-06
2.1910718606245088e-05
2.4929419826154907e-05
1.9046863742179306e-05
9.370463192409594e-06
3.246019859865766e-07
-5.479271040410378e-06
-7.39714019707398e-06
-6.241441920655151e-06
-3.5058048071147015e-06
-6.592072110382906e-07
1.3024908686100894e-06
2.0081270623967257e-06
1.629308919888266e-06
6.704750603056932e-07
-2.7125293983126354e-07
-7.119052955753332e-07
-4.2220113031943304e-07
5.045543371894407e-07
1.6631376106549533e-06
2.4336685218197248e-06
2.1702099396526496e-06
4.6441278167775716e-07
-2.5724695587709705e-06
-6.11324921794188e-06
-8.637376220656225e-06
-8.286180846843167e-06
-3.5743371666671928e-06
5.677636790544178e-06
1.7513137311037452e-05
2.7574977091810792e-05
2.9863753198544467e-05
1.8740109775168936e-05
-8.091443280448158e-06
-4.651539169302261e-05
-8.431614534050464e-05
-0.00010249854447772999
-8.071416041310425e-05
-6.503026340623294e-06
0.0001139882464544716
0.0002482363685614533
0.00033805916980688555
0.00031339400828939607
0.000119927521088056
-0.00024499911883600845
-0.0007010985448910544
-0.0010765527087256731
-0.001139534449815908
-0.000677556267661762
0.00038674097789315117
0.0018793456580904542
0.0033153196583020792
0.003958346828792746
0.0030393573135142045
0.00011892282474416307
-0.004501982632831851
-0.009498486427690574
-0.012582794027868917
-0.01108808250651409
-0.003109101939609928
0.011004536806163933
0.027270692205281798
0.037453992059999386
0.02978906014641635
-0.008735691290484631
-0.08895179560595579
-0.015995753322111665
0.013000355221770442
0.009088741181459
-0.010619271442863449
-0.02691313890691635
-0.023491385263312892
0.007933533412638527
0.063649591529584
0.12661678504892587
0.16932829240099911
-0.03845568081329954
-0.11833403176021454
-0.27192104735690187
-0.2747991513606806
-0.08033051567689653
0.16559060694923805
0.3028893674356025
0.33716012633427433
0.23051829254707148
0.10979502034719381
-0.10802690336317067
-0.48055705187704195
-0.6077354123316044
-0.21637751043921133
-0.17064539346260002
0.29182789059068587
0.7090191317399105
0.7469091324599962
0.17363210082402306
-0.13379837344693765
-0.5522751877547568
-0.6593414841655362
-0.3842243966213326
0.019640592224523377
0.3735502758723773
0.34886038757488713
0.23176817852646706
0.09192791793253415
-0.035368299947045344
-0.15082704068274097
-0.08005993126601486
-0.05635418507749541
-0.10403602502502399
-0.02733185850991443
-0.007101818557510952
-0.005398417725406822
0.024143603031092996
0.12336473405645404
0.11786001407026299
0.00984115316236867
-0.02244033518567637
-0.018771764870947928
-0.02655170428523821
-0.08894729676981238
-0.03482078438427664
-0.07291912956940001
0.00840578703049475
0.03620647488411524
0.044410621852350625
0.06446320396500985
0.11801167294644395
0.013779788647629831
-0.05068116016717248
-0.0834778887141418
-0.09170291088289093
-0.07668015443782895
-0.03335912572539803
0.04574902357250775
0.16380990105039953
0.11333493265572493
0.07375916855602364
0.01499945735402876
-0.09352273457236425
-0.2715897251793284
-0.11935833476828073
-0.015214470954094264
0.07809615499576578
0.20112228558626752
0.1840473916347233
0.03718501295532848
-0.050848295652905814
-0.10719261990761474
-0.16414329342790285
-0.048478059128633545
0.025393004921043343
0.05678741176326672
0.05542834671381996
0.035797693552175734
0.011696138677282154
-0.007303732017914845
-0.017002563880374886
-0.01775928579900926
-0.012631732885581766
-0.005399720126388926
0.000890803900147775
0.004611135508918983
0.005536865338906229
0.004400857167734076
0.002311932775752136
0.000270130383289772
-0.0011057714066520035
-0.0016315331711184752
-0.001455508466206472
-0.0008903331305360818
-0.0002551489149126619
0.00022628330649186254
0.0004603217561506907
0.00046485487522262967
0.00032276331209513527
0.00013220765128422598
-2.9591316761932993e-05
-0.00012274095432645494
-0.00014340671300958963
-0.00011176486619572361
-5.6892664242361164e-05
-4.432263887373479e-06
3.0143598106320536e-05
4.262157414886899e-05
3.722640069894277e-05
2.2204537370754647e-05
5.775687878282059e-06
-6.420486595788457e-06
-1.213540798398673e-05
-1.1967332208387854e-05
-8.129266414094373e-06
-3.1658618932383595e-06
9.618726718101247e-07
3.273714121783245e-06
3.715678770048687e-06
2.8366840524939782e-06
1.3959599540695734e-06
4.906220366184676e-08
-8.184710951412689e-07
-1.1121730230265917e-06
-9.512058712402236e-07
-5.527455948872439e-07
-1.2826422539695504e-07
1.8031764245758058e-07
3.193417468801356e-07
3.077288350364644e-07
2.0442323978601923e-07
7.53134313544041e-08
-2.986399102190028e-08
-8.710147652437651e-08
-9.615740459960615e-08
-7.190312413903893e-08
-3.413528232549104e-08
4.0614303797472954e-10
2.213519708117081e-08
2.8981696616804115e-08
2.4276514381703748e-08
1.3729330121260141e-08
2.7745641020722244e-09
-5.022120826858334e-09
-8.389361238034794e-09
-7.903929311538182e-09
-5.132132126988815e-09
-1.7779796096394353e-09
8.987418948568852e-10
2.31215686574977e-09
2.4854901505430713e-09
1.8201259320074235e-09
8.315627060798841e-10
-5.3241983727933404e-11
-5.964900799129774e-10
-7.542235352340395e-10
-6.188416305501363e-10
-3.4020977862270763e-10
-5.782260640235222e-11
1.3888522040346978e-10
2.2004191272167907e-10
2.027782056351565e-10
1.2862335679032792e-10
4.159463932535577e-11
-2.6442112456967544e-11
-6.124632694345116e-11
-6.417019169292094e-11
-4.6010391207216993e-11
-2.0172828378853523e-11
2.4659426587993186e-12
1.602137249597306e-11
1.9602500083058324e-11
1.5755825468366652e-11
8.408797439847039e-12
1.1379606883929747e-12
-3.8174355147246184e-12
-5.76256167873852e-12
-5.196469628038821e-12
-3.218002352057659e-12
-9.628501332330282e-13
7.641431849007874e-13
1.6184677619203388e-12
1.6543236310878726e-12
1.1612759121934409e-12
4.874744702638272e-13
-9.049942359989636e-14
-4.2767844533637173e-13
-5.076344731259143e-13
-4.0037998305485205e-13
-2.0867038053049388e-13
-2.3708996470555434e-14
9.933666874491908e-14
1.4554146397728335e-13
1.3014159373994943e-13
8.242235551927306e-14
3.0763195348120915e-14
-6.814825166237998e-15
-2.536938551936057e-14
-3.018542228616279e-14
-3.079788586282859e-14
-3.461196857280567e-14
-4.2429006338566035e-14
-4.738638662001382e-14
-3.78153356223091e-14
-3.3808781186492975e-15
5.733447802188215e-14
1.307006754207653e-13
1.8677160335746818e-13
1.857230194616063e-13
9.279095093419096e-14
-1.0100517862026626e-13
-3.5926959401328225e-13
-5.919760345443235e-13
-6.690276060473095e-13
-4.614449507168257e-13
9.418657989939512e-14
9.263088954546477e-13
1.7853301904840255e-12
2.263377038572266e-12
1.903532301688517e-12
3.966267211624101e-13
-2.1805969642869505e-12
-5.179304207580317e-12
-7.366286984271886e-12
-7.192553097951722e-12
-3.3734340010792918e-12
4.3248688481940366e-12
1.4360101594435125e-11
2.3143137525747084e-11
2.5618705053229072e-11
1.690573153917671e-11
-5.196057567204443e-12
-3.756578208260736e-11
-7.021087190341815e-11
-8.720305054070206e-11
-7.108281860531761e-11
-1.0575050359000272e-11
9.026481290803188e-11
2.0515102288770536e-10
2.856184677830616e-10
2.720335851865971e-10
1.1650036868612343e-10
-1.86722753956498e-10
-5.739256277005268e-10
-9.030319761326409e-10
-9.781310886618682e-10
-6.147790626533602e-10
2.624481442849358e-10
1.519505847327718e-09
2.7573581888109797e-09
3.3548212879250054e-09
2.6457525306840864e-09
2.2124250972854522e-10
-3.7195607422164213e-09
-8.114660195627974e-09
-1.1061757270766124e-08
-1.0268002643100597e-08
-3.953266975643055e-09
7.974979897204737e-09
2.289653352909285e-08
3.5195184750880855e-08
3.728751726281263e-08
2.2218327239584972e-08
-1.254708978957088e-08
-6.130799493001912e-08
-1.0815752873905994e-07
-1.2889795661008603e-07
-9.815347833074329e-08
-1.19210525581728e-09
1.526361454923344e-07
3.2052916956347604e-07
4.2790981456744546e-07
3.8673565525648427e-07
1.310722648603977e-07
-3.3758091423771695e-07
-9.118888156733319e-07
-1.3701471755516642e-06
-1.4191590610406141e-06
-7.972311728188474e-07
5.785731782579883e-07
2.467805460949893e-06
4.2374265934350265e-06
4.945908567469705e-06
3.6281803022112955e-06
-2.424326329237361e-07
-6.240194119673832e-06
-1.2643959481219145e-05
-1.653349201498669e-05
-1.4532619238481134e-05
-4.208433476456331e-06
1.4182226733423299e-05
3.625814029343355e-05
5.327893222031537e-05
5.392230586198655e-05
2.8365254641768528e-05
-2.600474347896941e-05
-9.911704219814986e-05
-0.0001658191408932165
-0.00018951837434132452
-0.00013357534064950059
2.0666416832773584e-05
0.00025424785178424777
0.0004981037718226698
0.0006380149497459982
0.0005446866809388278
0.00012871478977661348
-0.0005922029214470495
-0.0014398226712558735
-0.0020700012056059894
-0.00204597094255899
-0.0009997443728357355
0.0011467911431266161
0.003975484606261959
0.00649061590878601
0.007275522134404638
0.004948262048588073
-0.001134590072023973
-0.010129206264939261
-0.019255287526906147
-0.024045895394945078
-0.019588897652059817
-0.0027444696074251113
0.02514795309400488
0.05605253014345878
0.0747703678286801
0.061296390579227304
-0.003742864668912863
-0.1316567690565203
-0.11873990826790602
-0.14293269013122822
0.0335312375448018
0.055274660121738074
0.16120142395525972
0.17258969215613226
0.08636708693006151
-0.12379360222953213
-0.0990313057859709
-0.08287087155669072
-0.10944915671988269
0.0037661432400134583
0.057100821717776085
0.0643939468722795
0.045755913723817467
0.020269059931387917
0.0008604000154390555
-0.00766389150733344
-0.007602656566224537
-0.005289868715433703
-0.007190782859206565
-0.016367063181277175
-0.030341381988214733
-0.0411275949629673
-0.03779435325274219
-0.011317666254325882
0.03935491005802797
0.10198972988239358
0.14902285744012486
0.14104933672210174
0.036649098621656225
-0.19326565883611402
-0.35139607038261705
-0.40694825842044385
-0.10106491444879796
0.234314910771185
0.6502623447285163
0.7591751313565714
0.12990468101738153
-0.49478319618640954
-0.7645221628738879
-0.6876688264678915
-0.4159274925783348
0.542571285475648
0.8859701214958655
0.6742317650819364
0.09860023983485701
-0.3211352957067735
-0.5115895417634646
-0.4053833460819727
-0.10252761487915495
0.15314818798184296
0.17782198894208612
0.03507728918425242
0.014268828946125153
0.007216713374085351
0.08848952817107172
0.10238944765054374
0.058159286740825954
-0.0665695765994737
-0.11582977896498535
-0.14220226119352344
0.005608372431629807
0.09166081273255171
0.0973015448343277
0.02224817472037654
-0.11642857131190104
-0.0869301668844872
-0.0474739814934075
0.04631024994949435
0.03194408896580927
0.1307386781601286
0.14142970482279166
0.0392515682259006
-0.2188539309600347
-0.08455365033211394
-0.007340630314208169
-0.02602012872793944
0.03580814656528745
0.17059312325685586
-0.014432299193046763
-0.09908850086548644
-0.05214903021367479
-0.0339163138758471
-0.0003409423374582629
0.09125378699884407
0.07593640298514426
-0.02387681478123382
-0.0009267423301484669
-0.06277490053395417
-0.029341691830792868
0.07057615253172199
0.0029920849848182763
-0.06768397787858724
0.024808373040886365
0.051865951127639566
-0.0069146496065377126
0.03905762124681886
-0.006348483433148177
-0.12492325519947688
-0.08541628017993863
-0.048262321063553514
0.0261688173557152
0.1674103990814343
0.1860879562245246
0.07021454341513302
-0.01100304811383703
-0.0963276020182536
-0.21824736514547802
-0.190802786463492
-0.004552621075577254
-0.0310933755829286
0.16432089764918345
0.2069769549117416
0.3002622664149014
0.022160260752814694
-0.06722324997169167
-0.4098613337928098
-0.23256883328984118
-0.1361803933049919
0.10394536755128768
0.32676269834776267
0.36964696318337414
0.055762470092510945
-0.2096421287203714
-0.2336797753069769
-0.2257644685257174
0.010418496817350428
0.07857672234268587
0.18509627395895253
0.13160614529590128
0.10963845778545732
-0.09935299254897871
-0.1184756814451796
-0.16720892630773523
-0.054684113693644516
0.02233050430232574
0.07601356266180542
0.12062668177666906
0.16576242882597347
0.013046853771589794
-0.14221694926432252
-0.10560216142578606
-0.07748823449717422
-0.04987197843023641
-0.008069406855646976
0.06307723370816444
0.17103346192936697
0.10912676031505845
0.05516038763792574
-0.023423846535178965
-0.15909127708545198
-0.17219267153620968
-0.06209947745496681
-0.005189790937212048
0.039260151512756504
0.11723780212353134
0.06625076746163083
0.10419661877690009
0.024313765176752006
-0.002357497400533275
-0.017894866884454567
-0.06463418386276239
-0.1724929884907414
-0.15049267437418506
0.01467858081905383
0.15256743100003053
0.09767010450582854
0.07732089908527638
0.10321002938587223
-0.03078660251408263
-0.14442222253187326
-0.06283304780074793
-0.0076742970216690885
0.009313020898924522
-0.0112660918667107
-0.05801549061547354
0.086770545109775
0.041286131683482837
0.01883873752402828
0.024502925762064535
0.05468159394692114
-0.10055551748080059
-0.05343414752991228
-0.014359271628360178
0.010794126064341629
0.021290905226058594
0.020339830610431396
0.013003409545022765
0.004177799010195443
-0.0027281532461032806
-0.0062287940386088455
-0.006476685680142674
-0.004593356429751333
-0.001955135801761621
0.0003326657820707419
0.0016815614431919012
0.0020133836485950267
0.0015968284922335673
0.0008359093825841331
9.401147734450739e-05
-0.0004046702445451864
-0.000594021081479708
-0.000528620044433843
-0.00032242170129226144
-9.142833656180802e-05
8.322954362359477e-05
0.0001677831388755733
0.00016896104129751632
0.00011701826126935357
4.7661962733410594e-05
-1.1085014400282681e-05
-4.4800037511413366e-05
-5.2163075833682116e-05
-4.0556174510889425e-05
-2.0565575261206875e-05
-1.5038633903919432e-06
1.1026175444554625e-05
1.5516183211802173e-05
1.3518850071626504e-05
8.039541862747665e-06
2.0656390847453382e-06
-2.3583990833376497e-06
-4.422250801335403e-06
-4.349159839772963e-06
-2.946734035819202e-06
-1.1404984731928766e-06
3.580131281178535e-07
1.194541941979714e-06
1.3513577116524232e-06
1.0291935957084196e-06
5.044193209972145e-07
1.5083687144247998e-08
-2.992413246127246e-07
-4.048159341025568e-07
-3.453854049063101e-07
-2.0008185787997675e-07
-4.5752561024697226e-08
6.616395963390156e-08
1.1634618108408116e-07
1.118191819259167e-07
7.408782332268516e-08
2.7112860743192287e-08
-1.1062918636914684e-08
-3.1767738811214445e-08
-3.496336746251635e-08
-2.608595140721123e-08
-1.2339594077593432e-08
2.0046285607742244e-10
8.068739176603101e-09
1.0532185816102326e-08
8.814620387044273e-09
4.994304866002315e-09
1.0386515254699856e-09
-1.7723698725052463e-09
-2.995422673855262e-09
-2.8540465288891665e-09
-1.9184889355441736e-09
-7.901443854741168e-10
1.1038464654406288e-10
6.186667210687986e-10
7.853110966459217e-10
7.67924284936499e-10
7.122810996910803e-10
6.687745272008714e-10
5.711604547671456e-10
2.8242514219498495e-10
-3.091740312196612e-10
-1.179644799785438e-09
-2.0925378183001088e-09
-2.6050321989244683e-09
-2.189565291401693e-09
-4.671155947615265e-10
2.504769694246937e-09
6.00131783043022e-09
8.602515374271744e-09
8.495683199766132e-09
4.147894540247962e-09
-4.770921369228735e-09
-1.652461198471928e-08
-2.6967106769146273e-08
-3.018848190036056e-08
-2.0405794196502182e-08
5.1114974462697455e-09
4.292314999943804e-08
8.153162441373755e-08
1.0237194019625575e-07
8.48592878987393e-08
1.536180951950142e-08
-1.0204528433363136e-07
-2.3731018909919674e-07
-3.3413703336856075e-07
-3.224968216153526e-07
-1.4516806687817252e-07
2.0662939521079388e-07
6.607904724193577e-07
1.0529112297903729e-06
1.1537371184339816e-06
7.445025990286847e-07
-2.69168969158759e-07
-1.7385555792333225e-06
-3.2040275314656396e-06
-3.941100978939759e-06
-3.1637473895239197e-06
-3.76040458069367e-07
4.215057989546963e-06
9.39371467601393e-06
1.2948829926553388e-05
1.2186025301284237e-05
4.9749735405343846e-06
-8.873343542845682e-06
-2.638668729082359e-05
-4.1061445915019636e-05
-4.401802040843045e-05
-2.6997770034873667e-05
1.3206526645766524e-05
7.023803779244237e-05
0.0001257572631401342
0.00015152477793449438
0.00011757161208160064
5.96417617827039e-06
-0.0001733725950168802
-0.00037137696245103914
-0.0005013124779767921
-0.00045964333468922987
-0.00016730009128293634
0.00037717178591388766
0.001051887391257295
0.0016001841401726369
0.0016790373322491245
0.0009782505847074022
-0.0006071963373295854
-0.002805711693343925
-0.0048836807481888
-0.0057384881142234
-0.004228735116843249
0.0002810393556852218
0.007300185611718693
0.01476883422023503
0.01909651418669271
0.01591618684603279
0.0015577918726810804
-0.025116506450479713
-0.061250700919975115
-0.09982239205547612
0.06859743039150619
0.0523390426101
0.054650600926988195
0.07115979356430654
0.09040320099541083
-0.1021799378186767
-0.11805724077622277
-0.15985676049050698
-0.018954502548685158
0.12204652191154383
0.08277999154103884
0.07744053596987777
0.10943669998515923
-0.029352969569460815
-0.1546466876364322
-0.0832052904877457
-0.026782539162756587
0.010812434933882594
0.03267108926373096
0.04478412059201649
0.051232566711191224
0.05081987943524941
0.03668442131818356
-0.000755061429575261
-0.0685184150937972
-0.16559674050569412
-0.07992919692596469
0.010194534786566024
0.13014492186314464
0.10047042684593506
0.129458598275937
0.010003309022088054
-0.07785997560829722
-0.15994164057787302
-0.05950879574786679
0.009068027367775474
0.04256645545157583
0.04708703267065435
0.03378884629478468
0.014296034047843664
-0.002631402774915253
-0.012507774997944381
-0.014805256090888017
-0.011591809974893475
-0.005899917260064761
-0.0004153769259618351
0.0032322139797921366
0.004582545001517502
0.004049271250569542
0.002462804177241322
0.0006579028019239343
-0.0007781242291739193
-0.0015764345134627316
-0.0017254886637070995
-0.0013554252699739962
-0.0006382668467964955
0.0002569533296851359
0.0011540218699518548
0.0018363480053638212
0.0020375178069950164
0.001494584276525274
7.368028317401818e-05
-0.0020657355913808796
-0.004344433651148467
-0.005774230839108452
-0.00518976286384208
-0.0017192249338266457
0.004597416403127227
0.012257589207676263
0.018111498828498718
0.01782344667996694
0.007088254553399381
-0.016607722997892982
-0.05227356441311739
-0.09459710713904362
0.06524886705598697
0.03708790848942797
0.028335171659560503
0.041151778578142145
0.07148516198238808
-0.08947127149848084
-0.051936223562388785
-0.02372197836208756
-0.007568749252949954
-0.0007051374955623659
0.0032646789473062283
0.01089954783309466
0.025109381819630575
0.042329470120424845
0.051839099730125585
0.03789981832312842
-0.015425740714358118
-0.11795984729000446
-0.06771403511164063
-0.048198232163118436
-0.030368273395463528
0.020765354353188367
0.1366669685910942
0.13604019339883608
0.019121000362069554
-0.03236583977528358
-0.04959751555377102
-0.06753428998501769
-0.11555985655885412
-0.010916846107475136
0.043341590292478756
0.05596401250673011
0.04229793542140075
0.018539824188167485
-0.002674672075875009
-0.014433999276766073
-0.015547316526215422
-0.009060733999640263
-0.00012978215454620567
0.006084967404003733
0.006110116842181591
-0.0007382560321930788
-0.011948407972931693
-0.02223760309568064
-0.02495457855555264
-0.014475662887794253
0.010725895955451217
0.04513775082460286
0.07461627921417717
0.07744066470237021
0.028773228075418218
-0.09190882213126086
-0.09236371205820904
-0.16119799405494736
-0.06658804809060644
0.038358335819206425
0.20461451636733038
0.07407892183544477
0.068756293523403
-0.014171870550044503
-0.000219005983160986
-0.1297661296890866
-0.04751483601958701
0.0074782937839599824
0.008706590568643624
-0.05501736502127286
0.019289347244140675
0.0447550662679796
0.03922766936677059
0.020046626924565644
0.0003273199115465619
-0.01261101060137576
-0.016834238910673226
-0.014114958505749028
-0.007866750443847667
-0.001403842415926188
0.0030958625885251527
0.004883232614736208
0.0043759194857054045
0.002623158372589752
0.0007530094770766117
-0.00043210871615505746
-0.0006465212607233157
-0.00011017882210253023
0.0006135684132046973
0.0008687961456603508
0.0001845261107673437
-0.0014843683992633002
-0.0036229257626853085
-0.005201199893094269
-0.0049522575604147995
-0.0018801663696339022
0.004099945293445668
0.011598453526137177
0.01755153840210968
0.01765650258526105
0.007553445449390733
-0.01544174390421544
-0.05062066548715586
-0.0930063436435848
0.06596393041658458
0.03608564395204277
0.025132977360383484
0.03606362883208035
0.06592399057967681
-0.0930550636312143
-0.05066323800181381
-0.015458800635555619
0.00758079986410346
0.01773813556947816
0.01767824946931025
0.011734871441899152
0.004185977579683675
-0.0019147529251757635
-0.005159514043450598
-0.005578888062082264
-0.004083982133089215
-0.0018503419861145883
0.00014880481679752975
0.0013723994065660474
0.001721348439967683
0.0014066966262210043
0.0007695448118517029
0.00012665389258695485
-0.0003195608617321996
-0.0005022530669516524
-0.0004612544804579796
-0.0002915028410763136
-9.321203234187434e-05
6.130985484018969e-05
0.0001399577296377774
0.0001460755155048051
0.00010439467537189093
4.546785692343156e-05
-5.995806432244933e-06
-3.6689338748955665e-05
-4.466968427182156e-05
-3.579000668495919e-05
-1.901123966401551e-05
-2.466459868593188e-06
8.771180422192004e-06
1.3146602147237316e-05
1.1815661449551184e-05
7.289102993646201e-06
2.152047805761062e-06
-1.7694288692655713e-06
-3.6989462879464388e-06
-3.7664014847904197e-06
-2.6346234946101213e-06
-1.0969612444691026e-06
2.1803763279465868e-07
9.820987587100989e-07
1.1593065637663133e-06
9.099316223014129e-07
4.6840266238414983e-07
4.297032994021938e-08
-2.396164499949635e-07
-3.437015820931297e-07
-3.0238541281258637e-07
-1.8195162897320125e-07
-4.901136942087323e-08
5.038807791716185e-08
9.756968356588555e-08
9.699861382926945e-08
6.639064793632834e-08
2.632151267160797e-08
-7.239498870707839e-09
-2.6217393490427843e-08
-3.005019545151504e-08
-2.310494490666256e-08
-1.150570769545619e-08
-5.786489219999049e-10
6.515762419784547e-09
8.972891666796388e-09
7.729637421799801e-09
4.5326851979435245e-09
1.096443257995065e-09
-1.4196991809867713e-09
-2.5690619453373814e-09
-2.4952097280700494e-09
-1.6704109342719844e-09
-6.276522926224704e-10
2.2785940906423584e-10
6.981224618306416e-10
7.779838027837152e-10
5.859200442652514e-10
2.816890775696255e-10
1.3524983303555393e-12
-1.764491196386145e-10
-2.339298359624654e-10
-1.9735490489866255e-10
-1.1267230806199146e-10
-2.3956306286446698e-11
3.96478877009984e-11
6.752946555302215e-11
6.411377480643978e-11
4.196018669643679e-11
1.485845455272028e-11
-6.923152408041871e-12
-1.854645124202684e-11
-2.011775354212575e-11
-1.4838794236882713e-11
-6.871521287704782e-12
3.123534110720349e-13
4.7604243950182435e-12
6.0904200701634445e-12
5.032756704334826e-12
2.7941313449310654e-12
5.06326455969219e-13
-1.099193090464912e-12
-1.7723479786837502e-12
-1.6456343920490792e-12
-1.0523100312635146e-12
-3.4875333438471974e-13
2.0514699979125433e-13
4.915915412179438e-13
5.194257255682648e-13
3.748891112903483e-13
1.6632953568793063e-13
-1.7670377360365934e-14
-1.2863737785662707e-13
