0
-0.0031902399439020295
0.18728050520988043
0.2016010584126632
0.05267396340910459
-0.06312198702842947
0.03463782814331754
-0.08300841614928192
-0.044627964298618095
-0.06879364851867431
0.04246128341269093
-0.09460328723372385
-0.04888302664114738
0.01775439761546007
0.14024953941362012
0.14062936419173525
0.021934458271335437
-0.032061062848737075
-0.05129976470754788
-0.07021119036683762
-0.11814055117312033
-0.012564420042613737
0.043114278359773
0.057249119188140116
0.04476049342260821
0.021401278248679205
-0.0005756482488898711
-0.014418759505421617
-0.018665152125022243
-0.015499877762115881
-0.008659408223118914
-0.0016612095163557872
0.0032297559347826106
0.005255804626937041
0.004851911494046206
0.0030681816425067445
0.0010047777672223407
-0.0005683732423636174
-0.0013519634255473318
-0.001453677064816645
-0.0012046114443908394
-0.0009480455862406462
-0.0008747659731839277
-0.0009496756600668787
-0.0009438095109686881
-0.0005582133169337567
0.00039842916006582643
0.0018376136838563425
0.00329685441195083
0.003993069784268236
0.0030633698048924424
-2.834464453547932e-05
-0.005026332058745986
-0.010551979079403247
-0.014142917986519824
-0.012855385215668334
-0.004463937719303134
0.010970986807666413
0.029695238650827707
0.043744424469850135
0.04200467111933391
0.013124480956385295
-0.050216055449751204
-0.14706702936013832
-0.06594113180997202
0.01387310749893884
0.11717746332545789
0.06548516192993858
0.07014184554261389
-0.07152050682704306
0.02416546088849445
-0.06870073087267829
0.02080445204433981
0.06748677635980743
0.05641958644952778
-0.21249771019745928
-0.12313175247578767
-0.046220484051700914
0.05261882612012811
0.2017318114995029
0.213061317519414
0.07715392111456122
-0.033607555733762756
-0.15420628848880968
-0.31290061934201624
-0.11992344654580811
0.036022269662744244
0.1820651637169817
0.14916863822976262
0.1594618953636022
0.018339988778611607
-0.08591821719364164
-0.17586791997868043
-0.07553474246037008
-0.0022463634605600627
0.03743576135573518
0.04715035933837294
0.03697097549934468
0.01864678989526484
0.0017122328723815927
-0.008566205777718956
-0.011337247739717714
-0.008933282216026595
-0.005009123048089074
-0.0027356290290457075
-0.003526751994619973
-0.006553394157297506
-0.009110901417961089
-0.007753460041276197
4.789741738139161e-05
0.014146814139858806
0.030456322621725422
0.04083714975862853
0.03463711408690372
0.0018982037138593818
-0.06251117139654418
-0.15536849146727502
-0.06404826233641764
0.03077152072510999
0.1489853056891298
0.10376759567456967
0.09635734833410203
-0.08454389405549093
-0.058319441991966696
-0.044771163531485955
-0.056344105234046926
-0.09317146814972115
0.057356178051758154
0.016425174851760524
0.0064662923810167245
0.04303784034624489
0.12850253472106926
0.04958571196797823
-0.020166883065257046
-0.11357338428766517
-0.0608067796754673
-0.0812404455838994
0.021217626418839453
0.058161597271719635
0.052700160024806805
0.033175300211073885
0.02639575056932885
-0.1485983946526977
-0.08624185868925616
-7.836559730655429e-05
0.07183494157267534
0.06335930950236532
0.08147298724352164
0.2154207038962966
0.3558300675680292
0.02318629930480129
-0.39904715973992505
-0.8361677997752341
-0.11122097987402882
-0.3613037659382169
0.3171096199246495
0.8033117762529648
0.8860675590918788
-0.7845984240922612
-0.3148456077938963
0.04813998709307751
0.7581189639052074
0.6315813656349374
-0.07698661623209097
-0.9964336937886292
-1.3750870767098744
-1.054953222092661
0.09915476377603363
1.9178303866759308
1.6182113200272226
0.30681566410312167
-0.8740615851235979
-1.1480562915579906
-1.0705763913487543
0.31572337543605977
1.5194544907956538
1.8343724373346413
-0.8193819638512461
-1.4411161419234975
-1.2956922265026045
-0.8874125577167842
-0.38483624186066084
2.3028140288918615
1.6241420467211565
0.3007915793245892
-0.3051654398657399
-0.7609616506127213
-0.8872153598721733
-0.06936442252790845
0.21163035599274774
-0.3905651489180001
-0.5027725000930287
-0.48866662061040234
0.06507835281775162
0.8524976025997395
1.570189878901006
1.2893680807736838
0.7023344763381584
-0.5540519945885873
-1.9252401693144248
-1.969417644702958
-1.6534292322956525
-0.3603975039165119
0.7811231368088211
1.8799552220047167
1.8434913566392743
1.5931529630156573
0.7924802223427871
-0.6914947059636304
-1.6171582307527326
-2.146265093951846
-1.0433423170812957
-0.5562538535067069
0.7956794664610494
1.3391731069088726
1.5130479199882843
0.33534707827390964
-0.28799594871056655
-0.7976897838758653
-0.5686012294419415
-0.2734885146528576
0.5550177423856292
-0.04738590042726741
-0.05887264939871937
0.3410110202001304
0.783600132736028
-1.674997515084112
0.059311701338866735
0.726138759922088
0.10916028641938844
-0.7725823394406399
0.9243963040564298
0.05918867849593043
-0.29846354826870825
-0.27018268180694754
-0.17182008638431728
-0.32220547022614526
-0.060291085861144705
0.432511969758085
0.9141482582733103
0.48039337429314355
-0.01050120955904754
-0.2874917526894515
-0.8045845156761781
-1.29058095580816
-0.9351312544605523
0.5753764805734908
0.978537474046405
1.740788046446046
1.5847822290763662
-0.3299061438495985
-1.9668817292709642
-1.9384961094145652
-1.6400453993375657
0.3709925291252173
3.7446555644392663
1.0872560944375662
0.937237931306907
-0.1976547417549516
-2.1453170526333905
-3.757916124002145
0.5577918703842972
0.42550057590005885
0.7956875661846625
0.9901260290068632
2.1533053050663704
1.165869063808015
0.2517882549457515
-1.7238035025232088
-2.1050741704605365
-2.1060324432577455
-0.9402718676399955
0.9506500275677797
2.58541217697191
2.501831512545796
0.8542137971748267
-0.6026596210296831
-2.037722027078823
-1.8142544696921639
-0.7667080744044861
1.065556630755144
-0.372711815561222
0.37162942005242705
0.7524622724421253
0.7225401056155495
0.06975173546217564
1.4125051513378815
0.059737128007843324
-0.676896721554958
-1.3488697334491555
-1.257533500357452
-1.0052627598677264
-0.33929860463347405
-0.08918744999300945
0.831877977300676
2.015943659309685
2.40469459486649
1.4473350025581417
0.4017526817731899
-1.2357873589139703
-3.834639583415929
-2.961149811661519
-1.6300459411367194
0.6702922472571748
2.3889318909263997
3.8323989755455417
2.0983906006210433
0.7156206586172649
-2.36849756627148
-2.67532286372669
-2.2280933938707763
-0.20974293609215813
0.9061652572243208
3.1525997942601753
2.2356735527140192
-0.0785300452839495
-2.531192874491314
-1.9093105335708878
-2.0053513837708143
-1.048167260702212
1.3773602481256553
3.752080600685
2.6536461774352063
0.8716467637175254
-1.549951588803374
-2.3558194505903463
-2.67116724412353
-1.0245541324368381
0.7372666829948499
1.8276486834584762
1.4230567849886835
0.7464531439234143
-0.41907737809573753
-0.763104696824252
-0.2329332848466197
-0.19441723026437027
-0.3939947039273052
-0.33938796536164006
-0.1054743632955942
0.4384211710614942
0.9921239164542599
0.5962467498101881
0.026784660608752148
-0.5828342986255218
-0.7022467587791074
-1.1679920910835653
-0.17206318533758772
0.3142991167362997
0.8886842849470199
0.8606556226083717
1.0195262296369092
0.04943042036598386
-0.6032275855990836
-0.42592704803356896
-0.9317128160165021
-0.9830507674199586
-0.3768897499452172
-0.10307267790110122
-0.06699753770515407
0.9525984881117934
1.9534684612406052
1.412981670060861
0.6790164193568778
-0.7429649687430244
-2.0326812411683104
-2.6825620069382117
-1.3733645707144793
0.6583109036562711
2.758067837369519
3.538060353114453
-1.4308088769877032
-1.2719364906645327
-0.9935304797313745
-0.6439101389040065
-0.06821883132113074
1.1117854837186054
0.8952976377103875
0.2914193583145038
-1.2874847333858992
-2.0265386375517807
1.6880071301887727
0.8552065399919704
0.24117175982984632
0.5709067876011221
-0.8587797316324123
-0.5479182844280479
-0.35835987145063575
-0.29265197611989824
-0.2973883273843167
1.110458034046806
0.606911958018421
0.23207187439056995
-0.016678663280616415
-0.5659797148645045
-0.23158389684732958
-0.3838994480483383
-0.1301737073609476
-0.12292880399090833
0.004680879728472227
-0.21582489360200538
0.25149262445724974
0.6989348831735823
1.2585164589359557
0.9328258130193712
0.07875420552030804
-1.2695413794368908
-2.2737671469747935
-2.2091636532814936
-0.2684835710282614
1.3354660230417776
2.998302001262776
2.146369422121034
-0.07930778059169133
-1.4373248393827591
-1.303360110929325
-0.9323918158698836
0.8821245454833628
0.11376266815091797
0.15734281128425784
-0.768725515537712
-1.2681968576275904
-1.2564794103515848
2.117098151370194
1.9404770817002528
1.4446195660196595
0.5841839756927377
-0.49007472754881803
-2.08759501340987
-2.2154388682881887
-1.4600907765458984
0.03979570677508451
1.7212101716733577
2.0594413894989185
1.6271280559943333
0.6100720584197674
-0.788022830761063
-1.8604510606886393
-1.2744308859114655
-0.5646612188908895
0.1144891087025319
0.36448846341969054
0.46123629715161674
0.6504793189695752
1.458124348765487
-0.35386413804953143
0.6291518825169409
-0.25273698555855867
-1.0281395698140676
-1.7906333185368581
0.16596586344208972
-0.652737378648187
0.1879791988778378
0.9306283594531294
1.2896587900039083
0.9434232056996902
0.08864133200427539
-0.32734871679325983
-0.3054853352731397
-0.45360129742107047
-0.44226942516996104
-0.4936318377160601
-0.9301468614072684
-0.9973486880174999
0.041312906212216366
1.1585255835562576
2.6058959614057784
1.1955904037339362
0.06300031633962641
-1.0755312721614982
-1.392941909516129
-2.0002026047991435
-0.028926259071446775
0.8154245420383102
0.6239717105940951
9.139367984520408e-05
0.15411707339715905
0.6078840198061485
0.5298736073046433
-0.0888924684205304
-0.4183133393900841
-0.34213511407134733
-0.1974696441423194
-0.5188592718172618
0.0005253964491837303
0.5266665748142054
0.48616394202328517
-0.0387297876151165
0.08773570042190548
-0.14116278073926572
-0.46822947437539675
-0.5718165040820034
-0.07889787099542994
1.0058986356805593
-0.5390087936945888
0.4101322592046318
0.698940936269782
0.2941953746449154
-1.0924561255661136
0.6372431253257422
-0.18537710084237166
-0.7608035652067652
-1.0118951771665143
-0.609115332658232
0.37051369343273566
1.3670410838444338
2.4756250001825357
1.0359598819521336
-0.30372815017947374
-1.6565090673926308
-2.3446048244519235
-2.59023542288327
-0.5066881802609919
1.1891108277331726
1.971224466284779
2.277143170408806
1.9432718114888323
1.9696168883122225
-1.965278944038317
-2.073097842861511
-2.5873508662491007
-1.7539800563129855
-2.557516586373142
2.1896445199632746
2.82741460158618
2.579397784814205
1.1352327658715833
1.16139045406217
-0.8338795259725414
-2.5135179637410414
-2.2765176806031264
-1.6616980669037356
-0.4579980276417033
1.0552116657924742
2.3649869136810784
1.9426619818129665
0.8949645035931897
-0.5010136724506007
-1.168765963233124
-1.5385073195071273
-0.8391002752949823
-0.22314374621767355
0.24952006596864457
0.5730347671643479
0.727119149228905
0.8144353507384845
1.0356702828215252
0.720331541235656
-1.3894092335748982
-1.6269795857847709
-1.1031614912090317
-0.4633465199478643
-0.12410459093646228
1.6164999900621868
1.2272010349711624
0.19543213833606307
-0.6778625086507538
-0.12002555212977287
0.4355605013884236
0.725343308360437
0.17191967466616345
0.025555746416027175
-0.6908700698308399
-1.8639230355352332
-1.8326413712886263
-0.017765502105827037
0.9612964803154749
1.7125321346577587
2.4972027335189333
1.5170721063953398
-0.8974020427832419
-1.9992815694598574
-2.081052697143628
-1.5395321982537602
-0.005670797340868643
1.6401351953958487
2.1887429592333656
1.20801726381849
-0.21742218678592265
-1.289130863477161
-1.4519436638295296
-1.140413493565498
0.24961499788934036
0.9483329775811479
1.3690570488406828
0.864000216672058
-0.09244741000649256
-1.0808218354865262
-0.8845333775813008
-0.4342332802214669
-0.17407136753340122
0.7379798883517955
0.8008504015677891
0.32873688314599214
-0.5857855364923026
-0.49555601208628425
-0.611814160494492
-0.013036055715754972
0.7485227826294423
1.2504699597050821
1.028486591730141
0.039532755323199775
-1.4453916453118436
-1.7453810797709297
-0.910666882501292
-0.5360798104351824
0.14075511831425355
1.4759674235890654
2.236619998909894
0.45450553198714627
-0.03836501409450019
-0.17542075588099662
-0.7375036778896698
-1.3892653538755348
-0.11501452194126041
0.1088206040156093
-0.015558650475259976
0.30466139926993596
0.11652896077779626
-0.14861999578760657
-0.3649726101071239
-0.4107277460587487
0.3354156314115517
0.5134369082329927
1.1350406370655646
1.3898213772964527
0.9161188950554159
-1.4703160299623543
-2.6219537455114255
-1.7320179416407258
-0.8874807250234109
0.6693604109350908
1.9851423692800874
2.1988775583764766
0.7743058245960799
0.41776738637250027
-1.2968277389275185
-1.213925983580107
-0.23779941409920505
-0.17943208207861497
-0.6459275898244048
0.2104281273643638
0.4840466918310937
0.26137376603514784
-0.062149647494137344
-0.47581939720271704
-0.2447352407347206
0.2117464605700675
1.064846071240698
0.05820003322878481
0.9404033945440258
0.9548290928621688
-0.4206815786420818
-1.1093239984910752
-1.2874862073096005
-2.1028232930823387
-1.2995221826660521
0.03383325394450595
0.8167048505524916
3.4913301143486497
3.3863085569605254
0.8117936758017055
0.5315275618238453
-3.0041927264271666
-3.941001823944792
-2.327414867189187
0.45599079858154834
0.09823380501459242
2.2098190785980085
2.095751324335865
2.1386918671532875
-1.1350148218400338
-0.2732636651972198
-0.011644859559606173
-1.1260428700574328
-2.6791069476830858
0.8916978258218895
0.8164730679890218
0.5640514255787
0.16224458137279438
0.09450191101875946
-1.2069950281567228
-1.2627677399995754
0.7629958736379783
1.9938942352282019
1.8196542425852869
3.150204739926685
-3.442351704959588
-2.7186309360121292
-1.3665039266223376
-0.47083351577215726
-2.7098888768105702
3.5180528211781494
2.082760447954325
1.5000405975676043
1.1763104613639634
-1.0327646391529848
-0.9479953315550105
-0.9157390723628913
-0.6389055925920151
-2.2447235976402995
1.1761631940313442
1.152431887687758
0.5562175240838367
-0.49624691400801346
0.8666801577458946
0.21551399254279488
-0.19764567792626211
-0.4210552761114639
-0.16150604681679928
0.06578562033811755
-0.018846455259740574
-0.43165160420281823
-0.3189089406534162
-0.1727410706414135
0.3345986881185083
0.9080959673298439
0.5939842707633607
-0.035469873467622925
-0.4707312825680098
-0.8343316916133207
-0.8474204431371182
0.1895219659708329
0.7946485555756645
0.8885099264480297
0.5804673622079883
-0.2269470369532716
-1.2126481429067473
-1.2023861747746183
0.25617999294613025
2.0959392421411738
-0.8878531465672109
0.33619388865844757
0.4125404790750517
-1.019848184111499
-2.3491040950249023
1.3760548329036018
1.0009164902618641
1.2232676851746636
1.383025237888387
0.30507715410254377
-2.2050926498342545
-1.4416654749515245
-1.1012862334304112
-0.6512210746963599
0.219679546936859
2.4844484240063123
1.6410238115048257
0.6085603154072043
-0.7045946187922656
-0.9551949540520127
-0.8678621600077936
-0.7288399264822127
-0.30914461023192225
0.3624617917952455
0.5777908140080086
0.49652387521859853
0.28691867229625645
0.08082593754009335
-0.04625400949688048
-0.2707488962442093
-0.40126921223490747
-0.2559397428726926
-0.047397291726246404
0.21969989800327291
0.34090206805024453
0.30136647323593213
0.0706887169955894
-0.19229892684611344
-0.32636825641709183
-0.35311889603549307
-0.06861181409946127
0.15386865841815534
0.35128638326611145
0.3553658668220908
0.1826496390825332
-0.16452634892663678
-0.4871504351686286
-0.3758876095297467
-0.2040026829277818
0.2672254233163375
0.4720209644138359
0.42094952817648756
0.08975435175565943
-0.17704532489119706
-0.44886456856658874
-0.38628692998523273
-0.023454705651385882
0.23715538677903628
0.21718779405043298
0.14776583528284398
0.05547486810966132
-0.04547329978492222
-0.1535186002893455
-0.07471848497675801
-0.016224072998841696
0.018496648352401925
0.03128451854788551
0.028170234905617066
0.01687690162885637
0.00434165426485933
-0.004861248224950044
-0.008947387521221458
-0.008427819769789222
-0.0051403969013803395
-0.0012413137736609198
0.0015565526780382327
0.0023903811209327157
0.0013246866415843877
-0.0008162082277170471
-0.0027793039487207702
-0.003326615232003583
-0.001759028083732197
0.0015268859286396957
0.004540329789075434
0.00339290138363881
-0.007658648673610566
-0.035696317250857555
0.11195424184421761
0.029495900278808482
-0.08493233922502237
-0.026706319629726315
0.01688605555691544
-0.13401246997891506
-0.05561802408969698
0.07270323066296648
0.06010420017615413
0.09712604691463739
0.15306535739214086
0.18040825227622403
-0.0731875702713561
-0.24792015219589725
-0.35543408064388426
-0.16982912186011373
-0.03106823506123145
0.3391530153810566
0.41478042929354275
0.24517332596595148
-0.15465928128548073
-0.20061641632018498
-0.32669336652044645
-0.17066836739945346
0.0343991319089933
0.25985279862642374
0.07457402367272947
0.037184591929228586
0.0930568465259692
0.17954636097041787
0.039724960755436044
-0.1581645505949756
-0.20111125074159195
-0.4191003154052945
-0.2874605348821138
-0.04749712400058464
0.4573090577989034
0.5394241991965028
0.43400537185473065
0.08714921761043327
-0.22900180336386106
-0.47935297067585003
-0.4205292577151064
-0.16291340759450626
0.04839218664778906
0.23049161889353867
0.2426688970236381
0.1593889691608774
0.04636923100452303
-0.053820183774813235
-0.12504372204744954
0.02788415506147285
-0.010699112499269815
-0.05663348804779859
-0.11772519331551319
0.010106611178438614
-0.058396387036506854
0.09656578301458937
0.09203794769594414
0.13534247335716776
0.020784811915051903
-0.06861492729187368
-0.1552077929242619
-0.059309026910068965
0.006550225324416522
0.0397076598290025
0.045733720921323676
0.034574770266685796
0.016459178419390617
-0.0009322709793779031
-0.013449754564079945
-0.019886956660234788
-0.02061141852360772
-0.016298934102786447
-0.00741075654687649
0.005397653554660288
0.020236306453226112
0.03297927344235835
0.03709248330250606
0.024864019004974564
-0.009946516487609261
-0.06879185275108997
-0.14579093244691177
-0.02754841489220218
0.10380813573705042
0.06505421987057936
0.06594186730458895
0.1055718694129017
-0.027207572952162567
-0.14947288734202877
-0.07789389748678159
-0.023244484951135347
0.011921502886428239
0.031755079689682594
0.04285988440453474
0.04943497701874358
0.049994509053719334
0.03713364466962664
0.0006472095941752362
-0.06701499722651774
-0.16511234024734256
-0.08144525105798187
0.006319317038602027
0.12460068017032937
0.09516698656292004
0.12723019728835483
0.01371680496274555
-0.06672989069807109
-0.14292955668902285
-0.042360050411838365
0.016334114909304913
0.02727071219339696
-0.0028267945302560818
-0.05803329548358798
0.0815408032121631
0.03417095674361555
0.01200677549691141
0.018747905158522926
0.04999337690483068
-0.1041041108067086
-0.05501508255749959
-0.012351983434649242
0.018028457660754314
0.03397114977584435
0.03563659548502681
0.023915058321952804
-0.0003989366816638415
-0.036353904401721024
-0.08190694811701042
0.0669020752138604
0.01601804362870831
-0.027455182187651035
-0.05666294020828712
0.13345031468767976
-0.05513709079416016
-0.024154285833002172
0.02120647977820739
0.0733720188139523
-0.0759300439817738
-0.03376799559111253
-0.0044274748168067505
0.011275655515891813
0.015562574436765194
0.012427789531754574
0.006143782466396614
8.646912719423059e-05
-0.003834706798125478
-0.0051495996975187515
-0.004402751033719729
-0.0025911108691521224
-0.0006787994323421913
0.000694293228897995
0.0012935796438027635
0.0012139466677248034
0.0007288382150695058
0.0001389847989911739
-0.0003319821244007631
-0.0005797436716070449
-0.0006089211339496871
-0.0004924100675518144
-0.0003238402978484908
-0.0001801214845249749
-0.00010186160190242889
-9.143210165154207e-05
-0.00012358844958323636
-0.00016200151963925445
-0.00017580175410974352
-0.00015193337323009747
-0.00010075505381463915
-5.358054941576661e-05
-5.202191893365418e-05
-0.00013062640000828323
-0.0002966820876223954
-0.0005138279132027199
-0.0006980424079151234
-0.0007339719403171492
-0.0005148533572317713
-1.4599229174750154e-07
0.0007268059138416181
0.0014289529945021205
0.0017440046482620406
0.0012907670143601773
-0.0001538629915926734
-0.0024533338632916697
-0.00497017619178475
-0.00658942292536366
-0.005990492295910836
-0.002177415111669435
0.004844447143492256
0.013494379243804745
0.02048836235708673
0.0214798539591167
0.012599101556921375
-0.007350580143467469
-0.03475457048298278
-0.06022842174458682
-0.07007024139081959
-0.05095423678047597
0.0022971916103233917
0.0774482586943718
0.1370785338888869
0.11602628288674005
0.12725695745699586
0.07743319495837647
-0.10953568844139944
-0.2659331440799619
-0.15797959277305282
-0.0754576978148683
-0.2384579004909262
-0.02222376938208112
0.2037805584700159
0.43071226384242794
0.16964921566686833
0.025106284120339648
-0.11176859324247343
-0.25082620413131124
-0.2765200322176323
0.08618512623151695
0.5095731775004186
0.5042768491929971
0.2649696725369165
-0.28147691463854974
-1.0353309517879774
-0.9084434860500754
-0.8524836184504384
-0.14009623346538821
0.5107162258574047
1.6001471426196159
2.14414988257207
2.851851088356306
-1.7920252984557414
-2.153374611258629
-2.239721313574491
-1.93552876183601
-1.9497528708986254
2.699268353589444
2.491334941623533
1.7768609880993225
0.5981358205459784
-0.1815726166735077
-0.8276371555379114
-0.3916357158085815
-1.3300602157357848
-0.9403909249568496
-0.4581164492206587
0.1636527208444187
-0.00442816135064275
1.2201475060671048
1.0053956215805107
0.8040332121935092
0.3069308526894603
-0.9410087813505268
-0.8773243170272227
-0.6417611855695868
-0.5129472938216565
-0.2846220461716211
0.9145338308353507
0.7715200098224488
0.534975700937875
0.18102087416456628
-0.18730777121554332
-0.3089374602853408
-0.5169639450612213
-0.8950434586250683
-0.656294579347455
0.24702499696402522
2.2898249317323525
0.13725556699801286
1.6293657818038558
-1.7995623885254046
-1.476959999114634
-2.4536832970691718
0.8947489263240281
0.41302620510397114
3.6750170080293314
-0.30021689628252846
-0.08175959934610187
0.010031839062125543
-0.6027106322525004
-3.0415091022944445
0.9200423108274796
0.4948272867264688
0.0597184944141371
-0.7133297521631141
1.4541398112901909
0.7665778466616037
0.30476313570295327
0.2201682549567243
-1.4283933715430095
-0.41343092893863875
-0.2788049815789614
-0.3035501504080669
-0.49882985590230056
1.9682474099438136
1.1419760356916586
0.4574270295812092
-1.8571775752352082
-1.763852079644244
-1.009159773598848
0.047196989797596595
1.1688409891730909
3.17415185315123
2.3116463361145527
0.5212824429118268
-1.8117564589694712
-3.6545619479623688
-3.1585256219115445
-1.6133026666295198
0.028663784377606166
2.475555430009497
4.152553754969766
3.913222156315524
1.318033580981398
-0.46409668063973153
-2.9578327259239527
-4.588959743541981
-3.7364670745833837
-0.7510340916450515
1.2036904547873917
3.317915232476636
4.41372579967887
1.864328000815732
-0.14304576821029216
-1.7652916292068275
-2.122272698090341
-2.2660027414473696
-1.3982792434184184
-0.40572790812875925
0.8685277731493272
1.4479670226443673
2.007121536724819
1.494154727311345
0.45239869053952386
-0.13347230518833356
-0.8826547416872765
-2.005205247984871
-1.6978564298729977
-0.41021983801825457
0.18259346603255758
0.5012989342872125
1.3114870960035152
1.752876694750946
0.2007066080191022
-0.6064157968506579
-0.7650007123507786
-0.5489916956875083
0.4749317229205976
-0.4668665353316896
0.5167800891800212
0.2340367570343468
-0.5586339000076361
-0.9476448925832854
0.7213991420245164
0.0016215830487372473
-0.11766499279321221
0.3172544279588085
-0.2432541975251399
0.4960720603559775
0.44919721539675167
0.1546593485813406
-0.18490040343576866
0.16492062717639774
-0.24683537022788685
-0.7762435174050173
-1.2256063786622315
-0.020197858752853598
1.1760426121012015
1.217877553483833
0.8327180031269238
0.1930183683579265
-1.6873889277348155
-1.9494653724891198
-1.3071024869798586
0.8901484162913225
1.3532504421372193
2.3436521298616704
1.808990873370578
-0.19309495060298715
-0.3742987255948568
-3.6318210567247116
-1.6660937394087232
-0.8682764937794117
1.2818160175224984
0.11278404694004093
3.601175191801805
1.0200934814440346
-0.3464430203725971
-1.1996075926987375
-0.7486448390535221
-1.604797376091434
-0.494832717122075
0.37420608107598863
0.8943978148685873
1.0005352322661205
0.8104495436412652
-0.009243828255926538
-0.6399574925126383
-0.878880858834266
-0.5002531076716983
-0.6346420225879912
0.6193964191523021
0.55309711493491
-0.009172320355716272
-0.3583748550467702
1.679607302314198
0.9671489864985733
0.12515246861284002
-0.9595986448724625
-1.8187092971513719
-1.7211988566998633
-1.6688028720025412
0.3136669995903557
2.412169087997479
3.63912342545237
4.107632986405846
-2.5754930146941093
-3.1897113371233203
-2.709270218314092
-2.133412308313021
-1.6187240058516552
4.460666252636781
3.56510087172581
1.4362381929094514
-0.5816107619018425
-2.1119751641521285
-1.8344605602046513
-1.1542212029982821
-0.11549902639765766
0.8080435617410456
1.0517584973796013
0.460204603892284
0.18990736995661425
0.2462300593607066
-0.13118634223334186
0.16409883863097816
-0.42722916901968483
0.15450085737718325
-0.12926175780506272
-0.352708311480933
-0.998956661334538
-0.1805677954892688
-0.711077706562647
-0.21919069985045156
0.7180614634191032
1.861504184404328
2.6617794730726265
2.3176195121858876
0.354469977892114
-3.30871748344258
-5.4883830486931755
-3.975652572942126
-2.1848118353451746
1.1596527403747352
7.168144519263885
7.7205726577754135
2.7758545022805086
-0.8129098657530216
-3.767066580331287
-6.654604844475983
-4.963364882192248
-0.9646647839432418
1.327785369453654
3.3181420585038963
3.6236777796384807
3.065981318960451
1.5996401337547312
0.25346037184931053
-2.7251685807962454
-4.405528655007773
-3.110041487371137
-1.2640316684401007
1.3845505774927696
3.797376136168034
4.018300561969486
1.3982062768550638
-0.8453106907138542
-2.317156498890502
-2.6352992688678336
-1.812875159402354
0.2847044354145476
1.3650711852213953
1.0242886111649536
-0.004972374637946224
0.17887281858118273
-0.09781455692110472
-0.18278892080372974
0.6574218488386112
0.8501589169681226
0.7861135443015743
-0.4615498229282298
-0.9879799844756719
-1.7108165961622115
-0.6676589393558944
-0.18826395044364025
0.4495787097697381
0.898750306920818
0.7945941133307579
0.624447545742242
0.45141595249954997
0.31128390615758394
-0.11921024280863748
-0.8030286634376774
-0.8055501149244776
-0.37693717552004224
-0.2863696798512708
-0.42690933781900775
-0.0930718257599952
-0.31782481811461616
-0.24336941294820938
1.5096549001982635
2.1164399440307964
1.5070246077532987
0.8369677249443765
-1.3342313115105036
-3.200282994086093
-2.674620300668991
-0.4435374766468332
0.6469486949551998
1.6751496614909447
2.0513549546578247
1.3240486498739135
0.049652686072009206
-0.8425379426554128
-0.3980343533058792
-0.9343610473143029
-1.534868932906603
-0.3785173332842432
0.8746911788498217
1.2475139514076403
0.9836856199124824
0.09202608511671737
-0.8828282423123398
-1.0624718536348476
-0.22515746437759113
-0.40290424891333215
1.1071100742515618
1.3248952577371509
0.3815428482169589
-1.260428098674966
-0.3594988341815021
-0.03495697887763041
-0.314555860863114
0.09506283200593862
0.41057210416791534
-0.049727426906716415
-0.5045495761673178
-0.3584305001052363
0.145461827579691
0.4767904537015039
0.7867184571384895
0.7095517426162015
1.009215548907227
-0.12991258421104707
-1.386686517083878
-1.998614693519631
-1.5152902104767887
-1.2470419295183253
0.1830129070411716
2.616087043341421
2.9335606698994656
2.9171610360057825
2.4620065395409694
-3.039521879206312
-4.393333218122543
-3.085566119013426
-2.0726638918156794
-1.161922889055262
3.812018327623001
4.688522244925055
2.4812359798513133
0.19309934440293428
-1.393653398812806
-1.5693915065518544
-3.0683790640335156
-1.657442125383708
-0.019747982357933874
1.035185021897423
1.4564588608528646
1.9903742550307264
1.240944061533401
-0.9973556889463366
-0.9191267968861648
-0.21945531940406274
0.8227590114751091
-2.9522657398706635
-0.12775325575341137
0.4847256546677194
0.7799508169094549
-0.7444339999476075
2.5060770001223918
0.9507049618849934
-0.17987920858973563
-1.3934527361240028
-1.2425314315457623
-0.22340482540971987
0.29680336853488376
0.10653918706191193
-0.06853699860507781
0.3861839547273903
0.3147042492638056
0.13618512463685686
0.20789705401606787
0.010820791859672168
-0.24361838448099296
-0.3930615614683799
-0.30038142337643486
-0.035926726857904684
0.32964280562340226
0.32411245158147645
0.2711395163027947
0.09373413649379381
-0.27323713883701006
-0.46508401321315856
-0.2723178945462227
-0.0374905042975911
0.1319493999265772
0.33773141823495034
0.26057623035272925
0.1362745046196304
-0.05427272582427482
-0.17896925486486137
-0.1358850463284533
-0.02872039750764721
0.056969257209757596
0.07226276405829338
0.015921385825372183
-0.26294193751538264
-0.27141702002834706
-0.08910807754313006
0.20730022518209232
0.5165185370320808
0.49084040263391293
-0.07145899009641649
-0.4161764937160776
-0.41037925257273417
-0.3175137155031049
0.018653651760938944
0.3761008948257271
0.3453390287826856
0.11691509442586417
-0.12640690445071354
-0.20932344569322164
-0.15753317407097006
0.00990193531196232
0.08510717785062796
0.0714538961808461
-0.019609832393923443
0.02732578863909435
0.028351294517134605
-0.0014869765274448724
-0.04853364371759821
-0.10024348198625832
0.05479247322862833
0.025933517995955054
0.018890041284631908
0.03432261477656819
0.06761678327767197
-0.08971133099579376
-0.04733785135572078
-0.01321919161468251
0.008387861342625947
0.017334532668771524
0.01657916553276689
0.010481893609105961
0.003169265425456415
-0.002522167854755373
-0.005375797533715113
-0.005537471683323104
-0.003949615856911129
-0.0017562253628335427
0.0001309613834717898
0.0012321455497450204
0.0014902486895639465
0.0011330540169179387
0.0004971896664911674
-0.00011708142442392469
-0.0005263054894583812
-0.0006782433752367821
-0.0006200241886958329
-0.0004469829583961068
-0.00025524213577323644
-0.00011145516396522743
-4.284730507308896e-05
-4.32062623882301e-05
-8.709735221601469e-05
-0.00014485050050353548
-0.00019336326940371583
-0.00022088953917981065
-0.00022653151820092767
