0
0.0042570371041705185
-0.08087224760957476
0.02378874196938812
-0.08777499931573852
-0.01684337264173676
0.03986781989097441
0.08821932082182245
-0.06628381878019596
-0.02125711213561724
0.020777179573358943
0.0520018865611816
0.06060386119935703
0.03396246266853044
-0.036564888676375584
-0.1505034626003598
-0.0948893509775681
-0.04482245185108623
0.031134263686871805
0.16193269433976915
0.16460010440533882
0.038246515081529694
-0.03582232801395516
-0.08781343616060873
-0.14954724860407972
-0.044876974248401855
0.016130356623875214
0.03768157234876025
0.03403775363934048
0.022699946518886786
0.01749303539534456
0.023581984717267513
0.03565866634482589
0.03971938143714773
0.01805719667623091
-0.043748050914680675
-0.1498963275620846
-0.09005209491450127
-0.039869783172787825
0.03288878925883698
0.1581094602020839
0.15236135600326547
0.011227131710501298
-0.09222704440040133
-0.0023588397863061323
0.029003212105716908
-0.045496272727826415
-0.05767144455179339
-0.0160005847216639
-0.10290006019228203
-0.07799919758303006
0.11291690458252718
0.1251607149818698
0.0017310934856302061
-0.037326615280453515
-0.00024964307086564
0.07757531914722916
0.1413381099575544
0.13060622151765502
-0.0023583692878678046
-0.2732859066121381
-0.4514103129219402
-0.25656136559619924
0.027674185412445138
0.32598913633753845
0.5368434529988715
0.5040435707296385
0.0058050812298793145
-0.43439969517962185
-0.5206575357072619
-0.35375532689102607
-0.009872246631007373
0.26419185862457073
0.44140808285421307
0.29950253306164143
0.010623601057311152
-0.25873282495657063
-0.33901067547662267
-0.246908970153998
0.01971064611618739
0.07761214468017268
0.14687098131052434
0.43941109901152486
0.5557729860957531
0.09579590201602546
-0.5177199016083202
-1.0119643228356632
-0.6495329406749705
-0.24074269693206615
0.6136277711783804
1.4616760597929364
0.7466163200860101
0.5852146945187527
-1.4097893415065716
-1.0725489426195376
-0.6180345493660739
0.6053431953392693
-0.07014523542993899
1.1530566168309937
0.10855896215499806
-0.5608289656852276
-0.4193597585470069
-0.04507569038143157
0.3680502358959843
0.4103783653802352
0.261717935955489
-0.09548502257623648
-0.45616284443445465
-0.7735429791042772
-0.3519137741415973
0.34120831283652964
1.6452881957640715
-1.1291744620661501
0.27180329515701374
0.6358541451372599
-0.10687080314975217
-1.6613024610364457
1.2602231702662459
0.16274695449464904
-0.4140554873255957
-0.08682984350567725
-0.22767425094265262
0.027623985637098395
0.16241480090443014
0.256563113118849
-0.03543411392048308
0.3006107039148364
0.03414035567174993
-0.3045254952875471
-0.612830783622889
-0.2051717252553973
0.3929470539333427
0.8472207988444506
0.22097632392120717
0.19449888763791737
-0.10037519462987812
-0.8387780420062936
-1.2717323969706806
-0.12441079414911792
0.3655328021481048
0.7746359327060883
0.606154861195636
0.41632795210808937
0.17728219412156793
-0.11381349966538894
-0.5847196152417535
-0.21370073587068436
0.04848980256351766
-0.2581850718524401
-0.6666221694434228
0.022410270732896663
0.5163904776146934
0.5880771462556292
0.22839208332150554
0.009538690471467395
-0.33418525824667095
-0.30976128982726486
-0.46124090942008816
0.03344105229901319
0.7610545122891007
0.2704769972277348
-0.12351666306922543
0.0757003567257084
-0.025914441213256825
-0.4812938431355518
-0.2767579140740858
-0.12271736838538992
-0.0663059759982207
0.07493706965668738
0.2659774196088718
0.006051124533985251
0.49291055910082715
0.6113116510176086
0.5526250719709539
-0.735639809197266
-0.6822864284826203
-0.8282886483557276
-0.5899079790632593
-0.06476486704190211
0.919666801260301
0.9328562853298243
0.4712130860864564
0.11738768469728182
-0.2578192611225102
-0.45460161879455063
-0.08111331088593242
-0.2899779822398719
-0.733495543728013
-0.749547534874906
0.8195994825005478
1.185051734807243
1.3652458422138372
-0.242637513894677
-1.2642035356661685
-1.5325559989858877
-1.0808181479464978
0.43582872484947743
1.8872872708225363
2.008905539471881
0.571963222999691
-0.7890511976421982
-2.0946285676779555
-1.3159855957252704
-0.09217935022269229
0.7007210258209567
1.1258400607179226
0.7294515015653938
0.08348693547958853
-0.651663817933909
-0.5397463565518162
-0.2664154826529133
0.06429258979328133
0.3271926926437623
0.5685981826306018
0.2020845415783032
-0.18555087836989795
-0.4172218567909429
-0.30388663774387015
-0.2285967214715866
0.055501952143778094
0.21141812364144455
0.2940884709726127
0.12523356693696683
0.07683142151348755
0.06910320282625444
-0.016253870503676923
-0.11149161837341891
-0.13387342799920843
-0.16058764889276197
-0.2150636526177682
-0.2697532598614283
-0.0663789853080509
0.2505434658499306
0.4964652333887083
0.4189974839292837
0.2921456189960964
0.139430387732163
-0.21683350203685617
-0.8928890896571097
-0.6869711858727842
0.1517782813003575
0.31734829552494764
0.204642165504667
-0.15777891209476888
-0.18475235689572025
-0.20730642111530442
1.0709696502790405
0.5457902202791597
0.5228547698712259
-0.02854069872202357
-0.5874585612706181
-1.781340260621774
-0.7043305234558049
0.320475627630661
0.9264666654283001
0.850081773624799
0.4661346237944731
-0.06144260648101817
-0.40018644792699787
-0.6443522131726368
-0.2990805367617556
-0.06902711106405436
0.33987459009948223
0.406813784542182
0.37928886124491484
-0.1371075256574541
-0.37720156425103407
-0.4049657600145059
0.10107579083056452
0.659962259992972
-0.6035165421769527
0.2477590278931957
0.9710111461143435
-0.8468305822785416
-0.9804346237223011
0.6357599337254368
0.09646987291291019
-0.6995737889072215
0.7167148155459019
0.35239934975440657
0.13210498723275704
0.09816829251522233
0.23471134849434377
-0.08827464326585062
-0.6614887322320299
-0.7883675027108612
-0.2573557938845895
0.45702647169556987
0.9669914094057795
0.5315283422711797
-0.17991423835983342
-0.5108163515569104
-1.0310119326952247
-0.7515570022394611
0.8494182888622228
0.9919803226773897
0.7665827293598266
1.5342615103578225
-2.032960675930625
-1.278577701182752
0.3198569905663786
0.010411837897384438
-1.21388130579809
1.7631766690926158
0.3311430290732347
-0.5057556689078875
0.020918954184140442
0.21102951054563854
0.08243783811601792
-0.02515488533145517
-0.03234128837510657
-0.0925627962132821
-0.16093008357850513
0.034504934797230366
0.013966002657150912
-0.0433993220397548
-0.3005337761894956
-0.07470015040792467
-0.2587304788429671
0.6537613189101114
1.7476661902834993
-1.3205431980274145
-0.5120477530365785
0.21626632973954332
-0.669461077897125
-1.477971926184451
2.0881184062743348
0.8998707396960626
-0.026939520124649494
-0.14052809600193752
-0.5364416803082935
-0.7256927309747486
-0.40597013851438973
0.14882376381892962
0.2763216290018296
0.4987543990922835
0.49739417610704484
0.30485856679766843
0.12500367039597152
-0.020790983076141897
-0.6334502115648313
-1.2827941136460002
-0.7832886512273687
0.18596776051461347
1.0181374628274507
1.8925610017847478
0.2970357332153093
-0.8151394657409471
-1.226252395162075
-0.8274546366516629
0.21307222934476214
1.2728056410423525
1.0910802980117429
0.1924644900570414
-0.6728302229182298
-1.8773590042478998
-0.6746824201875697
0.4095891207808585
0.945277439493248
0.936285958739114
-0.04306320993013267
0.11102061594317035
0.8252365307223924
-1.7272300172072563
-0.7888196682840081
0.41485778500963544
0.28777602037847305
-0.34511111252367294
2.142610705221504
-0.8369516363304236
-0.6885100900135286
-0.22407149050996636
-0.2516725742247383
-0.5735407054192873
1.2026734168371527
0.6459796041426377
-0.11027515916900309
-0.36501202913284475
-0.2291843661977122
-0.19699753205542686
-0.12044946563152635
0.003913684277206879
0.03304003018720798
0.06261739869539067
0.20528989091148797
0.16870494470071154
0.039258449529739545
-0.1252750168392653
-0.09453659903688658
-0.058992645543097064
-0.022181690511787838
0.004882253586593972
0.005678788268022907
-0.043263549581805595
0.024027804786533907
-0.04102171164559939
0.09617486101753392
0.15507198557849886
0.2478302708649273
0.0942921485238192
-0.15750652906313795
-0.5106138008698934
-0.5066192641412028
-0.02947680719296554
0.0711449201161022
0.74222961113505
0.48828520704724343
0.14563108756021015
0.07987186559849942
-0.7938330447114266
-0.5780880450893001
0.036913132034552223
0.3894335452771345
-0.15472033364901217
0.5856347734833324
-0.007040772891121468
-0.15750815182374991
-0.2977867043177666
-0.06030134236042854
0.932497513070687
-0.5204123331319165
-0.1876861657972352
-0.19816343083968627
-0.2418775456669683
-0.5836203265789611
1.7115378029483141
-0.8525902667004351
0.17064420908252068
0.5580974333171934
0.021272649692428067
-1.173722931327553
1.0239340437422393
0.08289374118228637
-0.48085815098235973
-0.4835124236829203
-0.0671899335961099
0.088074966882629
0.1348346222764631
0.2183165026415247
0.23728888028894282
0.2167852572338418
0.10018751053905298
-0.03734621039890405
-0.15805125311689858
-0.22208717317621204
-0.3505555340285875
-0.20127308416760262
0.03643366063761224
0.22775645587269638
0.2652835696308263
0.23854164573166445
0.009813902209130684
-0.1979691923295193
-0.20071523407820252
-0.04337596780104917
0.21497612607530667
0.7188284844575704
-0.3640009690785575
-0.4223278814156402
-0.3870636713756695
-0.33088206361051153
-0.488635693972454
0.9026462848825845
0.7551897107238935
0.4911072155533824
0.02896752683739072
-0.39676201435782965
-0.5902816132475909
-0.3402436872597079
-0.1759223571571981
0.05320340634018022
0.1715409058327037
0.25143104521098725
0.17853723138112434
0.020295612632150337
0.005918669183935806
0.12176456524152951
0.12165915266431057
-0.05129017366150769
-0.23712253155340532
-0.2332081709302021
-0.1782350542003104
-0.15221660586262223
0.005528564969094888
0.2639267819196248
0.1615229366668665
0.17245131768432506
0.28706609943073547
0.4136375433161953
-0.19814939312001448
-0.5178580022978133
-0.491219949967974
-0.40807496969731966
-0.09270704487119444
0.48105282030304336
0.7582943588373774
0.37048972112024553
-0.08307494191615054
-0.43291407920973274
-0.31998771912934515
-0.1709636200302758
0.019651307109202334
0.09328985412174558
-0.08354577816805345
-0.04047929116572256
0.07179012709012005
0.25999323506737204
0.2774200228103824
0.42972094686061113
0.2000571472186687
-0.30985456586016225
-0.9339359211213399
-0.6082604059558777
-0.36687081400583793
0.024589507479728004
0.6034515380656903
1.1331611136560198
0.842798652121075
0.20721124981037942
-0.4223978086837229
-0.9473186961276492
-0.835735261384378
-0.4538742100896572
-0.037048274390671584
0.29313326350643637
0.6770419134271762
0.8543609647257442
0.5161106743735061
0.0890399625609913
-0.8449063888141974
-1.1073228125187995
-0.48314957293477045
0.09773315261427908
0.7496022825436212
1.1998651917656287
0.35726309983626403
-0.7038045205972722
-0.9390276665919287
-0.7205823228086444
0.36998361042724703
0.533845054554374
0.7370841044656383
0.6975671256000794
-0.3100960565258338
-1.2289019142700226
-0.18360865044646743
-0.05190023505937506
-0.05581063649043815
0.22444548612137907
0.6227851786702107
0.3594325001153538
0.02533510420419842
-0.41540192082540384
-0.20814558951774595
-0.1851851482500657
-0.1490450865060924
-0.06891388184416306
0.10859909586553067
0.23874010943988022
0.15584730997788535
0.2572406717969522
0.10025361196238101
0.014394965775671661
-0.2747934882228307
-0.4182903549660125
-0.4227937588030427
-0.04490914554378482
0.5973496501953436
0.4012443861884507
0.05502593375001642
0.022972771059679445
-0.055908556844334
-0.5585363772521086
-0.06542644585109801
0.24675112991387974
0.003396965899100019
-0.17866540371492431
-0.10728164493866317
-0.032059464084390206
0.3426319663415931
0.6550938826632229
0.10079525823878084
0.06741323349604317
-0.013283300290633307
-0.6090917877663202
-1.245201966756022
-0.29523158414450495
0.18292933245257778
-0.030647318717437297
0.981631560613237
1.1820775726439683
0.5238310228903625
-0.04296111980511612
0.09773132856736223
-0.6586268893516612
-1.2123533780617897
-1.2623557790254962
-0.46890931212951276
0.10902496768779353
0.9123248154093914
1.9498036159231227
1.0813250452946706
-0.24479849170001497
-0.7834962104680399
-1.0259117833010991
-0.9064806649052073
0.07988176268891335
0.5273253646067703
0.5315338119432814
0.07623421402567289
-0.1907132378532937
0.01924801678824735
0.015875066063449683
-0.2868424611357757
-0.18766935056394227
-0.016299622073268225
0.24899667525199362
0.36953811855749374
0.6478694172061386
0.3492569147034636
-0.25682643618279555
-1.0450969240589936
-1.1919859986148782
-0.5639421770126659
0.2509444869519392
1.2742664544094213
1.2575729600191738
1.62701101699588
-0.5200821150069598
-1.3623205752191463
-1.668742240407296
-0.7216101523623168
-0.6849237428967628
1.1670326303847367
1.776823700020691
1.224125958742728
0.2792153839216962
-0.5880905062291701
-1.3508025477108825
-1.9498128446956342
-0.4404168137317809
1.6143302036917253
0.5049157815759152
1.7175299826543344
0.09121798123304327
-0.7880920696429944
-1.5580741484250127
0.1638628204086158
-0.787548948226346
1.078566845916326
0.6868663845850137
-0.03853751077405186
-0.20387680354037144
-0.16177073430713326
-0.11382436595185176
-0.1054216946266157
-0.018044080496420464
0.23884616531015404
0.33761299234545283
0.14662190782488294
-0.25001590729307555
-0.32994893815258297
-0.3143558076005627
-0.16219876908029582
0.018115899191397375
0.3411722578069297
0.3089759187447839
0.1786191024790843
-0.056777142639751005
-0.06867950930447288
0.023945193763344627
0.0843989124154849
-0.00617230110937715
-0.11468783435282669
-0.43096365391835983
-0.4586002973728408
-0.026846786203165746
0.2769590174389359
0.6621809455133812
0.49059983818831826
0.047063361831979386
-0.46740385689731995
-0.5226316255480986
-0.4369575741216913
0.24309481437442684
0.555895612309844
0.5339671437175454
0.21761658498157038
-0.3215596130201165
-0.750286347790899
-0.44777160754071477
-0.09827764770316787
0.08974758767606984
0.34055958014175697
0.4565347153603722
0.3691889763417647
0.1107809445811669
0.014206238351040748
-0.26054109136924314
-0.2832368078499573
-0.40784891567538584
-0.1381913262870082
-0.11358588398478499
0.28415735773619494
0.30856436857870145
0.4219742953513101
0.07572234300000592
-0.09635433062104326
-0.47159015895347467
-0.2262140406235997
-0.12637413997942898
0.07097014517010017
0.2066925766626729
0.3029305091147023
0.14941973760234697
0.09973084772468975
-0.11987356467960637
-0.19164840368364897
-0.18457211913826146
-0.13795091957255598
-0.25717469416006516
-0.12437422939880617
0.07847791887135591
0.3418403605730157
0.6082890633132022
0.7727801113402837
0.5125658624383537
-0.2543675108598392
-1.4979763021279944
-1.620776886371971
-1.050807633522584
-0.10290971745408078
1.698690743080443
2.473984991171581
1.4724337908446583
0.03880879817902318
-0.9222954999835378
-2.006135190356273
-1.5450963673266291
-0.4828713505106558
0.47488912616401974
0.8276788866563155
0.7903920050688343
0.5879266204328323
0.372908509375388
0.19033348993466798
-0.006256862739967241
-0.4995397163236759
-1.3381906048268588
-0.47976338943495045
0.03059939631957191
0.4370724731470387
0.61473663896376
0.5977017455082093
-0.08192254578187567
-0.0271164189685852
-0.375655408242578
0.029083421130245216
0.6870905059575277
0.3011989757346357
-0.5619532919407844
-0.8211974820703634
-1.2560664202206184
-0.3227765372284934
0.3850256294157295
1.045403170425203
1.5196908288838709
1.7059023185726787
0.3632610273934859
-1.1888809482014293
-1.9275283375444656
-2.1933124586608916
-1.228014624412301
-0.01931274162128445
1.7514962113804364
2.5056487391345073
1.7789034031557798
0.3170239905741231
-0.5098581480965816
-1.1838532377578366
-1.8545878476983992
-0.9567966291936582
-0.08489993745775347
0.44768332553421386
0.5687757597891172
0.7557052766887343
0.5292406982193584
0.16573285542424301
-0.15383072003892012
-0.35509102018739647
-0.2516402431425136
-0.11194086590205408
-0.2263712819555195
-0.28356477000587077
0.24157406999152856
1.092069681279439
-0.16674907033369582
0.26463929423564764
0.04020615022529379
-1.3117320743080076
-1.58486817452089
0.27728536645047613
0.718471738706273
1.2874178787249528
1.5686061564332916
0.5604814607464353
-0.48078759994849696
-1.341509845546352
-1.7300023833291782
-0.9819772185088506
0.17145340824755298
1.562819383715214
0.09401736716349175
0.827177391406348
0.6997755593360739
0.08937984505706363
-0.9658345227983166
0.49772583286697303
-0.3447485242735652
-0.8252255608059245
-0.7296669372951426
-0.28877422211680853
0.1827860222880773
0.6087270263795912
1.0586537633744708
0.6705550027968681
0.013325421463459872
-0.30003636875722334
-0.5559488160325105
-0.6617537803472662
-0.2708512312332062
0.4683329192724698
-0.06949104826994433
0.0006734218278535853
0.038274213133368
-0.17241302628130448
-0.4773910439671048
0.39473674454663743
0.5933623736034117
0.7320329434073584
0.7124201284804785
0.39136710145824927
-0.5176916591834569
-1.934573532373168
-1.9315317801242384
-0.5190864071112199
0.4833260717172113
1.706527330345936
2.6667215254848085
0.8357894716027424
-0.807789326516798
-1.336653107894011
-1.1676945462729802
-0.7380476767376684
0.5928450531307189
0.3933830253740941
0.3642104643750342
-0.08704497401053433
-0.28302595277080095
0.086170606526543
0.5322942062679688
0.3485969140145273
-0.19772008681230704
-0.6613582002019966
-0.40938999367701795
-0.015318874946135527
0.5376631177198622
0.6462749435756057
-0.3222690819365771
-0.030790588582588194
0.23827024554608947
-0.6003442382195655
-1.0194766688771406
0.7272414801681294
1.2022879422018804
-0.6228553392307233
0.2307190634036391
0.5589499200961762
-0.807067838658248
-1.1840928055702944
0.3670656029302469
0.023891904772630493
0.1644958273766189
1.1222516173874717
0.3504398052498331
-0.18869518114417952
-0.6064159690621493
-0.44976142613067976
-0.05950161229384403
0.06130316916919966
0.0607211242474034
0.13435102595002157
0.11082930958471847
0.03363292691916324
-0.05520153301760235
0.07364854578681897
0.03133599760269578
0.010514749014786967
-0.2114380927709044
-0.0677589748915152
0.0017875848960826894
0.1535702298459777
0.14236793866742956
0.1255845747340439
0.07120367985281409
-0.23108454122881206
-0.5591915394400264
-0.05371897914930425
0.7771977970340124
-0.556391199953297
0.2546216810070906
0.5003077762806064
-0.16118691575469377
-0.9101883650238329
0.43244743034911576
0.0048174100200023
0.10435140531647276
0.3923810888706472
0.5079452634901597
-0.30646326521957656
-0.5701438709154399
-0.12971659989639453
-0.13752755100504044
-0.6532265262273677
0.12812341795779056
0.6266768989384922
0.22022298886605748
0.3957886899564774
0.5263555747348015
0.08126007231894743
-0.5318032128787032
-0.5058066511840321
-0.5739496762849482
-0.16924993460098992
0.1838081033225634
0.24515365438610628
0.21260877352149357
0.06842839713389494
0.13397977367451244
0.24357246205810265
0.5432461029622032
0.11490301410938225
-0.5800988514485969
-0.8508018191245653
-0.5377088817490893
-0.2010154624406212
0.6580260245821097
0.5508305683833753
0.5494417840868152
0.24981904825585957
-0.03598124897315069
-0.657762402213886
-0.18588033003982526
-0.16706520957023838
-0.0923280334361024
-0.1854310181774558
-0.012729121810290803
0.2911139765746472
0.3912998539922971
0.32647420819459116
0.0974153764959798
-0.12508540611389232
-0.3766948977525924
-0.4702488547795515
0.027286903706781204
0.20265041414622853
-0.2136053389813203
0.12906865118815772
0.37087835885650156
0.012979490887840187
-0.10276541406136086
0.19841096806617972
0.029279356944683435
-0.14386658824149479
-0.2796406537886777
-0.13916183647516783
0.13272365552045617
0.22086877098469987
0.24957682364052045
0.1919943874350323
-0.11919021113068691
-0.3823793718128163
-0.426148019446346
-0.4255444308459622
-0.3411737708028172
-0.17860943644988325
0.9450900101620666
2.35083521227401
-0.010565290181083528
0.8935283761541569
-1.9152226012034343
-1.4953847295276896
-2.280248225853842
0.5575549511250817
-0.14774241850794942
2.919581339749694
1.006988361059492
0.1746299530075305
-0.35481707593994344
-0.37029591394869343
-0.7917029252395792
-0.5696001577300774
-0.399066885571535
-0.06983668443393624
0.34090870029493153
0.4414241072668149
0.4817014577761023
0.3126977369392248
-0.03747466878362542
-0.5661896040458573
-0.2833468332215742
0.0062010426879152295
0.11474487155969637
0.07363985518864173
-0.07398966493007154
-0.08588579476393679
0.06557863163265751
0.18233783894583666
0.23602528375090345
0.17311833139292174
-0.06892052291717085
-0.13709737522764134
-0.23677872632113028
-0.5134434950475277
-0.25101221615209596
0.10901251425949256
0.3307085125774262
0.5399223263062809
0.7883877837431638
-0.5613750364201316
-0.22566222160644936
-0.16931808183129246
-0.3681583256448004
-0.376895808860316
0.6899163198801433
0.16372128214245865
0.020055169174731338
0.07570816796058495
-0.011425989041337278
-0.14108641788006968
-0.5728080400236369
-0.3371749140006767
0.140719925717641
0.6084385579037955
0.7539005940516011
0.3870569112134914
-0.354970191753383
-0.7804349538776699
-0.8058108944504506
-0.12635745893029968
0.5935955376175409
0.7111051423920053
0.3875274738719062
-0.021661638372693234
-0.5625460325101646
-0.467334501756865
-0.138762858561149
0.05483290181659703
0.16951193401080245
0.2646860033012005
0.18006570007214528
0.12000575799505869
0.051229745497183385
-0.0852699275376935
-0.152302408100898
-0.1919399392776668
-0.2066409681631556
-0.1525962673940449
0.05193911777995613
0.10542988315850911
0.2955435813551893
0.2744558508301999
0.24557609984880038
-0.033474969976678516
-0.23281094836762403
-0.42447146120957324
-0.4598437822284261
-0.16040213920249696
0.2739205460613869
0.4429939951310288
0.5230741308819665
0.4556825494749431
-0.041807370356733306
-0.4442824491124208
-0.576980686925309
-0.5817530810551851
-0.5090475861229795
0.05536583923395881
0.5333437407793415
1.0846943052166351
0.550124479979971
0.22970961635560136
-0.09249073963249206
-0.48427640090930346
-0.983062560913576
-0.5237641012639418
-0.30152749224173664
-0.18167101331782137
0.4475674702974426
0.9991793290534242
1.6168273901203876
-0.46362185045617366
-0.30669026654208853
-0.6302743722538366
-0.9426078289903945
-1.2924711283080212
0.9461321835483147
0.8511178996218505
0.7062435831708311
0.35683663814839717
-0.21164342187016003
-0.4655366278860601
-0.49390833436815745
-0.3750947603043189
0.04576947501120095
0.36100327097638557
0.38904388357920494
0.15666258003530545
-0.11571690557020763
-0.420731742988704
-0.1638264630138218
0.2400460560276306
0.5702353592928621
-0.19456672120444263
-0.06823967731295814
-0.24686267991232871
-0.30056990155258867
-0.3733597510841409
0.6062205097936934
0.30604570756857585
0.17042613486972666
-0.19258703496538057
-0.012256869243453303
-0.1459631120282958
-0.06491277328512814
-0.04038702664726537
0.06559637400590433
-0.19630411314605523
-0.06472476241868012
0.22720062490949539
0.2469768258713619
0.16266277637761004
-0.048837827911619974
0.21532141669712682
0.005776401310623702
-0.9606384809370866
-0.49638935437556486
0.03829916001464416
0.09176706181090004
0.2605539708020159
1.2306522643671014
0.9422305846958008
-0.20570620237821335
-0.9081987422344343
-0.8798700031802452
-0.5804491191084294
-0.3669285439336579
0.5142372499681042
0.89977171357723
0.6661383210547004
0.292921851500588
-0.3518091028129397
-0.8036372121252888
-0.7842279779613496
-0.19158553808681147
0.2905602883817177
0.9662865006435332
0.8984914996424526
0.2958740201503518
-0.473345875687603
-1.045741896927267
-1.224287618476893
-0.3607642771677549
0.8272459100114016
1.0101671490171082
0.9940926705306462
0.4907663592246473
-0.27191741896693933
-1.1008479884555282
-0.9713090938398099
-0.5732239066766739
0.1059888516465373
0.5551929095558557
0.6826149532609496
0.5532620967740497
0.3464553273602556
-0.050220777841222405
-0.2087045594670813
-0.5016215010978408
-0.4366386822793147
-0.20480945413706245
-0.05816304980289956
0.077581396061443
0.15884815349136058
-0.04098213882934314
-0.20439819985936028
0.2633073613319423
0.38575181775701006
0.7976715209365314
0.5668787924205391
0.05829911569411313
-0.7695144372227202
-1.0585685056018186
-1.1680841437642722
-0.44277297314854885
0.35340946242781457
0.9470691673573283
0.6386757116883798
0.7992291214528364
1.415599223691119
-0.6965580906597032
-0.41592766876421816
-0.4002683884599496
-1.1725550364876367
-2.4498968493898663
0.2553318505329779
0.5563615539148139
1.859427054034852
3.0276446034540188
0.2972832575424452
-0.9181768232730755
-1.5401441893028427
-1.8953732398108363
-2.003798651208723
1.2698431589361405
1.5883994882084893
1.4639696260057788
0.7750661265339663
-0.6802120811846576
-0.7801827888092504
-0.6380875968940959
-0.551742741389846
-0.37103572486572434
0.5038641448048912
0.49767105398566264
0.825376826640002
0.8687081807286557
-1.0217364971225142
-0.4976536126539651
-0.17041340516829265
-0.17401102929855614
-0.5492381500317844
1.14500407185322
-0.2031284360916162
-0.5077136387616562
-0.5392338281620029
0.6242922873668245
0.5577587245054481
1.0728521578827175
0.43766818285086234
-0.36348230965366884
-1.3408667690516338
-1.0066177022862908
-0.5099103367821157
0.1776389620742278
0.8240533269700571
0.8650367333942818
0.5278395462495388
0.17840681557455138
-0.29418583928284664
-0.6591613203868044
-0.5075728608489157
-0.21837697839527617
0.057595593108731455
0.39112641824998357
0.251588925325266
0.0794301722717415
0.06595793808543614
0.14767165944747532
0.016617695509779096
-0.05656235733505892
-0.19362179599676493
-0.28247640324437095
-0.362605518748523
-0.22843551760441258
0.14824639573056245
0.3828891939064423
0.44231247358325454
0.42374226229750206
0.36131174004429434
0.06450336353832913
-0.21798442606003537
-0.7261045624435538
-1.1320751199850339
-0.5235534521450762
-0.040954687640134727
0.23340564295033697
0.9556453498774304
1.4049389718711165
1.2094362245477865
-0.4609052961811667
-1.431427126982871
-0.6115519458294724
0.7278870105745711
-2.146744440502626
0.6208660758239677
1.6791436662843233
-0.3701432771726577
-1.6343186729409913
1.2002410028906527
0.40168098313298045
-0.060938279159738526
0.451711403215898
0.24909060129656627
-0.058662246779868296
-0.707965727527965
-0.5219215902321418
-0.060689218660150465
0.004553096713609228
0.08980613143811893
0.27400164275359234
0.26370390157984996
0.15920740510961642
0.03149864977354665
-0.08575545194585217
-0.19064501438968187
-0.09931212114332848
-0.03075316541148014
0.004601569668724132
0.010008781270971963
0.0013376924232251165
0.001540560073786557
0.033049674754744365
0.11053312639036003
0.0361489164423127
-0.0012697357102869765
-0.02286720857018197
-0.053440753874116016
-0.11436512650725607
-0.018188840110151802
0.03342883796291178
0.04817091846904794
0.039038297471017516
0.01970334540342559
0.0008975721746624579
-0.01131632001662702
-0.015421594240123864
-0.013097114836965549
-0.0074474269891698875
-0.001480294342280039
0.0028063840684600986
0.004678819064627901
0.004430946698375684
0.0029137101542072194
0.0010637290022540058
-0.00042123594404034996
-0.0012127754444955082
-0.001318959014027231
-0.0009584417582311763
-0.0004150412323063933
7.46507611997071e-05
0.0003776814892149414
0.0004681273370655996
0.00039586944654028617
0.00024320057960650266
8.726199798685509e-05
-2.2118104651518578e-05
-6.793053501525211e-05
-5.9235407069458936e-05
-1.8762473284511836e-05
2.919704707301634e-05
6.693861509242774e-05
8.644609143444436e-05
8.833320844168103e-05
7.848277806135528e-05
6.427715285470236e-05
5.174549693949542e-05
4.4180712212611695e-05
4.2117550176903944e-05
4.417882398078244e-05
4.820703068768797e-05
5.2223695070419865e-05
5.498055834805477e-05
5.608063671969334e-05
5.5789370689232664e-05
5.470857122919355e-05
5.346522403130514e-05
5.2506733769225375e-05
5.20273651167166e-05
5.200063459820973e-05
5.226864104054917e-05
5.2639567786102e-05
5.2959951833452767e-05
5.314845168341437e-05
5.319472425154962e-05
5.313657514074028e-05
5.303048675036357e-05
5.292714636883252e-05
5.2857768910982254e-05
5.2831514763374494e-05
5.284073311611641e-05
5.2869521779727835e-05
5.290171630276076e-05
5.292602677637132e-05
5.293776808383167e-05
5.293789515482459e-05
5.2930633823896474e-05
5.292096183160123e-05
5.2912780492841876e-05
5.290809349732225e-05
5.290707903240097e-05
5.290870465594871e-05
5.291149385523609e-05
5.291414955095474e-05
5.291589266050746e-05
5.291651479562375e-05
5.2916233649220387e-05
5.291546863013766e-05
5.2914635998392354e-05
5.291402022118798e-05
5.2913733671213774e-05
5.291374478962923e-05
5.291394078737831e-05
5.2914192648384714e-05
5.291440131959161e-05
5.291451759396225e-05
5.291453914797253e-05
5.291449404764928e-05
5.291442083596811e-05
5.291435266639926e-05
5.2914308944170954e-05
5.291429432442307e-05
5.291430267775169e-05
5.2914322962257295e-05
5.291434447085811e-05
5.2914360047064213e-05
5.291436701255795e-05
5.2914366357702315e-05
5.291436108535663e-05
5.291435453539695e-05
5.29143492194849e-05
5.2914346342038845e-05
5.291434590476548e-05
5.291434714783697e-05
5.2914349066506604e-05
5.291435081436355e-05
5.2914351909114555e-05
5.2914352249248963e-05
5.2914352005845644e-05
5.29143514691147e-05
5.29143509141503e-05
5.2914350520700866e-05
5.291435035213573e-05
5.29143503784265e-05
5.2914350519812023e-05
5.291435068993488e-05
5.291435082519233e-05
5.291435089621239e-05
5.29143509044411e-05
5.291435087037337e-05
5.291435082016622e-05
5.29143507754029e-05
5.291435074804244e-05
5.291435074022513e-05
5.291435074721116e-05
5.291435076138542e-05
5.291435077568806e-05
5.2914350785612006e-05
5.291435078967084e-05
5.291435078875294e-05
5.29143507849723e-05
5.291435078055919e-05
5.2914350777122005e-05
5.2914350775374135e-05
5.291435077524019e-05
5.29143507761692e-05
5.29143507774811e-05
5.291435077862618e-05
5.2914350779308644e-05
5.2914350779485586e-05
5.291435077928749e-05
5.291435077891386e-05
5.291435077854567e-05
5.2914350778295735e-05
5.2914350778198563e-05
5.2914350778228345e-05
5.2914350778329176e-05
5.291435077844351e-05
5.291435077853075e-05
5.291435077857363e-05
5.291435077857508e-05
5.291435077854986e-05
5.2914350778515625e-05
5.2914350778486365e-05
5.291435077846938e-05
5.291435077846545e-05
5.291435077847102e-05
5.291435077848085e-05
5.2914350778490315e-05
5.29143507784966e-05
5.291435077849891e-05
5.2914350778497986e-05
5.29143507784953e-05
5.291435077849234e-05
5.291435077849013e-05
5.291435077848908e-05
5.2914350778489096e-05
5.291435077848978e-05
5.2914350778490675e-05
5.291435077849142e-05
5.291435077849184e-05
5.291435077849193e-05
5.291435077849177e-05
5.2914350778491515e-05
5.291435077849127e-05
5.291435077849111e-05
