0
-8.940379352521975e-09
-3.159480546245816e-09
7.529543451857424e-09
2.0707772207420402e-08
3.1325542818390024e-08
3.266405257839333e-08
1.867768855073531e-08
-1.2635842522834383e-08
-5.5901879063618816e-08
-9.673572390101936e-08
-1.1360198476004957e-07
-8.427712819875452e-08
3.5977711675937243e-09
1.4070059973342054e-07
2.8803796760986427e-07
3.789397428485894e-07
3.358508847482761e-07
1.0223406171797564e-07
-3.173683778309235e-07
-8.241204192719202e-07
-1.2188696285960446e-06
-1.242066390777465e-06
-6.66618357749112e-07
5.713550442307292e-07
2.2463079143877947e-06
3.7864289641752493e-06
4.3544575141687216e-06
3.1062259625380814e-06
-3.9732782302874366e-07
-5.738646799660125e-06
-1.1352126223661291e-05
-1.4629310041118128e-05
-1.2599082822299274e-05
-3.1813912548994202e-06
1.3270467692106924e-05
3.2731567144302274e-05
4.735778246136794e-05
4.713474230926367e-05
2.355342010527208e-05
-2.5322709946755558e-05
-9.008843680231621e-05
-0.00014804879478390797
-0.0001666898239135911
-0.00011400291546296917
2.5447189302744e-05
0.0002332954553842427
0.0004468075777465364
0.0005640418486328887
0.0004713284884766244
9.247788813131913e-05
-0.0005519201300342962
-0.0012984702424860407
-0.0018385992230449946
-0.0017863305630011752
-0.0008234932493691448
0.0011043036258078804
0.003608134378946389
0.00579082212263579
0.006395329886836088
0.004217407119659353
-0.0012673313800630435
-0.009246724534487619
-0.017193659635341793
-0.021118158841945404
-0.016701747924593027
-0.0012885960457029721
0.02370868359839004
0.05085761788330348
0.06630690325165808
0.05184285940529264
-0.010446351674306409
-0.13194469476525875
-0.11195514510073926
-0.1355068867167944
0.023674864922466312
0.19540395210760494
0.20334967085045938
0.05767728823053478
-0.046604057078521444
-0.12502109517800322
-0.19533084816219617
-0.06975746133300183
0.048712820741181335
0.16497973908250613
0.08721020582221574
0.022179921429338195
-0.02679586445563559
-0.05868485886019134
-0.07163168249186994
-0.06018541692956651
-0.014798465521401953
0.07569091086689367
0.019364018232313554
0.016154835997953188
0.054491974067465546
0.11120436033775702
-0.04473609134179618
-0.045293655050649764
-0.11521427059016712
-0.06542132520680372
-0.09054622611961892
0.028199393731238694
0.11568593796285295
0.19389000479422006
0.07500109727375488
-0.04048479131040374
-0.16013782742383859
-0.09258739062937789
-0.04077414627264851
0.0014140665208423955
0.04798250433325715
0.11618385643831464
0.020716364975993884
-0.030901648582152767
-0.04046614110080321
-0.018706965461646435
0.016851471886792736
0.04502958262448532
0.04476764870142211
-0.0006294192452842459
-0.09924711386404689
-0.047390044148835145
-0.028895481783684528
-0.01793369708944405
0.014813967926838388
0.09399995353614231
0.03177600850410908
0.02273322364539221
0.04343384575668201
0.05717828056423759
0.02332140101161398
-0.09081884044575152
-0.09853550371452263
-0.18651140180429568
-0.115128431618353
-0.02779872782662477
0.13224554913575692
0.20260091958564597
0.38688960747748813
0.4513500383162785
-0.4638386293875795
-0.42135290235460665
-0.2607643617923109
-0.18141908745638494
-0.3423630091656643
0.7200878696646835
0.4645284731528273
0.11845569931667987
-0.13497521191011586
-0.1529016343308283
-0.2147056645022498
0.0020192193141663206
0.043337446954903255
-0.1067106883046535
-0.02156099797092599
-0.037342802289708404
-0.06646994349643778
-0.01701373834330945
0.1860223361071151
0.18252303551917667
0.16745620049361387
0.09338940324830654
0.08609176752904812
-0.13032616501259514
-0.4063985378601479
-0.5485484762530648
-0.3180032163747867
-0.051714640663282255
0.4993192033062007
0.9286698667469788
0.950065553936889
0.40727495704802924
-0.47677759231590916
-1.2251159190289758
-1.4356317993034058
-0.9481659886934016
-0.07260509293708423
1.123862623150919
1.8998271426466598
2.139925697246701
-0.4838410667668371
-0.8703491444191102
-1.1829080570305328
-1.3217059286413193
-1.2254744696988973
0.9626822504486848
0.6584311795090481
0.5488803912782574
0.49062741209920874
0.22806659494695686
0.15436614966413278
0.12183073563555977
0.09492976199428627
-0.3703538230193436
-0.8431671019635804
-0.7546587898258971
-0.1755311148410825
-0.244074362790153
0.36100955797798695
0.9238912975867898
1.2013428586843389
0.36913553578335623
0.024379852258135437
-0.5559441871676123
-0.9198691918251584
-0.7406763499947957
-0.34450241227215866
0.11404091740497893
0.22506889432646432
0.6586785877532861
0.2851194387328249
0.10355368581535779
-0.0032974049373015735
0.31903872780203135
0.11722907226632157
-0.4250294616325662
-0.33017044394423467
-0.17276673789856528
-0.24229893517242743
-0.33165370221259677
0.047149489803430394
0.426365556799807
0.5379449475770225
1.27689592291473
-1.3144750434989507
-0.2379752644820659
0.08534624682442843
-0.1581362215237617
-1.158751817108879
1.3160927864291945
0.3077704107793106
-0.15304683504022953
-0.26153555976156706
-0.04409940383612265
0.24579272658884524
0.13857347258349995
-0.035963128698709886
-0.13089478696003543
-0.16577835735967072
-0.3168857327270347
-0.11893546206560579
0.11983907430640381
0.2922158313529218
0.06353038287851559
0.4496488710887794
0.009140901239962765
-0.14719660022000744
-0.13215520345192933
-0.05084776908302785
-0.3720888793761485
-0.11112082445789355
-0.028934447719377983
-0.04861582036892195
0.11595199613772525
0.3277985039553632
0.40169807402377744
0.2958403141389686
0.1256538221813851
-0.20226998942742483
-0.7465324852537373
-0.693901137401527
-0.3453907310638586
0.06541527064422492
0.7256621101295463
1.1850748347833178
0.5096905824856802
-0.3338211801865993
-0.858903711522769
-0.8171573915691133
-0.3549739340438524
1.0134991256182804
0.011984166316316602
0.3936814940832333
0.1307793593989429
-0.3903548320182621
-0.9682095028760499
0.6154585863964884
0.3932250324760613
0.20615820336414534
0.09950661606776245
-0.27607419052792237
-0.4591530944760437
-0.17432319811972322
-0.1379306397142455
0.1249531157322514
0.4568259297633634
0.6473632785012653
0.22752820399674512
-0.1153005909926715
-0.5039153320634696
-0.8319740455973414
-0.53592704373593
0.008331167989045762
0.6618445723805074
0.883539344047948
0.896192639134647
-0.12359739310088164
-0.6245871198438687
-0.8391150099085438
-0.7425126541748752
-0.43666640176250426
0.4303173272097252
0.8136167151562188
0.8107525930005887
0.41641949889855673
0.1131914193331822
-0.2966677916155363
-0.6296575052840484
-0.8526135228859663
-0.4326661919592358
-0.12361989346587715
0.4073489799240431
0.724385540955179
0.7615445377760904
0.3793319782609758
-0.045052122272978834
-0.5926879618695783
-0.756746087461266
-0.5970566319839279
-0.11566431288513107
0.3371193571883881
0.6311862241060059
0.6160872222404284
0.2911338662419635
-0.2002170556468683
-0.34985837975817996
-0.44822708381518844
-0.3472537270654999
-0.03787577355607455
0.15015299108259775
0.12746916432133976
0.21174047373627025
0.09312524898376875
0.20884811784086071
0.133547907451999
-0.012621176957306038
-0.14091204136404695
-0.16277843338296244
-0.3597674391639029
-0.1634785430586317
0.048612633085997656
0.14095433540330413
0.19638145279130279
0.28985257406618
0.06825785350785907
-0.05795825735026644
-0.11044801564959832
-0.12952603758832432
-0.15779394187683166
-0.02678103982666906
0.04972597246911303
0.07511589559697557
0.06423725492660531
0.03584523929962126
0.006185534112072136
-0.014619704001249546
-0.023179836134402568
-0.021266238520859904
-0.013296149253536317
-0.003965527609205155
0.0033092800625484555
0.0069698382365561366
0.0071088676469576
0.004844292475700392
0.0016307853480253308
-0.0012562421877671138
-0.002983230218440977
-0.0032088978008953696
-0.002021152098693104
0.00014957905255891604
0.0026028415226197026
0.0044499310920928375
0.004764618951882261
0.0028508615764185887
-0.0013877442597620485
-0.007087717937327375
-0.012273395633699308
-0.01413906631224474
-0.009913837705178057
0.0017427526210346581
0.019152532247415727
0.0364493977871351
0.04355452928830334
0.02783102657824365
-0.022605639916482644
-0.11475268987982891
-0.04728641681340957
-0.009442172507515358
0.016962675369054107
0.052882308644569206
0.1164867398747575
0.018820168036937257
-0.03779078959278781
-0.05835795617148398
-0.05202009170965821
-0.028790049532994667
0.00230148181044729
0.033265893444863144
0.05612931196165037
0.06218229308356053
0.042800984394323394
-0.007660347115999314
-0.08766090987540885
-0.18491121688018325
-0.07590120997735866
0.0698496714276616
0.0812575975832535
0.17566837646553568
0.15148577166581292
-0.013133874016387576
-0.15453925730938395
-0.112890457844954
-0.12073635815819961
0.004861551107871287
0.06429975656120022
0.07181870087479393
0.048657258071617096
0.015926877827366778
-0.01056841030776878
-0.02267523102615082
-0.0196917001498147
-0.00653875162007115
0.008749303349934547
0.01757311797215749
0.013053518072779418
-0.008101171762084643
-0.04439277316851709
-0.0894189097754344
0.06676437765141803
0.0348739035825054
0.02302608025453643
0.03404725435849121
0.06459353244610613
-0.0935367505540004
-0.05045774784825972
-0.014882632023682701
0.008211819143315865
0.018207078188775785
0.01789840441399256
0.011728955807818003
0.004038861932870688
-0.002105337217460864
-0.005318173970907396
-0.005667874776009289
-0.004101136758067809
-0.0018166976541899383
0.00020409977015918535
0.001424151736479137
0.0017547238190017559
0.0014180408349462352
0.0007634162229354036
0.00011138401616321472
-0.00033585344692042043
-0.000514118069340424
-0.00046662986691396247
-0.000291111143008381
-8.930693506850233e-05
6.62163135425543e-05
0.0001439808541021665
0.00014831870766157228
0.0001048615010528636
4.471521666115608e-05
-7.258809616979583e-06
-3.7905156023919794e-05
-4.556800814619085e-05
-3.6360813578011754e-05
-1.9372671554545856e-05
-2.707229956920511e-06
8.699800346756836e-06
1.343895881493652e-05
1.2707736922231242e-05
8.874008633520573e-06
4.1878617867364615e-06
3.9869885184764923e-08
-3.1412612221018596e-06
-5.5048266042935305e-06
-7.200963437339207e-06
-7.92863199428185e-06
-6.853021918970427e-06
-2.987497602634715e-06
4.0575400862403656e-06
1.3250188529519341e-05
2.1664753516739322e-05
2.47995581166723e-05
1.7946475927099045e-05
-1.506066877210596e-06
-3.147527340289915e-05
-6.342655577572462e-05
-8.281605523791122e-05
-7.278291114693983e-05
-2.1142421081818382e-05
7.086507496766567e-05
0.0001813717835766801
0.00026667703327049047
0.0002701120993421956
0.00014244729537782013
-0.0001295207990254984
-0.0004955454798488991
-0.0008298604592014827
-0.0009493228896152178
-0.0006703581933848646
0.0001008457944600078
0.001270064565564487
0.002492455312252209
0.003197275675716795
0.0027384629403217065
0.000670001520853965
-0.0029171398801283803
-0.007126892761354756
-0.010231346139475218
-0.010040062335332492
-0.004716713144063982
0.00609254767143876
0.020179937301484686
0.03228072591532691
0.0347012776641731
0.019346234354625465
-0.01913169699334223
-0.08005197360542335
-0.15486030692250632
-0.028254236860805207
0.11716773988634287
0.09395229561351297
0.1033807783352137
0.13280715222236458
-0.041392318112023166
-0.245873721277538
-0.10043644383536662
-0.01031185260015495
0.0362829079034726
0.06477873201370987
0.10697953875263387
-0.00713294960366459
-0.05597964815198672
-0.030124287805359553
0.06683373671342543
0.019703976320042376
0.005029424433470358
-0.004142795892124879
-0.03280771871194445
-0.09907960101437496
-0.011147171182601397
0.032995197112621354
0.04310125614849526
0.03258513228326841
0.014355759617417245
-0.0021215980823052136
-0.0119678715814565
-0.0144212635806974
-0.011402091228434559
-0.005852821966344887
-0.00041772220121740085
0.003270872003399567
0.004712410930197471
0.004255712497025168
0.002661988596542239
0.0007186605480518296
-0.000985194602321612
-0.0021107256973731205
-0.0025089821212158775
-0.002136552228457067
-0.0010201821595103462
0.0007019545675117116
0.002690928830715257
0.004343967086202927
0.0048474191003035514
0.0034077095740169152
-0.00035052131767839353
-0.0059320287285369215
-0.011674708613975106
-0.01486456565505968
-0.012460966365340413
-0.00244882095078564
0.014453067632373091
0.033305984506473
0.044452563346894354
0.034677422177286754
-0.009769372791835923
-0.09885784580765107
-0.03451374103676274
-0.008038905810269439
-0.0003810905343230585
0.014607466198443872
0.06479981309332809
-0.026260465904586666
-0.04468803679685618
0.01018573252045384
0.12473002605238456
0.07298347292594076
0.022002060223087826
-0.059975090191244085
-0.19458569792320118
-0.18689161959638573
-0.024529660802472035
0.1164209188135702
0.2609231009403333
0.22452289026265632
0.007955617503009993
-0.20074269094977873
-0.2183258823039797
-0.2575702028981158
0.07716216360294556
0.1877897230236047
0.27588393371569175
0.13656247666088817
-0.04239878717960817
-0.2748873651787147
-0.16706066589695184
-0.10946287992408736
0.12497191535694496
0.17596420487230185
0.08639849206052605
-0.10774335315644609
0.015048906988467187
-0.14222586873211598
0.0039983705433229155
0.2196127971293957
0.25768501839390884
-0.13281436970249308
-0.19489735599961416
-0.15110614043927387
-0.19563937155130628
-0.0952737531071783
0.20000739274312593
0.3400667786571247
0.1578750221766387
0.05969643720825357
-0.17426062758219243
-0.18010255096448696
-0.19671292368833904
-0.05465954496260411
0.02838929966016169
0.24554596762458913
0.19519256586475917
0.07676948154287082
-0.10887684689565
-0.1547492856505405
-0.2421178316526052
-0.13900663847060396
-0.006113159921001334
0.19023949232116605
0.26274254185760704
0.3925604028944953
0.1302209351461913
-0.18961785455129235
-0.4234410737805245
-0.39376295481131013
-0.2749464212485237
0.002404039965353273
0.328614346074166
0.5821723328231093
0.4005006938658911
-0.03324588698949793
-0.18173801979842613
-0.3272457918846573
-0.33890543392598205
-0.24683291470094998
-0.032935009174785396
0.1587160344924543
0.19656659854922498
0.33121451875060687
0.1712724152350059
0.07412938173375894
-0.045100495675691674
-0.08928397716429315
-0.34732780964621507
-0.06451583083281309
-0.02422517352397674
-0.14681883514194097
-0.1071162805651891
-0.1677138589545439
-0.22187673159763044
0.363805713921867
1.1203910648980513
1.8762496918096223
-1.0040570288680293
-1.1452604233083443
-1.2743896681844373
-0.9572376820040736
-1.1892805361406766
2.1503254878762634
2.0019926315843897
0.8271587575559526
-0.25110153192102397
-1.2494524999616756
-1.2794019593109882
-0.4877510000081045
0.5870256797709658
0.6292964522279222
0.7387680761454288
0.21864173888248079
-0.4259883683437447
-0.6767371963158374
-0.586268954851669
0.02903166343432073
0.3810501399484681
0.6903759502285874
0.5676553290939109
0.20927254824570954
-0.3869185681840744
-0.9923486436902732
-0.5215873059936544
-0.6277260430558561
0.27079150435245986
0.9373420344668795
1.2585914159130327
0.40700514221731166
0.24467295699948557
-0.8288008084142141
-1.202017421158306
-0.982039609105077
-0.3594429519337185
0.3763876002619891
1.1786340860442859
0.9674031800847498
0.5705547525467224
-0.09368772681821749
-0.5860744254493889
-0.6817611558772669
-0.4986737755097313
-0.24640538888815333
-0.21384233617217063
0.0004678208384957806
0.024787343927686112
0.6370388288892744
1.0987750895321728
1.7242348145162338
-1.1005480777350833
-1.0515006965096718
-1.1770743134507258
-0.8218479988824471
-0.7939646816848552
2.214000643484469
1.1668029020355835
0.6234387396089618
-0.5003927575985335
-1.1330987925390503
-1.0232562015471423
0.08516599283066123
0.459674326443042
0.7654597197268951
0.6429227058960126
0.09271855432304998
-0.9228552348360696
-0.8660694847094145
-0.21053263656242038
0.1597335730683455
0.7379969853784826
1.7812301792407403
-0.48732258559122416
-0.6487581912442609
-0.4374569496667703
-0.6881989798577663
-1.105296531941119
1.1308934348351987
0.7202811646569138
-0.0230249838228877
-0.23806841375561583
0.031491565541472144
0.21035095093895198
0.3912460698612169
0.9609103775574753
-0.9511939051379052
-0.8111710034484468
-0.623043509923668
-0.29390757467523393
-0.03251884226392111
1.8231392938422668
0.9673450352461728
-0.5012518181426063
-0.8853567590525445
-1.2788841699931683
-0.5599324089012753
0.596571328384106
2.2859888408288342
-0.2622995585796614
-0.10230970490587495
-0.3585143477374239
-0.7891169637324597
-1.344177126975873
1.2634314727260354
0.9674342107914348
0.34478434022314725
-0.3875373815716327
-0.5685924021048645
-0.687561167748775
-0.38824846678800645
0.10679855415254012
0.9546069988808608
0.84667175542458
0.38009548006618327
-0.34049972387963395
-0.46951859655459605
-0.7694277326123212
-0.5640469665607561
-0.11493761485413884
0.5717990852509373
0.5153497881798718
0.5240946713978664
0.37281349813926573
0.005247801623157883
-0.4382217616370655
-0.7800502573961863
-0.5713232554695528
-0.281720020001575
0.2780581053241658
0.7070653074082338
0.7558294702196483
0.28113799556046565
-0.16942895957266108
-0.33900165393240256
-0.41782927846753465
-0.19106940172613507
0.005718203377824027
0.11291111067183776
-0.04805434594110569
-0.188311923446729
0.02118021957247357
0.11493885026577524
0.19793953856503824
0.3182297382170359
0.25445984227665785
-0.07756422924766403
-0.2006015984074819
-0.24107759251241606
-0.2943913101509565
-0.20111738901556347
0.05916183314406586
0.15579615659009133
0.1821778477866544
0.22710257435630776
0.1516721670016289
-0.021919113947923917
-0.10808266137336861
-0.14505713179183383
-0.17769271249770785
-0.04225374629415901
0.04228494949196741
0.07521503580627517
0.06910852822950611
0.04222079405050003
0.011529750911301456
-0.011585914780069904
-0.02255339584618141
-0.02238217377485803
-0.015226257582303459
-0.005902048142129558
0.0018687432740230655
0.006220635743392407
0.0070440294377287155
0.005373262002865779
0.0026427368514741452
9.180791935383813e-05
-0.0015506355073931295
-0.002106329438950236
-0.0018011904577566514
-0.001046526848170483
-0.00024274062680035063
0.0003415036046233895
0.00060466672114362
0.0005826178033729883
0.0003869853285256768
0.00014252622261326357
-5.6597130283485254e-05
-0.00016494225459506596
-0.00018206335260370456
-0.00013612454324916261
-6.461013623766874e-05
7.869333723086158e-07
4.192084682369418e-05
5.4875908689257675e-05
4.59613908034683e-05
2.598890747525054e-05
5.247543309935004e-06
-9.512640378732787e-06
-1.5885700640418297e-05
-1.4964621245565586e-05
-9.715472862283888e-06
-3.3646050004695356e-06
1.7030018327427955e-06
4.378431309650851e-06
4.7059706300506465e-06
3.445773722008594e-06
1.5739158840682807e-06
-1.0127079646969751e-07
-1.1296503197640314e-06
-1.428095068938834e-06
-1.1716191637172108e-06
-6.439991620331986e-07
-1.0934108981456623e-07
2.630503126100809e-07
4.1664828091554994e-07
3.8391152599252613e-07
2.434818428494151e-07
7.870029535237023e-08
-5.0106567240321456e-08
-1.1598577449396032e-07
-1.215057419048924e-07
-8.71132448282856e-08
-3.819141003467464e-08
4.668536447445632e-09
3.032846536150422e-08
3.710482926392621e-08
2.982119125805514e-08
1.5913866448893627e-08
2.152835260922309e-09
-7.225339788439376e-09
-1.0908627810338865e-08
-9.844386677344166e-09
-6.11300241983174e-09
-1.8609403365432429e-09
1.3954193893195045e-09
3.0132528061147654e-09
3.1030903391541174e-09
2.214823118224849e-09
9.98651018812396e-10
-4.2990733555800666e-11
-6.657157805037975e-10
-8.67662295512151e-10
-7.948979948995917e-10
-6.239910885549437e-10
-4.687566972229694e-10
-3.3920199083533057e-10
-1.5946258798790153e-10
1.6741653291996126e-10
6.745135085899841e-10
1.2612321394043164e-09
1.6748746660283346e-09
1.5699429479905884e-09
6.489258342989646e-10
-1.145605510642525e-09
-3.4554942051165097e-09
-5.443066600084264e-09
-5.931626286456598e-09
-3.796002672804245e-09
1.447018395401149e-09
9.024697685117338e-09
1.6559685439200668e-08
2.031167508527706e-08
1.623177106944941e-08
1.7807248537660916e-09
-2.194219318735717e-08
-4.862864374133314e-08
-6.68468584758989e-08
-6.270223941371594e-08
-2.525599982805392e-08
4.6367910089031024e-08
1.3671015541232218e-07
2.1211312941426664e-07
2.2674536355178855e-07
1.381222277804235e-07
-7.001409727179425e-08
-3.644595327194819e-07
-6.50202456897488e-07
-7.813722124803246e-07
-6.036067567278293e-07
-2.519651453719287e-08
9.0135398369565e-07
1.921494957822897e-06
2.5868048917060774e-06
2.3634517872664046e-06
8.457005553973144e-07
-1.9697818107947253e-06
-5.448717015157385e-06
-8.26171012934891e-06
-8.635932668380564e-06
-4.971422498942718e-06
3.270088545553761e-06
1.4683666569294715e-05
2.548565910247128e-05
2.999766821278123e-05
2.2345202651199976e-05
-7.610810852988947e-07
-3.690382881402754e-05
-7.583796477712544e-05
-9.99962173251362e-05
-8.889660783055506e-05
-2.7544660204706425e-05
8.299172255166466e-05
0.00021678504368527804
0.000321395780115509
0.0003283259880747956
0.0001774538236149241
-0.00014847775615696383
-0.0005904783119931461
-0.0009981246303732586
-0.0011506133438332839
-0.0008246982727539706
9.677806875966157e-05
0.001505725473944736
0.0029916470047931325
0.0038689957807258417
0.0033563839600489363
0.0009076321718385206
-0.003380287326479215
-0.008439145321291901
-0.012190590387610547
-0.011987311899728747
-0.005604111301238316
0.007372318871903621
0.024173815189660056
0.03812649579978273
0.03920218031381897
0.016163799267881463
-0.040018139286920544
-0.13259194309546357
-0.056939149304179155
-0.0013966001532223337
0.048768238430360905
0.10565396042691462
0.1739684028212818
0.04991418180394817
-0.07504751880324094
-0.20678266550974045
-0.1409194907859273
-0.05930421438103044
0.06691989711982706
0.06807960598520944
0.16399986765368083
0.15410722045527003
0.013759254913307192
-0.1014124949839448
-0.04442853912128118
-0.06290649929482255
-0.18666785207298786
-0.020854292822621044
0.053569744206316286
0.07253674936307644
0.07761777760486736
0.10462623074485229
-0.024554997574862736
-0.10516576356460469
0.0521105873312278
0.026317723956736486
-0.006830187516558561
-0.06775388798064841
0.03306896252162322
-0.10125381900196624
-0.05387486732052074
0.0020875894072237035
0.09666708465788765
0.05482473628588447
0.08942917633263368
-0.0022811580823499725
-0.03773182209191728
-0.044182255905527906
-0.051964969630769915
-0.08813777048874688
0.02764590215529695
0.08443250488447217
0.07911862416610738
0.014897659755146779
-0.09981818256763211
-0.05188112276624908
-0.024156147335582474
0.0025140537759213567
0.04601460480964952
0.11932481811495349
0.028129739625372158
-0.029074324748528304
-0.05829293285221812
-0.06604234880283971
-0.05608780706211564
-0.028654319368617186
0.01731471283560901
0.07977670570875846
0.1492291498134772
0.006894655924116741
0.02720999688673941
-0.015360444285833486
-0.1371541270316865
-0.13712175122854553
0.006874620861233922
-0.06503365237155424
-0.10473736777562064
0.12922977022189092
0.25681985857835643
0.2668271986286291
0.11737115777626952
-0.05157940003606148
-0.2966055105979122
-0.4478576030223799
-0.29440475888092305
0.014721122028005053
0.35273494018457624
0.38709613673345133
0.3528150323707532
0.03821159722186096
-0.21132504819750658
-0.2738942703574293
-0.22447308715362838
-0.11147701010887395
0.055873379049580126
0.10694675394828089
0.09839613295213062
0.09751290840743415
-0.0342120311744101
-0.05342878946148549
0.058551916852238
0.09519019012018054
0.02946305006145228
0.02277063324210346
-0.16404660409089555
-0.16075728660725908
-0.1825028178388638
-0.03182300009676965
0.09234581931238552
0.38264924984061
0.4149371651742926
0.15005827390744553
-0.2516343624985287
-0.40729380262093845
-0.4905725795888465
-0.4249685025761423
-0.09960880155770119
0.3936928412604196
0.7138685487273515
0.8335467856801926
0.8303617192668633
-0.6838579444829106
-0.9025117771479202
-1.1545427046874013
-0.45470573408545106
-0.2955563812572949
1.3156187412347697
1.1922102910549357
0.7052235109387418
-0.45227827054102687
-0.8639797166297848
-0.9633754229067008
-0.4035870332641374
0.35689249998310046
0.8478591694598048
0.7715339192203887
0.39557623229032485
-0.23159919996571723
-0.8435724359167108
-0.7114520293761893
-0.6136418382613796
-0.03664125107212933
0.5900662520452357
1.0380338226291916
0.6262725121664887
0.39310691555794514
-0.4951595753199899
-1.1047950543770675
-0.6848662738225643
-0.23157476621342382
0.31741234018748987
0.6588565450456095
1.08489921023749
-0.15059338766496994
-0.44571388621482577
-0.4424887210658534
-0.4071242078557275
-0.41222445354139975
0.6705945714010823
0.7690867308483923
0.40904881035921975
0.12323618549868334
-0.7273852884853291
-1.3298031129698873
-0.8099742068456838
0.1471349986709201
1.44925202179902
1.9401475727072124
0.3651458319713203
-1.2180425824805177
-0.5828839300884399
0.7439889794825525
-3.8531877209280716
-0.05964834046521034
2.5329233805772917
1.3460572046980224
-1.2739687248060185
2.2866549746527816
0.10658222867522626
-1.4199641097832716
-1.5014147160020506
-0.8707965871355835
0.4556843333404395
0.5682027556537214
0.4101041415563655
0.30798738258200203
0.5141085265570476
0.5822130134581892
0.385294648408793
-0.6299788196954513
-0.9707382113721944
-1.2354077460904052
-0.8897949953270466
-0.09817864987060962
1.5966327802506286
1.974229495215895
2.061672027168517
-1.881543641476785
-1.31050699530016
-0.899058304571917
-0.24469249010609556
-1.0116052737831787
2.0737213799001544
0.7842451883546334
-0.4650915449571789
-0.8719115944742781
-0.4879592364049428
0.7517120485600416
0.610647320405916
0.5489792318564899
-0.05451848730894161
-0.054171220281857946
-0.872180477330321
-0.43523558943718743
-0.334028747624146
-0.22056085093727676
0.15379336461309157
0.26942351318983915
0.5584766317875075
0.5373569481987625
0.7728370471733095
0.2940668719665023
-0.3509128636694614
-1.2110666388324494
-1.2497375315798167
-0.69497521747553
0.15686150406443858
1.0858428054121827
1.466314092948895
1.3953812007274944
-0.33536908621874945
-1.0136353270052008
-1.3417473790131573
-0.9685532072418537
-0.45306015987591325
0.9226958799857773
1.299631896811966
0.7745246260298384
0.15258337155385476
-0.25946873170837564
-0.619561424507817
-0.6933204231720513
-0.3990127834039663
0.024789260218988696
0.2198995059271673
0.2820671643598786
0.32131674247440556
1.0256728981575598
-0.9590460695548563
-0.22908982397347838
0.7928171698847833
-1.1219035503502168
-0.992609674144353
1.373461621692087
0.572086756768765
-0.6113911656980978
0.7908075071424627
-0.2657588784931237
-0.6219997246879544
-0.4973998331888371
0.5203260806120794
-0.5278509815238447
0.6124707260650825
0.5893584962765683
0.2301224869797886
-0.8609924997153803
0.30679624738018657
-0.47473578044782894
-0.40290085152337135
0.1350917082105915
0.5507649183994489
0.43902754643504316
0.1686900453896385
-0.11374903349767454
-0.4670020420122564
-0.5324397699064153
-0.11751216651767185
0.2063493973559128
0.2904722812137064
0.3872642228011491
0.1306509141840618
-0.07297121061682711
-0.24087919672375513
-0.20119077163351104
-0.17844387800917316
0.015637339614082105
0.18312482651508374
0.13404131541043485
0.0780683445786805
0.018422112530199902
-0.049555122741712934
-0.13537306747168318
-0.04828272994840371
0.007090290831594612
0.032509780275870495
0.035069508069686256
0.02439547849793021
0.009613333756984657
-0.00277700439228086
-0.009667530354844531
-0.010913744761655596
-0.00821985899722431
-0.0038984400276473857
8.440201543833987e-05
0.0025967477587080356
0.0033864054762583313
0.002834791193373971
0.0016038563881833733
0.0003256320232699735
-0.0005845025211828538
-0.0009781449427323104
-0.0009222920690391852
-0.0005994383415461024
-0.00020829563283992266
0.00010410892896137289
0.0002692928797491818
0.0002898263791669594
0.00021243718651951462
9.722379846434289e-05
-5.994241295145619e-06
-6.943554490739557e-05
-8.79256178898232e-05
-7.220751440037831e-05
-3.9745853401170606e-05
-6.812275860676386e-06
1.6150357515335105e-05
2.56436397253552e-05
2.365408317059659e-05
1.5019275994950708e-05
4.8723086450024384e-06
-3.067381581756055e-06
-7.1346462751371885e-06
-7.483401324285988e-06
-5.370560595162263e-06
-2.3590101066099715e-06
2.8211108721185745e-07
1.8652787387867427e-06
2.2853663332260938e-06
1.8385341026541664e-06
9.825016989541798e-07
1.3448509095690057e-07
-4.440265234846841e-07
-6.716172785270832e-07
-6.061982223007699e-07
-3.7577981238285243e-07
-1.1281021457569274e-07
8.875519253826457e-08
1.8861458009444077e-07
1.9298193391162307e-07
1.355659218722947e-07
5.696094623369075e-08
-1.054008367250032e-08
-4.996668327287445e-08
-5.9335288037081436e-08
-4.676366486039713e-08
-2.42297592900247e-08
-2.4189744469015094e-09
1.2133107979449814e-08
1.7554619429284846e-08
1.550829965030703e-08
9.374887760133971e-09
2.5679675244745755e-09
-2.5425372016613287e-09
-4.986069039498713e-09
-4.980148471280886e-09
-3.4262105277526657e-09
-1.377339200673057e-09
3.4580563468080963e-10
1.325530420673351e-09
1.5293614659093089e-09
1.1786947527307369e-09
5.865225720367027e-10
2.619481800197117e-11
-3.392593271708119e-10
-4.674515091701246e-10
-4.0554526942752017e-10
-2.426603194044135e-10
-6.667388064734351e-11
6.27253432921513e-11
1.2229706930811337e-10
1.191102535439252e-10
7.720740379002949e-11
2.3873788720280327e-11
-2.0061741167771644e-11
-4.4350525467626675e-11
-4.863419272144021e-11
-3.89240902716227e-11
-2.3387443083725968e-11
-9.008835646220204e-12
1.5342064730706297e-13
3.1580653286583798e-12
1.3296258558235202e-12
-2.9867396500118383e-12
-7.531360234090133e-12
-1.0803278701763672e-11
-1.2249642007768488e-11
-1.2089892982859835e-11
-1.0963708177982638e-11
-9.577194948820898e-12
-8.458311816416077e-12
-7.857664766244503e-12
-7.772222773068325e-12
-8.039413986201596e-12
-8.446412911850276e-12
-8.814961013401196e-12
-9.044257141722259e-12
-9.113942796360954e-12
-9.060906958061514e-12
-8.94675838993951e-12
-8.829535845503592e-12
-8.746921239366463e-12
-8.711965747803395e-12
-8.718066035678743e-12
-8.74824168340148e-12
-8.784241212975622e-12
-8.81270017217867e-12
-8.827513694729937e-12
-8.829073988132745e-12
-8.821761910267065e-12
-8.811116030242852e-12
-8.80168037965819e-12
-8.795952763348111e-12
-8.794357380198577e-12
-8.795874102199201e-12
-8.798887021468872e-12
-8.801907138150336e-12
-8.803990059935773e-12
-8.8048304743141e-12
-8.804622643537694e-12
-8.803816354294537e-12
-8.80288281859871e-12
-8.802159869242377e-12
-8.801795599977087e-12
-8.801771869915174e-12
-8.801971011852883e-12
-8.802249076043773e-12
-8.80249036993887e-12
-8.80263315628519e-12
-8.80266908867987e-12
-8.802626205802189e-12
-8.802546825413075e-12
-8.80246910445121e-12
-8.802416668840414e-12
-8.80239658300545e-12
-8.802403229401359e-12
-8.802424717801948e-12
-8.80244889668637e-12
-8.802467238354897e-12
-8.802476167193053e-12
-8.802476355930093e-12
-8.802470955613107e-12
-8.802463702840622e-12
-8.802457539546088e-12
-8.802453987478067e-12
-8.802453195259252e-12
-8.802454396338015e-12
-8.802456484126659e-12
-8.802458481945593e-12
-8.802459799866589e-12
-8.802460276628592e-12
-8.802460072490186e-12
-8.80245950117521e-12
-8.802458875683871e-12
-8.802458410957111e-12
-8.802458192865926e-12
-8.802458198837e-12
-8.802458344719026e-12
-8.802458533638421e-12
-8.802458690879371e-12
-8.802458779044425e-12
-8.80245879601038e-12
-8.802458762635486e-12
-8.802458707815124e-12
-8.802458656519762e-12
-8.802458623449997e-12
-8.802458612224268e-12
-8.802458618320574e-12
-8.802458633476221e-12
-8.802458649638148e-12
-8.80245866139709e-12
-8.802458666703357e-12
-8.802458666272136e-12
-8.802458662345049e-12
-8.802458657430559e-12
-8.802458653423762e-12
-8.80245865124072e-12
-8.802458650892365e-12
-8.802458651813515e-12
-8.802458653250691e-12
-8.802458654566228e-12
-8.802458655394583e-12
-8.802458655656378e-12
-8.802458655478051e-12
-8.80245865507685e-12
-8.802458654659733e-12
-8.802458654362614e-12
-8.80245865423407e-12
-8.802458654252273e-12
-8.802458654357654e-12
-8.802458654485334e-12
-8.80245865458731e-12
-8.802458654641224e-12
-8.802458654647914e-12
-8.802458654622638e-12
-8.802458654585019e-12
-8.802458654551318e-12
-8.802458654530608e-12
-8.802458654524575e-12
-8.80245865452971e-12
-8.802458654540311e-12
-8.802458654551064e-12
-8.802458654558559e-12
-8.802458654561654e-12
-8.802458654560998e-12
-8.802458654558174e-12
