0
-1.604570691808048e-08
-1.4293225333462098e-08
-4.481670909763879e-09
1.3231376807362861e-08
3.4702872406104926e-08
5.1532785979852594e-08
5.273290724453679e-08
2.8639778376753137e-08
-2.3554048124705656e-08
-9.443700657151945e-08
-1.599244174791841e-07
-1.8461113235380605e-07
-1.3264909361354485e-07
1.4843158784395911e-08
2.4062741605705455e-07
4.78876132913272e-07
6.194107005930519e-07
5.362567680613268e-07
1.4055839018517706e-07
-5.540874483317984e-07
-1.378864822160765e-06
-2.002840586889633e-06
-2.001956485488604e-06
-1.013960187271113e-06
1.0471959975561503e-06
3.7886314913498594e-06
6.254171440220964e-06
7.068613880076618e-06
4.872238335969341e-06
-1.0001128804424802e-06
-9.78808689813441e-06
-1.885312567515371e-05
-2.388862754326051e-05
-2.007413562419406e-05
-4.152690118916967e-06
2.305658031301768e-05
5.4696253443668294e-05
7.774526699494206e-05
7.585837358690675e-05
3.5491923482511425e-05
-4.5795438989691296e-05
-0.00015169551928057557
-0.00024430475368630156
-0.00027026922527986893
-0.00017811073955550203
5.531474065121818e-05
0.00039696467789564725
0.0007412804529504328
0.000920116276917512
0.0007492743821825886
0.00010996060694417946
-0.0009547125791416465
-0.002166996920908558
-0.0030151865971770717
-0.0028699603255672346
-0.0012261524852465685
0.0019764563852918637
0.006065664293997775
0.00954386820802526
0.010348530187114239
0.006543140706969504
-0.002651833666942185
-0.015799169417325554
-0.02866374623166761
-0.03467968429313271
-0.02685667638294035
-0.0010479798993729317
0.040188779319110614
0.08460460998924853
0.10997286692859544
0.08798351433055737
-0.007470543256720742
-0.18942429223744567
-0.24824509134772632
-0.14805555672753654
-0.03260589367661859
0.15950111117821342
0.2746812701512392
0.3268133968914126
0.0896991860967653
-0.09651886117578262
-0.30669713625473605
-0.20671844361901212
-0.23332828575310244
0.014967518428797049
0.17357200549434743
0.29715996560981467
0.041471753166343446
0.04851570400676095
-0.060653636357669884
-0.085386632662927
-0.23995352557594235
0.05307472724913024
0.1678615298886776
0.07826310846402088
-0.03996991172893715
-0.006268557410089928
-0.031417094458937124
-0.11407664304551073
-0.03944984295380402
0.018663571479406862
0.09242839947048995
0.012539363532994337
0.000970011938619782
0.06593006482350365
0.000220903428820906
-0.016818866823519917
-0.014457561417309386
-0.02412757029538366
-0.07300637020261101
0.020935074740233362
0.051543880773195154
0.024625384302946713
-0.04399380702231877
-0.13204340321984118
-0.01579044839404428
0.12400909504605394
0.09647955341663506
0.09749219660638131
0.11107507581800469
-0.08416698144966586
-0.30560822818409666
-0.15819447640167625
-0.031424295308114976
0.09613329552003386
0.24646828382831515
0.2308723938373074
0.043506906553702644
-0.13678940249085414
-0.13714911999756954
-0.1781528770632438
-0.06382460995050028
0.021625248721392612
0.10923838465302667
0.03502176685349672
0.027861360258719835
0.09966948424134404
0.040670009658839955
0.02108792406617591
-0.001225264974872933
-0.06933884472579949
-0.21531056891239272
-0.05149726624410992
0.03206748367749356
0.06352699279627078
0.08009133209436348
0.11741551708263243
0.0009781524893343013
-0.05836039583633467
-0.06436745265233555
-0.0323226997143635
0.015403424064389725
0.05380207388485146
0.05937969287808324
0.014244848030765051
-0.08985112841352003
-0.04825772585497526
-0.042328542889333125
-0.04175496450170111
-0.010654853799905387
0.08362846622236811
0.061293256994964115
0.12330868806864423
0.04966848987206065
0.0038660558390117244
-0.05727012681498151
-0.17129637515033644
-0.1595670249842167
-0.022202737102986324
0.0594538600225361
0.1138868104153225
0.16753341941253366
0.0345373093771584
-0.0883520515620459
-0.020555417361413728
0.008734896403883623
-0.030258316291265037
0.041653049231851084
0.020604787104134617
-0.07546268595698849
-0.20653388288213043
-0.11610719310538685
0.057065696578032635
0.1629594672434075
0.22447448539241666
0.22782439055091822
0.12402662405968129
-0.15724272352889734
-0.285136022630636
-0.30431592987249184
-0.2198824919096385
0.0031328855225996595
0.22512339677470533
0.30781148967320565
0.29041584840313256
0.1757109397055661
-0.06858495701856826
-0.29418140190540776
-0.34950885232982315
-0.2600578505077637
-0.020335872732298064
0.1994152267709043
0.23536427381075867
0.30965926719272147
0.21694215795675642
-0.07589197164661794
-0.21626100901812695
-0.24432796002701604
-0.17235048475385667
-0.17363702786460522
0.013988178318921178
0.07072816538642282
0.26893592540052774
0.247530067262871
0.19567442734852347
0.05185311786016356
-0.08065690095709221
-0.3065986592594396
-0.3086844536921581
-0.12453197502740528
0.06226553325204913
0.1151139035260229
0.12515789865632784
0.1868960206077476
-0.023925614539618435
-0.06488127680581406
0.06825900957528615
0.1458647186302723
-0.08406148487378548
-0.08023062700965941
-0.092145319187866
-0.14834227049566698
-0.2526292958887805
0.009975429612241755
0.25926102946927315
0.3031605312920973
0.3260949213097259
0.2890833244702165
-0.4563820992165058
-0.545655624359141
-0.3800699103375766
-0.11912889576418971
0.10870248553791197
0.7804817520642333
0.5503826106233413
0.032209686256235166
-0.39887694805216917
-0.38731813809870475
-0.3715171657217305
-0.16473581117920494
0.24900600663686637
0.30381714774745544
0.23255998098012462
0.048894591088766544
-0.06183180396690294
-0.1405173013066915
-0.043498785111570785
-0.027806759751707853
0.0629225146143383
0.008830447301805653
-0.18105037784115324
-0.06970941400764696
0.0007275384945779023
0.09664066806535897
0.07797667049962663
0.184723216131663
0.028754233736510492
-0.006633968131061233
-0.15979545392582145
-0.07920127690089233
-0.01130530706867686
0.008708285398907434
-0.038457725996090604
0.04386775226550237
0.06519865534700624
0.04337124261817955
0.00027699220915508886
-0.04122535746794182
-0.059292831081532923
-0.03479195495630875
0.04643324965060238
-0.009520534835593184
-0.007909898652548259
0.03231746992922407
0.07844675271823921
0.0872860526169197
0.012356303162389344
0.014416706917526324
-0.12676316449232286
-0.20286650551339072
-0.17366438912246257
0.027400150420756088
0.0787429135364665
0.25092408387549936
0.1879376421456028
0.09593416128297548
-0.05673499817374407
-0.12846009374942513
-0.186588579750034
-0.08925847665955554
-0.07264064024940789
0.05325312939197538
0.10044222285358252
0.09354982079834688
0.05931233236699957
0.018730759336577227
-0.016183954551239676
-0.041190263429335267
-0.05582468140798331
-0.05903304895632565
-0.04657383822438661
-0.011366503308892762
0.05342173473104218
0.1501077856391546
0.073388132500302
0.010463460908976548
-0.055002822840805564
-0.13654656033243906
-0.2392068678206073
0.042420926078775255
0.12099574211230933
0.20952918884723892
0.11445992176869259
0.03252704801516464
-0.24696436579544
-0.13609626988082443
-0.042232665826146897
0.03471538072941282
0.10057337283868982
0.1623557800468133
0.023878161852052143
-0.1160470110082195
-0.06229952761712321
-0.020365635887439493
0.006509954808257486
0.018590962799462867
0.019182317400692817
0.013115427474771044
0.00507693391198382
-0.001571750769723735
-0.005234297082386974
-0.0058689053908512895
-0.004403415263967693
-0.002079329417813106
5.3573409132696794e-05
0.001394240744215714
0.0018120921693266627
0.001513950671146994
0.0008547870092881164
0.00017200281215691752
-0.0003136885224264818
-0.0005243072602861762
-0.0004962861552123935
-0.0003266321535496269
-0.0001198790200159617
4.7668476645671166e-05
0.00014129941642898616
0.0001626855655582392
0.00013450860285916787
8.376112884742885e-05
3.011319131501957e-05
-1.792243216373142e-05
-5.978050106794726e-05
-9.579556889430882e-05
-0.00012057151670642349
-0.00012063863244623295
-7.861323458332828e-05
1.653050573619985e-05
0.00015648056945649074
0.00030388171831325543
0.00039292229930872107
0.0003456062728569341
0.00010419902445602731
-0.00032735831858376823
-0.0008486889397331992
-0.0012560376476136344
-0.001282669933207244
-0.0006940120773319212
0.0005777881213670455
0.0023034953717858933
0.0038974317853088048
0.00449969576527215
0.003241681486408788
-0.0003295244777023438
-0.0057849009460716585
-0.0115114029662314
-0.014819738113244474
-0.012650634356637085
-0.0028873023685700985
0.0140041409741535
0.033593473855891516
0.04714264675164445
0.04298814582706696
0.009854904877960497
-0.05853785617995402
-0.15916177631212292
-0.07776767331817656
0.008963929649698414
0.12714398288160078
0.09728148087211101
0.12714398461990756
0.008963935843237344
-0.0777676591096769
-0.15916175274339925
-0.05853782709936369
0.009854929082759579
0.04298814990423608
0.047142615886599466
0.03359340180719286
0.014004038508288828
-0.0028874027733227854
-0.012650681974000494
-0.014819678542688952
-0.011511202991958833
-0.005784577337701492
-0.0003291648021827493
0.003241920928412621
0.004499627114641559
0.0038969099424224613
0.0023025143689497135
0.0005765648458704782
-0.0006950154124715094
-0.0012828311914577918
-0.0012547885607045225
-0.0008458264424815974
-0.00032335660796843266
0.00010802907509959107
0.0003472775052449235
0.00039035804599473736
0.0002958872731765441
0.00014384388129665975
2.7846571189821837e-06
-8.733783727712394e-05
-0.00011712787369119824
-9.945380845044045e-05
-5.725853334521913e-05
-1.270524474274553e-05
1.9447275285069752e-05
3.372745691814864e-05
3.224624818560255e-05
2.1254055526138646e-05
7.671407329198162e-06
-3.3151565309812005e-06
-9.233500682427041e-06
-1.0099758206276495e-05
-7.499297721977524e-06
-3.5158987795713364e-06
1.0112811814755069e-07
2.3594711386828197e-06
3.054903334669038e-06
2.545030560391472e-06
1.4309075374499728e-06
2.7988342493012547e-07
-5.387595181425247e-07
-8.953451297335122e-07
-8.506998664846804e-07
-5.653778459394649e-07
-2.115580380118759e-07
8.494875087375829e-08
2.647410476159303e-07
3.2439596602112135e-07
2.908644801362692e-07
1.963632547174582e-07
6.447221831105683e-08
-8.929003750517544e-08
-2.46376971799202e-07
-3.7255473901600296e-07
-4.140105528906854e-07
-3.097913992056614e-07
-2.1485510013558986e-08
4.280423714649469e-07
9.23869975819454e-07
1.257910614006198e-06
1.17579558814582e-06
4.75993545174208e-07
-8.583700743867548e-07
-2.5419912855095357e-06
-3.951081397187737e-06
-4.2335941872745265e-06
-2.5966495473471604e-06
1.2679133094063993e-06
6.7497123117235265e-06
1.2086968034919372e-05
1.456614519261753e-05
1.130674595754067e-05
5.840682333091438e-07
-1.66497929078015e-05
-3.56812938348058e-05
-4.817499861673264e-05
-4.417915159283201e-05
-1.609197036312046e-05
3.6227953287593684e-05
0.00010106157307121932
0.00015372034783705897
0.0001611849881785785
9.354209614463127e-05
-5.947175358830254e-05
-0.0002720070010981774
-0.00047387887083704327
-0.0005594196974036812
-0.00041895060942817483
9.514577116267807e-06
0.0006820819455981628
0.0014092384426214308
0.0018648830167000495
0.0016680247788566234
0.0005391049349038646
-0.0015027715241614436
-0.003975249955233392
-0.00590123988117569
-0.006004354089133222
-0.0031690702688912096
0.002902571182337101
0.011037910505283383
0.018251661894601468
0.020037143675799913
0.011475372272171923
-0.01095851198258241
-0.04741624172845704
-0.09337467859761556
0.06015132836474159
0.02456220714182719
0.010314887353882234
0.02342281954786281
0.06304866836918878
-0.07904127425731881
-0.017064586492785267
0.03168454434403621
0.050566495590912273
0.027589218283177015
-0.04086325360664914
-0.14742938593990046
-0.073582602656778
0.0070498098101857715
0.12198632487427245
0.09170516207762525
0.12306259886376102
0.007115365813732853
-0.07761881902995534
-0.1577917605010527
-0.05682141544027889
0.011255112153095489
0.043751792328514234
0.047267108453333075
0.03327854831466066
0.013514969105433244
-0.00332858397427413
-0.012921090368040419
-0.014900538855506148
-0.011457410029726802
-0.0056798104187252745
-0.00024466693844447463
0.0032733771791373075
0.004490136044100132
0.003891443523652087
0.002353779484198942
0.0007146664006891369
-0.00048826268953326463
-0.001084376109020185
-0.0011866145362694563
-0.001033317569243088
-0.0008316392486736317
-0.0006586109889256349
-0.0004465615773269262
-4.9669244427014844e-05
0.0006373701159107446
0.0015564476646714302
0.0024156219242123527
0.0027220749719063272
0.0019442825225901468
-0.00021621213890228035
-0.003522022466310703
-0.006999663069922523
-0.00899937872292838
-0.007637589557065135
-0.001634331917296515
0.008615500514843121
0.0200852437953463
0.02673702086725673
0.020130081467878997
-0.008851562054744789
-0.06747972496695731
0.041354670107503586
-0.07925306730339858
-0.020266359874748768
0.03143193820593058
0.08989437623294923
-0.03320052514188594
0.06924315918683224
-0.0005718194395280909
-0.043811464632314945
-0.06255850579622114
-0.057826980494027576
-0.02930864984832482
0.022712100325158985
0.09409425265206005
0.17413856909813383
0.04561427832345813
-0.11133674059549294
-0.11232356256688272
-0.16177275514543366
-0.04947514175148319
0.047186106792655606
0.1557640336827101
0.09899246771735633
0.08677803978940202
-0.08691026440610916
-0.04133883229084324
-0.0018785749907543792
0.008893717644373602
-0.020864014517050354
-0.08744412856731937
-0.17144096349675786
-0.04303007359442889
0.127973571343293
0.1600038605255163
0.25013094585482254
0.17167433192975798
-0.1184984559288068
-0.26466498350625633
-0.2947618351823908
-0.2083959112161489
0.023832153338682698
0.2488587085172222
0.3124037412567831
0.24130312857750108
0.03477969358661732
-0.13180363866568412
-0.2930844776854326
-0.2767041173253533
-0.09123724974614263
0.07569377808704263
0.24906418949874648
0.25272693534793844
0.09741147602710672
-0.023934063721485665
-0.1319530052626308
-0.25083876085232115
-0.1980743129252493
0.020794359950764753
0.21017796904781438
0.17721269373239296
0.12410482327683225
0.04487430243071864
-0.07139764883674295
-0.23247870788087124
-0.2345580349507518
-0.05852162275174203
0.1261796306876808
0.15108710203652076
0.2363688024132292
0.18253658212107937
-0.02943345937622729
-0.22920456562448657
-0.24340160379038853
-0.28374284576068665
0.05714205591122321
0.20023899775214318
0.36818540064062866
0.17346233015636953
0.01309726238342884
-0.32778640188085245
-0.26661152106233316
-0.2146666181353113
0.025022475612871877
0.25170406856469507
0.45666489650006326
0.21591373567712635
-0.10806250196206607
-0.3544039302624708
-0.34707129431172395
-0.28191885937781763
0.07510207015280197
0.3772286240849319
0.47913406331234604
0.22145190870736847
-0.1747174856148734
-0.5019125252598636
-0.35474129834771856
-0.12163265660745502
0.2138454831121595
0.4627610504344089
0.4188412445653588
0.053796984885809786
-0.2749534905522891
-0.4065145562842351
-0.3574590564263005
-0.1117451833196527
0.17437458946478018
0.3538764417070573
0.2649173782198124
0.11163187148812721
0.05762942429737124
-0.16571423899734888
-0.24007865596566766
-0.23779939937581365
-0.004262542434984658
0.04973268456957199
0.14496637859364028
0.12340942419785568
0.035424445137317524
-0.07125381431585671
-0.15878551249542705
-0.0028282270147180527
0.2067423795695134
0.2678804663104197
-0.028276357523546698
-0.2891899897331628
-0.3128819910708366
-0.28515374258778864
0.013918094987037024
0.3948756249475509
0.6418301614668537
0.3036470178295288
-0.0984845429504483
-0.4465049974070633
-0.592677452327225
-0.33282404434422286
0.0017054687449208727
0.3287071162044512
0.3819685641780821
0.2728795391392754
0.060322963349974536
-0.062363700314769295
-0.16180317663189633
-0.1449731522946131
0.06686899300679823
-0.036497407547063924
-0.13478634979262433
-0.06635595230167442
-0.026917967696816928
0.022973376489307844
0.14430462602697802
0.2040416189734064
0.0621266864111873
-0.03587614684786448
-0.2602045288323826
-0.19495394863351856
-0.03645911496173137
0.2058297525763486
0.307121789817796
0.22760488898028097
-0.08090700726352998
-0.26162570654810663
-0.33711634286581843
-0.2986036380834544
0.0935698895683041
0.2971298209290055
0.3676752938154012
0.13991617404663292
0.01837311388285184
-0.21929231323537446
-0.2091945905393692
-0.1852635172530976
0.03243343331852499
0.040877329385379996
0.048809541746879924
0.0663548693243805
0.09436010204337349
0.11787178208072524
0.10664520701406238
0.023333465085515114
-0.16268517628746942
-0.2604780139716734
-0.24781763944467722
-0.07178535859651376
0.1385076915713686
0.2503076296631385
0.3041665161038644
0.09817036370022494
-0.014294846560622444
-0.11202158926511649
-0.08276358793263654
-0.19675612807306903
-0.08501634745946472
-0.12870664197251983
-0.06263081968596669
0.007846081912783225
0.1807553665453919
0.12936455446631637
0.2799993412142308
0.20286062662517468
0.019501654727767947
-0.17435228677095543
-0.2771939776595958
-0.3514390811658145
-0.2047045463072637
0.01081386083828386
0.18078207479269784
0.3996068182365231
0.3405901857945585
0.036055669942040354
-0.12639467320197845
-0.1922005149166619
-0.219398235178857
-0.2585237001448639
0.05961777537445651
0.12518264707161628
0.14144539129784878
0.11336280541545189
0.23877408741068631
-0.09350169726657344
-0.09794721838494465
-0.18193220188188267
-0.13582703458487788
-0.12880245604685447
0.08692355735915948
0.16425399130823035
0.1459213611746582
0.051341218600616155
0.07031078425329501
-0.034433800712889484
-0.11691010002306654
-0.03329268385474387
-0.027455374238556696
-0.12064302937676025
-0.10786061708536564
0.038292053232188004
0.15767084625555328
0.0897796153249249
0.06236938746211406
0.08509622276616081
-0.05016925273224838
-0.16333592463321356
-0.07733069749428252
-0.010174581180312007
0.02944071910825404
0.04235182102382907
0.03598711591568784
0.02022693189859717
0.0038046224399755145
-0.007771280224616465
-0.012628603993906673
-0.01171849758295157
-0.007453697749362204
-0.002407939341107446
0.001549374043081944
0.003577854651968832
0.003749639328053
0.0026909746020109785
0.0011827959647939096
-0.00014003533407991626
-0.0009333193980608469
-0.0011442517818372113
-0.0009209513367319632
-0.0004925207373056304
-6.788142513350436e-05
0.00022195516253121174
0.00033612528627354615
0.00030354765787111044
0.0001882781236296846
5.663156483476577e-05
-4.432593932284159e-05
-9.43838573913225e-05
-9.662617495027446e-05
-6.79144548520548e-05
-2.8569952365213635e-05
5.2337028914888625e-06
2.4990603043814184e-05
2.969886645476823e-05
2.341711267902209e-05
1.2140355770363352e-05
1.219443675740625e-06
-6.0708951473291325e-06
-8.790717321892688e-06
-7.770486969679123e-06
-4.7019140678664005e-06
-1.2941342483690048e-06
1.2656427728303067e-06
2.4906521382096753e-06
2.4891132465327854e-06
1.7119695618223395e-06
6.864037505965801e-07
-1.7655094485863421e-07
-6.675241175962632e-07
-7.700322620531484e-07
-5.947788726397733e-07
-2.98423435500092e-07
-1.7853175033625478e-08
1.652402689463998e-07
2.2956316864820623e-07
1.9867782235756293e-07
1.1718135457801291e-07
2.9073927554404467e-08
-3.5742381621408995e-08
-6.561012459907896e-08
-6.40510239311905e-08
-4.3093091066721665e-08
-1.6395961949468557e-08
5.607748416726655e-09
1.7780431075607533e-08
1.9936862733410268e-08
1.508314425173299e-08
7.30728405940788e-09
1.0713420736451994e-10
-4.4835562476824e-09
-5.991580250578163e-09
-5.0786958994481045e-09
-2.918470688502989e-09
-6.424327473397499e-10
9.972297444889979e-10
1.7228020854912232e-09
1.6433317480445795e-09
1.0786285353645892e-09
3.823178534742434e-10
-1.8053973234400382e-10
-4.832205831143457e-10
-5.257955481168692e-10
-3.8857409510805437e-10
-1.7806070962096024e-10
1.4952470423967854e-11
1.367365614595623e-10
1.727442024396789e-10
1.3749897848063447e-10
6.047168437061433e-11
-2.5934635759471386e-11
-9.37132096597651e-11
-1.2254047163758582e-10
-1.0138116717838912e-10
-3.058543914079034e-11
7.506665257712898e-11
1.8422773985897853e-10
2.5128839561139923e-10
2.265787817502764e-10
7.544163700278602e-11
-1.9747164487353133e-10
-5.277264504259027e-10
-7.872768639188196e-10
-8.094501577915513e-10
-4.476434166520611e-10
3.4137208704451405e-10
1.4162821880297549e-09
2.413562874846466e-09
2.797310326891508e-09
2.022958701853171e-09
-1.995950408726257e-10
-3.6154055550858413e-09
-7.233725500692199e-09
-9.389088013422341e-09
-8.170347966357787e-09
-2.219853038404991e-09
8.276252379294733e-09
2.078369458445991e-08
3.030605654749932e-08
3.041796900427362e-08
1.5602216824591798e-08
-1.5504169413466115e-08
-5.702696690651189e-08
-9.454898999724821e-08
-1.0725653605045126e-07
-7.44840172694504e-08
1.4015691071116139e-08
1.4697408134213183e-07
2.8467200135013385e-07
3.6200034761943533e-07
3.0580991661094525e-07
6.629395784991363e-08
-3.4491745729663065e-07
-8.24829113913798e-07
-1.1768074357527773e-06
-1.1531345350104607e-06
-5.474372439835476e-07
6.796106195111627e-07
2.2839483344341836e-06
3.693919363295454e-06
4.101847483225177e-06
2.725081401982621e-06
-7.937749852094645e-07
-5.9638998949223905e-06
-1.1195807715648516e-05
-1.3946978268680935e-05
-1.1421686768413464e-05
-1.8018205587774963e-06
1.4289685496912241e-05
3.26789839967316e-05
4.5637205640240015e-05
4.362594555257764e-05
1.8947656588469684e-05
-2.93923658792277e-05
-9.130524172780618e-05
-0.00014415725277614313
-0.0001566427882956016
-9.917899354116216e-05
4.051510446716882e-05
0.00024132336273729747
0.0004397535272174044
0.0005366298399733717
0.00042525519705621003
3.962574567148944e-05
-0.0005894232944378624
-0.001293204453167719
-0.0017682874383725786
-0.001647797055071398
-0.0006453181254179156
0.0012574105964411172
0.0036461674492984522
0.0056279396958304655
0.005994108231364158
0.003634452893591289
-0.0018564272871493409
-0.00956782292245878
-0.01695663382048829
-0.020157089481019155
-0.015136044469116861
0.0003664625706874846
0.024577262896937926
0.04997790271055055
0.06320246464871317
0.04738430344879586
-0.012963839600535366
-0.12561717774996267
-0.085064884041139
-0.07033560012039144
-0.048107125577645106
0.018845594628503628
0.1600318041807277
0.18635744366801896
0.0843172231298493
0.018282677117955726
-0.05897281319240349
-0.19068169953063593
-0.20089892363326534
-0.08547518806803492
-0.0129353799663746
0.06458685436725073
0.1940086472151058
0.20370946949260815
0.09211731926092619
0.02678807537540039
-0.0454434153680208
-0.18065056644130656
-0.21852780475763325
-0.16841663193126238
-0.005586042553965582
0.12106516657437558
0.2730304381610489
0.10407648676507995
0.04638234723524564
-0.09514865377114268
-0.14026491457922624
-0.1253272286022235
0.10631371649722464
0.11283919284491291
0.06066514299219509
-0.07023887242258194
-0.08237100746471852
-0.15922499351088729
-0.06808927151239935
0.03201459153908635
0.17854523100134448
0.1933860433420465
0.07510372599178368
-0.0010459827498057158
-0.07489833107965992
-0.18784698328337673
-0.1690677870661267
-0.026589506473414033
0.05379540862968532
0.10204890957376844
0.15300978906133905
0.03554560725033495
-0.03461267893089448
-0.05682455538327353
-0.04299863522550492
-0.012568468121387889
0.01297138612266523
0.014700545434527871
-0.020323718572362523
0.10320436855829591
-0.009871548464944788
-0.14502525017324025
-0.07969349255741447
0.012474841913914087
-0.045345678393938244
0.15857713935119863
0.21790220223844672
0.1066368800853739
-0.015205934174946726
-0.18939060068677446
-0.24466956998839196
-0.18533099875006115
0.011839904144490775
0.190565618738846
0.20082565831453097
0.08314819086108931
0.057355089515064135
-0.08088982116564077
-0.15595634063258973
-0.003508202568690406
-0.06095935246094133
0.04000724670535536
0.07779053135167122
0.04255600577252481
-0.06369486394004228
-0.027988542011349947
-0.028257647738103353
-0.036730815234187704
-0.025043818990737123
0.029520142364040842
0.13815926250780855
0.09714281631859223
0.08876731939392257
-0.11271162732040932
-0.13169839483695925
-0.18190494100563254
-0.06102857066882266
0.04802587773126258
0.16978087297177102
0.12594237136901149
0.12683128515404796
-0.03191252082335552
-0.16642241478938397
-0.09751594288092863
-0.043153684786731726
-0.013851212519555862
-0.012523785223623145
0.1620722972939892
0.1107513095208204
0.0309509819476174
-0.08284526888298592
-0.035599071101937906
-0.22729448423942777
-0.05043260405553102
0.10876125689910812
0.26588597878407033
0.033308744286479265
0.017650280719968586
-0.17876283814176117
-0.1538122046473226
-0.10197599980716489
0.18614503320135825
0.12076372506684249
0.10828642284611728
-0.05214081224382353
-0.16953997725886688
-0.26026951452077224
0.052635841310142824
0.3391409094884718
0.5626265377464371
-0.5157678246066798
-0.12749686574691182
-0.08449662564133134
-0.1704638260878344
-0.3406209793611754
0.6687713305837281
0.12439857883265189
-0.12049259035953283
-0.03704194337610755
-0.023639293176992374
0.09855133173102891
0.09510854621813314
-0.06954584565148296
-0.22016424088673447
-0.16215036783821238
-0.07979592016646002
0.05721975849435659
0.2808496788065795
0.2101292561581417
0.04102290354878033
-0.05523590635302413
-0.12512241984724146
-0.2207495823896617
-0.1881616974699776
0.1395795014011254
0.14320815382300262
0.21422853172522643
0.1522677813595409
-0.033869574207528376
-0.3213953333914866
-0.26864835374643214
-0.21557172150133505
0.10669593566518422
0.35810552300299864
0.3700879185067537
0.13278271518409013
-0.004241805330011293
-0.3169168627096342
-0.2827806989702201
-0.15741822149904716
0.04041087493914499
0.13096865453411655
0.16437772662711647
0.004945308369111954
-0.08561876296127872
-0.06230132494661547
0.09361047074164527
0.17026960927105916
0.12712816699692242
-0.09672805734465567
-0.16902975456301034
-0.14901177061246507
-0.07491563229760106
0.042158256600418643
0.21726194842676202
0.08549659139463327
-0.10594829912104424
-0.10519317382052962
-0.06195149810402414
0.06670305109801851
0.11089125620894062
0.0838224922202143
-0.019357656031773886
-0.018882169477230728
-0.1445298270204916
-0.028645126197019453
0.0997799255288697
0.018645368631521327
-0.08620979133478694
-0.021908854876460892
0.009203848504140353
0.0065928400290567206
0.16890819826831038
0.09313071075718755
-0.02347460963088745
-0.17897191553420466
-0.16219248138045603
-0.1513033027735163
0.0820979861392943
0.1637458361648373
0.30590090224222516
0.10017046435914956
-0.08205884131141543
-0.2812352510911748
-0.13699143699043118
-0.07685445356065031
0.08933687191861268
0.16841428732723168
0.1786992737009158
-0.055613247062654685
-0.10797941433257256
-0.15098309815608826
-0.15781943390446163
0.09415698667682841
0.2177659242297229
0.2107507443852714
0.05467919367020003
-0.0796421269288822
-0.22126332188861597
-0.1870802064844143
-0.17434193943621934
0.03840698391794709
0.28192070598794566
0.1824912052636268
0.1501536241996443
-0.025803996375971926
-0.17233191292641045
-0.12166975892956673
-0.09917662530081407
-0.11516421869943794
0.03628354088102403
0.17172894828180343
0.10906739713862804
0.05883675672751997
0.019841252574247344
-0.019430299622644354
-0.07470428772708064
-0.1581185074805285
-0.0722684099659508
-0.008817881665539224
0.04760888159014778
0.1119452392121444
0.19106638089226716
0.07978237470686039
-0.03727051193933708
-0.17828071733854267
-0.1547120732758617
-0.16421682498704093
0.01025408275321309
0.19434991187882195
0.2119341142220575
0.07530345795351394
-0.019486072606509402
-0.09040489902308846
-0.16195958586784723
-0.056216290467910816
0.013832882141757565
0.0464591343427431
0.04913492229396532
0.03404278109841082
0.013374015026192638
-0.003969284738765678
-0.013655720895477765
-0.015446337440783421
-0.011693400983544103
-0.005623473707277613
1.584608767970267e-06
0.0035781091323641057
0.004734929724016943
0.003995169371682834
0.002283444264498316
0.0004891775522002872
-0.000798412801726184
-0.0013641438442741904
-0.0012967905953809407
-0.0008498693354265657
-0.0003021271671008233
0.00013862594478935314
0.0003742589192148636
0.0004066375599607627
0.00030031860768242873
0.00013939652003358183
-5.893790837336719e-06
-9.598724004420337e-05
-0.00012306171129754692
-0.00010181899100589657
-5.662809563798035e-05
-1.0375933338329905e-05
2.2125121420494968e-05
3.579064957604241e-05
3.327694061322597e-05
2.130983211680964e-05
7.092834949939413e-06
-4.1145359575235875e-06
-9.922858197301498e-06
-1.0503811230627142e-05
-7.596049304436971e-06
-3.387556071171882e-06
3.31645382715342e-07
2.5815116166663273e-06
3.200107117600805e-06
2.5936405891252433e-06
1.4011414434676913e-06
2.0968820965578515e-07
-6.095778964110096e-07
-9.378788169412925e-07
-8.531544645062188e-07
-5.335122009824763e-07
-1.6490082640363127e-07
1.1975282908629298e-07
2.625209495589282e-07
2.7099386700811316e-07
1.9185092924350405e-07
8.194881622829029e-08
-1.3145554027908858e-08
-6.92176545731675e-08
-8.31141482334012e-08
-6.599122013789638e-08
-3.458046381812059e-08
-3.923914777131702e-09
1.66959285562313e-08
2.453536872242674e-08
2.1843615747830007e-08
1.3327725183592286e-08
3.7821474898027435e-09
-3.4383999748890722e-09
-6.936260791504703e-09
-6.987911636527081e-09
-4.8429057006429944e-09
-1.9768570574147395e-09
4.5171662220448214e-10
1.846192054481442e-09
2.1515206034486163e-09
1.672494482864866e-09
8.465492289655525e-10
5.864545926705942e-11
-4.594996093793678e-10
-6.45387109518509e-10
-5.630779197989518e-10
-3.3673637316802407e-10
-8.983900161730823e-11
9.307597550300648e-11
1.7846928063771027e-10
1.755290424684558e-10
1.1761358556946307e-10
4.297268344954931e-11
-1.8976130361455e-11
-5.3576956240520345e-11
-6.00842341901725e-11
-4.6786500232389695e-11
-2.5103937653258913e-11
-4.877141660459362e-12
8.121306355895442e-12
1.2492852440085892e-11
1.004266406888877e-11
4.04013054898387e-12
-2.338367364069517e-12
-6.965775112237379e-12
-9.042257086743529e-12
-8.857169622959434e-12
-7.298814408173663e-12
-5.3574740933885915e-12
-3.779163395287795e-12
-2.922712923517099e-12
-2.7900743984377694e-12
-3.1567798268906208e-12
-3.7250914927371635e-12
-4.243753254901488e-12
-4.5692677051664545e-12
-4.6710666971396445e-12
-4.599568732553541e-12
-4.440713939557451e-12
-4.276120045744841e-12
-4.159219350741285e-12
-4.1089485943262395e-12
-4.116512881644154e-12
-4.158312908088451e-12
-4.208740906400755e-12
-4.24890342838588e-12
-4.270046892311864e-12
-4.272563192105645e-12
-4.262508716457279e-12
-4.247635464039451e-12
-4.234351041945615e-12
-4.2262143541623285e-12
-4.223872063186833e-12
-4.225926497584494e-12
-4.230122285937524e-12
-4.234364638785078e-12
-4.23731358158199e-12
-4.238524578509394e-12
-4.238258290109877e-12
-4.237140301452451e-12
-4.235832026219822e-12
-4.234811302687393e-12
-4.2342908117557105e-12
-4.23424913966921e-12
-4.23452342925428e-12
-4.234912109596844e-12
-4.235251969020674e-12
-4.235454960767428e-12
-4.235508053050478e-12
-4.235449742607423e-12
-4.235339126012947e-12
-4.235229906346983e-12
-4.235155628033764e-12
-4.235126620331815e-12
-4.2351353024389576e-12
-4.2351651250492056e-12
-4.2351990246296305e-12
-4.235224933118305e-12
-4.235237706409369e-12
-4.2352381855152425e-12
-4.235230736215856e-12
-4.2352205931873745e-12
-4.235211908585526e-12
-4.2352068548659e-12
-4.235205674424261e-12
-4.235207312847502e-12
-4.235210223973983e-12
-4.2352130326261075e-12
-4.2352149006297665e-12
-4.235215590957732e-12
-4.235215320862834e-12
-4.235214527293572e-12
-4.235213649956795e-12
-4.23521299319292e-12
-4.23521268078971e-12
-4.235212683692095e-12
-4.235212885195525e-12
-4.2352131495276596e-12
-4.235213371188491e-12
-4.235213496730062e-12
-4.235213522306205e-12
-4.235213476655052e-12
-4.235213400170814e-12
-4.235213328027011e-12
-4.235213281125838e-12
-4.235213264821631e-12
-4.235213272961378e-12
-4.2352132940295816e-12
-4.235213316708522e-12
-4.235213333334769e-12
-4.235213340946756e-12
-4.2352133404814614e-12
-4.235213335050447e-12
-4.235213328170958e-12
-4.235213322520162e-12
-4.235213319408868e-12
-4.2352133188745975e-12
-4.235213320137508e-12
-4.235213322143757e-12
-4.235213323994746e-12
-4.23521332517031e-12
-4.235213325551937e-12
-4.235213325312207e-12
-4.235213324754075e-12
-4.235213324168518e-12
-4.235213323748198e-12
-4.2352133235634975e-12
-4.235213323585477e-12
-4.235213323731376e-12
-4.23521332391019e-12
-4.235213324054071e-12
-4.235213324130984e-12
-4.235213324141538e-12
-4.235213324106815e-12
-4.235213324054271e-12
-4.235213324006835e-12
-4.235213323977422e-12
-4.2352133239685865e-12
-4.235213323975525e-12
-4.235213323990281e-12
-4.2352133240053815e-12
-4.235213324015993e-12
-4.235213324020453e-12
-4.235213324019632e-12
-4.235213324015724e-12
-4.235213324011082e-12
-4.235213324007423e-12
-4.235213324005527e-12
-4.235213324005338e-12
-4.235213324006287e-12
-4.235213324007661e-12
-4.235213324008875e-12
-4.23521332400961e-12
-4.2352133240098115e-12
-4.2352133240096136e-12
-4.235213324009224e-12
-4.235213324008835e-12
-4.2352133240085675e-12
-4.235213324008461e-12
-4.235213324008488e-12
-4.235213324008593e-12
