0
-0.00019169595036626306
-0.00019169606245515912
-0.00019169612030769844
-0.0001916960639326188
-0.00019169585481135
-0.00019169550734409263
-0.0001916951124688281
-0.00019169483727030223
-0.00019169488683551926
-0.0001916954252407673
-0.00019169647088790288
-0.00019169780288162078
-0.00019169893099525037
-0.00019169918093523927
-0.00019169791980734526
-0.00019169489204804926
-0.00019169056438542428
-0.0001916863150673492
-0.00019168428370984966
-0.00019168675877647855
-0.00019169513617693429
-0.0001917087132710607
-0.0001917238170795118
-0.00019173389031887204
-0.00019173104881253718
-0.00019170919678861023
-0.00019166806903438786
-0.00019161674583535238
-0.00019157460245960872
-0.0001915677361949615
-0.00019162000679212238
-0.00019173997920305356
-0.00019190782503921162
-0.000192068613992713
-0.00019213901026449517
-0.00019203185455755862
-0.00019169689851139524
-0.00019116699227357732
-0.0001905901282901109
-0.00019022334005392225
-0.00019036932205635348
-0.0001912537594110218
-0.00019286940743315132
-0.00019484446228106288
-0.00019641419132450846
-0.0001965697394650699
-0.00019441361532093095
-0.00018966663051901906
-0.00018316437112567957
-0.0001770924550478299
-0.00017469301947355297
-0.0001792801722408301
-0.00019264851202999172
-0.00021330674616653602
-0.00023530539270161086
-0.00024858112121688597
-0.00024152833815827864
-0.00020582345268182995
-0.00014243186038936218
-6.652377880802141e-05
-8.242987809679316e-06
-6.542536197073646e-06
-9.510117774580247e-05
-0.0002826646606094571
-0.0005342642056321367
-0.000763077476898043
-0.0008431208153380249
-0.0006486096304643746
-0.00011606950654224153
0.000688205045920523
0.0015254844589511901
0.002002149221176508
0.0016737560966145777
0.00023458207289323854
-0.0022510967131559464
-0.005165630977256312
-0.00732048255070476
-0.007209067371461985
-0.0035616071305870074
0.0038971713942895455
0.013744493571393656
0.022589603739092218
0.025622244923808764
0.01818022856964116
-0.001859597040749368
-0.03160564102685223
-0.061847984671213954
-0.07842484443269625
-0.06746537530158887
-0.024751780303519155
0.03209395609119867
0.05162614745755974
0.14118634592370216
0.16895370034500332
0.3794213169186572
0.22379508698367412
-0.19755311030467634
-0.4892725577243844
-0.525901229515511
-0.6431011014178988
-0.2663937897984423
0.22204976558964917
0.5915063713890736
1.0701002465561937
0.680295214714322
0.22546480254058637
-0.2645394444513875
-0.43995432806845375
-0.916647193065913
-0.7741341463887403
-0.49527209332779626
0.23677648769497153
0.4871562972756352
0.7832676380797872
0.6229556756018527
0.20412651648295954
-0.2081001490374216
-0.2758360192822517
-0.7566692961241902
-0.6640236571520537
0.16462316558787354
0.68565394279016
1.0595222589815778
0.06700260489309635
0.3427735864414793
-0.574263105385955
-0.9892980391407404
-1.4235862628525036
-0.03408404299987995
-0.09164688917458695
0.49256713423787973
0.8237125123869735
1.3062196750160464
1.5956826152185126
1.0482614392481953
-0.3295133367969431
-1.6605736910040874
-2.7672870927332887
-2.0066500496151867
-0.8338912556068919
0.2806829483590047
1.6086648606705942
2.6669695555327237
2.7623126790280175
1.6612191693726714
-0.7703849239430359
-1.772240548752852
-2.4088932232810216
-3.102584567488277
-2.0728557080949406
1.465516252725446
2.755577496894024
1.8683876464158553
1.2845180161504033
1.3689963056896373
0.17941746727388222
-2.8046616455009743
-1.285084114955479
-0.755638995041334
-1.1870969106157925
-1.0243015266820237
1.5058688231229274
1.2119405574794457
1.1403063730165626
1.827691416860269
0.8533515658940835
-0.09057952135795626
-1.2300431109819208
-2.294286953714622
-2.1264009334441734
-0.5842550295168277
0.4333395808385206
1.2444062032765162
1.7744824278032711
1.1490030004345155
0.5502647142877781
-0.2244188770019046
-0.5011428118144843
-0.591690212252175
-1.023167439709658
-0.37968534215307287
0.20988586430337164
0.12099167335540802
-0.3810546789507709
0.19207495324567697
-0.1510850166274173
-0.0020834651817632096
0.5295176393218877
0.9212237221870762
0.18473374025451755
0.06782602648029508
0.11237122007369434
-0.6432800539818404
0.06063992161740746
1.026633895087375
-2.508053704798761
-1.4314839542391926
0.21457124514356726
0.5364702855597977
0.44309351824459403
4.097119497120263
-0.7859452131302977
-0.5554167134267343
0.04397600577575429
-1.4007854622707794
-2.2339127834494694
1.5706414948135081
0.24738164158308723
-1.1893471294719014
-0.22526305815584707
0.8474929054074019
1.4264878135606278
1.7290951645751274
-0.41640253993661935
0.49063167094367816
-2.0628665025372643
-1.87913156110308
-1.5647280934296028
1.077715464541124
0.37578521619780997
2.4617929549968407
1.1477593839687978
0.05081757263266447
-0.605313140522161
-1.1205406160989817
-1.0143631633602659
-0.529965247096468
0.2214128174218954
0.4646373022325608
0.5230936855165024
0.36149798556456164
0.13230023514305445
-0.05874309590887107
-0.16305178296126657
-0.18007419432921828
-0.13763208821548095
-0.07122498655356159
-0.00902192825858829
0.03466345150073737
0.0581562644781314
0.06644642202455832
0.06417003094078927
0.05071513569620778
0.019248890084670518
-0.04026491471424762
-0.13561388919558015
-0.06704405528252012
-0.024720464582048764
0.009625619187647849
0.05729366506849332
0.13558528135139458
0.0520575544048919
0.0024987172219073047
-0.026458742231263252
-0.05109487870585582
-0.08320834124393954
-0.12451078824171008
0.03489916307708661
0.013211894178983467
0.029846023196239448
0.09729298593536835
0.2150899785735958
-0.03145324601687734
-0.06687849727532807
-0.11708975706848
-0.20036773979418102
-0.12201765520338428
0.12478354168984825
0.15241036869318175
0.16998262494984395
0.1771672361071233
-0.03581828725102747
-0.2816967508895918
-0.16645213554559612
-0.08177960942808847
-0.004028825679586055
0.09931795887517526
0.2583719077556022
0.08977777182421036
-0.0093382559422502
-0.0600692162771992
-0.09408127130260666
-0.14315576454392623
-0.03010962160558074
0.03589345818932617
0.058827246664118114
0.051388961038908415
0.029123961732668346
0.005398712774878064
-0.011439846958059321
-0.0185274243956674
-0.017207494240079533
-0.010992751820071136
-0.0036409638674051773
0.0021185026896564023
0.005060827457646016
0.005294526525666544
0.003736509922008933
0.0015279546042617684
-0.0004048705768711422
-0.0015611301927061466
-0.0018657138461765205
-0.0015365032995958423
-0.0009089267977786026
-0.00028824000706143113
0.00013456036766551553
0.000300325233231626
0.0002517739893185232
8.276215996634833e-05
-0.0001097642025002055
-0.00025713276130395
-0.00032997412819017074
-0.0003329451001948374
-0.00029077980675592537
-0.00023320322472767605
-0.00018382916824262295
-0.00015504126737845805
-0.00014825583852401636
-0.00015750810705757122
-0.00017402296395744435
-0.00018998339521046184
-0.00020061615494673242
-0.00020456232735849116
-0.00020304712059699234
-0.0001985487675468586
-0.00019356556267708936
-0.00018982946266189697
-0.00018804746456772966
-0.00018805757427086404
-0.0001891984672991307
-0.00019069909149242115
-0.00019195939954008942
-0.0001926746555163307
-0.00019282200257344546
-0.00019256406642779233
-0.0001921301231608668
-0.00019172012626608785
-0.00019145312484019058
-0.00019135985470730054
-0.00019140558996619326
-0.00019152501558825536
-0.00019165383127340584
-0.00019174843087937067
-0.00019179189879185086
-0.00019178947763793782
-0.0001917587875508588
-0.00019171977638527218
-0.0001916876373259214
-0.0001916698174876875
-0.0001916665520556658
-0.0001916734636125801
-0.00019168465307717493
-0.0001916951267359082
-0.00019170203037296603
-0.00019170472794315628
-0.00019170411687146122
-0.00019170168270495126
-0.0001916987143556576
-0.00019169591580895713
-0.00019169344589051884
-0.00019169125438694187
-0.00019168949130618818
-0.00019168875492734717
-0.00019169000887251687
-0.00019169412531111173
-0.0001917011763964056
-0.0001917097590020527
-0.00019171674107137354
-0.0001917177952302708
-0.00019170888535906307
-0.00019168849185643153
-0.00019165987965343717
-0.0001916323010283378
-0.00019161992005574207
-0.00019163767302240287
-0.00019169433662620582
-0.0001917846086302819
-0.00019188353631566091
-0.00019194740297031116
-0.00019192438264590284
-0.00019177537926151988
-0.0001915006885297746
-0.00019116272089178432
-0.000190891299991694
-0.00019085881196236176
-0.00019121995364724295
-0.0001920252259758655
-0.00019313556614191824
-0.00019418085079059053
-0.00019460818474323328
-0.00019384829180956083
-0.0001915865570680383
-0.00018806588869312493
-0.00018429061233577856
-0.00018197347132609508
-0.0001831027426656409
-0.00018912230553145906
-0.0001999040853540387
-0.00021289876032607442
-0.00022298674677225997
-0.00022350936383283608
-0.00020865701267327495
-0.0001768250840539304
-0.0001338454397924729
-9.442871299381473e-05
-8.006813903428786e-05
-0.00011238411441038111
-0.00020254307598472935
-0.00033968671354867253
-0.00048349943953474164
-0.0005669790945653434
-0.0005139679250681967
-0.000271371932642311
0.0001512835315090188
0.0006501966744969106
0.0010237155386737381
0.001014908914621574
0.0004060874958765929
-0.0008511461298327857
-0.0025137687210197717
-0.003997869937499357
-0.004468309939321257
-0.0031038917102146806
0.0004910741290697518
0.005847186646066859
0.011363500140183124
0.014446990119461083
0.012225707191313299
0.0028169599067741375
-0.013155979050730513
-0.0314142348770024
-0.04405180376856201
-0.04148137100231212
-0.016591246966305144
0.029391229436705912
0.08077844972303581
0.1031952345690727
0.04341669179189599
0.03451984081964081
0.005885089901032251
-0.10437731946614134
-0.3385252558518475
-0.3141099986557613
0.17260143749025297
0.33595613566411037
0.3890525916371547
0.5393511440413118
0.19813081642557417
-0.79720074323493
-1.7583405020855274
-0.3347828243713394
1.2727586757977947
3.6778489024724315
-3.1294107417874306
-0.4063636531867448
-0.06716722809014812
-0.4912181635798915
-2.3427170668992026
4.401783290662232
2.038416635718208
-0.03803586037371125
-1.6515866452462429
-2.122511958906278
-1.5528745072347205
-0.7743877141007772
0.21144607584128433
2.111514723056803
4.18400949090796
-2.4936153728364303
-0.2867945443338446
0.013239817532556387
-0.737280314229899
-2.5401900158110373
3.83299924537118
0.9122957184370238
-0.8150851453574363
-2.063866905738465
-1.53836515227588
-0.7728838375821105
0.36135905617067604
1.4987793369892197
2.418961380066809
2.1455877244886223
1.1557867057993365
-1.0854625288233564
-3.1004753840723147
-2.9599487310521764
-1.9197957020067054
-0.1983985176854733
2.096309008452368
5.741428399592046
-1.4355882943309632
0.08361255810000558
1.866467873263367
-4.005505876898117
-4.212606997733806
4.330382529248534
3.5688491934108706
-4.03212293323252
1.553579121286596
-0.055472702332004395
-1.8382556934078491
-3.2028189082704004
1.9286676330463455
1.9906980259472824
2.0382761982382522
1.4582833109800037
0.1721786119671164
-1.8631054792276946
-2.292696516261308
-1.603914948483186
-0.4315509175269648
0.43872551774927265
1.9783983551539808
1.780468882707962
0.9379229766042381
-0.8194391470028246
-1.117129486773323
-0.8769786112752704
-0.24426908159966093
-0.3347559080694279
0.5820078944644727
0.4659382224864005
0.0718115676749387
-0.28452519714965
0.05547278216377144
0.6984511874984175
2.6319240953301044
-1.9173859845954007
-2.012580062877159
-1.151033105194026
-0.6584155005945136
-1.5516781327053129
4.141908948264052
4.655827724237914
-1.5940791056694046
-1.3959754962782382
-1.0417608843128427
-2.3913795284422843
-2.768190227195295
2.8691878283344066
2.4754100366778817
1.8246669753890508
-1.7722376973295249
-0.9047658190430004
-0.05323371965240435
-0.7572679510601718
-1.1873111155949183
2.670518396116222
1.2232952459913253
-0.5095837125963218
-0.8558072991374496
-0.8348447315663874
-0.7115695400555471
-0.18496720921212623
0.17458306166072585
0.44475882866139543
0.4482856587245369
0.6553593683379183
0.11724385457996843
0.04763475283115577
0.2559998294620048
0.02534715953215945
-0.38193506395619053
-0.411977770064336
-0.3249564071609408
-0.7399958035382278
-0.6342109183522185
-0.19926554253402312
0.6555964879356735
1.1798986471543447
2.8733288981104574
-2.3742807135309767
-0.47798191460174405
0.9038856490070564
0.8615158679958702
-4.674888529109173
1.929981889169997
0.8381931357058833
-0.6853608702443937
-1.1278381846292032
3.009544385017418
0.966353009430945
-0.68694623861254
-1.0183405104739123
-1.078045028836989
-0.8469993289211529
-0.018723772409385483
0.7746086896882602
1.1035886400724793
0.6773958130029004
-0.09803637505825506
-0.32395134704847456
-0.377181923881068
-0.659310617208756
-0.14707636217463022
0.2404508199653121
0.2522916526779924
0.09735539344360224
0.026248236582129894
-0.08874727744258327
0.029295520582635334
0.049595713379819675
0.026138818428951608
-0.005316040907188758
-0.026278644584605673
-0.031706642037057996
-0.024840141478236398
-0.0122240932126282
-1.5964589235165582e-05
0.007976921460968367
0.010685769001192568
0.009120474974215968
0.00528551605879497
0.0011798281301042463
-0.0018330462575842053
-0.0032228715088984325
-0.0031558584632950266
-0.002189283319535444
-0.0009552880945627064
6.313704850090501e-05
0.0006277145136380516
0.000729199893868061
0.0005061174770202066
0.0001472931296372849
-0.0001854928198232169
-0.00039801165976238446
-0.00046815353968399293
-0.0004263310074385966
-0.00032670348209000016
-0.00022156616189065762
-0.00014572692575270886
-0.0001120743905363402
-0.00011560884504255874
-0.00014157091649968657
-0.00017362824858837162
-0.00019954604324413607
-0.0002134973140877489
-0.00021552655464599844
-0.0002093795022516271
-0.00019997580202639806
-0.0001914438078188986
-0.00018612386836668976
-0.00018449521262768536
-0.00018571003136844973
-0.00018834521532901775
-0.00019105740219607629
-0.00019297258308675043
-0.00019378626537258712
-0.0001936492599702705
-0.00019295343933816147
-0.000192121009148722
-0.00019146171363671982
-0.00019111755221300862
-0.00019108010661244223
-0.00019124840849915853
-0.00019149441400490984
-0.00019171287484743752
-0.00019184578548021814
-0.000191883120269601
-0.00019184833858175348
-0.00019177877181639262
-0.00019170888786958326
-0.00019166059482215463
-0.00019164102217510872
-0.0001916457252866711
-0.00019166432205572692
-0.00019168591092246653
-0.0001917026610312102
-0.000191711126345935
-0.00019171170984669285
-0.00019170712428454682
-0.00019170069799125125
-0.00019169511093587114
-0.0001916917971423265
-0.0001916909550826895
-0.00019169193952768524
-0.00019169377258513947
-0.0001916955708149066
-0.0001916967860688006
-0.00019169725336612073
-0.0001916971017233809
-0.00019169660603327086
-0.0001916960477762059
-0.00019169562470630145
-0.00019169541967415098
-0.0001916954166373977
-0.00019169554165733877
-0.00019169570709841647
-0.00019169584425014928
-0.00019169591854372212
-0.0001916959289219842
-0.00019169589704778797
-0.00019169585289611246
-0.00019169582192285419
-0.00019169581679325857
-0.00019169583465051895
-0.0001916958595937852
-0.00019169586933892
-0.00019169584456587337
-0.00019169577884842393
-0.00019169568626207768
-0.00019169560315778872
-0.00019169558088936257
-0.00019169566820992346
-0.00019169588585776925
-0.00019169620087136817
-0.00019169651263858714
-0.00019169666399697848
-0.00019169648628099148
-0.00019169587582352433
-0.00019169488258252552
-0.00019169377440317564
-0.00019169303122903506
-0.00019169323152546088
-0.00019169482433838473
-0.00019169783291508874
-0.0001917015961812281
-0.00019170469741124419
-0.00019170522387124126
-0.00019170142157519274
-0.00019169265181930148
-0.00019168035327008577
-0.00019166853870778103
-0.00019166331152960255
-0.0001916710713314698
-0.00019169553199084902
-0.000191734332530302
-0.00019177667462418028
-0.00019180374692111488
-0.0001917933446208683
-0.0001917288427481435
-0.0001916106279496866
-0.00019146578201821593
-0.00019135023017286353
-0.00019133792169563838
-0.00019149484808377983
-0.00019184190227645548
-0.00019231840562813562
-0.0001927646647902574
-0.0001929432003403879
-0.00019261063157917862
-0.000191634193749555
-0.00019012137188212445
-0.00018850637861036405
-0.00018752580899387218
-0.0001880311450031158
-0.00019063581340510673
-0.00019527470310814286
-0.00020084240870996378
-0.00020513417563870195
-0.0002052943475987779
-0.00019884588320546225
-0.00018513084756026935
-0.00016669052049580408
-0.00014986993026864853
-0.00014389871975024318
-0.00015801692724519092
-0.00019692735782735754
-0.0002558444014316186
-0.00031734509614011683
-0.00035262036898704924
-0.00032906381837001297
-0.0002241366516132108
-4.2318758208505295e-05
0.00017141658466768138
0.0003302627247490045
0.0003240780470830652
6.0121137265399245e-05
-0.0004811456550203147
-0.0011939394753016806
-0.0018265516640852387
-0.0020206996108433272
-0.001426244396574268
0.00012151547888489587
0.0024130278356633444
0.004750517885120869
0.006008493271428283
0.004940215685144199
0.0007219570373827996
-0.0063949931839756185
-0.014583042776782332
-0.020421747014748557
-0.01965472046105842
-0.008794884544890488
0.01272169979640096
0.04057664930438527
0.06488037962722609
0.07181957929046219
0.04815671375204102
-0.012045059429086806
-0.1006264569475067
-0.19202491803793253
-0.24755120007876125
-0.23025832133795565
-0.13026376374002563
0.20459004546632997
0.6434619858675075
0.9672728780366693
0.8972068650617427
0.16209917769353838
-1.4062921900710288
-1.7797671449422239
-1.4827981563045878
-0.8192981580611772
0.41317370967862843
2.1481490865775172
2.671994281162518
2.1124627296898635
0.446666678871457
-1.762097646157387
-2.941993227198704
-2.4865653803115215
-1.2117092999871586
0.04980607524849877
1.9168210128453689
2.645365893088298
1.9153079990042827
1.2972134598908538
-0.7576556092195905
-2.6130514554437765
-1.883189325307679
-1.0813225094835253
-0.5409328736849862
0.9694957879133814
2.7609074212123805
2.1196541498270167
0.04037735401008309
-1.7739760247321636
-1.8552284584824297
-1.498789993576215
-0.7261002604757412
1.4949822219901756
2.9844929762306336
0.28067661670460925
0.21146311765591425
-0.27032790149744307
-1.3998464931244714
-2.699232106505363
0.892856756941381
0.8317352428253771
0.31520752179209827
-0.007412287020553563
0.4658950512049987
0.20959955284397136
0.32469451642784786
-0.06699169229572165
0.009106133842305254
0.039632237399412976
-0.7055144059274265
-0.9080385162900713
0.0420519633845209
0.4595360164731901
0.3500083002609137
0.7823188141689439
0.2640298601837892
-0.2693282643949723
-0.8518112702318856
-0.6827727915822921
-0.33594934495549805
0.4088233094583311
0.7149625553928378
1.0357701092468499
-0.32090557660798946
-0.3954008460287367
-0.34455528077550185
0.2151234930773837
0.2766177145955735
0.713634892370293
-0.6536724595553368
-0.4077164546808395
-0.9108757330378929
-1.1264345952326917
-0.29146361747947325
1.3656314471383713
1.0898041192132726
1.6873063018245913
0.4768656982156991
-0.2747745806355951
-0.8415857797597938
-1.2878297278247455
-1.9297025898462783
-0.25603937375933233
0.4665477537871716
0.7098065155011772
1.1551496810084587
0.9680327964529268
0.5191411972649254
0.17772633992207482
-0.2223748702488368
-1.0667407224157
-1.0323987202235076
-0.7892912033007233
-0.3629494539470365
0.2296689660942241
0.6825897021254483
0.8717760518862643
0.7333166064159853
0.38340268851490567
0.10027909245441312
-0.23082975809301892
-0.6265296799281892
-0.6958803186235174
-0.5434131601996063
-0.10865925832720592
0.2467333769225131
0.30814676411749947
0.34876290053983056
0.46191391307149215
-0.09757021391470493
-0.3528886716861382
-0.2239046290883312
0.07124655293968203
0.4268989391852885
0.2708723449458856
-0.004328101272645727
-0.20190416792919705
-0.27922977072576327
-0.7150845638549955
-0.2966085475391707
0.26816529259807537
0.7155135600718681
0.3814731543748836
0.16401937906881525
-0.09548958238843211
-0.20848281998297272
-0.41924205812585996
-0.1801188792961788
0.06753069970766455
0.1010247458728295
0.11309274513746835
0.10244753366151059
0.0640986589253083
-0.016176086449429722
0.038595308593294186
0.0022476519221731384
-0.14610622555872294
-0.21430666554941494
0.006718842307499805
0.14108587124614105
0.0209617148142211
0.07732852955463228
0.1321568421346493
-0.005289512813394696
-0.13723336920232626
-0.07251617703903236
-0.020667405407663944
0.01254221433055081
0.026762696419892568
0.026168069190530285
0.017162701187340146
0.005975372757485861
-0.0029865908520313954
-0.007720961486100303
-0.008312700615153153
-0.006115150171434511
-0.0028526334131388875
5.5877402175027514e-05
0.0018267684509737261
0.0023217442869003157
0.0018529456310316709
0.0009194439420384125
-1.751424545135764e-05
-0.0006647218617418849
-0.0009268684759180487
-0.0008636412503885279
-0.0006142076050002645
-0.00032463705978357123
-9.983553532844048e-05
1.4010960585243709e-05
2.221472866604791e-05
-3.904590348297412e-05
-0.00012538255206744994
-0.00020103527317762713
-0.0002467549200896745
-0.0002595621539680079
-0.0002474834936352608
-0.0002228355973615045
-0.0001967964083927357
-0.0001765814076681916
-0.0001651773755329924
-0.00016268230001127105
-0.0001679999190233541
-0.0001798715597842508
-0.00019680343544423458
-0.00021612582610323146
-0.0002329701707162118
-0.0002401793612656382
-0.00022995247264625453
-0.00019735098403001996
-0.00014479147451053952
-8.562644902859077e-05
-4.432404871295556e-05
-5.108855442700276e-05
-0.00013034358157196826
-0.00028524842561260136
-0.0004836524868261555
-0.0006533093515988654
-0.0006941201154697956
-0.0005112618776596566
-6.497851739777609e-05
0.0005778663682950783
0.001214898358522845
0.0015294383813551486
0.0011804784060340159
-4.296018775934096e-05
-0.002041782103157572
-0.004275015780636688
-0.005769608516109406
-0.005350236025853583
-0.0021059763417017553
0.0039937136678200955
0.011541235062880859
0.017483399393934656
0.01754292561441777
0.007386758606303822
-0.01564983394376142
-0.05084984087159404
-0.09323717351293521
0.06574425664921459
0.035881753298462674
0.024942875943048726
0.03588175521898674
0.06574426020312013
-0.09323716902522926
-0.050849836694463656
-0.01564983182000195
0.007386756824382438
0.01754291873421914
0.017483387861799506
0.011541221757390868
0.003993703969372791
-0.002105975688559958
-0.005350219411259133
-0.005769574883340757
-0.004274971804357182
-0.002041743409983784
-4.294887150287378e-05
0.0011804409061749806
0.0015293422225185977
0.0012147568787072797
0.0005777229743250727
-6.505428221182427e-05
-0.0005111934307602619
-0.000693857488618412
-0.0006528692642525889
-0.0004831488157469657
-0.0002848924793920648
-0.00013039651787957502
-5.1761611456375924e-05
-4.5645468375113e-05
-8.732134169858998e-05
-0.00014624134218269843
-0.00019769908607833897
-0.00022838775970450146
-0.00023636269586472616
-0.0002274753728716554
-0.0002106867932276371
-0.0001941329908027219
-0.00018289272229514528
-0.0001785273900625967
-0.00017988484395707328
-0.00018445168552206682
-0.00018963127543105435
-0.0001935777779680578
-0.000195491961102493
-0.00019548744990222604
-0.00019422936167177
-0.00019254159970562016
-0.00019111287049765422
-0.00019034869569455802
-0.00019035111410219607
-0.00019097576164202925
-0.00019191688730954535
-0.0001927922053077595
-0.00019322438128687691
-0.000192929702813464
-0.00019181947400184865
-0.00019009776104024368
-0.00018831130485930865
-0.00018729071937138066
-0.00018793373551411402
-0.00019083105344184365
-0.00019581814430866875
-0.0002016273244147691
-0.00020587117451883067
-0.00020556192049971692
-0.00019822645777933424
-0.0001834166526113552
-0.00016410166636975126
-0.00014718764535511707
-0.00014240111225430273
-0.00015913521388285964
-0.00020162948082057093
-0.0002638906697536535
-0.00032670737497571495
-0.00035944518876399186
-0.00032851289720132635
-0.0002121998623988272
-1.827073081380189e-05
0.0002027530082460569
0.0003576735362333873
0.00033177546891691775
3.2869989754601234e-05
-0.0005501980329348096
-0.001295018712351393
-0.0019284188881653528
-0.0020735816354269126
-0.001375595261544466
0.0003109166071237091
0.00272851567013461
0.0051099912301971594
0.006260539077077757
0.00489836596293321
0.00023588666634551055
-0.007345200606032208
-0.015803021370172178
-0.021477362005260226
-0.01995231307872076
-0.007790118762291405
0.015213982836986273
0.04406675237337022
0.06804067797022499
0.07266134999453656
0.04470091543453885
-0.02055342719433968
-0.11206055551644209
-0.1995028630597624
-0.2375887869012834
-0.18102127278971164
-0.009702471749603966
0.24104351738467125
0.4552974009315563
0.6292155910473907
0.4927690342774006
0.1647635463483004
-0.5662282822711402
-0.9551644577433955
-1.2367651662382864
-0.012429347136824824
-0.5031900384148313
0.3361407412956016
0.6670443252442902
1.2210786359699222
0.8006718703303476
2.462199360263368
-1.4031644973418176
0.6959142554587427
-3.243059715721103
-2.1347169925636504
-2.113605443619298
1.8294437177422005
0.08931855164000586
3.821512503804558
1.5313700510020114
0.15306403383032047
-0.34197743457782964
-1.0160520075320574
-1.5648741627667264
-1.1132703460714284
-0.2677539089056549
-0.06314392400378892
-0.41008533513672357
0.5765060808952418
1.0057803632806275
1.04145598092586
0.7774635243871458
0.3887229439734618
-0.43447496677666214
-0.7838925652016777
-0.9963067939498671
-0.7223995498118473
0.1648512370255909
0.20554107092022122
0.5345506104962643
0.2260769871152008
-0.17814537525466395
-0.139715154649787
0.21703636117798572
0.06270085836011936
0.4410740112926324
0.27053737924570737
-0.23178668225191706
-0.7085522053146122
-0.6139910440553071
0.22920457893680063
2.4611567641437806
-1.9948712290477033
-0.31958932048500077
0.4062885698789332
-0.2099002143263181
-2.106222362734905
2.580903488702541
1.0555229638729688
-0.5895366069278679
-1.1990797712851062
-0.35240747916859333
0.8625077955499996
1.490121305063263
-0.43715318306194273
-0.028488257229926803
-0.6579353356322409
-1.3026540760864636
-1.9223197735993396
1.1022179415287519
1.0733173394335296
1.4507989061671727
0.5381362701748021
0.21854389452271306
-0.4421493368392288
-0.7347746849562831
-0.81569926152905
-0.41816164011204143
0.008308632210117696
0.3198285911005749
0.4668541080974695
0.4656050459972411
0.37029705093821
0.058522587738653944
-0.968143745919881
-0.3763826141689739
-0.399300869096076
0.3495565190636102
0.44624725057691966
0.8208078000921522
-0.06919580272848651
-0.2449672626204944
-0.1912913163850155
-0.4279625361514237
-0.08009674816857314
0.14255455548264181
0.15299250839183665
-0.3174187400115453
0.06976777154663333
0.24775858503752063
0.3370780146783398
0.24854592910753326
0.09998935506468133
-0.15499897203489432
-0.6943855322043423
-0.4040550014218793
-0.2762564164497558
-0.03725863543660905
0.1989205473463453
0.8643405149233643
0.6785359640908055
0.21676681838033035
-0.48415657027725695
-0.2851587639905859
-0.48400124769777847
-0.3538331559426665
-0.09733960240185259
0.5762923507853981
0.4541116727848013
0.21044591442709276
-0.405569522931614
-0.38382664949799883
-0.4731226259592582
-0.41393884283418475
0.21363689594521873
0.7339290192879606
0.7279576164238268
0.6140685661832244
0.27180383412487524
-0.28944543427595787
-0.8320014394557204
-0.9897342354821294
-0.7981637562181295
-0.07912188394218514
0.3130303003532661
0.5971260242096479
0.7520953136537696
0.8197206359847489
0.6519397655969531
-0.4834659397659258
-0.6439804041769313
0.07759088741485438
-1.5569395179497034
-0.8704069771648549
0.7434621190189645
0.9867864531857538
-0.004677140807970701
1.2754598971578384
0.06543377371825061
-0.6677912181007291
-0.8012304837168869
-0.41584006406303536
0.03594091257743344
0.3424711690439182
0.3249157931024396
0.21837831407525526
0.053832670820474174
-0.15143170659441108
-0.19349649204266178
-0.07526428523753038
0.0010296013012180958
0.03835792444078386
0.04537095502090652
0.03392134684547206
0.015636261178626328
-0.0007943879764647997
-0.010805152239770289
-0.013644682115908633
-0.011110779756802051
-0.006015265979156186
-0.0009237425104416467
0.0025542175548413652
0.003912823618339567
0.0034991579412216654
0.002089210128919021
0.0004867144564268522
-0.0007386707746009983
-0.0013435913151079895
-0.0013673326198248422
-0.0010159054142003746
-0.0005366336802628391
-0.0001258809841965169
0.00011346038204127927
0.0001697269488331089
9.261912681898446e-05
-4.483061636511578e-05
-0.00017759822556587701
-0.00026600184161045806
-0.00029876771415126343
-0.00028611207303747314
-0.00024866282618428144
-0.00020720336456007846
-0.00017613463715204802
-0.0001613285822704603
-0.0001614294804636587
-0.0001709311397930916
-0.00018341817265320873
-0.00019390038780366952
-0.00019984544022356133
-0.00020106581350592297
-0.00019891613646180677
-0.00019530441717062228
-0.00019189385394083918
-0.0001896741215782071
-0.00018890011693641987
-0.00018928230762336334
-0.00019027692672422212
-0.00019134886429988897
-0.000192135324619574
-0.00019249568223079087
-0.00019247380031054006
-0.00019221670939080526
-0.00019189100528157108
-0.0001916238199826891
-0.00019147767843029215
-0.0001914545758658736
-0.00019151725575692138
-0.00019161479631602871
-0.00019170309719079043
-0.00019175597429817195
-0.000191767077543379
-0.00019174552093666707
-0.00019170878562056623
-0.00019167569290268595
-0.00019166091717797971
-0.0001916713918721189
-0.00019170447913452102
-0.00019174792037771103
-0.0001917820022848961
-0.000191784540966053
-0.00019173876567396954
-0.00019164284813837142
-0.00019151801838038232
-0.0001914107476700597
-0.00019138444497694937
-0.0001914984368543241
-0.00019177691934452266
-0.000192177129140387
-0.00019257184164899819
-0.00019276311947712994
-0.00019253873048889866
-0.00019176828331099786
-0.00019051483304199075
-0.0001891159829583095
-0.00018817682277866787
-0.00018842699971192005
-0.00019043347492098443
-0.00019422673520368367
-0.000198974419180716
-0.000202890714606062
-0.00020356302762267046
-0.00019877713916792878
-0.00018772354106600186
-0.0001722117014611879
-0.00015729845258084736
-0.0001506807584090101
-0.0001604349238882149
-0.00019125662672326934
-0.00024018458393487588
-0.0002936155971086546
-0.00032783158057096045
-0.0003148173223329248
-0.00023357281140771503
-8.453447246905054e-05
9.819716164035465e-05
0.0002441224697871604
0.000259958040738608
6.238252877708596e-05
-0.00037512054505888003
-0.0009762248960306801
-0.001539681628541538
-0.0017659792396392928
-0.0013478834069539842
-0.00011729219947009298
0.0017913193427977572
0.0038318515799940617
0.005077344353500992
0.0044566726587107796
0.001200176069791811
-0.004604130912180006
-0.011554138149812229
-0.016861402098801808
-0.016925634108675754
-0.008656968075544376
0.008653807941374955
0.031487387660584884
0.0511362572108738
0.05452930169376454
0.02733826991990488
-0.0409948959276267
-0.15177489562030602
-0.09341730119864444
-0.0418856632864936
0.03390701167329234
0.16302577495036596
0.16302549892712803
0.03390625275477871
-0.041886696130421196
-0.09341826615420144
-0.15177536148323506
-0.0409944488614228
0.027339853201132268
0.05453185315533801
0.051139073577638174
0.03148925429437264
0.008653284467557703
-0.008660982675651544
-0.01693316982990638
-0.016870783234075124
-0.011561816387986546
-0.0046053424412915754
0.0012097728332116629
0.004478615318750809
0.005107982322118454
0.003861133315570964
0.0018040293571150033
-0.00013703356813873858
-0.0014091807411882413
-0.0018627431676317874
-0.001644810777946599
-0.0010427657631909035
-0.00034788419602398114
0.00022440202512212694
0.0005551416132035571
0.0006042804988774634
0.0003835305585080643
-5.810969634027205e-05
-0.0006294184452696524
-0.0011830453936261414
-0.001514873942164036
-0.0013996540045784862
-0.0006731573006326903
0.0006532033855775097
0.0022880004587734113
0.0036294197901341587
0.003872074473813152
0.0022809426585129393
-0.001405056341578531
-0.006564994352725122
-0.01148509013897645
-0.013568941194897273
-0.01011942882842757
0.000342747005911968
0.016527729234996593
0.03316058833307215
0.04079410221667134
0.027190011981840585
-0.019690711162204038
-0.10779233446069166
-0.03752427612039236
-0.00024606568970315706
0.020530202641894712
0.04559229134905597
0.09548708627000292
-0.013407744583629541
-0.07116410673657926
-0.07493169027206543
-0.028711139098122805
0.05697514173682737
0.1656318063700497
0.07659034489196646
-0.030939765674772357
-0.1719034345963226
-0.149746069840776
-0.15430716538816858
0.0344716601864954
0.23753775888549283
0.26611853725649265
0.11486521970267954
-0.03712251021233336
-0.21705431750309076
-0.24499719919849083
-0.12264695811363278
-0.029917093049610696
0.06865920343682587
0.21019737235386288
0.21815923886934907
0.09198204095525649
0.006129365042946393
