0
-1.0463996341976299e-05
-3.2206582561964944e-06
9.808751456573938e-06
2.5561517987805316e-05
3.785511447472812e-05
3.862323153511072e-05
2.079759956923294e-05
-1.7629343584434816e-05
-6.967770142338921e-05
-0.00011760335720248241
-0.00013539475900633415
-9.679331771795208e-05
1.1909055361815503e-05
0.00017782925238551576
0.00035240694298854005
0.00045462668262143986
0.00039210416101577694
0.00010001391386420835
-0.00041096930618679056
-0.0010161078071288174
-0.0014718594412139025
-0.0014669130144095179
-0.0007362007280805704
0.0007817886103552566
0.0027968614919674293
0.004606577977411513
0.005204152791149473
0.0035995511965070588
-0.000680667026563182
-0.007057692421141072
-0.013573623513020067
-0.017059572687334636
-0.014011999811507962
-0.002174751364142018
0.01750839136309809
0.039256164505407296
0.052016371170472545
0.04100058573949788
-0.008612365352134499
-0.1065257526719128
-0.05237403301464081
-0.03300406063220987
-0.023494305832593054
0.007870596700952151
0.09192395687295113
0.05055754447521795
0.09088323773972884
0.0035895147988399905
-0.033933754509562576
-0.05081248658588078
-0.07467161445082869
-0.12523751991903084
-0.011781355151966766
0.06490260658029362
0.10722981560513067
0.11506956903348109
0.08263951177126624
-4.9958410765429236e-06
-0.14122177031111716
-0.14047021278345717
-0.18343597274713624
-0.0430216659736575
0.11282347276065809
0.3088448714973895
0.15083914402459583
0.019937796790399726
-0.1244340762142401
-0.13427574934434588
-0.2600842950676464
-0.14075739939622517
0.20025202288387348
0.35293868376297466
0.11682190414578905
-0.10008945653071202
-0.07709144433180717
-0.17304996610345835
-0.11969156440019078
-0.02056708406995655
0.04188477441972554
-0.008160118730049126
0.14140862850277375
0.17230247972334783
-0.07784373241526253
-0.021696028735174955
0.07960623934202452
-0.07501758373896397
-0.2137357131379008
0.12288439643292606
0.19657122281786693
0.08530693787400448
-0.10367219933855831
-0.22298341700120206
-0.27919622019693485
-0.03534195241369324
0.17681056041725096
0.23737082363294043
0.21808978067494003
0.1683503651299691
-0.08818660599641903
-0.34669134564099974
-0.20902579839301114
-0.07329496611440511
0.06975458391241708
0.23273970094756874
0.22364973474181352
0.03930247794594606
-0.1357436019060312
-0.12435696324402601
-0.14898340250785735
-0.024921595569755678
0.0424258161795809
0.25616210334347456
0.02453791088566329
-0.04159474109839652
-0.12908185534788838
-0.021253756106951828
-0.0972599291885642
0.06630719420027728
0.0912346552238022
-0.007779751466270171
-0.02791121237868895
0.019394564797283607
0.10935039289100901
0.008342243418801508
0.08168045968992238
-0.09666669381418762
-0.13483303108511974
-0.21772682025197346
-0.10882747270641566
0.03961231657003175
0.27003705705285413
0.20222075769030515
0.22212269272430876
0.08253131705040471
-0.08320212641287417
-0.3383859063905454
-0.3194237795080513
-0.220861278310672
0.00438730877773407
0.2290067803348112
0.32538380087265656
0.3399841454053412
0.07802744688454166
-0.0959234742608235
-0.24253134099819268
-0.22441755349895345
-0.284700328756269
-0.03546638638976997
0.14039112704906512
0.2763183808943929
0.20500459817264022
0.1449810955182673
-0.10364422787727673
-0.15363039872528664
-0.21912909974495895
-0.10449379448258261
0.0012487872178610425
0.12207187654096038
0.08632940537773426
0.11592597791157305
0.017734709829063264
-0.01976725855549793
-0.02399445803950989
-0.03127724606675046
-0.07793235122306556
0.00799876496072887
0.012360014543916638
-0.06315894385232648
-0.0027496314791308246
0.01880523775829171
0.02971143830376235
0.05473952060073255
0.11062433120896506
0.004668793231418641
-0.06314779236782864
-0.09570534894213825
-0.09424142038374675
-0.05629084798807801
0.022575267326186237
0.14380295213009647
0.10013699525370648
0.07234114652304478
0.03076883616750356
-0.05788142944080248
-0.22069918973961422
-0.06928294728795796
0.005225532962009358
0.030755513572087625
0.047089961128770466
0.09543396843416754
0.008170567883279148
0.0017014305798571934
0.07402140302111854
0.00727759177249573
-0.025639596216187083
-0.052388512317630365
-0.09294893217851238
-0.15460478615909382
-0.032108874204060375
0.08673885114882424
0.21218795470730234
0.14428834009800473
0.06951421807006651
-0.03545669212695831
-0.19388452619467628
-0.21722697266808488
-0.09699459746912614
-0.004376580960361626
0.1015496981180147
0.2600425928509921
0.09483359592332913
0.0056177757378732185
-0.03207893764351028
-0.05910093257163633
-0.12020219062806979
-0.05135216886604839
-0.07070878016861623
0.024514074025629072
0.05517953297431017
0.05312116500030574
0.05258764119010503
0.08298255840814922
-0.035325710976113305
-0.09181162868312999
-0.08429207399747221
-0.016871535173757238
0.1013368694039106
0.056618263680570956
0.03120479832379874
0.005124065017581491
-0.04037263529172111
-0.11874541269981166
-0.03517084012539743
0.013846456124977539
0.0377870308276301
0.04729668864050494
0.04915788622064906
0.043072163175458186
0.021548254596212707
-0.026991919405483865
-0.11300822917020692
-0.04051609427126434
-0.003704967918507465
0.013241892204896195
0.03319386158860201
0.08119531948898837
-0.020680727731218262
-0.057410890702727126
-0.023441144326037746
0.07652532120217037
0.028233739931885944
0.010132112809884748
-0.0028204733875915847
-0.03430308233632606
-0.10190188615288019
-0.013939339962085337
0.031081697833452954
0.042330501285943005
0.03277296792639631
0.015096421296332423
-0.001244659750427622
-0.011249534613812834
-0.013995099993522964
-0.01127173889157258
-0.005955304794844148
-0.0006807155414538806
0.0029020227852179495
0.004282786532082893
0.0038308453038381316
0.0023551336864444943
0.0006891146489058182
-0.000579133133975128
-0.0012008114747699334
-0.0012197502640495309
-0.0008514687546523571
-0.0003530158027220544
7.239149038840473e-05
0.0003189477571728093
0.00037547117323457474
0.00029413829231249105
0.0001509462056932794
1.3267741520568227e-05
-7.79886455500369e-05
-0.00011141509690479962
-9.782673854664804e-05
-5.872735928310327e-05
-1.5678321757929983e-05
1.6446024947074613e-05
3.1640691235792186e-05
3.138519334646091e-05
2.1433436379639055e-05
8.449683069593562e-06
-2.40387259596495e-06
-8.525157919139632e-06
-9.743381333201608e-06
-7.479374827249378e-06
-3.7180012184102348e-06
-1.820771116133796e-07
2.1086055195164383e-06
2.897082623157027e-06
2.4891888638586028e-06
1.4514964830070611e-06
3.3888491170470304e-07
-4.7419039210792553e-07
-8.44199932799269e-07
-8.184861816891399e-07
-5.504011460477792e-07
-2.1255415333319434e-07
6.408457461078757e-08
2.1573134701241078e-07
2.4100341625276634e-07
1.7843277773705277e-07
7.979185265309554e-08
-1.0913118913263685e-08
-6.83121504823223e-08
-8.673826558777617e-08
-7.475866882952212e-08
-4.727586488898488e-08
-1.8554157989469272e-08
1.993940678549146e-09
1.0961209596864458e-08
9.803305931888185e-09
2.599752327873613e-09
-6.181055964838e-09
-1.3217797054980872e-08
-1.695132233182691e-08
-1.7425493191870427e-08
-1.5687495022738982e-08
-1.309558683044824e-08
-1.0782810204589126e-08
-9.38513170758952e-09
-9.020697171084073e-09
-9.434737366145434e-09
-1.0206261245507301e-08
-1.0933434297842156e-08
-1.1352690611925714e-08
-1.1382878190908012e-08
-1.1108829751797219e-08
-1.0726547350695162e-08
-1.0469386181715063e-08
-1.052877763418347e-08
-1.0980521399829684e-08
-1.173082504246625e-08
-1.2502358835421209e-08
-1.2882987461284853e-08
-1.245097321202311e-08
-1.0965930439712946e-08
-8.577396481246582e-09
-5.964595624306528e-09
-4.301749461228243e-09
-4.965073020272623e-09
-8.97431435322504e-09
-1.628766491568279e-08
-2.5210374901771716e-08
-3.2273287068169075e-08
-3.291357092765451e-08
-2.308813753890001e-08
-1.5666271307910128e-09
2.7830958288250218e-08
5.5186405496123677e-08
6.583203184081456e-08
4.482243701434322e-08
-1.5861629124932953e-08
-1.0934147455640554e-07
-2.0858351234822156e-07
-2.6802356952459256e-07
-2.3526606145140066e-07
-7.294027046902907e-08
2.1416189044482145e-07
5.569750303396768e-07
8.188907305837155e-07
8.238766528929838e-07
4.2034564870400685e-07
-4.299505805892848e-07
-1.5672866681918353e-06
-2.597769165604709e-06
-2.9515361071856957e-06
-2.0614579293464283e-06
3.5578464252831e-07
3.995343342015438e-06
7.773046549706067e-06
9.907355658842636e-06
8.392566783703567e-06
1.857146202372099e-06
-9.392260447720442e-06
-2.2547881394164173e-05
-3.223280915188173e-05
-3.1659633342723376e-05
-1.5156701322743747e-05
1.838916801249962e-05
6.233821275123691e-05
0.00010106988125528401
0.00011246820565498621
7.505082424685666e-05
-2.107634823929515e-05
-0.0001626169541707413
-0.00030617649294671753
-0.0003821781988831933
-0.00031395512391774215
-5.1418413327604545e-05
0.0003888298140298372
0.0008929662965873532
0.0012496066376328277
0.0011973460661306593
0.0005245440049421123
-0.0007974963869182728
-0.0024941950632163847
-0.00394694695318794
-0.004298190968645393
-0.002735069328748662
0.0010846073548480776
0.006591667430607745
0.012059177334673534
0.01478504812222263
0.01186317471430005
0.0015047494569559335
-0.015423544781427786
-0.03428205520308695
-0.04677057114676611
-0.04296129216235243
-0.015431041086791568
0.03520088944167485
0.09502448822493298
0.13428272500754357
0.10981877052457673
-0.02639425002558296
-0.11380672844063197
-0.16856364522145564
-0.172611882541638
-0.07130432952231253
0.018326288108866884
0.19008138302655248
0.12666552478799975
0.07967684221445805
0.05715469417769991
0.021762802398907294
-0.10047139458043165
-0.0035579389362927765
0.018733367003505558
-0.1076583385475754
-0.022415308875957794
-0.12409124661652796
-0.17324744375221535
-0.10575312173038973
0.1459194470089951
0.22856538917800145
0.34895363516927597
0.2674416170608458
0.10968290736441273
-0.20427616589309358
-0.32121934660859147
-0.41937232602861757
-0.5907180510323904
-0.2513103965193743
0.21883718826022772
0.8158257865864258
0.6509018681146466
0.5104665779553383
0.052988551585616085
-0.35467014837005767
-0.9740408048867237
-0.6275532576820554
-0.04999397522621629
0.32700820169107364
0.35772876585313
0.34474945317465905
0.1980859967869832
0.00492626915804703
-0.18367302649011905
-0.15047307732549256
-0.10038228755589501
-0.046796816677558195
-0.001391467357236068
0.030388030860302773
0.04870347502538998
0.0558047224041818
0.05226005601054911
0.03502159057213412
-0.0017647375354420832
-0.06369332978182657
-0.15246330453055407
-0.06388026397676094
0.010861347969117148
0.08061955663891177
0.14851584751172395
0.2082674623750464
0.04564633160458478
-0.15410880514723801
-0.19533836829442247
-0.26255951967816143
-0.11812556720612553
0.09006147019460525
0.21230180383607766
0.2781987727798966
0.28300018376654545
-0.014488288904496202
-0.28073299481927677
-0.1870362270434106
-0.1877479330809767
-0.1052683690241327
0.07331959955860054
0.18803981343933499
0.09045364210640514
0.026847692225841602
0.025609712516132352
0.09189527910105555
0.01009765349144541
-0.047445286261880534
-0.10860696843873646
-0.19054833377692046
-0.09371700157200012
-0.0032663124344847164
0.10239574848553937
0.2393056370723129
0.20723639630924987
-0.014363989082784773
-0.06143740523877652
-0.1730072091056069
-0.17642086280693503
-0.07610438758836842
-0.05022757023904278
0.143591327191423
0.1558945472904269
0.030905573846733286
-0.005252119971208697
0.049517330391989446
-0.025961104713629966
-0.06975622132848347
0.07306110149968273
-0.03860061380258402
-0.03208396064403322
-0.11443853438237965
-0.07072122651734719
-0.06797030830351553
0.13577603050532364
0.17990578215347997
0.09095539576911421
0.07732722226820371
-0.06927914445455031
-0.16700304656133058
-0.23534802496456025
-0.08966728186430052
0.05843424679299478
0.19524403514641225
0.2976457946121808
0.13005594756619526
0.04984556956765632
-0.1785874719201455
-0.3658180403948301
-0.28344116951527737
-0.06191429816801554
-0.003914659676958866
0.18931914308357445
0.3869655199156437
0.40411021929648805
0.19368830318546654
-0.14053168201899852
-0.3132087648664911
-0.41957139906389945
-0.5045580936594287
-0.15085546787488185
0.30963068994098025
0.5660659420953325
0.49379375976063555
0.1292927880005394
-0.1351798087200269
-0.3371302278268644
-0.5185524057586475
-0.30298348775423956
0.11435433754124052
0.3599344464156089
0.26389196207839477
0.24083193247008858
0.0793337687322508
-0.055053594946067465
-0.40520851282811826
-0.2032985169145328
-0.0558340334615354
0.06071545655026958
-0.007720207579694439
0.19088864348513038
0.09583869654641422
0.11870892753234427
0.03691285867860123
-0.002375956316023748
-0.0692200915792701
-0.032669408549915985
-0.14246200589151858
-0.2158741743783794
-0.03361689161988897
0.05381470900179361
0.11118846766746661
0.19979080969356985
0.16105371321917178
0.007748876489036548
-0.07499558158917288
-0.12029619601957532
-0.16605257943831067
-0.042632193512828084
0.0343677421619567
0.06496758577531646
0.06056712987021347
0.03741522790975682
0.0105834866811884
-0.009796232033081439
-0.01959085715204177
-0.019601233394563756
-0.01342723724607708
-0.005285173490195518
0.0015453653451213945
0.005403219209814339
0.006168939104470124
0.004734570447018415
0.0023527904036348495
0.0001129396506250328
-0.0013392636241493054
-0.0018404992255805122
-0.0015837983176984712
-0.0009275752620405303
-0.00022317185943697637
0.00029208345702421665
0.0005270015882319226
0.000511295480453713
0.0003419130252945235
0.00012811459260063152
-4.711806444745682e-05
-0.0001433058416486266
-0.00015948470495159945
-0.00011999370951894654
-5.759249469159676e-05
-1.53380967230858e-07
3.623503188698828e-05
4.7957005649078e-05
4.041634741629371e-05
2.3038836411689213e-05
4.855911728258318e-06
-8.166734550389606e-06
-1.386348222266651e-05
-1.3148459767067275e-05
-8.59942397014535e-06
-3.0429640040761938e-06
1.418287163840764e-06
3.7954259874536218e-06
4.112613918960651e-06
3.0274837750505496e-06
1.393423687243585e-06
-7.842429214186472e-08
-9.886748476919265e-07
-1.2597417125788715e-06
-1.041846725421804e-06
-5.825117723382614e-07
-1.1364065710552538e-07
2.150584625076169e-07
3.5256859383882643e-07
3.262268587841936e-07
2.0442366059040977e-07
6.019955692302387e-08
-5.3238434921146824e-08
-1.1182401405809854e-07
-1.1743379805740616e-07
-8.777431326521944e-08
-4.504697010544982e-08
-7.374375946219305e-09
1.5352665026679603e-08
2.153603398429827e-08
1.5323003940086847e-08
3.2030167255431514e-09
-8.875876585401347e-09
-1.7162615089153946e-08
-2.0465579845845772e-08
-1.9583955122487496e-08
-1.6327454160751108e-08
-1.2581402950016693e-08
-9.69205608441153e-09
-8.245990157419604e-09
-8.16717439246937e-09
-8.98416259227165e-09
-1.0121053204901861e-08
-1.1112570871929794e-08
-1.1704554996305016e-08
-1.1851919348964774e-08
-1.1654347250800316e-08
-1.1274685510055915e-08
-1.0872986318237694e-08
-1.0570184404999316e-08
-1.04382977240436e-08
-1.0504363271328293e-08
-1.0754712864888463e-08
-1.1132905009194561e-08
-1.1534636527178703e-08
-1.181131714820321e-08
-1.1796221389084314e-08
-1.1360583926198371e-08
-1.049208075691607e-08
-9.369064372452293e-09
-8.388538634545666e-09
-8.103918927250638e-09
-9.048381946054098e-09
-1.1463243971802622e-08
-1.5010089808835175e-08
-1.8599836779203798e-08
-2.049184336201129e-08
-1.8771805216216355e-08
-1.2193265616283804e-08
-1.1791861819023999e-09
1.1417278070964948e-08
2.030777595835774e-08
1.896094238362333e-08
2.099299125102687e-09
-3.097228143556333e-08
-7.336424205954463e-08
-1.0959511609317759e-07
-1.1823390076169412e-07
-7.90082211256643e-08
1.6532636908923795e-08
1.5399140906148596e-07
2.8995638212354117e-07
3.5655455270995294e-07
2.807025612001749e-07
1.7099241366945374e-08
-4.1332349016853876e-07
-8.952725281143829e-07
-1.2211419774813264e-06
-1.1397439543162212e-06
-4.54802267197342e-07
8.464466056024035e-07
2.480446972877878e-06
3.835072550031036e-06
4.0805810333375075e-06
2.452215344018877e-06
-1.3351905169314775e-06
-6.66830684688696e-06
-1.1816053627807381e-05
-1.4133931656783444e-05
-1.0837103492881751e-05
-2.9135556555336e-07
1.6513674399671784e-05
3.492924605855808e-05
4.6814647211577676e-05
4.252224113736293e-05
1.4777336493403922e-05
-3.635938130670812e-05
-9.92640906620028e-05
-0.00014976670717622238
-0.0001557802105604252
-8.851870752937817e-05
6.139983386696207e-05
0.0002680665405465114
0.00046256470799667046
0.0005419680325108399
0.00040032148378676003
-2.090314346061776e-05
-0.0006764366035009225
-0.0013792681559679579
-0.00181051053054377
-0.0015999366720026596
-0.00047847041913166844
0.0015308387300365903
0.003955270553717902
0.0058455590344285374
0.0059690123933700745
0.003255321269246212
-0.002578158481717625
-0.010426848805509497
-0.017539246030420244
-0.01993137467609354
-0.013681942719801332
0.0029804476529901552
0.02729661367754638
0.050186417305384756
0.05608928489565097
0.025210191459025727
-0.06180443975110005
-0.017771314589015513
-0.04333614518880281
-0.12394289604808596
-0.031033378479391017
0.07208511298596756
0.02084578358671653
0.03908253313148989
0.13100401876296244
0.07838579459740762
0.04462750660144446
-0.014593769562428062
-0.13656336607526115
-0.13701688611923798
-0.20092375294070847
-0.08256881751870178
0.08382892795473507
0.1654407160118011
0.2098522832655326
0.2288791536171827
-0.007145940927843813
-0.16267891810115026
-0.1204799126391517
-0.16129828979132188
-0.14639243904822297
0.09242260564989906
0.15397765617333353
0.062301315286785064
0.058349729694578384
-0.007686696847760425
-0.08201644780895846
-0.11138941293571546
-0.04741300276017742
-0.05241472936761039
0.09323885548702365
0.18435373516726408
0.18794399273085258
0.04715786954548388
-0.10696930227666201
-0.1383553447889132
-0.28869045245498187
-0.16653311778667101
0.052898663218209734
0.21690390393468786
0.177617453297272
0.17436322111249333
0.022484541412315165
-0.08812987783513125
-0.1858225447108332
-0.10543471256081688
-0.07712788618571051
0.08070369612754315
0.1637491929253058
0.18118814392629912
-0.04511961474963597
-0.08028645609717558
-0.27609587015234865
-0.17396828711374285
-0.11421668132105914
0.14821511627128808
0.4256617103195654
0.4849541677002482
0.04785752790447337
-0.19163798606146332
-0.3369736660984708
-0.4562619290208273
-0.3601438966088129
0.00019434323498528728
0.3132557824274342
0.4731309327439334
0.3445331434313148
0.14070790971804123
0.022343547010373558
-0.283142125335812
-0.45061604456353505
-0.32748150417373334
-0.11710705029009552
0.018431385817275006
0.33841209920107823
0.4957302174665358
0.5140391953926121
-0.21983647743970483
-0.34508246253948915
-0.30353739346718106
-0.31569399822442906
-0.3678665842417597
0.3834020544662971
0.3918995422283085
0.2964847757196036
0.10171033822749323
-0.027161432795046857
-0.15305096175125965
-0.14484097891625397
-0.2527703240306205
-0.09027803858487272
-0.02833099648545144
-0.003886475575428636
0.060334202781802015
0.23090952787654562
0.14125441185604778
0.17869344779425672
0.0855708671265868
-0.025163622099702035
-0.243976489130086
-0.23609803053494965
-0.2193444592633057
-0.15597412999356036
0.038221876751631134
0.2701220397873169
0.23836362092987637
0.2053940446280793
0.18140533549108678
-0.07529599655843405
-0.24278863497038716
-0.2113456573295139
-0.2594912415520065
-0.038148207581676
0.2334323373801137
0.16153668778638713
0.16712263598140165
0.07645635928704209
-0.08290595047840149
-0.28087276797839833
-0.08166230603649718
-0.04306841741345019
0.0792113748688699
0.12273539592680441
0.10825888770901543
0.03265348939972708
0.06791501040517627
-0.032913183468066876
-0.12450684484745202
-0.05608786655558233
-0.060282771410717265
-0.14726702053611554
0.09431452230228822
0.09038407515634365
0.07112696588261785
0.06102391275439503
0.07243568731457214
-0.09567382179451907
-0.05428624986269728
-0.018089401747321876
0.001078687848604667
-0.00089564821988402
-0.01826494639530116
-0.03627174460746688
-0.03473618151760584
0.006287369606477358
0.0999925715365939
0.04721153748569529
0.03365865714598374
0.03140732634364321
0.004747654415504009
-0.08085383344653699
-0.04909088780296689
-0.10531056359657302
-0.033616663526337166
0.00022500969005994443
0.040669893539627786
0.13136290954236612
0.10447710651324318
-0.026475251838231066
-0.06862704958611289
-0.046744247005633774
0.003083610737032574
0.04098918682878619
0.030600185910075066
-0.05480183512594965
-0.02786099577288173
-0.08521706115563082
-0.008761016124390354
0.029847656823647567
0.06238772845562859
0.11696328933286934
0.012801522396342593
-0.04152452516091269
-0.04637656479656197
-0.007196729989687006
-0.13057693401119555
-0.022030927416776702
0.1137875797568755
0.07104284486590998
0.04054153222903091
0.009210237932047807
-0.03799610066573786
-0.11444125340805904
-0.028115658683615236
0.020357469526211036
0.0371902991448586
0.032807279482647875
0.018417969982690276
0.0031347036010658347
-0.007559245688156555
-0.011888015230343694
-0.010821887037933433
-0.006693727520642433
-0.0019405848311585022
0.0017050664628546959
0.00349882398147955
0.0035526036252832393
0.002483601911811351
0.0010348366869511179
-0.00020376762115495293
-0.0009237470228081117
-0.0010912851264139587
-0.000857089070999273
-0.00044172556211650207
-4.1230551283333006e-05
0.00022499292151654634
0.0003232580737377129
0.0002846182280824741
0.00017140832259330017
4.6320171635513945e-05
-4.727640224644269e-05
-9.176042564678457e-05
-9.129744098832714e-05
-6.253899239095426e-05
-2.484449759571232e-05
6.7500688790633134e-06
2.463296788265973e-05
2.826360503780803e-05
2.1744146845842564e-05
1.0835254632113618e-05
5.506622182425943e-07
-6.131917047372073e-06
-8.451566282799162e-06
-7.287295406592297e-06
-4.281662357292987e-06
-1.048160499211141e-06
1.3212350837421282e-06
2.4050395400930857e-06
2.337442749674444e-06
1.5623876910552335e-06
5.813775231453116e-07
-2.2404524138203202e-07
-6.672161556578897e-07
-7.429840381319119e-07
-5.626542250968418e-07
-2.765108521269757e-07
-1.2639565364719092e-08
1.5485921799825992e-07
2.091488124502714e-07
1.748746363431669e-07
9.524422573233185e-08
1.173812404438741e-08
-4.818771485293056e-08
-7.450875268809785e-08
-7.135211971738758e-08
-5.051068365123396e-08
-2.495296472686622e-08
-4.355364826973988e-09
6.69363411769088e-09
8.242136993350681e-09
3.248446615554953e-09
-4.4066591352126716e-09
-1.1447909825971597e-08
-1.5966394571595692e-08
-1.746658106228203e-08
-1.646503961328879e-08
-1.3954366628779322e-08
-1.096999977166367e-08
-8.363606859623564e-09
-6.757963953349442e-09
-6.5791324750250695e-09
-8.051199376223689e-09
-1.1091217145906007e-08
-1.5132047735924735e-08
-1.8990640440879404e-08
-2.094680792076958e-08
-1.9167709696349353e-08
-1.2491319008619723e-08
-1.387131372024649e-09
1.1295546866016562e-08
2.0306472141326036e-08
1.915085747303896e-08
2.546131771564375e-09
-3.0275969373729286e-08
-7.256329229455254e-08
-1.0899310836511818e-07
-1.1823667789370481e-07
-7.997635604108407e-08
1.449753748278098e-08
1.5125557882140448e-07
2.8745001790808523e-07
3.556420512759737e-07
2.8276067522275e-07
2.28429930913181e-08
-4.045800031703123e-07
-8.860931007088801e-07
-1.2157955193445338e-06
-1.1430901736371091e-06
-4.702388875707013e-07
8.195077343215888e-07
2.4486041938100307e-06
3.811171432631965e-06
4.081009931558814e-06
2.490885063911121e-06
-1.2551405237845291e-06
-6.5623079127329916e-06
-1.1721282207216024e-05
-1.4103609637552642e-05
-1.0923582630869986e-05
-5.198122905019032e-07
1.617342021583807e-05
3.457998919414827e-05
4.662328706574075e-05
4.267474122528772e-05
1.539814724338717e-05
-3.530435292416311e-05
-9.804269690516958e-05
-0.00014888423411067584
-0.00015586818418645543
-9.0096976134582e-05
5.824400456605672e-05
0.00026397230147437445
0.0004590037300649627
0.0005410013929428271
0.00040392410283165633
-1.1869038607494627e-05
-0.0006632972145500514
-0.0013661614000460161
-0.0018039854933183828
-0.0016071269046688858
-0.0005038996187067009
0.0014890690718461696
0.003908453651579169
0.005814679195949426
0.005980867068200169
0.0033342771002737356
-0.0024207926665282325
-0.010201450352076863
-0.01727876143113871
-0.019680124125082767
-0.013474098889008712
0.003138618786707829
0.027407224799483466
0.050143134353297106
0.055370651510080734
0.022254488270021907
-0.07070370185224169
-0.040216722511594465
-0.09331253004114229
-0.024838778824530564
-0.01838028908503146
0.14983958264559943
0.10588547679737718
0.07424101501635982
-0.12324241953361209
-0.06582091523163439
-0.1318680009785335
-0.09918242779432722
0.050692286212375176
0.1246667023668352
0.10967530225781054
0.16767584355807386
0.03750528096529778
-0.15529737243716712
-0.08260551537345456
0.004007108817965426
-0.1120577720028615
-0.004591727163267781
-0.0055462216485349805
-0.014925538076051417
-0.11827020622500481
-0.009279021491926262
-0.01411532905450058
0.28718534149530817
0.24775672400744958
0.15473805832518805
0.04684583443519311
-0.052927429179746466
-0.29632506983973617
-0.37124054784771293
-0.2770527915862417
-0.12244383969238784
0.051998923528374374
0.2317743534965877
0.37889411552661667
0.389576977196897
0.2724613313044451
0.154675761136652
-0.2856004943327027
-0.570400154655063
-0.3734700077663559
-0.28905186685123757
-0.22937333369939272
0.14762344854954612
0.5893970629029703
0.5956307901608784
0.37982056108497925
0.05988466927896058
-0.11847717251637457
-0.5341435667487697
-0.7361149986057558
-0.40208153213047676
0.07543889867501272
0.37205256984892243
0.592707008312262
0.42847187515911334
0.12633833006465472
-0.11779658333126336
-0.34356799782655184
-0.3978577156684385
-0.307711046136641
-0.06627409339486001
0.16318218684868327
0.4283212812063225
0.16324129322231756
0.16942209244764136
0.009958898516604229
-0.18106455931907153
-0.27807158734779064
0.06021170826652386
0.011115573200337382
-0.0005896974425126521
-0.10240577134480894
-0.18497508629589404
-0.12297774054399802
-0.0034321132228921085
0.24374345570331316
0.6209030903277264
0.2528142587451514
-0.0014743200000156419
-0.11493350840629024
-0.44544083134206025
-0.6900797795736174
-0.2567580890924273
0.13616854372160683
0.23146018625866077
0.3854406603679073
0.3175488535365917
0.2733713470483243
0.01214952133852985
0.021485025357637605
-0.24631843643079576
-0.32788661234292177
-0.30644160684173843
-0.1859702877474726
-0.08917847022425254
0.12078110486033986
0.4020325282389703
0.2912738327519533
0.2696990289348988
-0.052912497761889526
-0.133095158395783
-0.27190492419563583
-0.1855102533719214
-0.178006377632216
0.07665897258731388
0.3417215052013723
0.21626297788584795
-0.06983962024351803
-0.26154224420786626
-0.28533692678051814
-0.26014049836416264
0.08544049490205244
0.7916434233386095
-0.1509127720353295
0.3924721939638755
0.5124918234438407
-0.914961555150634
-0.7909191842061729
0.4397715100699697
0.004561139492391521
-0.6027831760191718
0.7531613792350185
0.21514180179034048
0.10008068938426645
-0.12352770740811288
0.15723272434372526
-0.09257021538063616
-0.13764878443137282
-0.0503025633729452
-0.09029462959335625
-0.09174172332474571
-0.05979652421317373
0.022679756062771846
-0.019231332012964425
0.22986072456418002
0.16032763899360858
0.1298843743166753
0.06705049422210138
-0.11437232080429716
-0.29381777124936376
-0.12226806992310302
-0.0074935788066554385
-0.11097089250259175
0.04271868587930776
0.14700796496471538
0.09048677270702482
0.13640894909316215
0.11000136247729259
-0.003366856504679713
-0.04926565957906519
-0.08769613058374742
-0.17422141643936678
-0.14444449243981228
-0.00625792772259317
0.05841330254807211
0.08389913678377509
0.10719116632866171
0.15549258042145508
0.03904127250134588
-0.04893215499766104
-0.1260977262373783
-0.2121536372113852
-0.12145061740289068
0.13983886311776111
0.1718297735663061
0.17713516120452916
0.15924937713198586
-0.07428728658825864
-0.3048262480657938
-0.2961190113984545
-0.19430782797052615
0.061759652666819674
0.321100786922285
0.398804341442805
0.26151245239770243
0.0280902163476753
-0.21250429869190443
-0.37148303409672906
-0.32920599356753494
-0.11412211525372024
0.10121609250901913
0.1868179976600126
0.23070743411112646
0.1124546731181646
0.08331022869754408
-0.042169069859052166
-0.08263474764541208
-0.07789521787291037
-0.0734314329461978
-0.10653739588677208
0.002341340002068523
0.051672835260689824
0.05508345344971077
0.03409849407564816
0.010172844485335023
-0.0017183683179185197
0.0033379513618738334
0.019785654686249567
0.03412270545070959
0.029745381351614298
-0.00687462955695736
-0.08019587321609906
-0.18183740731739786
-0.09112476662598516
0.018949996110632084
0.17140296113515596
0.17412169729937166
0.21288327693938336
0.05265894314750268
-0.15176249267337655
-0.2389433077089822
-0.22410768726638403
-0.08954130019413947
0.013521380266946798
0.1516783971988459
0.1894283686673779
0.1696254577532331
0.10106739687729793
-0.042889352693523605
-0.1149004744350079
-0.1773442458175058
-0.08511044265850659
-0.07302398643772016
0.04889048551980015
0.09225210033058565
0.08186388104726774
0.045753545855242064
0.007115546964776009
-0.01996000753049868
-0.030845814626080124
-0.027971180251808662
-0.017285700567731377
-0.0050255726581396295
0.004370564645542584
0.008996110955481189
0.009141978088074466
0.006396530982601304
0.0026711094528988756
-0.0005166906501081459
-0.0023729181796285576
-0.002809598193872548
-0.002212835287869182
-0.0011479490795680888
-0.00011705979081792951
0.0005741764759258968
0.0008389237912635722
0.0007543152626843432
0.00047516241566006437
0.00015540364083149017
-0.0001000388022475646
-0.0002481734751193588
-0.00029411013285832535
-0.0002652713639233773
-0.00018811276862442728
-7.690658019989465e-05
6.284278061320386e-05
0.00022056471998100247
0.00036539826854843345
0.0004402065413171505
0.00037311224086468127
0.00010851112480033617
-0.0003497350846992748
-0.0008999288154204483
-0.0013322759214952334
-0.0013684242930311612
-0.0007596378573606521
0.0005717249948639004
0.00239296339034428
0.004094591787781023
0.004772013034803094
0.0035010578407607585
-0.00021601202826187598
-0.0059551761236977235
-0.012042110592363563
-0.015650738386000042
-0.013532080328496796
-0.0033886757413385585
0.014390504570969818
0.035247334215270876
0.05004332895612925
0.04645183529448106
0.012381065834115931
-0.059238643510133956
-0.1659820712302386
-0.0940415501858187
-0.020751538509710645
0.07835372097533083
0.22020964976096988
0.20666579746812444
0.022703319488011173
-0.15786780431816685
-0.1611385368258793
-0.20115721447972343
-0.07282101024186231
0.0470438035979167
0.1908289589743824
0.18743591150927524
0.05119292448736157
-0.023172267502708486
-0.05803918324386235
-0.08464669580008875
-0.13284333634451595
-0.02275767552330732
0.039035880583053906
0.05838405070571159
0.048903575135448976
0.026211754143364054
0.0032079002992983353
-0.012415599632916111
-0.018360866554897888
-0.016305042974747535
-0.009843577924473702
-0.002632948253964197
0.0027832043822023
0.005360999465249846
0.0053302596205964635
0.003653537892949046
0.0014554909602332564
-0.0003883413700865439
-0.0014336913081434259
-0.0016480757272042533
-0.001269892005607092
-0.0006346957468786002
-3.492938960720023e-05
0.00035541654348973244
0.0004915495534307348
0.0004243926005013582
0.0002495535555871422
6.110252891688213e-05
-7.719575499220117e-05
-0.000140634701704941
-0.00013692501145274756
-9.188442244907849e-05
-3.4736941467417014e-05
1.2250996520279345e-05
3.815854906443749e-05
4.264907620224124e-05
3.218794894404509e-05
1.552836751620739e-05
1.416594881077515e-07
-9.641688630412184e-06
-1.2828878631130425e-05
-1.0848577350316335e-05
-6.216112245831347e-06
-1.3500403779041567e-06
2.146478923574891e-06
3.6861258030988753e-06
3.507482658124128e-06
2.2973162327699e-06
8.118256041607426e-07
-3.8465967030435246e-07
-1.0251855890823721e-06
-1.1142022282195343e-06
-8.264999050403317e-07
-3.901457611660157e-07
4.19986750774966e-09
2.4899811056906113e-07
3.228376205964143e-07
2.6547987628673324e-07
1.4299413901212053e-07
1.749355345294283e-08
-7.078037803922399e-08
-1.0797351072106163e-07
-1.012480783539323e-07
-6.883082653376379e-08
-3.026588517815646e-08
1.634110153703044e-10
1.5956342581853637e-08
1.756364183214534e-08
9.693944528596144e-09
-1.7182449139764998e-09
-1.1813296407579234e-08
-1.7927050461692376e-08
-1.9615259517975434e-08
-1.797682810659317e-08
-1.4744406690943317e-08
-1.1511357052535674e-08
-9.286057014777264e-09
-8.392304533692929e-09
-8.619768805832177e-09
-9.485741369074157e-09
-1.0485690442910324e-08
-1.1258601520811789e-08
-1.1646842608440559e-08
-1.167062366279098e-08
-1.145638063928611e-08
-1.1158337393187969e-08
-1.0900209704344012e-08
-1.0747831892990929e-08
-1.0709884860926978e-08
-1.0756177963406631e-08
-1.0841337436086974e-08
-1.0924529783051216e-08
-1.0980526989622572e-08
-1.1001843791885479e-08
-1.099455973682866e-08
-1.0971447465001955e-08
