0
-1.7321475442466036e-05
-1.7321475461562136e-05
-1.7321475492292617e-05
-1.7321475526265885e-05
-1.73214755486215e-05
-1.7321475541598957e-05
-1.7321475491607103e-05
-1.732147539834212e-05
-1.7321475282649658e-05
-1.732147518852749e-05
-1.7321475174880826e-05
-1.732147529514547e-05
-1.732147556777906e-05
-1.732147594686239e-05
-1.7321476307362914e-05
-1.7321476460833287e-05
-1.732147621147376e-05
-1.7321475448358346e-05
-1.7321474249364578e-05
-1.732147295238142e-05
-1.7321472139710045e-05
-1.732147249295948e-05
-1.7321474514778462e-05
-1.732147817726674e-05
-1.732148262777776e-05
-1.7321486130410336e-05
-1.732148640882442e-05
-1.7321481454376057e-05
-1.7321470671393345e-05
-1.7321455990867304e-05
-1.732144238537732e-05
-1.732143718394436e-05
-1.732144782790583e-05
-1.7321478268879005e-05
-1.732152499578934e-05
-1.7321574433615223e-05
-1.7321603791982486e-05
-1.7321586947805425e-05
-1.7321505384816792e-05
-1.7321361733959432e-05
-1.7321190751305263e-05
-1.7321060836041824e-05
-1.7321059849596567e-05
-1.7321263112390157e-05
-1.7321689005353133e-05
-1.7322256862019015e-05
-1.732276923226944e-05
-1.7322941404547606e-05
-1.7322491067727766e-05
-1.732127883253607e-05
-1.7319459881431562e-05
-1.7317578470388588e-05
-1.731652553982935e-05
-1.731730086912963e-05
-1.7320583540381415e-05
-1.732621113155364e-05
-1.733277132599318e-05
-1.733757245057399e-05
-1.7337227403770853e-05
-1.7328919233643716e-05
-1.731212031626606e-05
-1.7290181175476367e-05
-1.7270930280021526e-05
-1.7265415167606882e-05
-1.7284326461696075e-05
-1.7332522170753474e-05
-1.7403248141431457e-05
-1.747472657143592e-05
-1.7512168321165594e-05
-1.747736546070609e-05
-1.734553647142112e-05
-1.71253321412362e-05
-1.687397744355039e-05
-1.6697263976358357e-05
-1.6725603483315847e-05
-1.7064048833775153e-05
-1.772580295213081e-05
-1.857239961802877e-05
-1.929390870450975e-05
-1.9462152502749538e-05
-1.8673085043656188e-05
-1.6759920224577227e-05
-1.4013040064102333e-05
-1.1302243632667107e-05
-9.984405629358915e-06
-1.1517497269071266e-05
-1.6800750692554985e-05
-2.5407191261699342e-05
-3.502428695181795e-05
-4.149917070334669e-05
-3.9817062096827384e-05
-2.607236170567114e-05
-3.7204129637892345e-08
3.25915775165535e-05
5.956108162848978e-05
6.429545470658507e-05
3.155560931092155e-05
-4.427476818120704e-05
-0.00015083604759609132
-0.0002534499589729997
-0.00029925538198232875
-0.00023270569325444722
-2.138505286142371e-05
0.00031458941922463064
0.000681987764555638
0.0009179720009391981
0.0008299374854187344
0.00027314730679490643
-0.0007501616799639303
-0.0020065730848512066
-0.0030123158007504818
-0.003126279130578128
-0.0017744255831526547
0.0012288590652702876
0.0053648084677609
0.00925890999756416
0.010864761619684684
0.008087678560608071
-0.00020373389449088736
-0.013052221478945138
-0.026665285712020193
-0.03464643180076442
-0.029684372023891757
-0.006769659565255265
0.03265215949655099
0.07690065659730327
0.10241239194971061
0.07579067210082624
-0.03993862338382028
-0.07612293436730905
-0.2493993406346044
-0.15666123017095418
0.022927446772977148
0.11867973231565523
0.15532585049177955
0.342199442175189
0.2708216631166354
-0.07588539333008172
-0.3048036532543972
-0.592006583452083
-0.27128047235339353
-0.24083562573659928
0.20988805083481893
0.561083283732888
1.026706621697498
0.9392833824286351
-1.234043915087471
-0.8478905136459531
-0.42572973615446014
-0.22147703620257186
-0.4116243851909939
1.4815654865686316
0.5495585821762415
-0.14037617716845813
-0.3650741324621476
-0.34357035364984173
-0.120368815802114
0.25563220214206656
0.34940509391995556
-0.04701354110364841
-0.5067693196514413
-0.3677736069882502
-0.14306004931890082
0.25681562247428485
0.49408050848141377
0.5775487628277499
0.2521772217488713
-0.18849851253782055
-0.6697003284819197
-0.49470593502799626
-0.1123198803412272
0.09510398190138486
0.20004440508812887
0.3010626332021214
0.08861926721130292
0.0169916440584412
0.08995841328122357
0.26295248049964587
0.06004169669022647
-0.3994763982043869
-0.37320750242611167
-0.47655846185675405
-0.4805197658992557
0.6722450257590027
2.4411382821990903
-1.3338878133760912
-0.4367928759288818
-0.06287156814354528
-0.6019319903951662
-1.6331492991011132
2.060361112677549
0.862634659617701
0.09853442337671509
-0.1712680638968766
-0.3257683745185789
-0.3365938186632368
-0.11514364759120016
-0.07107296616570431
-0.2938715856599557
-0.16234535813861867
0.019501316156121887
0.16718628081774672
0.3527545380674353
0.3484960261107846
0.19111124149071312
0.1754573684370952
0.07963318677876902
-0.3848757576992014
-0.31082901089445264
-0.33678118415427105
-0.40751574053923606
-0.16262062467665908
0.4463073712308029
0.5185633113261963
0.36243191999231655
0.26404964846718565
-0.12347645513851233
-0.5710487648063352
-0.45389692936533527
-0.13420450026670228
0.04406880900451112
0.3463010059513988
0.6307884476823382
0.33554436864959797
-0.12314336931669351
-0.5395494727177106
-0.7030382242213261
-0.591607781498079
0.015197934159627757
0.504241120524778
1.1911335500473579
1.6992370119429645
-0.8246712726123663
-0.8529989624764248
-0.5944099514710931
-0.9169219775199755
-1.3088068150506624
1.30539050820979
0.8980532644236013
0.444555010306842
0.23392287237302894
-0.1905205228496318
-0.2501983069765778
-0.11360711804994211
0.14736991997647314
0.8157820559695675
-0.8071205891276313
-0.3432661820493812
-0.29533630674766614
-0.43238146548300116
-0.8104014690975434
1.175031990760234
0.7185369551829603
0.53997134206585
0.247958097608484
-0.05478512008257936
-0.32664377784734555
-0.7192068839923577
-0.509829126489911
-0.0569135224175381
0.008391333082168778
-0.047469609339665535
0.28134339890829446
0.26942177374888293
0.49498802871579706
-0.003973203596361019
0.057771166955639115
0.23399526255539388
-0.002953070526691743
-0.5942048747964761
-0.02285728823376076
0.14589855101365204
-0.29995295790993265
-0.6172042458614801
-0.5424066672198629
-0.36194221968845675
0.1935343473937697
1.2527287578242647
3.1379823075945996
0.7631852427209247
-1.8884568869643097
-1.4233855030827915
-1.6833268228467093
-2.4404593191630592
0.21211906219021132
2.768083314737294
1.750423360087186
0.9522280130166938
-0.0645434399815184
-0.5831172901883133
-0.8678983326954739
-0.8580562505248839
-0.46130599655666865
-0.08086851439973158
0.20969358472873842
0.44776975354865767
0.5360369378683106
0.19100762732391036
-0.09689209374584015
-0.08319052950065797
-0.1699168239022805
-0.1935483216104385
-0.008540428570190295
0.1273715348650794
-0.03670055448015349
0.06083116392575973
-0.0034788494774996314
-0.03754140332765591
-0.03456504077109172
0.024734129810095748
-0.03146215738784124
0.029280138276157077
0.0387055474459752
0.023612586280518624
0.0031609169247101393
-0.011815849895509408
-0.01766272013582556
-0.015602447074686094
-0.009154267696506973
-0.0020028235923113626
0.0032900861593539925
0.005697964659043221
0.0054898563600555075
0.003667152932674771
0.0013775170588255499
-0.000500761986670263
-0.0015365247533848084
-0.0017177246563993163
-0.0013022622653527192
-0.0006389564341841012
-2.5644366814830006e-05
0.0003648515028641482
0.0004926561087240924
0.0004144369769055965
0.00023027773042423336
3.652834398757807e-05
-0.00010286395911735935
-0.0001643917241338917
-0.0001574634983641867
-0.00010938002012638756
-5.0249373443049866e-05
-2.5671471521100307e-06
2.3002650557489204e-05
2.6607689351256092e-05
1.519058399091365e-05
-2.1715039448358396e-06
-1.788129362258045e-05
-2.7646910668663847e-05
-3.0606258088227416e-05
-2.8336218070287547e-05
-2.3465199128389128e-05
-1.8467347671736586e-05
-1.494770134108803e-05
-1.3460887724419007e-05
-1.3723952374026171e-05
-1.501220260938475e-05
-1.654741840340116e-05
-1.7760179642853415e-05
-1.839074165020308e-05
-1.845629838426994e-05
-1.814391210745376e-05
-1.7689796588155972e-05
-1.7287608214491838e-05
-1.7043688695240782e-05
-1.6975972312240273e-05
-1.7040862174652065e-05
-1.7169422847921053e-05
-1.729818203474113e-05
-1.738691644875519e-05
-1.7422655995562054e-05
-1.7413719136929314e-05
-1.737930052261414e-05
-1.7339491209835144e-05
-1.7308684546405733e-05
-1.7293180507480347e-05
-1.729219358532798e-05
-1.730069995354297e-05
-1.73125605935338e-05
-1.732284516301099e-05
-1.7328925501815065e-05
-1.7330449656728063e-05
-1.7328615666954966e-05
-1.732522873312275e-05
-1.7321915323225003e-05
-1.7319681640313114e-05
-1.7318827662134194e-05
-1.7319112969498117e-05
-1.7320030181629846e-05
-1.7321061214603714e-05
-1.7321842763524442e-05
-1.732222274570543e-05
-1.732223015043063e-05
-1.7321999499431078e-05
-1.732169014286443e-05
-1.7321427452732768e-05
-1.732127620844139e-05
-1.7321242649920755e-05
-1.732129402907852e-05
-1.7321383136494565e-05
-1.7321468328962937e-05
-1.7321524466936767e-05
-1.732154469211016e-05
-1.732153585702058e-05
-1.732151136388174e-05
-1.7321484595239444e-05
-1.7321464762484532e-05
-1.7321455571179826e-05
-1.7321456077080757e-05
-1.73214626570896e-05
-1.7321471074480275e-05
-1.732147797364019e-05
-1.7321481571299797e-05
-1.73214816510736e-05
-1.7321479138582338e-05
-1.732147554171324e-05
-1.7321472444846695e-05
-1.7321471124479106e-05
-1.7321472270114104e-05
-1.7321475779344283e-05
-1.7321480642369013e-05
-1.732148499999034e-05
-1.7321486495963254e-05
-1.7321483001003423e-05
-1.732147364231251e-05
-1.732145985689773e-05
-1.7321445979800276e-05
-1.732143879848112e-05
-1.7321445670753363e-05
-1.732147127640378e-05
-1.732151379313567e-05
-1.7321562039505362e-05
-1.7321595554769494e-05
-1.73215892867049e-05
-1.7321523258947153e-05
-1.7321395349725714e-05
-1.7321232693539353e-05
-1.7321095288036273e-05
-1.732106550287508e-05
-1.7321220475766603e-05
-1.732159106470424e-05
-1.7322119781066702e-05
-1.7322637843021335e-05
-1.7322883756010197e-05
-1.732257836770445e-05
-1.7321552189100718e-05
-1.731989257289469e-05
-1.731804974287848e-05
-1.7316825536948868e-05
-1.7317182334570274e-05
-1.7319861962064917e-05
-1.7324892091333146e-05
-1.7331158085450926e-05
-1.7336289280927186e-05
-1.733709825764482e-05
-1.7330677587392853e-05
-1.7315995184061196e-05
-1.7295491441349705e-05
-1.727589209657139e-05
-1.7267381009365106e-05
-1.7280588569008232e-05
-1.732161202194056e-05
-1.7386379459535316e-05
-1.7456754037084915e-05
-1.750130842096576e-05
-1.7483098547309986e-05
-1.7374668257697625e-05
-1.7177087275453047e-05
-1.6935981332150292e-05
-1.6744908652707795e-05
-1.6727074239192648e-05
-1.6991820078922566e-05
-1.7572692870482174e-05
-1.8366917656427547e-05
-1.9106921906137435e-05
-1.9396546581464478e-05
-1.8831645033329507e-05
-1.7194617678882124e-05
-1.4669926796836915e-05
-1.1986559280935715e-05
-1.0374827405857373e-05
-1.1251033011236219e-05
-1.5627441903210545e-05
-2.337890550420594e-05
-3.264434573018001e-05
-3.973634113056764e-05
-3.989828951120783e-05
-2.902796277732806e-05
-6.07897803578739e-06
2.4649821135467914e-05
5.253038340213647e-05
6.216948711566106e-05
3.8228957681983006e-05
-2.6983444107387146e-05
-0.0001252852212340487
-0.00022743749424201085
-0.0002853328369205644
-0.00024475196371694015
-6.853720073091244e-05
0.00023519107200038603
0.0005907530962835786
0.000852988635259126
0.000838460237759422
0.000393630189592631
-0.0005121243377183083
-0.0017000726630235752
-0.0027486650425964814
-0.003060238794851493
-0.002053084403790837
0.0005431655065459367
0.004374671744712753
0.008277468370032333
0.010384300224533337
0.008642009541380018
0.0017229114765694039
-0.00989161489504275
-0.02309444018228576
-0.03217379985690984
-0.030178784574422485
-0.011799682472873685
0.02265726522770967
0.06331323905571934
0.08839590691590667
0.06514604847252416
-0.04523910017407417
-0.07923704150489677
-0.06129948575873455
0.004313623620657505
-0.062366416113571355
-0.018359473084099177
-0.0045251730328601265
0.0433956894100842
-0.01840774704167233
0.04549443104457685
0.04032941233901428
0.1373612844244751
0.0775477032942952
-0.016898042875984353
-0.02440296994023222
-0.002828720040532524
-0.17019192364109728
-0.2928697276172753
-0.08601827015902465
-0.02848176362561086
0.009484963572234556
0.1317955904027134
0.3848972045416628
0.5394648499702557
0.8937933038041522
-1.2990188628994497
-0.587753984363799
-0.4801789049595541
-0.018553526936232242
-0.3829030456142662
1.6826181641623117
0.6364795412560941
0.11874202263408218
-0.8467199124112504
-0.8309519279437456
-0.37665819953813456
-0.19174533262152635
0.43145276152631334
0.5770412627795807
0.4632999298284572
0.21657369254527778
0.2745519476742825
-0.3789072122789379
-0.35659923465774207
-0.20536418213687335
-0.3569774782147293
-0.5077593169560852
-0.03443404910649799
0.15577764814660816
0.3524195378211326
0.3653152442543387
0.6658060006411428
0.5637551765743903
0.22943800947644627
-0.4434040319403278
-0.9509338311372558
-1.0967510840507657
-0.7423893805545478
-0.008820588404174804
1.0729902248034582
2.4856521638031133
-0.44207063385314754
-0.06438072009685296
-0.40110721341223876
-1.090080897235636
-1.939313603807299
1.0932260138971845
0.480500195964568
0.4779880234103163
0.872105062134932
1.3537343669692035
-1.066330294696047
-0.8020838580980232
-0.417492432597572
-0.5619216869209644
-1.1415553794115674
1.2620457050533243
0.733093541587103
0.14355721846390596
-0.11813283253685525
0.2081523951498072
0.2444249395747413
0.19842180220577732
-0.1862919489753158
-0.3658885998777567
-0.5331408115021266
-0.3721174204955328
-0.2432507254142896
0.19742456754705723
0.5518318405182568
0.6219407086501644
0.15912487793414254
-0.16476353653906423
-0.1597433674669621
-0.29860196942314027
-0.08725239711739546
-0.035631547196356465
-0.03650532743127422
0.04525963505401378
0.17424149413157455
-0.05982544497139931
-0.0484954133518116
0.22958936379112305
0.005044461576282055
-0.083530701069274
-0.189528893855836
-0.05927466897632931
-0.03632034113932233
0.1300011813845491
0.07325558088367079
-0.0008746425433149457
0.07877529555845084
0.0489090005582339
0.019408257500542928
0.08778736570318099
-0.04185415128971004
-0.23912589283440028
-0.13163633630100186
-0.09790769604749597
-0.07169120331278013
0.04290335752168296
0.3497579532791523
0.33945928945608433
0.2753754113178066
-0.609088839958535
-0.30389592578994246
-0.21319760336420865
0.04915992113164309
0.05682873580735432
0.7649321440634544
0.5093071267458429
0.2185996495434802
-0.960112157712297
-0.8317067397092703
-0.5362182641206652
-0.15968763364196048
0.22456380751572305
1.4978928166380012
1.8472988309913934
-0.6484210112199704
-0.7852771970760161
-0.7645207989743239
-0.9168956391576428
-1.25413854339877
1.1318537395547752
1.0236049655819741
0.607933344092998
0.211404275603076
-0.13485332837736866
-0.2933833011766786
-0.38975325882328143
-0.3692882703612553
0.04273231524624888
0.16728906466494092
0.18196638552559508
0.1191203660195036
0.057503333795405044
-0.2887677849985499
-0.18321103850309714
-0.0833425939627067
0.13877884312885316
0.17390804078535946
0.25610425370746753
0.15267916831146258
-0.03203511477764894
-0.2389565090543517
-0.026944607575785148
-0.14304013789135323
-0.09733345452791246
0.05272486547646226
0.10685016828205228
-0.08376184953078933
-0.029856300191338805
-0.02244714905523899
0.04666719156507149
0.06506698346962583
0.08376783220231246
0.10831902081965314
0.09915126273349786
-0.018446966434398176
-0.13672637230625856
-0.14451578876458382
-0.1083889749070657
-0.06087400403129265
0.0016764301408301089
0.11204507638209117
0.119152234909707
0.07370628124151604
0.016785701274480636
-0.02611208973636043
-0.045307411858458366
-0.04304251274594189
-0.027835118625580534
-0.00924842665176888
0.005588768389550107
0.01335062198667329
0.014162524860842218
0.010291011407114201
0.004644648475937407
-0.0003739709671204392
-0.003435321865666708
-0.004305786818613504
-0.0035193860273115504
-0.0019300678315121154
-0.0003282949097466814
0.0007819599617774177
0.001235082876621611
0.0011311754593602318
0.0007072523150959927
0.00021305553910262127
-0.00017149040545456275
-0.0003667383647586071
-0.0003813238232009257
-0.00027704770460753854
-0.00013007874777057357
-1.9249381664411336e-06
7.436214794957149e-05
9.404282844011263e-05
7.176944450567863e-05
2.9895459769311335e-05
-1.132324194507952e-05
-3.927429967838082e-05
-5.011456405034781e-05
-4.674790048554903e-05
-3.544177545772492e-05
-2.263758244212143e-05
-1.2878176041320848e-05
-8.088554694661917e-06
-7.937034501921504e-06
-1.0767468614593924e-05
-1.4602099706712498e-05
-1.7876389923738042e-05
-1.977512398060111e-05
-2.0211416847834953e-05
-1.958631925529132e-05
-1.84845600249342e-05
-1.7424754955031265e-05
-1.6721970009201053e-05
-1.6464231715805584e-05
-1.6568461040728064e-05
-1.6869219972598392e-05
-1.720054654795759e-05
-1.744789842787035e-05
-1.7564985670864075e-05
-1.7563138652811174e-05
-1.748661326107108e-05
-1.7386698523299667e-05
-1.7303140388236948e-05
-1.7255987255947973e-05
-1.7246572523717786e-05
-1.7263972093472647e-05
-1.7292912485158918e-05
-1.732013085446701e-05
-1.733777225554984e-05
-1.7343852901038335e-05
-1.7340722508506257e-05
-1.7332740070680648e-05
-1.732417668213821e-05
-1.7317915985273254e-05
-1.7315064534827283e-05
-1.7315259401412584e-05
-1.7317321026615115e-05
-1.7319920955386152e-05
-1.7322050765976795e-05
-1.7323218985599118e-05
-1.7323414488806907e-05
-1.7322933553747325e-05
-1.732217457770532e-05
-1.7321476342327642e-05
-1.7321034267423764e-05
-1.7320892125353968e-05
-1.7320984085922475e-05
-1.7321195496669918e-05
-1.7321416564943068e-05
-1.7321574809212603e-05
-1.7321643957725776e-05
-1.732163516964757e-05
-1.7321579808424287e-05
-1.732151224161216e-05
-1.7321458020901678e-05
-1.732142915217074e-05
-1.7321425326594862e-05
-1.7321438539661927e-05
-1.732145841352216e-05
-1.7321476304721297e-05
-1.732148736249779e-05
-1.7321490648482786e-05
-1.732148799243597e-05
-1.7321482405022056e-05
-1.732147670524425e-05
-1.7321472711713332e-05
-1.7321471042890243e-05
-1.7321471364981548e-05
-1.7321472845823147e-05
-1.7321474597586897e-05
-1.73214759743421e-05
-1.7321476684907437e-05
-1.7321476753506647e-05
-1.7321476396245893e-05
-1.7321475882750712e-05
-1.7321475431590952e-05
-1.7321475159912866e-05
-1.7321475083481363e-05
-1.732147514910514e-05
-1.7321475277843424e-05
-1.7321475401612796e-05
-1.7321475483673094e-05
-1.732147552133825e-05
-1.7321475534954532e-05
-1.7321475550078133e-05
-1.7321475580266888e-05
-1.7321475616737074e-05
-1.7321475628919546e-05
-1.7321475576936094e-05
-1.732147543331426e-05
-1.7321475207225047e-05
-1.7321474961129345e-05
-1.7321474808577813e-05
-1.7321474884866957e-05
-1.732147529045785e-05
-1.73214760198324e-05
-1.7321476902428696e-05
-1.7321477591438527e-05
-1.7321477633303977e-05
-1.732147663010274e-05
-1.732147446847522e-05
-1.7321471540839052e-05
-1.7321468845468673e-05
-1.732146784594141e-05
-1.7321470019675933e-05
-1.7321476137678122e-05
-1.7321485474466145e-05
-1.7321495297000566e-05
-1.732150104639122e-05
-1.732149752490117e-05
-1.7321481086745337e-05
-1.7321452335636747e-05
-1.7321418293811534e-05
-1.7321392666836206e-05
-1.7321392968440356e-05
-1.732143409978202e-05
-1.7321519489451008e-05
-1.7321632744758155e-05
-1.732173422547347e-05
-1.7321767085676712e-05
-1.7321675301767494e-05
-1.7321431759234823e-05
-1.7321068394922456e-05
-1.7320694733198785e-05
-1.732048894452794e-05
-1.73206498840943e-05
-1.7321311098346498e-05
-1.7322437103625916e-05
-1.7323742762855534e-05
-1.732468889977553e-05
-1.7324600562746176e-05
-1.7322920845142076e-05
-1.731955385620714e-05
-1.731517956568985e-05
-1.7311369035678566e-05
-1.7310327389804555e-05
-1.7314175116565983e-05
-1.7323853928581837e-05
-1.7337978471165952e-05
-1.735216834870862e-05
-1.7359468449943374e-05
-1.7352282110449936e-05
-1.7325742511833757e-05
-1.7281695626951162e-05
-1.723168680249883e-05
-1.719690081615783e-05
-1.7203316651443996e-05
-1.7271687280536e-05
-1.740427887738673e-05
-1.7573023694694813e-05
-1.7715745620094572e-05
-1.7747004160453975e-05
-1.7586697727407955e-05
-1.720263804579391e-05
-1.665422350319843e-05
-1.6116326267059678e-05
-1.5860136614307077e-05
-1.617542137321425e-05
-1.7238503886155057e-05
-1.895952248963374e-05
-2.0872213952659164e-05
-2.2145221414294518e-05
-2.1779890608284084e-05
-1.9005320258918084e-05
-1.3790470847137196e-05
-7.288899244710434e-06
-1.9578395611424785e-06
-1.1039252840546704e-06
-7.746634225570462e-06
-2.2963557754045667e-05
-4.4232213918068446e-05
-6.458359072304759e-05
-7.34557377865127e-05
-5.9813531637570994e-05
-1.731254921459316e-05
4.985124592143761e-05
0.00012289062785429312
0.00016921528157691785
0.0001504791324912272
3.813434150272555e-05
-0.00016681575506177475
-0.0004171603050629102
-0.0006159220875438643
-0.000635240724162978
-0.0003613943572536861
0.00024110120231212245
0.0010669115580068463
0.0018406730435516156
0.0021551075269078375
0.0015969935090901618
-4.9898293460322885e-05
-0.002580353048966625
-0.005220916552942366
-0.006681511405195233
-0.005503469797991102
-0.0007225598312924305
0.007260975101799157
0.015847654361297963
0.019757649851759696
0.011167812068778057
-0.01948856170924401
-0.08234136230023174
0.01295900834229746
0.05773291371533785
0.04426836478419747
-0.03415960660385897
0.017259814217945358
-0.004035862377438535
-0.09689090191793338
-0.0560984366618354
0.12669372615950375
0.0610762683225813
-0.04405898563692323
0.018593696318373477
0.05532735643121197
-0.12705155246423053
-0.1198481502620315
0.08761915853901556
0.10638082368323896
-0.05489632406621592
0.007759429099783619
0.09301727525322334
-0.004032229987059209
-0.08801048747666376
0.04189098274864527
-0.0030362220292662516
0.002454527044074634
-0.10183950242835865
-0.06485619002573939
-0.03200223393628328
0.043000789596476
-0.016136955967910923
-0.02187624291908087
0.1680962063731212
0.2504221523414175
0.2876094541875301
0.13277609519666983
-0.13532648903253303
-0.5754552727257514
-0.7582186265677319
-0.5650809314190063
-0.0193024313251899
0.6562559527506313
1.3736074284372541
1.934092068291294
-0.9733141744414338
-1.1239142698679672
-0.8781394893194309
-0.906946299663718
-1.1558749197277227
1.5367073103255366
1.3770329500388743
0.738753825647347
-0.09467551322801965
-0.5470209843555597
-0.5265046371559303
-0.3810144866456007
-0.2534931324750785
0.1467976877648914
0.3525893288835026
0.3316895488245796
0.07468571294241472
-0.21413459334021184
-0.11914963287496641
-0.010764349897747614
-0.04185230373529342
0.053355839002350046
0.15661175108022007
-0.04060238259788094
-0.2465248849966279
-0.1820442814223614
-0.197604253643838
0.1070711907507552
0.46520996429233413
0.5357089334059036
0.515766219898993
-0.021424002698588036
-0.46810012212949587
-0.7176787584973306
-0.7173437958864413
-0.8591739791262331
-0.02132525832925158
0.5461399882266411
1.3143450783477624
1.1834012580296924
0.8404856988465554
-0.011143327600969194
-0.7567953790361214
-1.739308308963247
-1.5389915357931618
-0.5095569135993148
0.40526183653837294
1.1810744366699777
1.383667716147348
1.0502981835500818
0.2235292319925271
-0.44331942281608333
-1.0185202214119327
-0.9935785281747017
-0.5932599328599559
-0.12482747369207714
0.42168200245553694
0.731278621118035
0.7036868749117312
0.40211797264785837
0.03084565501286832
-0.4531301508232122
-0.5039150202872396
-0.545039895271781
-0.34206569906127166
-0.0019914297637425742
0.3998885384409659
0.5766897208715727
0.588158709289051
0.2178135746466241
-0.22150970686790522
-0.45617296505771393
-0.6074710762939528
-0.35235823063337995
0.09642966349151147
0.3858524847610905
0.399258319924146
0.22653712347975502
-0.060102723910309346
-0.2181925684173878
-0.23554111640741632
-0.12461181133978042
0.08351238909398137
0.14288266063641358
0.1953721892698735
0.17573227103017602
0.021783449903756216
-0.3105742912353635
-0.23163992780840797
-0.1078659854994305
-0.06304005997513312
0.0075297537816647105
0.21288384804335175
0.23914954865779325
0.12732738944127567
0.06287294714343769
-0.01989345916206214
-0.0201103065959374
-0.24482208052256582
-0.18294359889241232
-0.08592288028350395
0.04007366008264408
0.029417102602274776
0.14246314433974086
0.046305455489314036
-0.00366461360818437
0.02293276871185291
0.12578946898032448
0.0766528063247256
0.02977844897740076
-0.062261914722497695
-0.23162389201383404
-0.28263978845098825
-0.18893866014967386
0.09720775658727374
0.22550812295639605
0.42538373754052305
0.2905030932000296
0.17814224846466592
-0.17440143628934746
-0.42191303964737675
-0.7839115303125233
-0.4316520477015285
0.10161149297720219
0.48890738021706376
1.170337416961347
1.5274101139976066
-0.9116429525739623
-1.0331722964701298
-0.8833656683204779
-1.0270125891542219
-0.7452324687999837
1.7214126968278496
1.7021904649819586
1.2323615247728317
-0.7704466542600182
-0.8767975802270516
-0.878044130221595
-0.9143588453484103
-0.6308595898292572
1.2220612411656437
0.9502962578629175
0.46242074749535594
0.02747533916150025
-0.33960056797915056
-0.4650893865249228
-0.38901669472052913
-0.13943388424726266
0.07995130640860303
0.28601905101561576
0.3016634887106358
0.13970933569802457
-0.0064175126030696725
-0.16167450794091162
-0.15992491636539757
-0.23145732495056942
0.006688775188139767
0.15430278439411943
0.22596591686314826
0.04673743294628053
0.04926157406354544
-0.12617997134893666
-0.230300004184301
-0.20589496328871526
0.0050245286050206225
0.047132638936887426
0.13377312316830017
0.2315017425764722
0.4548867521173239
0.4775360374418382
-0.6395442783685085
-0.40838169041131644
-0.27611826597861394
-0.403666831435793
-0.47119764294076383
0.6888546641855494
0.641191811077563
0.49699839220594344
0.08159660530680876
-0.06847368463483097
-0.27976469000843307
-0.4990852743063795
-0.4500078449292589
-0.0034994805580285623
0.2296041046595565
0.28582307553572045
0.2248270647773652
0.10502341548801403
-0.03258181613061339
-0.16920978939319856
-0.10390083070730897
-0.044727225758998006
-0.00044106516828258186
0.024577668177283525
0.03155301429139646
0.025807290010783784
0.014139925765637223
0.002458152531594778
-0.0055906688478141245
-0.00885950242355248
-0.00811430399765532
-0.005084392340051485
-0.001568699406383448
0.001149047633168896
0.002509419981851799
0.002584141200338699
0.0018208532726235556
0.0007648161604009562
-0.00014733808738579357
-0.0006840563952716568
-0.0008158443506202223
-0.0006502955107114286
-0.0003482088115046445
-5.391073934765739e-05
0.00014370024311187806
0.00021851964070075975
0.0001923167958766154
0.0001103656387024219
1.869556991837972e-05
-5.0538676896749016e-05
-8.398782283425626e-05
-8.436404827204479e-05
-6.369645723288393e-05
-3.615832918798216e-05
-1.2860050778774447e-05
4.905039295856961e-07
3.3836989236191835e-06
-1.2420590259800902e-06
-9.182923733644105e-06
-1.6745223134879944e-05
-2.1709873291049018e-05
-2.348278633491735e-05
-2.2683324279455955e-05
-2.0505513246074937e-05
-1.8134664038347037e-05
-1.6380962983218614e-05
-1.5564603958064748e-05
-1.5595899037311837e-05
-1.6153779146787364e-05
-1.687088886270076e-05
-1.746513632935438e-05
-1.7796342652615097e-05
-1.7857834108387268e-05
-1.772949190893382e-05
-1.752105494442482e-05
-1.732693484689744e-05
-1.720240515621521e-05
-1.7160739531455972e-05
-1.7184497614278634e-05
-1.7242243442090737e-05
-1.730348802097857e-05
-1.7347848782414252e-05
-1.7367693687080676e-05
-1.7365838313546006e-05
-1.7350830884701467e-05
-1.733218133718937e-05
-1.731704268181334e-05
-1.7308846120783238e-05
-1.730759798776057e-05
-1.731113559421946e-05
-1.7316598208286083e-05
-1.732157546773356e-05
-1.732469358875589e-05
-1.732566305155853e-05
-1.732497067186348e-05
-1.732344268150157e-05
-1.7321862434002827e-05
-1.732074188263485e-05
-1.732026161517778e-05
-1.7320336239763293e-05
-1.7320738696231615e-05
-1.7321223088515782e-05
-1.7321608278969775e-05
-1.732181058842471e-05
-1.7321834096758024e-05
-1.7321737140190934e-05
-1.732159419432481e-05
-1.7321466723391582e-05
-1.732138879271862e-05
-1.7321366508850446e-05
-1.7321386383549622e-05
-1.732142673617455e-05
-1.7321467463005637e-05
-1.7321495726952644e-05
-1.732150729173393e-05
-1.732150468411315e-05
-1.7321493922186075e-05
-1.7321481356554848e-05
-1.7321471567932485e-05
-1.732146658877201e-05
-1.732146620537313e-05
-1.732146884944441e-05
-1.732147258462512e-05
-1.7321475845469184e-05
-1.7321477789368378e-05
-1.7321478293828546e-05
-1.7321477730196327e-05
-1.732147666649519e-05
-1.7321475618069535e-05
-1.7321474906234298e-05
-1.732147462934055e-05
-1.7321474713993455e-05
-1.732147500101458e-05
-1.7321475326582926e-05
-1.7321475575023304e-05
-1.7321475697194044e-05
-1.732147570137438e-05
-1.73214756295931e-05
-1.7321475532127214e-05
-1.7321475448795266e-05
-1.7321475400383616e-05
-1.7321475389157722e-05
-1.7321475404961778e-05
-1.7321475432950725e-05
-1.732147545994204e-05
-1.7321475477911732e-05
-1.7321475484592453e-05
-1.732147548205313e-05
-1.732147547444859e-05
-1.7321475465952325e-05
-1.7321475459456578e-05
-1.732147545616733e-05
-1.7321475455889184e-05
-1.7321475457646438e-05
-1.7321475460302916e-05
-1.7321475462963938e-05
-1.7321475465097285e-05
-1.7321475466439053e-05
-1.7321475466821912e-05
-1.7321475466067887e-05
-1.7321475464034774e-05
-1.732147546081615e-05
-1.7321475456998434e-05
-1.732147545380867e-05
-1.732147545297543e-05
-1.7321475456196606e-05
-1.7321475464263175e-05
-1.7321475476096374e-05
-1.7321475488146123e-05
-1.732147549467237e-05
-1.732147548928845e-05
-1.7321475467735736e-05
-1.7321475431229852e-05
-1.732147538905375e-05
-1.7321475358677072e-05
-1.732147536190463e-05
-1.7321475416647533e-05
-1.732147552583322e-05
-1.7321475667261458e-05
-1.7321475789956254e-05
-1.73214758225831e-05
-1.7321475696786577e-05
-1.732147538260692e-05
-1.7321474925532013e-05
-1.7321474467873518e-05
-1.7321474234833422e-05
-1.7321474471632796e-05
-1.732147533428194e-05
-1.73214767609146e-05
-1.7321478375814116e-05
-1.7321479492404717e-05
-1.732147927117635e-05
-1.7321477044642913e-05
-1.7321472746139858e-05
-1.7321467291413266e-05
-1.732146269754496e-05
-1.732146172814677e-05
-1.7321466964710784e-05
-1.7321479428694385e-05
-1.7321497172634685e-05
-1.7321514516640806e-05
-1.7321522681132085e-05
-1.7321512314421537e-05
-1.7321477769331648e-05
-1.7321422036439872e-05
-1.732136028388756e-05
-1.732131945047532e-05
-1.732133180178006e-05
-1.7321422120908905e-05
-1.7321591151868934e-05
-1.7321801279868014e-05
-1.7321972803942987e-05
-1.7321998786948058e-05
-1.7321781947430474e-05
-1.732128820619051e-05
-1.732060016568701e-05
-1.731994412767144e-05
-1.7319661975028997e-05
-1.7320109772451573e-05
-1.7321490522742276e-05
-1.732366528142073e-05
-1.732602315432694e-05
-1.7327508423322772e-05
-1.732688263406235e-05
-1.732322886340568e-05
-1.73165902227528e-05
-1.7308505845752978e-05
-1.7302120712501445e-05
-1.730156782831983e-05
-1.7310504882873683e-05
-1.733003578521873e-05
-1.7356684343611667e-05
-1.7381448964532938e-05
-1.7391031689756772e-05
-1.7371897932499677e-05
-1.7316809225183768e-05
-1.7232044932667532e-05
-1.7142153834210683e-05
-1.708846016608413e-05
-1.7118435269995402e-05
-1.726587080975944e-05
-1.7526285506296015e-05
-1.7836918792429234e-05
-1.8073833274314496e-05
-1.807748444170714e-05
-1.771067967528732e-05
-1.693916303390246e-05
-1.590824485445897e-05
-1.4975415969246417e-05
-1.4657325759689733e-05
-1.546754835652021e-05
-1.7661698852140368e-05
-2.0961734033439335e-05
-2.438322536584132e-05
-2.6310495558536363e-05
-2.4926457693546737e-05
-1.8991204560282025e-05
-8.788070330480563e-06
3.1318660761067505e-06
1.1890731757008577e-05
1.1337224126862008e-05
-3.661049657149921e-06
-3.4096827019418314e-05
-7.393116976599653e-05
-0.00010898817714722742
-0.0001192182286993667
-8.516961717344623e-05
2.0780374250927687e-06
0.00013040455443924073
0.0002604089394290456
0.0003289911228751288
0.00026669141457151665
2.822796107879376e-05
-0.00037115598449930165
-0.0008280731954161389
-0.0011507739267172146
-0.0011023276740092377
-0.0004910921007478979
0.000708711433264246
0.0022483356459441334
0.003568337655493316
0.003894960224143659
0.002498672051111211
-0.0009183505159418297
-0.005822229857666542
-0.010626100384851718
-0.012864057789004525
-0.009912714691281507
-0.00024072449081329958
0.015088280020602694
0.031190900009855655
0.03908024196328199
0.026857054366726803
-0.01754938455171295
-0.1027152789123563
-0.030384192240363057
0.00616961873735751
0.021310692323661486
0.03402204519634753
0.06382134706236665
-0.0730525078913413
0.0337423747578237
-0.012492336265632573
-0.015347163410182335
0.015823175350946607
0.06776834921971137
-0.07423439625048144
-0.02369038727785783
0.009577787902630553
0.02112820245163416
0.012531521298236028
-0.009040781923223122
-0.03215736795312558
-0.04340410911321684
-0.030639638828796757
0.013042618806355473
0.08557905598880042
0.17403830781399962
0.056291437271426235
-0.09298203443269143
-0.09316844970116175
-0.1487667972248914
-0.24475849382007805
0.05067620592177647
0.1759626411556982
0.16184300481971314
0.21880001017095177
0.13186074346262172
-0.13442523665760067
-0.2224055650521895
-0.16458383201606505
-0.17067865615456296
-0.023844720326535892
0.1125032828846739
0.28023367029270946
0.11037934767659746
0.011665361457200546
-0.03237924859241976
-0.05750310764914359
-0.10693985380284213
-0.018093000395382
-0.011735248988881642
-0.08639027779253364
-0.01889342955149763
0.029400988905262448
0.10258331820673547
0.03907162579743279
0.062391691444452446
-0.023887612061306646
-0.036209727914496885
-0.00666362573968784
