0
-3.8673896326083466e-09
1.3305992262215062e-08
3.387832544265031e-08
4.968404087995877e-08
5.0167097439527636e-08
2.6195689789967112e-08
-2.461075868606495e-08
-9.278978137229652e-08
-1.5482507734507042e-07
-1.7657849771883007e-07
-1.2394870607231307e-07
2.030168611159804e-08
2.3826285799814988e-07
4.653035401601572e-07
5.948039208210335e-07
5.063284066578168e-07
1.169593994677939e-07
-5.560627729621965e-07
-1.3457014441879052e-06
-1.9304959252694123e-06
-1.9033507799996214e-06
-9.224549127179824e-07
1.0823745558448156e-06
3.717443432277123e-06
6.049951586547087e-06
6.754780284589585e-06
4.539821291981241e-06
-1.198088008043336e-06
-9.676029536481698e-06
-1.830631677252809e-05
-2.2924210826175605e-05
-1.892501040307439e-05
-3.2779654334550634e-06
2.3066543965368818e-05
5.333460223082951e-05
7.48869104833694e-05
7.204321880239511e-05
3.204478363132799e-05
-4.69621535709418e-05
-0.0001486832135928788
-0.00023617233113987048
-0.00025805264157459346
-0.0001654600101052127
6.24170514002807e-05
0.00039179789064463973
0.0007192694328638491
0.0008823315186151898
0.000705181436321058
7.762823030543712e-05
-0.0009525230701651015
-0.0021113243802967745
-0.002902418858585572
-0.002722521224212444
-0.0010965599807233198
0.0020140082017235167
0.005939290678111866
0.009220757466139826
0.009873773712469749
0.006062669444538028
-0.002904779854743313
-0.015568618897398509
-0.027784558381999933
-0.033212769458299804
-0.025192073338097472
9.340347511462783e-05
0.039914423415005444
0.08218642724165262
0.10530000978351144
0.08198431366672906
-0.012645985170958475
-0.19065437217939998
-0.24218112462764693
-0.13216390098890154
-0.0059798086052765655
0.19636337089060904
0.32194586602401104
0.18953822425727268
-0.01660635308103086
-0.14126996685817111
-0.2436720448562829
-0.18000625681944935
0.010156446630758896
0.10950533959222859
0.12059880437856318
0.05854150673752786
-0.057251619902759975
-0.009307650807941034
0.014695390551620897
0.021519258767512213
0.01406373890615454
-0.005567945436201209
-0.032503045867477286
-0.056145551277608945
-0.05903965228931275
-0.018410617058121984
0.08960905883665235
0.08415266503864585
-0.02596731210882422
-0.045849629791311866
0.004821092370412818
0.09403344069656938
-0.0177748919465583
0.029012084084967284
0.000958909089354744
-0.12116179345962025
-0.13770749849301775
-0.030088111275501726
0.03384628460610031
0.09004079659627645
0.16717445831862981
0.07829456417432745
0.01836515860234267
-0.03126329347690388
-0.09317272816042775
-0.18278506362995595
-0.10030265936868858
-0.02904409492775853
0.05896950724270236
0.19235705990936847
0.18910734985174135
0.04956368734058541
-0.04327751128196554
-0.11638505950530253
-0.1956597656356576
-0.09623945553308334
-0.018368677064644415
0.04957734989966809
0.12258269887819495
0.2091099890905224
0.10460304998938692
-0.008315576357063592
-0.1526591697124268
-0.14595254788380688
-0.19029824037076123
-0.06850581159549655
0.05138036826329866
0.2045353916480877
0.21543480783356297
0.08749314204059983
0.0007871772939061537
-0.08109297543684871
-0.19791143770998554
-0.17873719132454816
-0.032482515545547354
0.053645982864200366
0.10791729430019431
0.1633137225512918
0.04686129314657098
-0.027096305150279644
-0.05809077923086441
-0.05606985560672676
-0.03568357067046422
-0.010850714977558587
0.008738887099777819
0.018724621115281566
0.019263808060919155
0.013246872404940279
0.004452480216098076
-0.0037713160410145228
-0.009129600181175621
-0.010465608050275993
-0.00761529423340641
-0.0012965917547146568
0.006875800056191103
0.014369696852128005
0.017970943588060433
0.014530042342163972
0.0022848308121337646
-0.017510912063953513
-0.03928771708520091
-0.05304168944958393
-0.04613062118572427
-0.007148058523585876
0.06892838699580192
0.17616496218820882
0.09607327658661602
0.0008036794174812151
-0.13892602569024884
-0.14367238250353964
-0.21702493270626455
0.056891053051915975
0.10870950238881356
0.1737357486808568
0.08069622014760283
0.04375237267936414
-0.13973594794060137
-0.08600789379997828
-0.018618492315604855
0.038190015895285194
0.06478838037586165
0.049850218700953366
-0.007197209853467042
-0.09496523789573647
-0.19100804415130485
-0.06611735898885926
0.10754611607392116
0.14610535939602767
0.2452237816290344
0.1774989865637462
-0.10122232063114822
-0.23760439421560156
-0.2637008495308085
-0.184035498494293
0.027413817477922126
0.21893904061617417
0.2451720767513321
0.15026528877139358
-0.04336573522623404
-0.1376160452905634
-0.15373408703583782
-0.12381525244856273
0.11713043989249447
0.13648480525242965
0.1072205419398391
0.010763090915426807
-0.15950808877485464
-0.19514391138646747
-0.07238503727830262
0.043154194076047404
0.18715990036739197
0.18572347532961708
0.04732582700442558
-0.03887618088795662
-0.09790629232783701
-0.15946145224951438
-0.04814643530369057
0.02289570529981614
0.05330036271606376
0.05241693218140066
0.034035143718909096
0.011278404995389561
-0.006737670768275201
-0.015989266496982395
-0.01677842721437711
-0.011977054175569091
-0.005155524383795996
0.0007991164045258969
0.004335488878166829
0.005230752300385408
0.004170904545441979
0.0022018644597064036
0.0002702334725036294
-0.00103599409906467
-0.0015394303218262554
-0.001378000180154882
-0.0008462287709588699
-0.0002459334865214931
0.0002105495278534271
0.00043370784567091467
0.0004396555888561842
0.0003063168996503645
0.00012642793472182723
-2.6819538839010383e-05
-0.00011542262790266314
-0.00013549365387022078
-0.00010594299536504924
-5.420938319876682e-05
-4.571612579061293e-06
2.8261707266623603e-05
4.0223923261581286e-05
3.525004943808882e-05
2.1111027834576676e-05
5.581763220674264e-06
-5.984745707777383e-06
-1.1437135666491646e-05
-1.1320692414611482e-05
-7.71694253283444e-06
-3.0303791465679815e-06
8.799330133255224e-07
3.0797464133320916e-06
3.5113032957957256e-06
2.6894453137939744e-06
1.3307792944129841e-06
5.612053456041551e-08
-7.679126401055687e-07
-1.0498630804848885e-06
-9.008974468647939e-07
-5.257257602079233e-07
-1.2441277820126462e-07
1.683012457816474e-07
3.0102483594443474e-07
2.911296888598989e-07
1.9407969421507496e-07
7.214610369878298e-08
-2.7510305256628514e-08
-8.199566823850648e-08
-9.09096314367086e-08
-6.820920516565933e-08
-3.258371645494539e-08
1.1099339193918152e-10
2.0756201026737788e-08
2.733948535190066e-08
2.2972405236145214e-08
1.30384182080171e-08
2.679808674145316e-09
-4.7172512822063375e-09
-7.933693109048431e-09
-7.501868597466497e-09
-4.896396396217749e-09
-1.7283232563870682e-09
8.073767980689168e-10
2.1517503412190318e-09
2.322801599454635e-09
1.6982491041995458e-09
7.658289747998305e-10
-6.921129405782872e-11
-5.805181303569619e-10
-7.261907555612521e-10
-5.949902001339696e-10
-3.314534655338029e-10
-7.056566174317381e-11
1.0158162238591024e-10
1.5861977017408817e-10
1.230450486713383e-10
4.414741044374841e-11
-2.5676349130427853e-11
-4.9789475991186e-11
-1.8254899044567967e-11
4.999279394249209e-11
1.1350065108339651e-10
1.2232785336121238e-10
3.7824950894327716e-11
-1.4586249602003346e-10
-3.853453281683316e-10
-5.854264931946139e-10
-6.18605514504505e-10
-3.697445811486132e-10
2.0092915540866924e-10
9.960556937091213e-10
1.751030781242521e-09
2.0683227444051263e-09
1.5365826432473027e-09
-7.481281065874129e-11
-2.597639311284687e-09
-5.316696816165578e-09
-7.005140739899151e-09
-6.23228214784064e-09
-1.950334377791128e-09
5.767080620412847e-09
1.5110456725800937e-08
2.2418718937724427e-08
2.2908826791469086e-08
1.2381733882979104e-08
-1.0369301674127429e-08
-4.1227227673206234e-08
-6.969010067828272e-08
-8.034067372472536e-08
-5.759131415271246e-08
6.733024982533017e-09
1.0506350776715731e-07
2.08679252126982e-07
2.695842165419009e-07
2.3297263964644866e-07
6.028575871889395e-08
-2.423554613693483e-07
-6.012333576590723e-07
-8.721277790920705e-07
-8.704686126981508e-07
-4.388749756370893e-07
4.595031078610215e-07
1.6528644841939022e-06
2.724316069173115e-06
3.0750665052198296e-06
2.1139422036770043e-06
-4.468498046974072e-07
-4.27380066292862e-06
-8.215836165054834e-06
-1.0397047087088877e-05
-8.720455124742236e-06
-1.7731270563943848e-06
1.0080464942430186e-05
2.384640115705623e-05
3.3850561098384975e-05
3.2979264285126644e-05
1.5349459401376375e-05
-2.0077702961708596e-05
-6.617318164883786e-05
-0.0001064124765284499
-0.00011756580896740872
-7.725427744253214e-05
2.45274364055497e-05
0.00017329806157079418
0.0003230132491875925
0.00040043628638528045
0.0003254462599327331
4.652599046369633e-05
-0.00041724835123412674
-0.0009446345729741425
-0.0013126723404136662
-0.0012475113138885154
-0.0005298018239824737
0.0008656414626716294
0.0026448755660375203
0.004154741993237859
0.004496766162153583
0.002828401642199667
-0.0011880051876376303
-0.0069240911689140245
-0.0125328595787216
-0.015151615803964319
-0.011728669135542713
-0.00043676490436463745
0.017666140882236107
0.03737291745450593
0.04926060329328887
0.04146596607245299
0.0033820551164784824
-0.0695599374221759
-0.17181684566894234
-0.08661189458665758
0.010628309027093894
0.14452325186822473
0.13024417879769978
0.1663007946203457
0.033182483105856926
-0.10092743272799909
-0.26935191558966515
-0.09547735055767403
0.014578643076479887
0.07253829928035486
0.10239940179191657
0.13189086003975778
-0.015316040506411326
-0.1241652528506706
0.010873399872804342
-0.012628558939028887
-0.0025579161787832655
0.030212776819999933
0.07404524878632518
-0.08140752703374793
-0.043401890323504985
-0.015039340590076718
0.004482272331531273
0.01816150769428687
0.028613236445855707
0.03571018338292782
0.03556314607769357
0.021512099628386926
-0.012961900663183937
-0.07037004110206405
-0.14605260659051408
-0.02748354832564697
0.1030054490963235
0.06271856423371941
0.06248593777837595
0.10262953949340635
-0.027193156778531877
-0.14422484005098454
-0.06664077324006377
-0.007981537930040618
0.025880166830997225
0.03658248924071098
0.030763932582069407
0.01674517979923751
0.0017796325449104611
-0.009410037312654076
-0.014799327765439959
-0.014398092035846147
-0.009366353578203679
-0.0013820366936911624
0.007567774906768868
0.015118042342892019
0.018533610020049614
0.015165449220347835
0.0035344649939921136
-0.0151294935810382
-0.035454252779362865
-0.04740997497941326
-0.03746059734196782
0.008350880090205567
0.09993946486156165
0.038727363354569146
0.014942475191188529
0.007947593733739301
-0.010191622896323731
-0.06882269042504684
0.007867842417600676
0.006386454298789822
-0.072925052871992
-0.015865152332415925
0.0024665218684294223
0.01195242460101549
0.040530786607713865
0.10791740767499841
0.02183438808432757
-0.022065882576460066
-0.036612712929128446
-0.037192874369047675
-0.03558947283801588
-0.03563654141181073
-0.032036397603690536
-0.012662097260304973
0.03641486246239734
0.12487260563598832
0.05328621584111131
0.011452728766294065
-0.019268163316587865
-0.06040238703159393
-0.1297820853628086
-0.03658345932951162
0.02005261629071439
0.04840680032871721
0.05889100217510307
0.058473418221847664
0.047199102668552186
0.01822734681454403
-0.038643237788912856
-0.13142995802060628
-0.06079649002901632
-0.01761961892016587
0.01546764951901763
0.059072169344900775
0.13063873787661942
0.039334648402603756
-0.015662354009313196
-0.04286375282469947
-0.05329423304127613
-0.05472828882730969
-0.0477363968515794
-0.02511831436533718
0.025028332833173496
0.11374287645076032
0.045273311908638925
0.013101142067617057
-0.0005419244754557392
-0.021505592811637796
-0.07804038918638531
0.005564855117808931
0.014250860107396391
-0.05481321934521983
0.008102455238427012
0.02320516028355862
0.017390172170484178
0.019736000772209765
0.05729196253391445
-0.048157165797883185
-0.08223130041492913
-0.039400886954307844
0.07579143212354675
0.047822399553099235
0.050467749703672654
0.049417516098059416
0.007758218978594813
-0.10638270416030633
-0.11197178044207348
-0.009514304616536788
0.020153087936986423
0.012117852108983383
0.009704954205715578
0.054877318487937185
-0.021032474402273363
-0.004339946400261203
0.09761151378552152
0.05754788053228479
0.03405979308435966
-0.018611717316124904
-0.13879098906210002
-0.14674322204310866
-0.03863418642025479
0.01264238416544037
0.049771291075408876
0.11888368601381573
0.056881154945733044
0.08209403067230811
-0.009176715466475778
-0.039719214145852735
-0.04355410625223354
-0.055965536458234884
-0.10454071542964749
-0.003684648648176552
0.046272549982416096
0.05587220469815945
0.04101848593258809
0.01739868689244635
-0.003433931808134889
-0.015605633221349816
-0.018367902383778733
-0.014293535342964812
-0.007180877698749823
-0.00038792351894463133
0.004064148945113852
0.005632596419272178
0.004878536606797916
0.0028849992955394827
0.0007261325896827244
-0.0008654835983531345
-0.0016024658053606466
-0.001569107332784431
-0.0010587908949930567
-0.0004058139820512792
0.00013383436067114824
0.0004335195159600868
0.0004879367024147533
0.0003702049121561786
0.00018026569820037903
3.869330595619852e-06
-0.00010895132745839384
-0.0001463639882984593
-0.00012439651229204842
-7.170681172416582e-05
-1.6007927351910033e-05
2.4226649375344213e-05
4.2130179068104154e-05
4.0321198291780974e-05
2.6603422041591127e-05
9.628032192725772e-06
-4.115223291788113e-06
-1.1527888639999922e-05
-1.2623488107672044e-05
-9.38039975229603e-06
-4.403332707660795e-06
1.1891412379164829e-07
2.943227302306584e-06
3.812499525036872e-06
3.1736803834432526e-06
1.7798333548286997e-06
3.4288775482800173e-07
-6.732518965424397e-07
-1.1062731828180558e-06
-1.0353058380534843e-06
-6.675747523773236e-07
-2.2673761341721508e-07
1.2289236236309455e-07
3.0578853557552857e-07
3.2615409956103845e-07
2.37329742736e-07
1.0711437268680374e-07
-8.686245944083404e-09
-7.925652738060048e-08
-9.920222091995902e-08
-8.089620238343625e-08
-4.409511876606743e-08
-7.066990617806251e-09
1.855850404756936e-08
2.8978447874035345e-08
2.6528056809071894e-08
1.6698193367400075e-08
5.264223662263133e-09
-3.6193742064185e-09
-8.11918028172953e-09
-8.442081287821959e-09
-6.021402467710672e-09
-2.6195116468939594e-09
3.425818916792826e-10
2.102937732721172e-09
2.55415762534171e-09
2.036389074601306e-09
1.0667964734492766e-09
1.1323898940403415e-10
-5.334554963374393e-10
-7.849712087227726e-10
-7.083612934763935e-10
-4.477363732435349e-10
-1.5079975345787825e-10
7.846415788988502e-11
1.956626989368168e-10
2.0702031993525774e-10
1.4768669630288202e-10
5.920124498372309e-11
-2.5958368805328942e-11
-8.998807643800387e-11
-1.2720129168278092e-10
-1.3755272256685823e-10
-1.2094648292459618e-10
-7.570206806304694e-11
-2.100265260544072e-12
9.083006621805746e-11
1.7934169930022978e-10
2.2473399704775907e-10
1.8264146031611107e-10
2.229918478143028e-11
-2.4879199786709224e-10
-5.6466174103443e-10
-7.982304549161822e-10
-7.879328402161917e-10
-3.97386294343782e-10
4.023598510489006e-10
1.4556841859300831e-09
2.3915396193067074e-09
2.681050278369326e-09
1.8065118684587078e-09
-4.768897329930285e-10
-3.8618840772041244e-09
-7.3199607857810865e-09
-9.189523499761862e-09
-7.627266944277752e-09
-1.4111422829143572e-09
9.096755602579455e-09
2.1209105464249946e-08
2.988805713473387e-08
2.886364438850282e-08
1.3008584087423077e-08
-1.8471644055763227e-08
-5.913235996183726e-08
-9.426387370879204e-08
-1.0334341900713133e-07
-6.677506117245818e-08
2.391509985356748e-08
1.5544725747801657e-07
2.867059032873308e-07
3.528456026590672e-07
2.8347443719433804e-07
3.4125091517047826e-08
-3.7678338828611875e-07
-8.405216462880356e-07
-1.1592149475687656e-06
-1.0916167606206065e-06
-4.468251685885689e-07
7.924155650322833e-07
2.360421424297353e-06
3.6752756267332985e-06
3.9420566591799855e-06
2.4209557307334174e-06
-1.1761426589520498e-06
-6.281495285178665e-06
-1.1254527586025827e-05
-1.3567634479407524e-05
-1.053697068319623e-05
-5.544123154074536e-07
1.5495548393662217e-05
3.322490635687743e-05
4.487108734106656e-05
4.1163785003000644e-05
1.5018406237112464e-05
-3.3703854511607245e-05
-9.409606342335815e-05
-0.00014316941310704194
-0.00015016988215587368
-8.72273149373151e-05
5.5235559040842355e-05
0.0002531651202581841
0.0004412098282468727
0.0005209549608183727
0.0003902306914443121
-8.71828774061493e-06
-0.0006349918455365358
-0.0013119268070495799
-0.001735349103410031
-0.0015494352251181431
-0.0004920164912911324
0.001422017514629118
0.003747556964750787
0.00557949201144416
0.005732747385029846
0.0031653300156745732
-0.0024230241647634895
-0.010010109655500088
-0.016986508075378222
-0.019524665748056606
-0.013776681078915946
0.0021903102195443497
0.02621249200217938
0.050473489168895984
0.06160700736558582
0.04322906782544058
-0.01910882446156218
-0.13171058258917256
-0.08750649108561051
-0.06436053973195938
-0.028584590363400917
0.05658455479586864
0.21994575552486034
0.07254697593657401
0.0028695456056776836
-0.021047433386565735
-0.04319355257809839
-0.10774723481365586
-0.04761004138773101
-0.07669843752630859
0.012026195854296687
0.042688011463164824
0.04846395641037298
0.062194632288996764
0.10861173570984073
0.00036621614072589263
-0.06143997598682276
-0.08322999791852916
-0.07373410543554115
-0.04010893021324505
0.013034364089041621
0.08178501069278031
0.15991517724148824
0.03700819431733841
-0.10058640980536927
-0.06600170962087086
-0.06712615245861633
-0.10343828238999078
0.0338279166066216
0.15816774732987224
0.08269182300351338
0.015986348899595715
-0.039141345217947404
-0.0838785829943788
-0.12013367641660687
0.05206971188905749
0.035098107639583834
0.03214157105911066
0.044819082205362654
0.07150241621643186
-0.09269542477143854
-0.054357740575887194
-0.01960891008413857
0.007418077445114816
0.024828170310981112
0.03216393821312661
0.029418319240413115
0.016748661639078226
-0.004695608818933298
-0.031125710764724854
-0.05457396315659353
-0.06267413333728632
-0.04071319533547323
0.023940956006601646
0.13615531678402243
0.08829976129050338
0.05895201297214186
0.016560596395402444
-0.07237985727089406
-0.23320342094706745
-0.07480188501625988
0.013375754513839658
0.057703555618712696
0.0915982110986392
0.1451354399798185
0.03703689490768287
-0.02826793252031927
-0.05804464707706267
-0.06485913002467114
-0.059361315860406924
-0.045144786473212746
-0.017457745609980712
0.03405343995445462
0.11990576225250418
0.04495435335936744
0.0045335256422454695
-0.016026539658928918
-0.03857244778266807
-0.08730173315196574
0.01627886919389762
0.057205159418252445
0.029173143170753868
-0.0648814499206167
-0.013363876339050021
0.002385620623849799
0.0055095339080307665
0.020321160290353434
0.06886434091897832
-0.03196547324036971
-0.0723464876935224
-0.05060150289744411
0.026247108233174193
0.14245797521565431
0.07480736655410578
-0.003966028911238049
-0.11938991282864848
-0.08858896356220408
-0.1152737052502469
0.01130644648809406
0.11279278937529848
0.21502284469890312
-0.058943731629855785
-0.0935658316069362
-0.08255837015704398
-0.028603853386857836
0.05757148578938205
0.15832570582408834
0.05118320973850382
-0.08719015188554206
-0.07527752073591276
-0.12097265258288842
-0.018235539918482237
0.05218899571748759
0.1180778384822446
0.008784588694882155
-0.05166742390071334
-0.04977958470991848
0.014584076814177706
0.12781546717678055
0.06482586956989167
-0.005829222790744402
-0.1144661863088527
-0.0822287864190819
-0.11519464285217094
-0.0030001509091898337
0.07729632454072191
0.15356037789865729
0.050146805229338044
-0.018197124643568194
-0.04834490540722225
-0.04694465767580593
-0.026348958475742118
-0.00023134025104490979
0.019826176197452618
0.026390189541573718
0.017133345252597063
-0.00489946919841129
-0.03156858798070237
-0.05071217418408128
-0.048463180021012055
-0.013002142334955625
0.060809736034937154
0.16743122620525702
0.08937763458361939
0.0003597891143580717
-0.12718368252317003
-0.11243184732402127
-0.15823905418780584
-0.04856589233816698
0.04704878906827069
0.16326137086841036
0.1268143041079112
0.14741717191105183
0.015372257159323575
-0.09310659179476272
-0.20522818499200451
-0.1402920858829146
-0.1026260247403949
0.11831850163613354
0.14123795265535208
0.18321844937638346
0.0517200822551712
-0.05819899149220598
-0.16082751097157608
-0.07318030927327702
-0.00835930588107276
0.028288232766449303
0.039327709232515766
0.03262509415449186
0.017702704412996977
0.0026296381985762745
-0.0076935390253260825
-0.011757736765447557
-0.010601085360538295
-0.0065189927284073105
-0.0018749161418432055
0.001664796211893008
0.0033943603883860186
0.003434778297323101
0.002391365044816275
0.0009862991983414617
-0.00021003391015463413
-0.0009014800301378937
-0.001057929748035182
-0.000827091697110372
-0.0004231711104405816
-3.567188416758193e-05
0.00022061739025287753
0.00031397619208381624
0.00027513626987675933
0.00016476340650553765
4.3547545596491795e-05
-4.673013361132949e-05
-8.928080680410329e-05
-8.836424066631791e-05
-6.023003918659933e-05
-2.3647143568727825e-05
6.874081305804149e-06
2.404254734065763e-05
2.7408632233742565e-05
2.0991778283215618e-05
1.0385813513223472e-05
4.3644257515121283e-07
-5.995010829174423e-06
-8.195051547425984e-06
-7.031685024152027e-06
-4.102927521139898e-06
-9.703995423726846e-07
1.314260257565765e-06
2.3500261119278195e-06
2.272590266286044e-06
1.514934988436856e-06
5.631346238009104e-07
-2.1471337315328904e-07
-6.399422248335568e-07
-7.094581234480657e-07
-5.322238173492651e-07
-2.5412723601783607e-07
1.0712532947055168e-09
1.6220387173921044e-07
2.1357212945204173e-07
1.7947029408332878e-07
1.0192203260231011e-07
2.106504462861723e-08
-3.667224796347581e-08
-6.17768666175511e-08
-5.8405275858920344e-08
-3.806703290714214e-08
-1.3335306820905816e-08
6.464379769264432e-09
1.696934933200292e-08
1.8317496828568245e-08
1.345139511544949e-08
6.1706652141174695e-09
-3.676109967768955e-10
-4.397368990965895e-09
-5.583384455473884e-09
-4.6002835728133e-09
-2.551260239660404e-09
-4.666418682022768e-10
9.906423611617092e-10
1.5968167232551684e-09
1.4756708085114327e-09
9.321883808672851e-10
2.907742904698317e-10
-2.1310383759557522e-10
-4.736203731426683e-10
-4.997521808436267e-10
-3.699346028676599e-10
-1.8165322901168014e-10
-1.3733196134728374e-11
9.135001462684033e-11
1.2678889726829775e-10
1.0932190055064774e-10
6.38870601279728e-11
1.1556008787598924e-11
-3.5947225628862145e-11
-7.513879316114704e-11
-1.0553564989626621e-10
-1.2391856850755288e-10
-1.2156504245965413e-10
-8.658345848937479e-11
-1.1308351268913167e-11
9.778993749507559e-11
2.1236452431335024e-10
2.8219293592464744e-10
2.472753440201982e-10
6.259214394385103e-11
-2.6990221632782543e-10
-6.740543651771429e-10
-9.934592452557442e-10
-1.0218622516611955e-09
-5.76069475670707e-10
4.000626373391296e-10
1.7339133870841611e-09
2.97619304151399e-09
3.4617088080143433e-09
2.5119038925236335e-09
-2.384045797140147e-10
-4.47906972050727e-09
-8.985409741483476e-09
-1.1690898447368661e-08
-1.0216957708113943e-08
-2.864063308975166e-09
1.0156525260727516e-08
2.5717775786909523e-08
3.7625524937991636e-08
3.7890816410484136e-08
1.9625258129027303e-08
-1.892544086903846e-08
-7.053692430583842e-08
-1.1735499485141679e-07
-1.335246015530145e-07
-9.328774405385656e-08
1.6266175610889794e-08
1.813807389095278e-07
3.52933563251388e-07
4.5011721682807415e-07
3.818716287682775e-07
8.580922481669689e-08
-4.2439691747296065e-07
-1.0216034534969572e-06
-1.4619936995855512e-06
-1.4375141752134884e-06
-6.904040197081178e-07
8.305842992238953e-07
2.8250625172589847e-06
4.5849431404996505e-06
5.106756767517342e-06
3.4147315258267245e-06
-9.422520238712983e-07
-7.363816353773729e-06
-1.388364264223126e-05
-1.7345674266807716e-05
-1.4268918944129082e-05
-2.374342982607064e-06
1.7594325354508866e-05
4.048261507417154e-05
5.670540060051202e-05
5.4398941389712314e-05
2.3944975700608215e-05
-3.598587613563105e-05
-0.0001129678491544837
-0.00017895978593292732
-0.00019506072810587214
-0.0001243777749157125
4.862664092434304e-05
0.0002980818078319685
0.0005454228562881192
0.0006675223522022152
0.000531502348397365
5.455716233179154e-05
-0.0007261770481138478
-0.0016023049005675812
-0.0021974588113891154
-0.002055251261704496
-0.0008176638250342684
0.0015415962396239592
0.004511950817217747
0.00698661724489405
0.007463131327807807
0.004555914669538417
-0.002250535581223868
-0.011839749631694207
-0.02106470297406241
-0.025124190375447403
-0.01898842255520265
0.00019914137417381068
0.03032148465072034
0.06216841597397143
0.07932353705451162
0.061110246661513094
-0.011289906785380478
-0.14689835958312486
-0.13798027366047202
-0.15744844311258163
0.03697139634441179
0.09193179415178925
0.24416473669574773
0.1078566895882771
0.06865810698098451
-0.11319348181385372
-0.09174064652068906
-0.12021852512063357
-0.03712957410918553
-0.05761972495212194
0.027933039679767138
0.04862726932276613
0.04338557360231248
0.05015280371057717
0.097023469817205
-0.002560305548964247
-0.049827466449299244
-0.056737656438841606
-0.0400489269888667
-0.015651210785012533
0.005184053363481684
0.0170597879375098
0.019614498905064278
0.01553377982941153
0.008419316187115895
0.001240483490594112
-0.004331151805657567
-0.007795805654147353
-0.009251066150496496
-0.008789709848833371
-0.0062125636431247765
-0.0012146684518811923
0.006027676313761621
0.014153158435250038
0.020205700780131862
0.019910224816534358
0.008823349655557968
-0.0158216863188058
-0.05319660801149771
-0.09781701214656083
0.059815126439866265
0.0306512390257149
0.023362842368122326
0.04089314501011338
0.07876669423619498
-0.07403124420877014
-0.03179543122831387
-0.007581315503627512
-0.008999716448746573
-0.03571215211432576
-0.07941006196163178
0.07365667505014636
0.03828859715362875
0.02546488594924555
0.03867901814311838
0.07281350935035408
-0.08402072027432833
-0.04634855199652613
-0.02644158397177271
-0.030481135100236652
-0.05706744742347051
0.10165751656103617
0.05707614886136518
0.020821369157622678
0.0025641525038201567
0.009441534062059137
-0.15341131119004076
-0.0825204901718204
0.022867597186738253
0.1581897302882122
0.110849080507079
0.05971535086856756
-0.02146455700387071
-0.15708608106828387
-0.16168488176355497
-0.034453640861319905
0.04109157859178754
0.09203489038750919
0.14780076418215368
0.03216534669583681
-0.041584172963115736
-0.07134126520858022
-0.0637363317947961
-0.03063104580207511
0.013649653591013167
0.053717469212187424
0.07377001798802045
0.058739741893655086
-0.0031033893493365846
-0.11622453136975433
-0.07399855285024168
-0.057127226261615364
-0.03600584503770061
0.02274829603214371
0.14727012128177766
0.15200596360895166
0.03319809024851577
-0.02960825345056763
-0.06632102125646455
-0.10603792780158633
-0.16779418540898397
-0.05599968132689272
0.037626269342612324
0.1265579607153717
0.2198978313997376
0.11539403346812978
-0.0013075911790190247
-0.15042443624796203
-0.14753561283140365
-0.19384344148977492
-0.07214888634681406
0.04895586355217396
0.20389184859211437
0.21643326623461803
0.08948404376883276
0.0028474893006544587
-0.07991596882123646
-0.1983512311532111
-0.18105431918462
-0.036243156506931336
0.04966791925457777
0.10558931283903969
0.1646446506510504
0.05315889227389379
-0.016222615939163784
-0.04549438928673236
-0.047083413265080164
-0.03692444419865271
-0.02766047063016032
-0.024177519142816416
-0.022594018976368573
-0.012708001794773008
0.01706027243246783
0.07395145175477129
0.15653672453110262
0.053780383541861466
-0.051558109881626145
-0.1761309850342509
-0.128689692834302
-0.10584173577526969
0.10675350617149176
0.12806008756905027
0.17318904246196457
0.04685405691918967
-0.05825236586611641
-0.15780246283684074
-0.06914163409742508
-0.0049340376053531925
0.030259417814256045
0.03976504574625081
0.03195581640097173
0.016541966092407212
0.0015198386558181636
-0.008425100438742391
-0.012021899392119348
-0.010487166133291852
-0.006201389220091911
-0.0015274818473853388
0.0019227607800620114
0.0035152711619418084
0.0034312654729171674
0.0023102194767717493
0.0008813354945968066
-0.00029733792087195573
-0.000950386416915399
-0.0010672901701710984
-0.0008085110010933038
-0.000392704894219923
-7.18536335163081e-06
0.0002389684689444691
0.0003201918555126542
0.0002717351856438953
0.00015633797806175237
3.457028220250297e-05
-5.325722592778238e-05
-9.222226793247282e-05
-8.811971170632979e-05
-5.804586107228744e-05
-2.0916756347195714e-05
9.098672218214139e-06
2.525341743081707e-05
2.7600501825138776e-05
2.0479056921718724e-05
9.587149645732651e-06
-2.9410455922834276e-07
-6.454654739492519e-06
-8.339955849936886e-06
-6.932256530399475e-06
-3.879904514717638e-06
-7.387177228153852e-07
1.4791765768098337e-06
2.4212722179500765e-06
2.2623512515041197e-06
1.456329960735963e-06
4.922010771084199e-07
-2.713287732153702e-07
-6.698438599669548e-07
-7.131328339413783e-07
-5.181578658287418e-07
-2.3322219851814376e-07
1.978492542043879e-08
1.736955833411874e-07
2.1691081633374728e-07
1.7660915409488674e-07
9.603019279366061e-08
1.5092785680604108e-08
-4.083308772811573e-08
-6.349408776973851e-08
-5.804083744972088e-08
-3.649907204890579e-08
-1.1494747832379911e-08
7.903489217397458e-09
1.7705675148976104e-08
1.8379497102413094e-08
1.306733427671351e-08
5.624073764117776e-09
-8.466175221089702e-10
-4.6842008768980245e-09
-5.659058878545456e-09
-4.518574046556331e-09
-2.395261839138532e-09
-3.121792224340191e-10
1.0958905804374496e-09
1.637781714207752e-09
1.4626326034798096e-09
8.884002488661288e-10
2.407126561427745e-10
-2.514874971666813e-10
-4.918242247379806e-10
-4.978541052431285e-10
-3.537486844991546e-10
-1.5958255947248592e-10
5.712992915637631e-12
1.0119766855123973e-10
1.2273575074837666e-10
9.076883439595467e-11
3.491532511367875e-11
-1.8635617390580855e-11
-5.40310945358224e-11
-6.690169696921995e-11
-6.15065571037534e-11
-4.623631494689504e-11
-2.947936127595833e-11
-1.700695070179558e-11
-1.1134750697872747e-11
-1.1269860855298514e-11
-1.5163898418945384e-11
-2.0222095498965785e-11
-2.443962733022449e-11
-2.6810104256454622e-11
-2.727270306589369e-11
-2.638386333749757e-11
-2.491707879013861e-11
-2.35419867582276e-11
-2.2653700708582252e-11
-2.2350425807573717e-11
-2.251187896039054e-11
-2.2917038393170968e-11
-2.3350061256532976e-11
-2.3665686882176166e-11
-2.3808610646343636e-11
-2.3797691988642584e-11
-2.3692835977024803e-11
-2.3561238921270402e-11
-2.3453757069085926e-11
-2.3395049409171397e-11
-2.3385509610106598e-11
-2.3410054975262022e-11
-2.344851347870482e-11
-2.3483783027712252e-11
-2.3506036861650548e-11
-2.3513115837922293e-11
-2.3508385688732908e-11
-2.3497658428237825e-11
-2.3486481594662225e-11
-2.347850551893481e-11
-2.3475041829566136e-11
-2.3475513368286597e-11
-2.347832784074567e-11
-2.3481747154376746e-11
-2.3484482945769857e-11
-2.3485933156985512e-11
-2.3486117719114137e-11
-2.3485443904814632e-11
-2.348443707483806e-11
-2.3483533488045954e-11
-2.3482976988500366e-11
-2.3482813635192456e-11
-2.3482949978464788e-11
-2.3483233436099275e-11
-2.348352158941818e-11
-2.348372286036578e-11
-2.3483806396080527e-11
-2.3483789387591666e-11
-2.3483714064562976e-11
-2.348362533129344e-11
-2.34835557821282e-11
-2.3483520058683587e-11
-2.3483516877560665e-11
-2.348353527918189e-11
-2.3483561598950395e-11
-2.348358472166651e-11
-2.3483598611234226e-11
-2.348360232751129e-11
-2.348359844792327e-11
-2.348359097189068e-11
-2.3483583551464664e-11
-2.3483578480100116e-11
-2.3483576476457967e-11
-2.348357703866923e-11
-2.348357904908375e-11
-2.3483581348934417e-11
-2.3483583114770793e-11
-2.3483583992083045e-11
-2.3483584033623403e-11
-2.348358353338513e-11
-2.3483582846329475e-11
-2.3483582255308594e-11
-2.348358190934794e-11
-2.348358182632571e-11
-2.348358193556325e-11
-2.3483582132387975e-11
-2.3483582323257565e-11
-2.3483582450841134e-11
-2.348358249859739e-11
-2.348358248095219e-11
-2.3483582427427182e-11
-2.3483582367890076e-11
-2.3483582323114065e-11
-2.3483582301640266e-11
-2.3483582301606756e-11
-2.34835823151498e-11
-2.348358233306019e-11
-2.3483582348149052e-11
-2.348358235674754e-11
-2.3483582358558086e-11
-2.3483582355509066e-11
-2.348358235033597e-11
-2.348358234543199e-11
-2.348358234222748e-11
-2.3483582341097534e-11
-2.348358234163259e-11
-2.3483582343054317e-11
-2.3483582344593742e-11
-2.348358234572761e-11
-2.3483582346251296e-11
-2.3483582346225595e-11
-2.3483582345860295e-11
-2.3483582345394023e-11
-2.3483582345009262e-11
-2.348358234479605e-11
-2.348358234475787e-11
-2.3483582344842346e-11
-2.3483582344978087e-11
-2.348358234510394e-11
-2.3483582345184294e-11
-2.34835823452108e-11
-2.3483582345194967e-11
-2.3483582345157285e-11
-2.348358234511753e-11
-2.3483582345088855e-11
-2.3483582345076137e-11
-2.3483582345077478e-11
-2.3483582345087298e-11
-2.348358234509942e-11
-2.348358234510922e-11
-2.3483582345114495e-11
-2.348358234511526e-11
-2.3483582345112934e-11
-2.348358234510938e-11
-2.3483582345106152e-11
-2.3483582345104142e-11
-2.3483582345103525e-11
-2.3483582345103987e-11
-2.3483582345104982e-11
-2.3483582345106006e-11
-2.3483582345106733e-11
-2.348358234510704e-11
-2.348358234510699e-11
-2.3483582345106724e-11
-2.348358234510641e-11
-2.348358234510616e-11
-2.348358234510603e-11
-2.3483582345106016e-11
-2.348358234510608e-11
-2.348358234510617e-11
-2.3483582345106255e-11
-2.3483582345106307e-11
-2.348358234510632e-11
-2.3483582345106307e-11
-2.348358234510628e-11
-2.3483582345106255e-11
-2.3483582345106236e-11
-2.348358234510623e-11
-2.348358234510623e-11
-2.3483582345106236e-11
-2.3483582345106245e-11
-2.3483582345106252e-11
