0
1.3494500945945918e-17
1.3494499502691473e-17
1.3494498383519074e-17
1.3494498328084813e-17
1.3494499981134299e-17
1.3494503519671146e-17
1.3494508294234347e-17
1.3494512669258995e-17
1.3494514256747588e-17
1.3494510656384102e-17
1.3494500631304011e-17
1.3494485392947266e-17
1.3494469425110128e-17
1.3494460173624587e-17
1.349446609617221e-17
1.349449308149132e-17
1.3494540056203727e-17
1.3494595472767106e-17
1.3494636920787592e-17
1.349463586614001e-17
1.3494568158708247e-17
1.3494428478623206e-17
1.3494243887651546e-17
1.3494079287962377e-17
1.3494027400882213e-17
1.3494179219214156e-17
1.3494578161015596e-17
1.3495171058520713e-17
1.349577829879188e-17
1.3496108947595388e-17
1.3495839512833929e-17
1.3494754469832976e-17
1.349291514351918e-17
1.3490790178453468e-17
1.3489261003077462e-17
1.3489427038058483e-17
1.3492190410925898e-17
1.3497696855912499e-17
1.3504824859319542e-17
1.3511002812200958e-17
1.3512634666515248e-17
1.3506277517805922e-17
1.3490427221381989e-17
1.3467384978858761e-17
1.3444332004447817e-17
1.3432623000543151e-17
1.3444612772589784e-17
1.3488148043610412e-17
1.3560083813426775e-17
1.36414533359929e-17
1.3697631850413523e-17
1.3686311905398336e-17
1.3573893980929115e-17
1.3357099305427178e-17
1.308218479712238e-17
1.2850898850234779e-17
1.280254681991384e-17
1.3067137994837488e-17
1.3695918893728908e-17
1.4590401681616643e-17
1.546399033380872e-17
1.5874036625772466e-17
1.5349407819048348e-17
1.3606136280518871e-17
1.0796000404422677e-17
7.684645916962876e-18
5.630569149355232e-18
6.259733824682612e-18
1.0819512472501086e-17
1.9344212147612777e-17
2.99340664794199e-17
3.8568879460112615e-17
3.9858489195091775e-17
2.890396856322657e-17
3.997034860086568e-18
-3.068612802466549e-17
-6.372744335052611e-17
-7.789056153117769e-17
-5.5238145621293796e-17
1.4435152574156137e-17
1.2408542252141434e-16
2.4287885974391704e-16
3.1757884227165153e-16
2.8577863143284823e-16
1.0133394518969045e-16
-2.334570536316306e-16
-6.408688379508446e-16
-9.622727114713809e-16
-9.893532526427481e-16
-5.3793028603288e-16
4.472648810029996e-16
1.7905278057093034e-15
3.0377073373008516e-15
3.518400591193381e-15
2.5508206619956207e-15
-2.2881383732303756e-16
-4.502420330439651e-15
-9.03103426670533e-15
-1.1730885291332625e-14
-1.0209966284240261e-14
-2.767948470203824e-15
1.036439361044426e-14
2.6018039838205406e-14
3.794202734732188e-14
3.809518536931068e-14
1.9569880531617578e-14
-1.9345833612980848e-14
-7.130880003062208e-14
-1.1828373887726215e-13
-1.342253269863316e-13
-9.326453669466046e-14
1.7440302221413723e-14
1.8381340826923476e-13
3.5617463001814574e-13
4.530568623106039e-13
3.8290440697650604e-13
8.333757959123614e-14
-4.3117076737224144e-13
-1.0318201390575934e-12
-1.472598353456598e-12
-1.4434875916695593e-12
-6.860960487240027e-13
8.490364745238809e-13
2.8567932920051587e-12
4.622040555712791e-12
5.134071753278574e-12
3.4131430065534416e-12
-9.887193794995173e-13
-7.458293310575496e-12
-1.4007417147741384e-11
-1.7454734951016317e-11
-1.430096048206431e-11
-2.2688534851579116e-12
1.786520089489001e-11
4.0881390220250506e-11
5.710979180011896e-11
5.461290724752681e-11
2.3752510919443046e-11
-3.6725885328536786e-11
-1.1420861611975772e-10
-1.8038060364684665e-10
-1.9606596447650246e-10
-1.2423066015971975e-10
5.0523251489163666e-11
3.018109652445101e-10
5.502158460860095e-10
6.716460958086952e-10
5.325586333919521e-10
5.028577400860099e-11
-7.366949524168398e-10
-1.617406800993313e-09
-2.212223156925609e-09
-2.062064930145804e-09
-8.085265295413661e-10
1.5710612238201124e-09
4.557587486904511e-09
7.031522887488509e-09
7.476142749096386e-09
4.494452555621232e-09
-2.4328522564092003e-09
-1.2182024966349284e-08
-2.1586392814220553e-08
-2.581117422282769e-08
-1.976792638351418e-08
-4.749910007452103e-10
3.0250246405731384e-08
6.390148387045223e-08
8.55931112507591e-08
7.769336560857506e-08
2.6919637396830286e-08
-6.659123083238921e-08
-1.8156131703003018e-07
-2.737868347716394e-07
-2.846156932566884e-07
-1.6146608710885318e-07
1.1273683708995776e-07
4.905368422608085e-07
8.458780657832532e-07
9.906060176307738e-07
7.311496196191211e-07
-3.922734829820651e-08
-1.237423024796041e-06
-2.5212636931336608e-06
-3.3077599738945175e-06
-2.9206378843413287e-06
-8.694738736483545e-07
2.800742039273563e-06
7.221007541704166e-06
1.0648286134665124e-05
1.0817191177471545e-05
5.753222067069001e-06
-5.085326062585312e-06
-1.970876095552043e-05
-3.3107248600728775e-05
-3.796676732153165e-05
-2.6936169401243044e-05
3.7715890657260593e-06
5.0444410475639766e-05
9.934771715369007e-05
0.00012767575293434684
0.00010952549146977966
2.686436660369822e-05
-0.00011701472681666965
-0.0002867383886736975
-0.00041366513109130704
-0.00041040391814892315
-0.00020300038408103965
0.00022481600713042008
0.0007901286809004261
0.0012941203682662926
0.0014527748138863246
0.0009873864902833298
-0.00023500624018219423
-0.002051480640437375
-0.0039117067614090634
-0.004924104480867492
-0.004096725506213343
-0.0007669641851938383
0.004882401475506629
0.011425510084484756
0.0161792714710223
0.015802678824580193
0.007569586214067007
-0.008924940856943217
-0.03022411657159768
-0.04851420048941135
-0.0530759417940453
-0.034195622138362324
0.010786997804087942
0.07073886657304267
0.1157747710541666
0.0969704940458428
0.15300957680949068
0.024215053636214234
-0.12829318994601105
-0.30345939081116974
-0.24818442744568403
-0.25877243179746523
0.0010814791381236126
0.26865043263510846
0.6458916201748786
0.37105513304705234
0.009208391244066111
-0.3342119395035414
-0.38214350125558616
-0.44934937823379756
-0.014061501849293986
0.29377411042699164
0.28725490645941854
0.006349570999897428
-0.10126468918818372
-0.1967838726345722
-0.062193716447251614
0.29297194687484884
0.4313115665157946
0.09600017703850844
-0.17106964762135846
-0.4049621556554228
-0.3956854444054776
-0.27873004604564955
0.05510174217011856
0.3313753554404698
0.45407745891115137
0.2716307159719459
0.15954254812505703
0.026243322492791266
-0.2598882366199917
-0.43189745578904903
-0.3876027546486892
-0.16755923555630817
0.0454349370490034
0.30683709226464406
0.4802873671455944
0.4103876995158733
0.11010902803894464
-0.23220853749079273
-0.43050581257697584
-0.47502097905713236
-0.3165577806882613
-0.07061003626781989
0.35799272046016845
0.63903906471675
0.5849195671177968
0.13768488456755168
-0.2173628555474504
-0.6157698504667076
-0.5701326042843634
-0.33638687123514
0.09663895137194316
0.3919470843803297
0.6322352364989827
0.2863006213790582
-0.01170632461077957
-0.2634850464135002
-0.29135960999828897
-0.3167184346065358
-0.14352390146748856
0.04566853744091241
0.28040860333912293
0.1852050670920859
0.16320423214296534
0.18860673035348488
0.011785478495614054
-0.22424563910291703
-0.3621584812681668
-0.21219855470342422
-0.14555237650983158
0.0973042457795008
0.3860738631201344
0.37607096819041363
0.08958981397625089
-0.08960470257943211
-0.20755917635603516
-0.3222716093847884
-0.08491446798232975
0.07272605553248143
0.1416038210716372
0.13117174814442
0.061801917426762346
-0.042078226302507155
-0.1562406698250903
-0.058784976603771834
0.06825979319332674
0.03680788357755023
0.050429965630481965
0.10327308099654309
-0.018584922160636664
-0.13322376084322687
-0.05765760237385292
-0.0033331941899660063
0.025968162001146794
0.03339879244148696
0.026337294760694775
0.01313443809651238
0.0005366769410548064
-0.0076024896975727405
-0.01033869388581612
-0.008800706298017897
-0.005048415308930219
-0.0010768654509497899
0.0017857865752709937
0.0030479815933058475
0.0029001793451416975
0.0019042084119798432
0.0006810461584476832
-0.0003049788905581877
-0.0008337157641951942
-0.0009083165106389146
-0.0006723239361777233
-0.0003133908147083133
1.1417422582064772e-05
0.00021335953537849397
0.0002745956777832742
0.0002277111096469428
0.0001270367492795564
2.372172078188655e-05
-4.904720892320248e-05
-7.979691396061903e-05
-7.437075567048717e-05
-4.774669700857238e-05
-1.6011956158956817e-05
9.060807331164521e-06
2.209994673539407e-05
2.3459003664406134e-05
1.7003825871829606e-05
7.617163697403862e-06
-6.973647887387691e-07
-5.7408327676661526e-06
-7.141893090892172e-06
-5.801374846158462e-06
-3.1441611490711003e-06
-4.824098033761694e-07
1.3522111132579238e-06
2.0913931966129286e-06
1.9069529215433449e-06
1.1956141113990161e-06
3.72699643824149e-07
-2.642074666077596e-07
-5.848167149226975e-07
-6.053179402308262e-07
-4.2953637504025704e-07
-1.8437222401812388e-07
2.824458049188853e-08
1.5396810421736716e-07
1.8550709503889138e-07
1.4761722096334152e-07
7.7612034417843e-08
9.115636463940658e-09
-3.706717832816258e-08
-5.473035050322209e-08
-4.8840213377314285e-08
-2.988367789814166e-08
-8.570653837034557e-09
7.587470520227699e-09
1.544537688341797e-08
1.5601118835573677e-08
1.0834838285057277e-08
4.440450315989658e-09
-9.901720321777358e-10
-4.117576704832361e-09
-4.812442111368659e-09
-3.751468902000105e-09
-1.9103468413588837e-09
-1.4970289131093867e-10
1.01100599915057e-09
1.4301742342714296e-09
1.2494336435197439e-09
7.454669663362056e-10
1.9413219652073905e-10
-2.1525403937283868e-10
-4.0716692043977014e-10
-4.016326698668777e-10
-2.7289167860384415e-10
-1.0633770782249752e-10
3.2206251533230116e-11
1.0982567140562337e-10
1.2469206854498034e-10
9.521647272582489e-11
4.6875212296669e-11
1.6709392807247053e-12
-2.7452607268360893e-11
-3.7319797244037615e-11
-3.192590084222719e-11
-1.855766633647205e-11
-4.312295471296222e-12
6.046026465239065e-12
1.0714889460496611e-11
1.032794002862687e-11
6.862616176391726e-12
2.530007948581145e-12
-1.0004171952865085e-12
-2.922454855411647e-12
-3.2274805946974292e-12
-2.4141852052704155e-12
-1.146737739217568e-12
1.3071460937214693e-14
7.433423357108881e-13
9.742289341298406e-13
8.170283476177107e-13
4.628702647246597e-13
9.382625421878417e-14
-1.703562012741375e-13
-2.8636902294689366e-13
-2.7236135127072555e-13
-1.7937672773429637e-13
-6.331477015979626e-14
3.3842746497941785e-14
9.10273965764916e-14
1.0561501466818553e-13
8.619006762516694e-14
4.522643788962697e-14
-5.305458510942619e-15
-5.4723846271581934e-14
-9.218818049682124e-14
-1.0551676102290425e-13
-8.263462408575014e-14
-1.6667323025189155e-14
8.647664154133772e-14
2.0146313381117758e-13
2.8266639338771623e-13
2.7348513480075093e-13
1.2734196594948133e-13
-1.6335637927478777e-13
-5.402695186077213e-13
-8.689576699523892e-13
-9.604778078304702e-13
-6.326279663682312e-13
1.9634922891861992e-13
1.409027430371125e-12
2.630859545889677e-12
3.2653563638164834e-12
2.6591314680824657e-12
3.908571244050072e-13
-3.386370723511687e-12
-7.687011533686546e-12
-1.0695542756402722e-11
-1.017940064159017e-11
-4.3471528307845275e-12
7.012598645367234e-12
2.1509920205953488e-11
3.3821439931483386e-11
3.661113266561581e-11
2.2977436635420537e-11
-9.89335319459492e-12
-5.696771661481018e-11
-1.0329074206411469e-10
-1.2559749598037895e-10
-9.895501503139575e-11
-8.081554282719761e-12
1.3952041947875517e-10
3.0403691777505765e-10
4.1420888915961906e-10
3.841983056648407e-10
1.4742863803565206e-10
-2.9942503013760574e-10
-8.580842252243657e-10
-1.318126773083792e-09
-1.3955950524158022e-09
-8.302533015481531e-10
4.723944897778283e-10
2.298334712545691e-09
4.051445451817628e-09
4.825488870833449e-09
3.6707210595473706e-09
3.669109922216679e-11
-5.724724531257452e-09
-1.200899439312687e-08
-1.6022595047247608e-08
-1.4469583183715655e-08
-4.884277286388047e-09
1.2671699302698742e-08
3.4172861431021433e-08
5.1312947303992366e-08
5.3113702245887814e-08
2.9784257856271896e-08
-2.1764551433702256e-08
-9.250791447680507e-08
-1.5872330944742262e-07
-1.8515039385606948e-07
-1.3567104377185514e-07
9.38885060918551e-09
2.3401900477839084e-07
4.737025751510146e-07
6.19056540418836e-07
5.436959538030178e-07
1.5665033351441635e-07
-5.322487518454915e-07
-1.3587042288986138e-06
-1.9952655859907966e-06
-2.018003219476868e-06
-1.0594293100139153e-06
9.776368516879294e-07
3.715281839863058e-06
6.210981552900222e-06
7.094377171429927e-06
4.994285152491194e-06
-7.860362187755707e-07
-9.534051638342701e-06
-1.8661109783647647e-05
-2.3889220911896274e-05
-2.0378783883045396e-05
-4.7876566794873014e-06
2.2212591031362083e-05
5.39379241931715e-05
7.749595931904413e-05
7.653588756588296e-05
3.729876056372593e-05
-4.309802074048403e-05
-0.00014892808821355755
-0.00024280656654626106
-0.00027154463916115144
-0.00018319067964889035
4.664889926366157e-05
0.00038679847895600386
0.0007336443362139771
0.0009202071883715245
0.0007617766463770806
0.0001368987673646943
-0.0009155824468257182
-0.002121805357219978
-0.0029701263637547082
-0.002823360178144182
-0.0011576787631250832
0.002115019630380207
0.006348778967484751
0.01004342520416647
0.01105082207504288
0.00716751273790924
-0.0030040578240011916
-0.019277327585739634
-0.03974331897689834
-0.061874742134835
-0.08520351291718321
0.08481450476946924
0.23322891647794808
0.13473262666869096
-0.04227845699205658
-0.12643146540660008
-0.1314995421903295
-0.24663445998970374
-0.03329000270833109
0.16905007163567248
0.22986784674477212
0.01179737440772581
-0.0429207998868624
-0.12045530876592743
-0.037214525029625106
0.1636715390899204
0.2204866473842783
0.06546761079829487
-0.1591462721541242
-0.2847195043434105
-0.3050307405820993
-0.17603354632469415
0.1708849776069496
0.40523014535030843
0.3716682191178091
0.07241196748372851
-0.13516693881384573
-0.12503817892548247
-0.17878478705151052
-0.16050586628034022
-0.09859058445569586
0.02064943423796669
0.046711906143586085
0.04898368159143017
0.09652235629929921
0.23953029517066848
0.09755980929827196
-0.1428004232097818
-0.12120712972314837
-0.09128575782428865
-0.10765447428142103
-0.016210377105897553
0.15082542748854016
0.17624771592691824
0.05826416169334531
0.012245515772695226
-0.12601880080736516
-0.2981002136944737
-0.22583655776232847
-0.022586560327515322
0.18741641985441995
0.44661541371090274
0.34706441399912247
0.02694784609716666
-0.21580296568908014
-0.2963884715263741
-0.3119366713902234
-0.11716684251559233
0.08539540404204526
0.13902822321061964
0.11444604887735653
0.0868805165397321
0.11604866676397903
0.03418072368250265
0.04412805407079118
-0.07349454150635155
-0.14763831840730415
-0.20354504090030168
-0.053681546014996695
0.10416298790561354
0.08174672143466859
0.09126455857124986
0.13665728420072698
0.009048894698429677
-0.11211283168237234
-0.053147567858398345
-0.03822035301725804
-0.08258901942590115
0.010715218896157407
0.050110102264762424
0.05147081899238437
0.03278303822831691
0.009418535734374824
-0.008647341039851906
-0.017353809257140713
-0.01731969502566332
-0.011767620969053181
-0.004488085228497869
0.001580827046682305
0.004965620387202957
0.005579669239418671
0.004238929522835197
0.0020737621361775495
5.920124572068738e-05
-0.0012332466995656514
-0.001666348369527857
-0.0014208585517040849
-0.0008225877284769247
-0.00018763693396125326
0.0002725594683489927
0.0004787078304068798
0.000459846866666324
0.0003045071141735975
0.00011125777937643196
-4.5714626901962535e-05
-0.0001307833688336022
-0.0001438284339869763
-0.00010723320661324087
-5.063985915283664e-05
9.598403536804125e-07
3.330974716235753e-05
4.3392015922188746e-05
3.6240758632507656e-05
2.0415110460251633e-05
4.0356687436296665e-06
-7.586659007164247e-06
-1.257484211168885e-05
-1.1809903721394922e-05
-7.64326988345551e-06
-2.6235136656249653e-06
1.3707588331392693e-06
3.4706525425102146e-06
3.7170992098565044e-06
2.7139497329107133e-06
1.2329397642259917e-06
-8.861459560367444e-08
-8.971810334304225e-07
-1.1290285873386643e-06
-9.236677817669511e-07
-5.057049933935528e-07
-8.355208057142913e-08
2.0961410174534885e-07
3.297487249701634e-07
3.029385459648825e-07
1.9151078393118772e-07
6.128819677922966e-08
-4.021989995396213e-08
-9.190642567175696e-08
-9.595174109368884e-08
-6.859118267739187e-08
-2.9890625594688805e-08
3.9173733306036704e-09
2.4087469407484238e-08
2.9338787786452658e-08
2.3512922518678533e-08
1.2494745988183085e-08
1.626939582972314e-09
-5.7568641435010905e-09
-8.633746950182398e-09
-7.761841031625908e-09
-4.789813439019198e-09
-1.4157109735947371e-09
1.1606691385783379e-09
2.428918710600326e-09
2.4739909617255114e-09
1.7310568003159317e-09
7.211861265261332e-10
-1.4268234538994328e-10
-6.447934613017481e-10
-7.614356839424017e-10
-5.978047810538952e-10
-3.078584645792985e-10
-2.8400100904169598e-11
1.5727992274230632e-10
2.2572301212068304e-10
1.9864345410599034e-10
1.1956710447291176e-10
3.224837903469978e-11
-3.305742414744461e-11
-6.407079175751828e-11
-6.371525050587149e-11
-4.3622250519621904e-11
-1.7306101724597904e-11
4.741632109631671e-12
1.721353164444155e-11
1.9737374788781965e-11
1.5179698482610644e-11
7.562469211058277e-12
3.8458737748200034e-13
-4.277056722694534e-12
-5.892960831955382e-12
-5.0778273526886315e-12
-2.9786615208998776e-12
-7.216118329623268e-13
9.315318225152995e-13
1.6870688418419271e-12
1.6390601533677491e-12
1.0975877553044476e-12
4.127269165087656e-13
-1.4930440896173463e-13
-4.583617679693168e-13
-5.109820671744631e-13
-3.8493803953576656e-13
-1.8515135676691685e-13
-1.0037854257518828e-15
1.1582792954904074e-13
1.536389535967129e-13
1.296655535048273e-13
7.407974830575079e-14
1.582741467325069e-14
-2.595039378652281e-14
-4.4287054702873224e-14
-4.209081966282997e-14
-2.760680375291283e-14
-9.877716696369459e-15
4.378858734001392e-15
1.201925528677605e-14
1.3142263856048073e-14
9.856576303570586e-15
4.860972531776425e-15
3.529846669723641e-16
-2.50319524658661e-15
-3.572547262202795e-15
-3.3901657402089247e-15
-2.680434074246361e-15
-1.9565978876737276e-15
-1.3262603755483425e-15
-5.389721012359887e-16
7.687686194323644e-16
2.7375287231731653e-15
5.000833876963504e-15
6.599382676778198e-15
6.200638960934087e-15
2.641338094550804e-15
-4.323195934138547e-15
-1.332736150519822e-14
-2.113273437002767e-14
-2.3159811719729268e-14
-1.4997191836971127e-14
5.3007039614345006e-15
3.480849532851311e-14
6.434088485465766e-14
7.935096346238097e-14
6.399598984265822e-14
8.201312416824604e-15
-8.40210863570391e-14
-1.8837142142898612e-13
-2.604626771519948e-13
-2.4603851478275503e-13
-1.0198598748139293e-13
1.7594766219567686e-13
5.285025798551891e-13
8.252459845531833e-13
8.875414963132699e-13
5.486063803822381e-13
-2.574139512832795e-13
-1.4044093839537431e-12
-2.5250321575543277e-12
-3.0517109611723455e-12
-2.3801448338380257e-12
-1.4579502795139186e-13
3.4572980034909133e-12
7.447924596561961e-12
1.0084366736365989e-11
9.281326304786166e-12
3.4381740300879835e-12
-7.490913978166446e-12
-2.107191611265935e-11
-3.2151116878159015e-11
-3.381635844962837e-11
-1.9782825286522812e-11
1.214555378233511e-11
5.6620607158464743e-11
9.900668586473461e-11
1.1720264190934773e-10
8.820047514815974e-11
-1.1022644417939232e-12
-1.4169585910889758e-10
-2.940639910758645e-10
-3.899511374917578e-10
-3.4931902718924287e-10
-1.1295190647382862e-10
3.162748093686806e-10
8.387719548349388e-10
1.251180335833387e-09
1.2863585550715496e-09
7.080140583378733e-10
-5.549419064304162e-10
-2.277471032063166e-09
-3.877429662134522e-09
-4.495184922249756e-09
-3.256194332703049e-09
3.0665750419279653e-10
5.7863725032026615e-09
1.1595052710084565e-08
1.506101485157932e-08
1.3116382600000373e-08
3.579029953907232e-09
-1.3257909827401276e-08
-3.3333788511893136e-08
-4.863482286825664e-08
-4.884891295375223e-08
-2.5113621146321243e-08
2.4774825987421934e-08
9.141058236637488e-08
1.516749740375244e-07
1.7217045831219877e-07
1.1971337555566946e-07
-2.2188386180695815e-08
-2.3551948219611251e-07
-4.5660620830465347e-07
-5.809945511087248e-07
-4.912568993240909e-07
-1.073322608496553e-07
5.523294578751021e-07
1.3226811276344174e-06
1.8883270978088107e-06
1.8516890556157762e-06
8.81238596431894e-07
-1.0867820421609403e-06
-3.6615165975482996e-06
-5.926243895918493e-06
-6.584926683356734e-06
-4.380755910863078e-06
1.2617012872086698e-06
9.557425788833242e-06
1.7958169895912744e-05
2.238484833202041e-05
1.8349241208425446e-05
2.9283972631095198e-06
-2.2886351311666675e-05
-5.2405964107750696e-05
-7.323304835855233e-05
-7.005821766457659e-05
-3.0514627495196987e-05
4.701947568125488e-05
0.0001463847451679627
0.0002312836642705041
0.0002514798252589284
0.00015946480631898354
-6.454538651031529e-05
-0.00038676830079086136
-0.0007054121087290732
-0.0008613659800222923
-0.0006833436535849834
-6.523061585391718e-05
0.0009437907873592138
0.0020733362158962564
0.0028366705887296886
0.00264499338390723
0.0010383552914964467
-0.0020128937038912356
-0.005843733578243259
-0.00901895895415604
-0.009593287350830346
-0.005773581591845866
0.003110009696425296
0.015623696647437846
0.027718917182588856
0.03321558805447324
0.025619778907366723
0.0011551250500686084
-0.03778295211823347
-0.08021425939682668
-0.10701590554470296
-0.09570646103726643
-0.029835211952861776
0.08878322341615331
0.22901721988438173
0.3261014652869747
0.2892149759952953
0.022980505285143074
-0.34073991554677746
-0.8107272526305014
-0.517708777880136
-0.12069048514189636
0.35903390665443535
0.8861166767292663
0.9614107646246441
0.19527075177333436
-0.48435046622103056
-0.7932154904380933
-0.8401030283313385
-0.28748269993565384
0.46030135395358285
0.6400329865274433
0.4964033243864969
0.05078972007637296
-0.1141902563792433
-0.45086917087175193
-0.22944340845097322
0.08244835214584591
0.23558355566084244
0.007592579781592779
0.005131004106556564
-0.13815417554189685
-0.16708031593975373
-0.014117793377872624
0.18794013634927406
0.09198608728372218
0.12514255365867316
0.08369526469978238
-0.06369873958778828
-0.16559573918764287
-0.0737440812546243
-0.030065647988041164
-0.05838140398128487
0.03750475550244794
0.07003196554446856
0.0606881659058854
0.03224268761346534
0.0028004242062348856
-0.017090409031000488
-0.02434256616742404
-0.021221126572033205
-0.012504724594408559
-0.0029955368076410656
0.0040179340298216685
0.007240287898286529
0.007042343459487264
0.004731860305369066
0.0017995061021965973
-0.0006148822575441529
-0.0019500691522883135
-0.002186660549387644
-0.0016545687740242695
-0.0008020692024890736
-1.26527020114649e-05
0.0004907169962428191
0.000656156127287326
0.0005562039871908433
0.0003195080025982908
7.010365229665041e-05
-0.00010956739850118792
-0.00018908759866555365
-0.00018044118423683213
-0.00011870415205050846
-4.262568796463697e-05
1.880397395637112e-05
5.1809423785802164e-05
5.65378109301881e-05
4.189975259625622e-05
1.9572297176587136e-05
-6.582795509713234e-07
-1.3253677602079647e-05
-1.7090439842847224e-05
-1.4188874865706955e-05
-7.928490937433484e-06
-1.4949986431403618e-06
3.0418999152835196e-06
4.964030012684571e-06
4.63232577766694e-06
2.9779669411599367e-06
1.0025842868769975e-06
-5.599481692175944e-07
-1.3740170346284824e-06
-1.4606566292751251e-06
-1.0600070806428326e-06
-4.75963477514845e-07
4.200105058258775e-08
3.5664030810370775e-07
4.4451527897775076e-07
3.615060442268232e-07
1.9625612814782453e-07
3.049845753610136e-08
-8.389304342307649e-08
-1.3011300500419005e-07
-1.1878563279934301e-07
-7.457799202213431e-08
-2.335079339117129e-08
1.634401204158242e-08
3.6363977846641886e-08
3.7692176289703566e-08
2.6779202454839354e-08
1.1523706066626209e-08
-1.7224221153055127e-09
-9.566666367619137e-09
-1.1546894798881196e-08
-9.199247490514748e-09
-4.845241282829903e-09
-5.794235292426124e-10
2.3004038028339353e-09
3.405258028141597e-09
3.0424963436320368e-09
1.864235433541332e-09
5.373881627545952e-10
-4.697308319190226e-10
-9.605000979560553e-10
-9.715205559161586e-10
-6.755488738719817e-10
-2.7762283265089416e-10
6.073025484599379e-11
2.5588214950001653e-10
2.9957178404659945e-10
2.338018348541223e-10
1.1928129899686334e-10
9.624783338528517e-12
-6.276039535256565e-11
-8.899101872828324e-11
-7.783849085628836e-11
-4.650983403121468e-11
-1.21840274847474e-11
1.333453490407992e-11
2.532307729981251e-11
2.5012319604364164e-11
1.7016219746868136e-11
6.650692499952947e-12
-1.9818290866822348e-12
-6.82597159494855e-12
-7.762533207180089e-12
-5.934573136706437e-12
-2.927397264574773e-12
-1.117995139507494e-13
1.7046045407294375e-12
2.3223791321972298e-12
1.989096579900398e-12
1.1579692314133667e-12
2.7100275222634837e-13
-3.7471667170907975e-13
-6.664380378744032e-13
-6.43204985521567e-13
-4.2793271243532817e-13
-1.5827712589990058e-13
6.170345315676376e-14
1.8165722275593735e-13
2.009155428234922e-13
1.504547271777652e-13
7.161486846773572e-14
-5.972735908719639e-16
-4.609828084099096e-14
-6.050981923548435e-14
-5.075601997087807e-14
-2.8753367005559384e-14
-5.8613046242799845e-15
1.0455358757968367e-14
1.7523792296970335e-14
1.653661732317787e-14
1.076027329709261e-14
3.754706093383223e-15
-1.844577741928238e-15
-4.80877609008088e-15
-5.182135407200911e-15
-3.800261961025208e-15
-1.7385070574579135e-15
1.1171829381467935e-16
1.2533531782125196e-15
1.5933551743674117e-15
1.3222937344857472e-15
7.493840725507372e-16
1.6124929718507638e-16
-2.595688001549575e-16
-4.521978663056307e-16
-4.487708986874717e-16
-3.258184677687653e-16
-1.5952950467004583e-16
4.1796840766497387e-19
1.3468592553432115e-16
2.411346218701426e-16
3.154547975437053e-16
3.3735817087891925e-16
2.7115640392409293e-16
8.350386433690739e-17
-2.2670585489634e-16
-5.988483399885292e-16
-8.987551730751963e-16
-9.408827059323688e-16
-5.519686396275952e-16
3.3296170017021363e-16
1.5723988231638847e-15
2.7660581016440155e-15
3.301169347878318e-15
2.5314809167286373e-15
7.72684685253559e-17
-3.8317873822585825e-15
-8.115304269892984e-15
-1.088049870088682e-14
-9.883456193663783e-15
-3.4314119006179975e-15
8.462804116966962e-15
2.3096848618367692e-14
3.484940767097887e-14
3.62561960535643e-14
2.0618833704943532e-14
-1.4249422159070005e-14
-6.232723042540666e-14
-1.0758831320829528e-13
-1.2609230789179891e-13
-9.31894503436606e-14
4.743299343276232e-15
1.5718829178121953e-13
3.206584563508487e-13
4.2099205001512066e-13
3.720964040463999e-13
1.1145090860064053e-13
-3.553997143815237e-13
-9.180707176424497e-13
-1.354884566751361e-12
-1.3775199391048553e-12
-7.344196774808518e-13
6.438981338258151e-13
2.5049160820246855e-12
4.2116642781602705e-12
4.833482747771608e-12
3.4342010247777132e-12
-4.696982138255936e-13
-6.4080589670545484e-12
-1.2635211912883587e-11
-1.6249925021565236e-11
-1.3954459865437242e-11
-3.449613413284925e-12
1.485261136207568e-11
3.645838015867933e-11
5.2637450458292084e-11
5.2266653626675726e-11
2.592266934426393e-11
-2.848734346908699e-11
-1.0043951856217863e-10
-1.6465650999801163e-10
-1.8500125814065994e-10
-1.2598268556777861e-10
2.937869645483765e-11
2.6043828252006376e-10
4.972632254751647e-10
6.264882117674856e-10
5.219744318195763e-10
9.955898181620363e-11
-6.171039862932949e-10
-1.445620106749391e-09
-2.0426043715024662e-09
-1.9794636448627655e-09
-9.041578373894961e-10
1.2408744760251357e-09
4.019424178724611e-09
6.429883793703517e-09
7.070683412334662e-09
4.5988596363130124e-09
-1.5740902237491161e-09
-1.0554270775030652e-08
-1.954548690604725e-08
-2.4123106657118828e-08
-1.9469406340736894e-08
-2.519671122075831e-09
2.550995624104627e-08
5.72370705761515e-08
7.917210006903428e-08
7.482142755847067e-08
3.107210863497604e-08
-5.3383579945389233e-08
-1.6055155382914728e-07
-2.5080037074663854e-07
-2.698333439606734e-07
-1.669347897606831e-07
7.79578218791297e-08
4.2657464151474096e-07
7.673156077256805e-07
9.276858904313267e-07
7.239593174925745e-07
4.5203006192133436e-08
-1.049801382189285e-06
-2.2630187490939486e-06
-3.06516764880112e-06
-2.822337412498238e-06
-1.0476609895465078e-06
2.2733993032723603e-06
6.401732735138167e-06
9.771386675395511e-06
1.028137229708346e-05
6.020519075663929e-06
-3.68048864941885e-06
-1.719844946835946e-05
-3.00869404700734e-05
-3.562891107070667e-05
-2.6829026421797117e-05
3.004281466232472e-07
4.302861341812276e-05
8.935229019457741e-05
0.00011852925316732432
0.00010622811154775396
3.443597866849314e-05
-9.599698901538483e-05
-0.0002548278874280905
-0.0003802649276091719
-0.00039110778294987336
-0.00021549965835977774
0.00016823633561916575
0.0006917870413963418
0.001178279788903184
0.0013664332922561796
0.0009903228850989636
-9.226876997715485e-05
-0.0017579655472441855
-0.003524435406580056
-0.004579706744741153
-0.003990879820990863
-0.0010934202376971466
0.0040261496421737444
0.01013807638927941
0.014813900569384357
0.014930936655493533
0.007813567480485756
-0.007181476505449216
-0.02716098410229871
-0.04506621115024749
-0.05075123583730232
-0.0342604774491161
0.00896812114536645
0.07229826780582045
0.13378701213675737
0.1564404735761376
0.09475062649123255
-0.09264321079990255
-0.22727926345515798
-0.2979168641760438
-0.2567185421491195
-0.028654092941609484
0.2668698475848478
0.48909112127237464
0.45452489940903607
0.13127166470420354
-0.3468508766685307
-0.45113866358727606
-0.4260098504214171
-0.26823352434570646
0.07345934339351019
0.47835158561970703
0.4222160665341857
0.14778716640773215
0.04897342375263557
-0.12618523003484428
-0.25678854187712497
-0.22309291318962512
-0.08319588768541254
-0.05989376467942347
0.05941665480246951
0.11173355150853026
0.14165343388644383
0.18527364349538017
0.060266682384630774
-0.03515258311573545
-0.11524091175656048
-0.19579083610237713
-0.2848626590565668
0.020048656467367906
0.12679715607252295
0.23800552380012768
0.341214068403534
0.20638504162758609
-0.2056761767185889
-0.3259821761842258
-0.35850627172385596
-0.26937659216491283
0.009003772990019615
0.35859222778178823
0.4480630896752412
0.30820587662245846
-0.0792710095128795
-0.17510327366378903
-0.26134420718021634
-0.21466540602017983
-0.0840212759358238
0.12053163424598488
0.026136463481114383
0.08529800342268389
-0.04104843912968435
0.09959992542771855
0.13858513299981307
0.08012052928255427
-0.09697054941303941
-0.03092388905943605
-0.1652377430370281
-0.1375504280575892
0.02730092859910059
0.11863436195942104
0.13690309080534796
0.08930477351305986
-0.013028424246605608
-0.1551132017741517
-0.11668698089228811
-0.07187987766103468
0.007851527858026175
0.14738062861549103
0.1603490790034097
0.04382470242958659
-0.022013634934572614
-0.06854531416722222
-0.12961762599109533
-0.03206573387838592
0.01092670417479371
0.0018171367228158523
-0.04395939899467254
0.09607454863953259
0.04430251334110909
0.016829681563531568
0.019941356668728275
0.04995972279043118
-0.10387272445460828
-0.054802430684631816
-0.014050707514019649
0.012077702495399502
0.022796838139577245
0.021519797346310026
0.013610569829489216
0.004233783292858444
-0.003038170472541363
-0.0066736814907060625
-0.00686820071406387
-0.004829046735679602
-0.0020187623294830944
0.0003977319571179424
0.0018077551154380201
0.0021388976533736194
0.0016827702139705389
0.0008700114909029558
8.467789071167246e-05
-0.00043857717269512724
-0.0006329035797121287
-0.0005585262375196814
-0.000337322705785067
-9.218843900292347e-05
9.165397827376893e-05
0.00017939204792741256
0.00017896494702434096
0.00012288715236052339
4.9084403049234e-05
-1.2919567751948637e-05
-4.8123356323405006e-05
-5.539209902395197e-05
-4.2718641830647684e-05
-2.1378879157353662e-05
-1.2098904872503088e-06
1.1929097107924309e-05
1.6522856488540347e-05
1.4277264745321913e-05
8.404380741900135e-06
2.0676812592865292e-06
-2.586549272344208e-06
-4.724909617300144e-06
-4.604586448964087e-06
-3.092626472804947e-06
-1.171591387218779e-06
4.0925392654578736e-07
1.2819003158459713e-06
1.434328500361349e-06
1.0835157168233312e-06
5.236751760991485e-07
6.147145286576606e-09
-3.232297527236456e-07
-4.3084805920290767e-07
-3.6459298458697523e-07
-2.0898148924764523e-07
-4.5354330967536046e-08
7.232155033921177e-08
1.242279518262698e-07
1.1833371960278437e-07
7.770475527113652e-08
2.776691998479054e-08
-1.2489115505200067e-08
-3.40662478380278e-08
-3.7096216433260303e-08
-2.744585397972656e-08
-1.2781381931272448e-08
4.829574636021137e-10
8.725221178983804e-09
1.121967592385103e-08
9.299434705006935e-09
5.184624004451582e-09
9.643263956711e-10
-2.006721042199527e-09
-3.2608714918869805e-09
-3.037598695703563e-09
-1.9491250188561705e-09
-6.526188795560926e-10
3.7123397260947946e-10
9.033052266687068e-10
9.582938745370922e-10
6.942669950266508e-10
3.107168931093278e-10
-2.885953887472395e-11
-2.3472358017400697e-10
-2.9178897558311815e-10
-2.3690925782384226e-10
-1.283104121493539e-10
-1.9585264695324957e-11
5.531654032371428e-11
8.546072200964526e-11
7.788529876697714e-11
4.880542732912461e-11
1.5186698738523858e-11
-1.0820768633027891e-11
-2.3902507838954138e-11
-2.4726419343860272e-11
-1.753741124249964e-11
-7.520033116084141e-12
1.163291884597448e-12
6.294828758584313e-12
7.578868157016835e-12
6.02805059681489e-12
3.167093313812196e-12
3.692788447207999e-13
-1.5161532066993879e-12
-2.236359976427763e-12
-1.9947047712461246e-12
-1.2197964029885162e-12
-3.491141545238653e-13
3.106671359208509e-13
6.312666689920919e-13
6.372816808556658e-13
4.4237122925753977e-13
1.8110546458898317e-13
-4.0676589109323435e-14
-1.6831849799425637e-13
-1.9659230083373645e-13
-1.5317555939442104e-13
-7.793587062617708e-14
-6.022211772885119e-15
4.1362436213733295e-14
5.845089245443325e-14
5.104115884260033e-14
3.044101302139182e-14
7.918429635363897e-15
-8.797441844766239e-15
-1.662674875104712e-14
-1.639180504063914e-14
-1.1127558530918848e-14
-4.3226026229803686e-15
1.3352620189800083e-15
4.503051778929908e-15
5.1074773225775056e-15
3.9014876395796884e-15
1.926036195568102e-15
7.971238959451229e-17
-1.109176612896796e-15
-1.51135518778199e-15
-1.2903419353646044e-15
-7.439285654277639e-16
-1.6200766631654643e-16
2.609220918037233e-16
4.513711682995897e-16
4.3533329735151075e-16
2.936439314492392e-16
1.1663276210037436e-16
-2.7530075918538553e-17
-1.0595297981473888e-16
-1.1832342965198017e-16
-8.504133007046555e-17
-3.3251989292979627e-17
1.4095054673112623e-17
4.386144926891015e-17
5.3215043076074154e-17
4.67307280134052e-17
3.224711362469257e-17
