0
-1.4409383341532764e-18
-1.4409383341532764e-18
-1.4409383341532764e-18
-1.4409383341532764e-18
-1.4409383341532764e-18
-1.4409383341532764e-18
-1.4409383341532764e-18
-1.4409383341532764e-18
-1.4409383341532764e-18
-1.4409383341532764e-18
-1.4409383341532764e-18
-1.4409383341532764e-18
-1.4409383341532764e-18
-1.4409383341532764e-18
-1.4409383341532764e-18
-1.4409383341532764e-18
-1.4409383341532764e-18
-1.4409383341532764e-18
-1.4409383341532764e-18
-1.4409383341532764e-18
-1.4409383341532764e-18
-1.4409383341532764e-18
-1.4409383341532764e-18
-1.4409383341532764e-18
-1.4409383341532764e-18
-1.4409383341532764e-18
-1.4409383341532764e-18
-1.4409383341532764e-18
-1.4409383341532764e-18
-1.4409383341532764e-18
-1.4409383341532764e-18
-1.4409383341532764e-18
-1.4409383341532764e-18
-1.4409383341532764e-18
-1.4409383341532764e-18
-1.4409383341532764e-18
-1.4409383341532764e-18
-1.4409383341532764e-18
-1.4409383341532764e-18
-1.4409383341532764e-18
-1.4409383341532764e-18
-1.4409383341532764e-18
-1.4409383341532764e-18
-1.4409383341532764e-18
-1.4409383341532764e-18
-1.4409383341532764e-18
-1.4409383341532764e-18
-1.4409383341532764e-18
-1.4409383341532764e-18
-1.4409383341532764e-18
-1.4409383341532764e-18
-1.4409383341532764e-18
-1.4409383341532764e-18
-1.4409383341532764e-18
-1.4409383341532764e-18
-1.4409383341532764e-18
-1.4409383341532764e-18
-1.4409383341532764e-18
-1.4409383341532764e-18
-1.4409383341532764e-18
-1.4409383341532764e-18
-1.4409383341532764e-18
-1.4409383341532764e-18
-1.4409383341532764e-18
-1.4409383341532764e-18
-1.4409383341532764e-18
-1.4409383341532764e-18
-1.4409383341532764e-18
-1.4409383341532764e-18
-1.4409383341532764e-18
-1.4409383341532764e-18
-1.4409383341532764e-18
-1.4409383341532764e-18
-1.4409383341532764e-18
-1.4409383341532764e-18
-1.4409383341532764e-18
-1.4409383341532764e-18
-1.4409383341532764e-18
-1.4409383341532764e-18
-1.4409383341532764e-18
-1.4409383341532764e-18
-1.4409383341532764e-18
-1.4409383341532764e-18
-1.4409383341532764e-18
-1.4409383341532764e-18
-1.4409383341532764e-18
-1.4409383341532764e-18
-1.4409383341532764e-18
-1.4409383341532764e-18
-1.4409383341532764e-18
-1.4409383341532764e-18
-1.4409383341532764e-18
-1.4409383341532764e-18
-1.4409383341532764e-18
-1.4409383341532764e-18
-1.4409383341532764e-18
-1.4409383341532764e-18
-1.4409383341532764e-18
-1.4409383341532764e-18
-1.4409383341532764e-18
-1.4409383341532764e-18
-1.4409383341532764e-18
-1.4409383341532764e-18
-1.4409383341532764e-18
-1.4409383341532764e-18
-1.4409383341532764e-18
-1.4409383341532764e-18
-1.4409383341532764e-18
-1.4409383341532764e-18
-1.4409383341532764e-18
-1.4409383341532764e-18
-1.4409383341532764e-18
-1.4409383341532764e-18
-1.4409383341532764e-18
-1.4409383341532764e-18
-1.4409383341532764e-18
-1.4409383341532764e-18
-1.4409383341532764e-18
-1.4409383341532764e-18
-1.4409383341532764e-18
-1.4409383341532764e-18
-1.4409383341532764e-18
-1.4409383341532764e-18
-1.4409383341532764e-18
-1.4409383341532764e-18
-1.4409383341532764e-18
-1.4409383341532764e-18
-1.4409383341532764e-18
-1.4409383341532764e-18
-1.4409383341532764e-18
-1.4409383341532764e-18
-1.4409383341532764e-18
-1.4409383341532764e-18
-1.4409383341532764e-18
-1.4409383341532764e-18
-1.4409383341532764e-18
-1.4409383341532764e-18
-1.4409383341532764e-18
-1.4409383341532764e-18
-1.4409383341532764e-18
-1.4409383341532764e-18
-1.4409383341532764e-18
-1.4409383341532764e-18
-1.4409383341532764e-18
-1.4409383341532764e-18
-1.4409383341532764e-18
-1.4409383341532764e-18
-1.4409383341532764e-18
-1.4409383341532764e-18
-1.4409383341532764e-18
-1.4409383341532764e-18
-1.4409383341532764e-18
-1.4409383341532764e-18
-1.4409383341532764e-18
-1.4409383341532764e-18
-1.4409383341532764e-18
-1.4409383341532764e-18
-1.4409383341532764e-18
-1.4409383341532764e-18
-1.4409383341532764e-18
-1.4409383341532764e-18
-1.4409383341532764e-18
-1.4409383341532764e-18
-1.4409383341532764e-18
-1.4409383341532764e-18
-1.4409383341532764e-18
-1.4409383341532764e-18
-1.4409383341532764e-18
-1.4409383341532764e-18
-1.4409383341532764e-18
-1.4409383341532764e-18
-1.4409383341532764e-18
-1.4409383341532764e-18
-1.4409383341532764e-18
-1.4409383341532764e-18
-1.4409383341532764e-18
-1.4409383341532764e-18
-1.4409383341532764e-18
-1.4409383341532764e-18
-1.4409383341532764e-18
-1.4409383341532764e-18
-1.4409383341532764e-18
-1.4409383341532764e-18
-1.4409383341532764e-18
-1.4409383341532764e-18
-1.4409383341532764e-18
-1.4409383341532764e-18
-1.4409383341532764e-18
-1.4409383341532764e-18
-1.4409383341532764e-18
-1.4409383341532764e-18
-1.4409383341532764e-18
-1.4409383341532764e-18
-1.4409383341532764e-18
-1.4409383341532764e-18
-1.4409383341532764e-18
-1.4409383341532764e-18
-1.4409383341532764e-18
-1.4409383341532764e-18
-1.4409383341532764e-18
-1.4409383341532764e-18
-1.4409383341532764e-18
-1.4409383341532764e-18
-1.4409383341532764e-18
-1.4409383341532764e-18
-1.4409383341532764e-18
-1.4409383341532764e-18
-1.4409383341532764e-18
-1.4409383341532764e-18
-1.4409383341532764e-18
-1.4409383341532764e-18
-1.4409383341532764e-18
-1.4409383341532764e-18
-1.4409383341532764e-18
-1.4409383341532764e-18
-1.4409383341532764e-18
-1.4409383341532764e-18
-1.4409383341532764e-18
-1.4409383341532764e-18
-1.4409383341532764e-18
-1.4409383341532764e-18
-1.4409383341532764e-18
-1.4409383341532764e-18
-1.4409383341532764e-18
-1.4409383341532764e-18
-1.4409383341532764e-18
-1.4409383341532764e-18
-1.4409383341532764e-18
-1.4409383341532764e-18
-1.4409383341532764e-18
-1.4409383341532764e-18
-1.4409383341532764e-18
-1.4409383341532764e-18
-1.4409383341532764e-18
-1.4409383341532764e-18
-1.4409383341532764e-18
-1.4409383341532764e-18
-1.4409383341532764e-18
-1.4409383341532764e-18
-1.4409383341532764e-18
-1.4409383341532764e-18
-1.4409383341532764e-18
-1.4409383341532764e-18
-1.4409383341532764e-18
-1.4409383341532764e-18
-1.4409383341532764e-18
-1.4409383341532764e-18
-1.4409383341532764e-18
-1.4409383341532764e-18
-1.4409383341532764e-18
-1.4409383341532764e-18
-1.4409383341532764e-18
-1.4409383341532764e-18
-1.4409383341532764e-18
-1.4409383341532764e-18
-1.4409383341532764e-18
-1.4409383341532764e-18
-1.4409383341532764e-18
-1.4409383341532764e-18
-1.4409383341532764e-18
-1.4409383341532764e-18
-1.4409383341532764e-18
-1.4409383341532764e-18
-1.4409383341532764e-18
-1.4409383341532764e-18
-1.4409383341532764e-18
-1.4409383341532764e-18
-1.4409383341532763e-18
-1.4409383341532763e-18
-1.4409383341532764e-18
-1.4409383341532764e-18
-1.4409383341532766e-18
-1.4409383341532768e-18
-1.4409383341532768e-18
-1.4409383341532768e-18
-1.4409383341532764e-18
-1.440938334153276e-18
-1.4409383341532755e-18
-1.440938334153275e-18
-1.4409383341532753e-18
-1.440938334153276e-18
-1.4409383341532774e-18
-1.4409383341532791e-18
-1.4409383341532805e-18
-1.4409383341532807e-18
-1.440938334153279e-18
-1.4409383341532749e-18
-1.4409383341532693e-18
-1.440938334153264e-18
-1.4409383341532618e-18
-1.4409383341532655e-18
-1.4409383341532768e-18
-1.4409383341532944e-18
-1.4409383341533134e-18
-1.4409383341533252e-18
-1.44093833415332e-18
-1.4409383341532901e-18
-1.4409383341532362e-18
-1.4409383341531707e-18
-1.4409383341531197e-18
-1.440938334153116e-18
-1.4409383341531894e-18
-1.4409383341533483e-18
-1.440938334153564e-18
-1.4409383341537633e-18
-1.4409383341538382e-18
-1.4409383341536797e-18
-1.4409383341532308e-18
-1.4409383341525434e-18
-1.4409383341518185e-18
-1.4409383341513913e-18
-1.4409383341516452e-18
-1.4409383341528502e-18
-1.440938334154965e-18
-1.4409383341574748e-18
-1.4409383341593724e-18
-1.4409383341593674e-18
-1.4409383341563575e-18
-1.4409383341500825e-18
-1.4409383341417392e-18
-1.440938334134239e-18
-1.4409383341317673e-18
-1.4409383341384612e-18
-1.4409383341563416e-18
-1.4409383341830896e-18
-1.4409383342106707e-18
-1.4409383342259759e-18
-1.4409383342143367e-18
-1.4409383341658505e-18
-1.4409383340830245e-18
-1.4409383339867451e-18
-1.440938333916652e-18
-1.4409383339224876e-18
-1.4409383340454475e-18
-1.440938334292917e-18
-1.440938334615208e-18
-1.4409383348969186e-18
-1.440938334975662e-18
-1.4409383346948237e-18
-1.4409383339840935e-18
-1.4409383329442102e-18
-1.4409383318965965e-18
-1.4409383313530488e-18
-1.4409383318740133e-18
-1.4409383338206244e-18
-1.440938337061046e-18
-1.4409383407493065e-18
-1.440938343327702e-18
-1.4409383428813518e-18
-1.4409383378745695e-18
-1.4409383281277737e-18
-1.4409383156931145e-18
-1.4409383051385024e-18
-1.4409383027566827e-18
-1.4409383144652024e-18
-1.4409383426723562e-18
-1.4409383830534564e-18
-1.4409384227740873e-18
-1.4409384418758313e-18
-1.4409384189771552e-18
-1.4409383409846037e-18
-1.440938214356154e-18
-1.4409380732668613e-18
-1.4409379788546134e-18
-1.440938004740313e-18
-1.4409382079916667e-18
-1.4409385913911772e-18
-1.440939070556059e-18
-1.4409394649301993e-18
-1.4409395309435643e-18
-1.4409390454727774e-18
-1.4409379276683124e-18
-1.4409363613787864e-18
-1.440934858185973e-18
-1.440934195514338e-18
-1.4409351878052443e-18
-1.4409383066309633e-18
-1.4409432492833018e-18
-1.4409486385374097e-18
-1.4409520776908472e-18
-1.4409507399664166e-18
-1.440942511971447e-18
-1.4409274492872237e-18
-1.4409090080172136e-18
-1.440894315323927e-18
-1.4408927878280668e-18
-1.440912819796442e-18
-1.44095705288638e-18
-1.4410177352953651e-18
-1.4410745093062348e-18
-1.4410971270825666e-18
-1.4410546168292996e-18
-1.440930126057269e-18
-1.4407374220838565e-18
-1.4405318799295196e-18
-1.4404073428855817e-18
-1.4404722029839766e-18
-1.4408044279421991e-18
-1.4413954780171742e-18
-1.4421043029369392e-18
-1.4426499408613463e-18
-1.4426687725547448e-18
-1.4418457427460343e-18
-1.4400978132147257e-18
-1.4377495554470204e-18
-1.4356097851210932e-18
-1.4348540331424599e-18
-1.4366580751892213e-18
-1.4416186298181718e-18
-1.449123181839204e-18
-1.4569499643655788e-18
-1.4614288270021437e-18
-1.4584092670566748e-18
-1.4450270625531578e-18
-1.4218624109117395e-18
-1.3946532447226716e-18
-1.3744611819587316e-18
-1.3753101883643306e-18
-1.4089947466174419e-18
-1.4779732563799504e-18
-1.5687375375902353e-18
-1.6492024133008966e-18
-1.6737352126166462e-18
-1.5977810082288586e-18
-1.4004456631816318e-18
-1.1085263035068253e-18
-8.109866868745839e-19
-6.511976597555907e-19
-7.878609173043842e-19
-1.3256963769621113e-18
-2.2325015723060757e-18
-3.275547627692491e-18
-4.019880602807814e-18
-3.925297131353656e-18
-2.551476586972631e-18
1.6704574245608095e-19
3.6710384444585705e-18
6.689580556331149e-18
7.453308212194434e-18
4.277078121116529e-18
-3.5606784670749476e-18
-1.4903064826905585e-17
-2.6194539243185407e-17
-3.1840903731280085e-17
-2.578292882638328e-17
-4.2125350762176926e-18
3.12438778385947e-17
7.117261077194944e-17
9.84919199194637e-17
9.24194448272154e-17
3.6566186812119926e-17
-7.043664648371966e-17
-2.0554488163915644e-16
-3.184879316605e-16
-3.4074001529087623e-16
-2.0869504692521607e-16
1.021315659332785e-16
5.423291361583376e-16
9.70051085419213e-16
1.167266901191903e-15
9.029920830252898e-16
3.960267390558979e-17
-1.3451517590752728e-15
-2.871455078313301e-15
-3.869276182383639e-15
-3.5401229462326696e-15
-1.2759911265805456e-15
2.9304348480881523e-15
8.133518305359863e-15
1.2347574525237208e-14
1.2921776717164916e-14
7.46046334202527e-15
-4.848129819379838e-15
-2.1912474170730822e-14
-3.80833310795741e-14
-4.4872795825065264e-14
-3.348964401038761e-14
1.004246846265856e-15
5.5023839580945297e-14
1.1328060387050825e-13
1.495239161335573e-13
1.3311511291070603e-13
4.157983567619072e-14
-1.235773746055994e-13
-3.236964465625608e-13
-4.804479540479928e-13
-4.914099808112156e-13
-2.66559504272338e-13
2.201658942846823e-13
8.808992715281259e-13
1.4910186414408826e-12
1.7204679726813119e-12
1.235217708216482e-12
-1.4042565784234505e-13
-2.2453314242592946e-12
-4.465449658206868e-12
-5.7735379817270836e-12
-4.995575883865159e-12
-1.3041491315971303e-12
5.172604189323537e-12
1.2859510306240371e-11
1.8670730120337454e-11
1.8653680723092773e-11
9.43385627499279e-12
-9.78661935064649e-12
-3.534022872998473e-11
-5.830962838251563e-11
-6.587511855535674e-11
-4.536737947186838e-11
9.401568715957668e-12
9.132684460000331e-11
1.7579653359643464e-10
2.226592692812004e-10
1.869919887552612e-10
3.846920711300775e-11
-2.1521913684961393e-10
-5.100920942820504e-10
-7.24735652449271e-10
-7.068018719729048e-10
-3.3013375498100887e-10
4.2786022233255907e-10
1.4149599784163968e-09
2.2776846196020006e-09
2.5186763388891627e-09
1.6582969080967282e-09
-5.187127529364095e-10
-3.7036950744729743e-09
-6.912090524908562e-09
-8.576332281799381e-09
-6.979976608677471e-09
-1.0171852510057342e-09
8.907882702801906e-09
2.020379862366693e-08
2.809940919099062e-08
2.6729969087552183e-08
1.1392641106738631e-08
-1.8461451342931196e-08
-5.6545640224305706e-08
-8.886833700752605e-08
-9.615617121538669e-08
-6.028655336889904e-08
2.611322928431714e-08
1.4979304212876697e-07
2.71439674397138e-07
3.299232982206962e-07
2.5976033593015683e-07
2.0857925098245872e-08
-3.6699002035625507e-07
-7.990974753449443e-07
-1.088203497568868e-06
-1.0088288368923265e-06
-3.8621318366942837e-07
7.881208776644527e-07
2.2556742950858247e-06
3.463403237579868e-06
3.665306387619312e-06
2.1780696601691195e-06
-1.2457983829250858e-06
-6.043033200112859e-06
-1.0646613511622782e-05
-1.267540673899298e-05
-9.635099546673537e-06
-8.174763394857104e-08
1.5056955581459699e-05
3.156229217183527e-05
4.2093370395208955e-05
3.799264688696647e-05
1.2788300134194362e-05
-3.334767536825889e-05
-8.982795894315278e-05
-0.00013482216964157638
-0.00013948950511932955
-7.812305683297581e-05
5.7362134567654116e-05
0.00024321594463766805
0.00041707890739141605
0.0004863029390979906
0.00035602795164496647
-2.535523677526047e-05
-0.000615668303448011
-0.0012452932324963728
-0.0016267836053905618
-0.0014281023599819695
-0.00041030076038370554
0.0014008502955758977
0.0035742227224232833
0.0052510926511316796
0.005321124186251568
0.0028250422229329267
-0.002482853346166715
-0.009597177163968783
-0.01602985858491795
-0.01818009015108698
-0.012481557370068218
0.002769086147642075
0.025373838695505024
0.04780754885144177
0.05736562748607442
0.03858470969443972
-0.022108442477064116
-0.13064678911007105
-0.08057115157521932
-0.051607910978599694
-0.01299189358975955
0.06888700238799784
0.22088409939267376
0.055023108896467124
-0.03499489876711867
-0.07155095304579552
-0.08646298464851869
-0.11290596459207422
0.021127087443936793
0.09625512300348364
0.10235480273413092
0.03801852883118083
-0.08965300149254979
-0.06464509366802149
-0.062122452394308074
-0.05060178150118276
0.00299283110525513
0.126117587409302
0.13341650446609113
0.022312137199364902
-0.026599981836283447
-0.044178204814652844
-0.0642086731973015
-0.11469274306733598
-0.011781977524561811
0.042000690341837746
0.055324705353131096
0.04296852197055426
0.020298120584697994
-0.0008530164866400993
-0.014040151068254457
-0.017938144561259823
-0.01471901846431964
-0.00801607084203418
-0.0012224500631509564
0.003490084571447527
0.0054023056713803684
0.004937589786596271
0.0031087440221365804
0.0009843384633966758
-0.0006659710160992614
-0.0015022930770727738
-0.001563020922883442
-0.0011141310654538448
-0.00048276297120748187
6.720805607961697e-05
0.0003942008600931241
0.000478157310814042
0.000382165636467326
0.0002022525676919287
2.5344051936871663e-05
-9.449703578069046e-05
-0.00014085901454578937
-0.00012627070979359849
-7.766567173949292e-05
-2.2693183008508207e-05
1.9166413536023183e-05
3.967607303667499e-05
4.0281351342679806e-05
2.810360304052404e-05
1.1634861463219436e-05
-2.4135909268667785e-06
-1.0549970983562473e-05
-1.2408425013038581e-05
-9.715079127911698e-06
-4.981486624795399e-06
-4.330052007260397e-07
2.5800173894967604e-06
3.6819587633165325e-06
3.2310716625211e-06
1.9382477927816412e-06
5.158331477129677e-07
-5.450336413377382e-07
-1.0463299029422978e-06
-1.0372472946998413e-06
-7.080603633144746e-07
-2.78979842656223e-07
7.950903850308927e-08
2.8154592576310444e-07
3.215893417341131e-07
2.46646651529916e-07
1.223168228005636e-07
5.507029506716543e-09
-7.012028956244368e-08
-9.610734345533584e-08
-8.258165339483192e-08
-4.827237062295167e-08
-1.151100701007026e-08
1.533875775539543e-08
2.754463181114816e-08
2.66786470393185e-08
1.7811626107185314e-08
6.647001225769714e-09
-2.4899936090567793e-09
-7.494881533216278e-09
-8.324574129593224e-09
-6.253739479937802e-09
-2.993367486303039e-09
3.0042530692753298e-12
1.8979880877247884e-09
2.505177048701066e-09
2.1081913182229117e-09
1.1996155247692611e-09
2.50653828174333e-10
-4.2795127139646025e-10
-7.238849832442454e-10
-6.854080263080193e-10
-4.4733455750527264e-10
-1.572059783276829e-10
7.539043930429161e-11
1.99054564344502e-10
2.1523139149875333e-10
1.5835249055369165e-10
7.29846802788171e-11
-3.789319748289932e-12
-5.118560229724325e-11
-6.521410038494214e-11
-5.375506531593397e-11
-2.974229704304622e-11
-5.274084937428497e-12
1.1852495050199518e-11
1.8993237588091118e-11
1.7588888764790837e-11
1.121564072880798e-11
3.685717779379574e-12
-2.2280573085095945e-12
-5.2751678914072616e-12
-5.558262275042791e-12
-4.0041803765658895e-12
-1.772247925700249e-12
1.9261372084277003e-13
1.3757956147012142e-12
1.6954322829809904e-12
1.3689995678104132e-12
7.35563690433526e-13
1.0539637459880233e-13
-3.262006441290339e-13
-4.975716361312378e-13
-4.508497044770618e-13
-2.8070100282620633e-13
-8.551207621523558e-14
6.465591439886388e-14
1.3951122427179468e-13
1.4337149533992626e-13
1.0110672083037322e-13
4.2836069274290494e-14
-7.391854583995198e-15
-3.686849208434592e-14
-4.4023422542729406e-14
-3.4823454251498304e-14
-1.8143890511082668e-14
-1.93280757733534e-15
8.926822571015507e-15
1.3014072840841314e-14
1.1541667346126475e-14
7.0105853505957125e-15
1.9570663619185463e-15
-1.851203390809782e-15
-3.68404055065359e-15
-3.695419765273376e-15
-2.5507435506219765e-15
-1.0315252942268925e-15
2.5094945868843134e-16
9.83719258820408e-16
1.1401732024481164e-15
8.831834390923292e-16
4.447277296594253e-16
2.817308689965698e-17
-2.4463159907167707e-16
-3.414126909311146e-16
-2.9663802732266504e-16
-1.7625742156458242e-16
-4.5575729212007567e-17
5.087399420455319e-17
9.558835299293401e-17
9.362466849827142e-17
6.273830187098051e-17
2.3182584720539323e-17
-9.524090992808574e-18
-2.7698341498543803e-17
-3.1010170576492275e-17
-2.3885256759539208e-17
-1.2378339672271484e-17
-1.6869077123245183e-18
5.154675530632763e-18
7.426930971772246e-18
6.099448579652987e-18
2.9082150937727556e-18
-4.671784722411472e-19
-2.9065639442194577e-18
-3.9930385266290275e-18
-3.884683575856319e-18
-3.0541014503105027e-18
-2.0255347460335528e-18
-1.1924287033704035e-18
-7.427817971860116e-19
-6.7597567146075675e-19
-8.722396033729686e-19
-1.1737580943699794e-18
-1.447854115403286e-18
-1.6191287848943059e-18
-1.6719366107008803e-18
-1.6333190494355843e-18
-1.5488950341390146e-18
-1.4618130475492478e-18
-1.4002036314096673e-18
-1.373923077242813e-18
-1.3781914078729626e-18
-1.4004582292493967e-18
-1.4271700342966296e-18
-1.4483649346658327e-18
-1.4594599679470196e-18
-1.4607047107485948e-18
-1.4553286502677511e-18
-1.4474397427159856e-18
-1.4404208207954932e-18
-1.4361410504023295e-18
-1.4349289883925046e-18
-1.4360359361571374e-18
-1.4382650369796553e-18
-1.4405090774023888e-18
-1.4420628219724197e-18
-1.4426952926147702e-18
-1.4425476171171565e-18
-1.4419523618581792e-18
-1.4412595212079293e-18
-1.4407209797816203e-18
-1.4404480003352571e-18
-1.4404281741702198e-18
-1.4405747102079147e-18
-1.4407808164119382e-18
-1.4409603458294028e-18
-1.441067077257419e-18
-1.4410944650072821e-18
-1.4410631087389905e-18
-1.4410043605312753e-18
-1.440946599562016e-18
-1.4409074745919781e-18
-1.4408923414995399e-18
-1.4408971078808015e-18
-1.4409129791524685e-18
-1.4409309278540519e-18
-1.4409445941657627e-18
-1.4409512893406778e-18
-1.4409514858815696e-18
-1.4409475091981795e-18
-1.4409421319846326e-18
-1.4409375453528863e-18
-1.4409348891810188e-18
-1.4409342827477594e-18
-1.4409351623649029e-18
-1.4409367079768507e-18
-1.4409381930285415e-18
-1.4409391766846272e-18
-1.440939536359348e-18
-1.4409393890611531e-18
-1.4409389669128406e-18
-1.4409385024927466e-18
-1.4409381561436208e-18
-1.4409379925030183e-18
-1.4409379954964764e-18
-1.4409381029923329e-18
-1.4409382430909761e-18
-1.4409383601323573e-18
-1.4409384260880433e-18
-1.4409384391531724e-18
-1.4409384146783559e-18
-1.440938374082428e-18
-1.4409383359448874e-18
-1.4409383112551163e-18
-1.4409383027731673e-18
-1.4409383071914232e-18
-1.4409383183944146e-18
-1.4409383303969947e-18
-1.4409383391627966e-18
-1.4409383431471642e-18
-1.4409383428637058e-18
-1.4409383399682179e-18
-1.4409383363228841e-18
-1.4409383333398014e-18
-1.4409383317059514e-18
-1.4409383314352891e-18
-1.440938332111568e-18
-1.4409383331761324e-18
-1.4409383341544218e-18
-1.4409383347730663e-18
-1.4409383349712407e-18
-1.440938334841571e-18
-1.4409383345448964e-18
-1.4409383342350618e-18
-1.4409383340135148e-18
-1.4409383339169146e-18
-1.4409383339294955e-18
-1.4409383340072364e-18
-1.4409383341019652e-18
-1.4409383341779039e-18
-1.4409383342182739e-18
-1.4409383342235496e-18
-1.4409383342049748e-18
-1.440938334177101e-18
-1.440938334152035e-18
-1.4409383341365619e-18
-1.4409383341319836e-18
-1.4409383341357262e-18
-1.440938334143567e-18
-1.4409383341515558e-18
-1.4409383341571472e-18
-1.4409383341594781e-18
-1.440938334159019e-18
-1.440938334156938e-18
-1.4409383341544794e-18
-1.4409383341525486e-18
-1.4409383341515539e-18
-1.4409383341514616e-18
-1.4409383341519691e-18
-1.4409383341526979e-18
-1.4409383341533394e-18
-1.4409383341537258e-18
-1.44093833415383e-18
-1.4409383341537235e-18
-1.4409383341535166e-18
-1.4409383341533107e-18
-1.44093833415317e-18
-1.4409383341531139e-18
-1.4409383341531293e-18
-1.4409383341531848e-18
-1.4409383341532485e-18
-1.4409383341532976e-18
-1.440938334153322e-18
-1.4409383341533232e-18
-1.4409383341533094e-18
-1.4409383341532905e-18
-1.440938334153274e-18
-1.4409383341532643e-18
-1.440938334153262e-18
-1.440938334153265e-18
-1.4409383341532705e-18
-1.4409383341532759e-18
-1.4409383341532793e-18
-1.4409383341532807e-18
-1.4409383341532803e-18
-1.4409383341532788e-18
-1.440938334153277e-18
-1.4409383341532759e-18
-1.4409383341532753e-18
-1.4409383341532753e-18
-1.4409383341532757e-18
-1.440938334153276e-18
-1.4409383341532764e-18
-1.4409383341532768e-18
-1.4409383341532768e-18
-1.4409383341532766e-18
-1.4409383341532766e-18
-1.4409383341532764e-18
-1.4409383341532764e-18
-1.4409383341532763e-18
-1.4409383341532763e-18
-1.4409383341532764e-18
-1.4409383341532764e-18
-1.4409383341532764e-18
-1.4409383341532764e-18
-1.4409383341532764e-18
-1.4409383341532764e-18
-1.4409383341532764e-18
-1.4409383341532764e-18
-1.4409383341532764e-18
-1.4409383341532764e-18
-1.4409383341532764e-18
-1.4409383341532764e-18
-1.4409383341532764e-18
-1.4409383341532764e-18
-1.4409383341532764e-18
-1.4409383341532764e-18
-1.4409383341532764e-18
-1.4409383341532764e-18
-1.4409383341532764e-18
-1.4409383341532764e-18
-1.4409383341532764e-18
-1.4409383341532764e-18
-1.4409383341532764e-18
-1.4409383341532764e-18
-1.4409383341532764e-18
-1.4409383341532764e-18
-1.4409383341532764e-18
-1.4409383341532764e-18
-1.4409383341532764e-18
-1.4409383341532764e-18
-1.4409383341532764e-18
-1.4409383341532764e-18
-1.4409383341532764e-18
-1.4409383341532764e-18
-1.4409383341532764e-18
-1.4409383341532764e-18
-1.4409383341532764e-18
-1.4409383341532764e-18
-1.4409383341532764e-18
-1.4409383341532764e-18
-1.4409383341532764e-18
-1.4409383341532764e-18
-1.4409383341532764e-18
-1.4409383341532764e-18
-1.4409383341532764e-18
-1.4409383341532764e-18
-1.4409383341532764e-18
-1.4409383341532764e-18
-1.4409383341532764e-18
-1.4409383341532764e-18
-1.4409383341532764e-18
-1.4409383341532764e-18
-1.4409383341532764e-18
-1.4409383341532764e-18
-1.4409383341532764e-18
-1.4409383341532764e-18
-1.4409383341532764e-18
-1.4409383341532764e-18
-1.4409383341532764e-18
-1.4409383341532764e-18
-1.4409383341532764e-18
-1.4409383341532764e-18
-1.4409383341532764e-18
-1.4409383341532764e-18
-1.4409383341532764e-18
-1.4409383341532764e-18
-1.4409383341532764e-18
-1.4409383341532764e-18
-1.4409383341532764e-18
-1.4409383341532764e-18
-1.4409383341532764e-18
-1.4409383341532764e-18
-1.4409383341532764e-18
-1.4409383341532764e-18
-1.4409383341532764e-18
-1.4409383341532764e-18
-1.4409383341532764e-18
-1.4409383341532764e-18
-1.4409383341532764e-18
-1.4409383341532764e-18
-1.4409383341532764e-18
-1.4409383341532764e-18
-1.4409383341532764e-18
-1.4409383341532764e-18
-1.4409383341532764e-18
-1.4409383341532764e-18
-1.4409383341532764e-18
-1.4409383341532764e-18
-1.4409383341532764e-18
-1.4409383341532764e-18
-1.4409383341532764e-18
-1.4409383341532764e-18
-1.4409383341532764e-18
-1.4409383341532764e-18
-1.4409383341532764e-18
-1.4409383341532764e-18
-1.4409383341532764e-18
-1.4409383341532764e-18
-1.4409383341532764e-18
-1.4409383341532764e-18
-1.4409383341532764e-18
-1.4409383341532764e-18
-1.4409383341532764e-18
-1.4409383341532764e-18
-1.4409383341532764e-18
-1.4409383341532764e-18
-1.4409383341532764e-18
-1.4409383341532764e-18
-1.4409383341532764e-18
-1.4409383341532764e-18
-1.4409383341532764e-18
-1.4409383341532764e-18
-1.4409383341532764e-18
-1.4409383341532764e-18
-1.4409383341532764e-18
-1.4409383341532764e-18
-1.4409383341532764e-18
-1.4409383341532764e-18
-1.4409383341532764e-18
-1.4409383341532764e-18
-1.4409383341532764e-18
-1.4409383341532764e-18
-1.4409383341532764e-18
-1.4409383341532764e-18
-1.4409383341532764e-18
-1.4409383341532764e-18
-1.4409383341532764e-18
-1.4409383341532764e-18
-1.4409383341532764e-18
-1.4409383341532764e-18
-1.4409383341532764e-18
-1.4409383341532764e-18
-1.4409383341532764e-18
-1.4409383341532764e-18
-1.4409383341532764e-18
-1.4409383341532764e-18
-1.4409383341532764e-18
-1.4409383341532764e-18
-1.4409383341532764e-18
-1.4409383341532764e-18
-1.4409383341532764e-18
-1.4409383341532764e-18
-1.4409383341532764e-18
-1.4409383341532764e-18
-1.4409383341532764e-18
-1.4409383341532764e-18
-1.4409383341532764e-18
-1.4409383341532764e-18
-1.4409383341532764e-18
-1.4409383341532764e-18
-1.4409383341532764e-18
-1.4409383341532764e-18
-1.4409383341532764e-18
-1.4409383341532764e-18
-1.4409383341532764e-18
-1.4409383341532764e-18
-1.4409383341532764e-18
-1.4409383341532764e-18
-1.4409383341532764e-18
-1.4409383341532764e-18
-1.4409383341532764e-18
-1.4409383341532764e-18
-1.4409383341532764e-18
-1.4409383341532764e-18
-1.4409383341532764e-18
-1.4409383341532764e-18
-1.4409383341532764e-18
-1.4409383341532764e-18
-1.4409383341532764e-18
-1.4409383341532764e-18
-1.4409383341532764e-18
-1.4409383341532764e-18
-1.4409383341532764e-18
-1.4409383341532764e-18
-1.4409383341532764e-18
-1.4409383341532764e-18
-1.4409383341532764e-18
-1.4409383341532764e-18
-1.4409383341532764e-18
-1.4409383341532764e-18
-1.4409383341532764e-18
-1.4409383341532764e-18
-1.4409383341532764e-18
-1.4409383341532764e-18
-1.4409383341532764e-18
-1.4409383341532764e-18
-1.4409383341532764e-18
-1.4409383341532764e-18
-1.4409383341532764e-18
-1.4409383341532764e-18
-1.4409383341532764e-18
-1.4409383341532764e-18
-1.4409383341532764e-18
-1.4409383341532764e-18
-1.4409383341532764e-18
-1.4409383341532764e-18
-1.4409383341532764e-18
-1.4409383341532764e-18
-1.4409383341532764e-18
-1.4409383341532764e-18
-1.4409383341532764e-18
-1.4409383341532764e-18
-1.4409383341532764e-18
-1.4409383341532764e-18
-1.4409383341532764e-18
-1.4409383341532764e-18
-1.4409383341532764e-18
-1.4409383341532764e-18
-1.4409383341532764e-18
-1.4409383341532764e-18
-1.4409383341532764e-18
-1.4409383341532764e-18
-1.4409383341532764e-18
-1.4409383341532764e-18
-1.4409383341532764e-18
-1.4409383341532764e-18
-1.4409383341532764e-18
-1.4409383341532764e-18
-1.4409383341532764e-18
-1.4409383341532764e-18
-1.4409383341532764e-18
-1.4409383341532764e-18
-1.4409383341532764e-18
-1.4409383341532764e-18
-1.4409383341532764e-18
-1.4409383341532764e-18
-1.4409383341532764e-18
-1.4409383341532764e-18
-1.4409383341532764e-18
-1.4409383341532764e-18
-1.4409383341532764e-18
-1.4409383341532764e-18
-1.4409383341532764e-18
-1.4409383341532764e-18
-1.4409383341532764e-18
-1.4409383341532764e-18
-1.4409383341532764e-18
-1.4409383341532764e-18
-1.4409383341532764e-18
-1.4409383341532764e-18
-1.4409383341532764e-18
-1.4409383341532764e-18
-1.4409383341532764e-18
-1.4409383341532764e-18
-1.4409383341532764e-18
-1.4409383341532764e-18
-1.4409383341532764e-18
-1.4409383341532764e-18
-1.4409383341532764e-18
-1.4409383341532764e-18
-1.4409383341532764e-18
-1.4409383341532764e-18
-1.4409383341532764e-18
-1.4409383341532764e-18
-1.4409383341532764e-18
-1.4409383341532764e-18
-1.4409383341532764e-18
-1.4409383341532764e-18
-1.4409383341532764e-18
-1.4409383341532764e-18
-1.4409383341532764e-18
-1.4409383341532764e-18
-1.4409383341532764e-18
-1.4409383341532764e-18
-1.4409383341532764e-18
-1.4409383341532764e-18
-1.4409383341532764e-18
-1.4409383341532764e-18
-1.4409383341532764e-18
-1.4409383341532764e-18
-1.4409383341532764e-18
-1.4409383341532764e-18
-1.4409383341532764e-18
-1.4409383341532764e-18
-1.4409383341532764e-18
-1.4409383341532764e-18
-1.4409383341532764e-18
-1.4409383341532764e-18
-1.4409383341532764e-18
-1.4409383341532764e-18
-1.4409383341532764e-18
-1.4409383341532764e-18
-1.4409383341532764e-18
-1.4409383341532764e-18
-1.4409383341532764e-18
-1.4409383341532764e-18
-1.4409383341532764e-18
-1.4409383341532764e-18
-1.4409383341532764e-18
-1.4409383341532764e-18
-1.4409383341532764e-18
-1.4409383341532764e-18
-1.4409383341532764e-18
-1.4409383341532764e-18
-1.4409383341532764e-18
-1.4409383341532764e-18
-1.4409383341532764e-18
-1.4409383341532764e-18
-1.4409383341532764e-18
-1.4409383341532764e-18
-1.4409383341532764e-18
-1.4409383341532764e-18
-1.4409383341532764e-18
-1.4409383341532764e-18
-1.4409383341532764e-18
-1.4409383341532764e-18
-1.4409383341532764e-18
-1.4409383341532764e-18
-1.4409383341532764e-18
-1.4409383341532764e-18
-1.4409383341532764e-18
-1.4409383341532764e-18
-1.4409383341532764e-18
-1.4409383341532764e-18
-1.4409383341532764e-18
-1.4409383341532764e-18
-1.4409383341532764e-18
-1.4409383341532764e-18
-1.4409383341532764e-18
-1.4409383341532764e-18
-1.4409383341532764e-18
-1.4409383341532764e-18
-1.4409383341532764e-18
-1.4409383341532764e-18
-1.4409383341532764e-18
-1.4409383341532764e-18
-1.4409383341532764e-18
-1.4409383341532764e-18
-1.4409383341532764e-18
-1.4409383341532764e-18
-1.4409383341532764e-18
-1.4409383341532764e-18
-1.4409383341532764e-18
-1.4409383341532764e-18
-1.4409383341532764e-18
-1.4409383341532764e-18
-1.4409383341532764e-18
-1.4409383341532764e-18
-1.4409383341532764e-18
-1.4409383341532764e-18
-1.4409383341532764e-18
-1.4409383341532764e-18
-1.4409383341532764e-18
-1.4409383341532764e-18
-1.4409383341532764e-18
-1.4409383341532764e-18
-1.4409383341532764e-18
-1.4409383341532764e-18
-1.4409383341532764e-18
-1.4409383341532764e-18
-1.4409383341532764e-18
-1.4409383341532764e-18
-1.4409383341532764e-18
-1.4409383341532764e-18
-1.4409383341532764e-18
-1.4409383341532764e-18
-1.4409383341532764e-18
-1.4409383341532764e-18
-1.4409383341532764e-18
-1.4409383341532764e-18
-1.4409383341532764e-18
-1.4409383341532764e-18
-1.4409383341532764e-18
-1.4409383341532764e-18
-1.4409383341532764e-18
-1.4409383341532764e-18
-1.4409383341532764e-18
-1.4409383341532764e-18
-1.4409383341532764e-18
-1.4409383341532764e-18
-1.4409383341532764e-18
-1.4409383341532764e-18
-1.4409383341532764e-18
-1.4409383341532764e-18
-1.4409383341532764e-18
-1.4409383341532764e-18
-1.4409383341532764e-18
-1.4409383341532764e-18
-1.4409383341532764e-18
-1.4409383341532764e-18
-1.4409383341532764e-18
-1.4409383341532764e-18
-1.4409383341532764e-18
-1.4409383341532764e-18
-1.4409383341532764e-18
-1.4409383341532764e-18
-1.4409383341532764e-18
-1.4409383341532764e-18
-1.4409383341532764e-18
-1.4409383341532764e-18
-1.4409383341532764e-18
-1.4409383341532764e-18
-1.4409383341532764e-18
-1.4409383341532764e-18
-1.4409383341532764e-18
-1.4409383341532764e-18
-1.4409383341532764e-18
-1.4409383341532764e-18
-1.4409383341532764e-18
-1.4409383341532764e-18
-1.4409383341532764e-18
-1.4409383341532764e-18
-1.4409383341532764e-18
-1.4409383341532764e-18
-1.4409383341532764e-18
-1.4409383341532764e-18
-1.4409383341532764e-18
-1.4409383341532764e-18
-1.4409383341532764e-18
-1.4409383341532764e-18
-1.4409383341532764e-18
-1.4409383341532764e-18
-1.4409383341532764e-18
-1.4409383341532764e-18
-1.4409383341532764e-18
-1.4409383341532764e-18
-1.4409383341532764e-18
-1.4409383341532764e-18
-1.4409383341532764e-18
-1.4409383341532764e-18
-1.4409383341532764e-18
-1.4409383341532764e-18
-1.4409383341532764e-18
-1.4409383341532764e-18
-1.4409383341532764e-18
-1.4409383341532764e-18
-1.4409383341532764e-18
-1.4409383341532764e-18
-1.4409383341532764e-18
-1.4409383341532764e-18
-1.4409383341532764e-18
-1.4409383341532764e-18
-1.4409383341532764e-18
-1.4409383341532764e-18
-1.4409383341532764e-18
-1.4409383341532764e-18
-1.4409383341532764e-18
-1.4409383341532764e-18
-1.4409383341532764e-18
-1.4409383341532764e-18
-1.4409383341532764e-18
-1.4409383341532764e-18
-1.4409383341532764e-18
-1.4409383341532764e-18
-1.4409383341532764e-18
-1.4409383341532764e-18
-1.4409383341532764e-18
-1.4409383341532764e-18
-1.4409383341532764e-18
-1.4409383341532764e-18
-1.4409383341532764e-18
-1.4409383341532764e-18
-1.4409383341532764e-18
-1.4409383341532764e-18
-1.4409383341532764e-18
-1.4409383341532764e-18
-1.4409383341532764e-18
-1.4409383341532764e-18
-1.4409383341532764e-18
-1.4409383341532764e-18
-1.4409383341532764e-18
-1.4409383341532764e-18
-1.4409383341532764e-18
-1.4409383341532764e-18
-1.4409383341532764e-18
-1.4409383341532764e-18
-1.4409383341532764e-18
-1.4409383341532764e-18
-1.4409383341532764e-18
-1.4409383341532764e-18
-1.4409383341532764e-18
-1.4409383341532764e-18
-1.4409383341532764e-18
-1.4409383341532764e-18
-1.4409383341532764e-18
-1.4409383341532764e-18
-1.4409383341532764e-18
-1.4409383341532764e-18
-1.4409383341532764e-18
-1.4409383341532764e-18
-1.4409383341532764e-18
-1.4409383341532764e-18
-1.4409383341532764e-18
-1.4409383341532764e-18
-1.4409383341532764e-18
-1.4409383341532764e-18
-1.4409383341532764e-18
-1.4409383341532764e-18
-1.4409383341532764e-18
-1.4409383341532764e-18
-1.4409383341532764e-18
-1.4409383341532764e-18
-1.4409383341532764e-18
-1.4409383341532764e-18
-1.4409383341532764e-18
-1.4409383341532764e-18
-1.4409383341532764e-18
-1.4409383341532764e-18
-1.4409383341532764e-18
-1.4409383341532764e-18
-1.4409383341532764e-18
-1.4409383341532764e-18
-1.4409383341532764e-18
-1.4409383341532764e-18
-1.4409383341532764e-18
-1.4409383341532764e-18
-1.4409383341532764e-18
-1.4409383341532764e-18
-1.4409383341532764e-18
-1.4409383341532764e-18
-1.4409383341532764e-18
-1.4409383341532764e-18
-1.4409383341532764e-18
-1.4409383341532764e-18
-1.4409383341532764e-18
-1.4409383341532764e-18
-1.4409383341532764e-18
-1.4409383341532764e-18
-1.4409383341532764e-18
-1.4409383341532764e-18
-1.4409383341532764e-18
-1.4409383341532764e-18
-1.4409383341532764e-18
-1.4409383341532764e-18
-1.4409383341532764e-18
-1.4409383341532764e-18
-1.4409383341532764e-18
-1.4409383341532764e-18
-1.4409383341532764e-18
-1.4409383341532764e-18
-1.4409383341532764e-18
-1.4409383341532764e-18
-1.4409383341532764e-18
-1.4409383341532764e-18
-1.4409383341532764e-18
-1.4409383341532764e-18
-1.4409383341532764e-18
-1.4409383341532764e-18
-1.4409383341532764e-18
-1.4409383341532764e-18
-1.4409383341532764e-18
-1.4409383341532764e-18
-1.4409383341532764e-18
-1.4409383341532764e-18
-1.4409383341532764e-18
-1.4409383341532764e-18
-1.4409383341532764e-18
-1.4409383341532764e-18
-1.4409383341532764e-18
-1.4409383341532764e-18
-1.4409383341532764e-18
-1.4409383341532764e-18
-1.4409383341532764e-18
