0
-1.2386196435026978e-10
-1.2386196389905046e-10
-1.2386196359610233e-10
-1.2386196367678501e-10
-1.2386196432400783e-10
-1.2386196554764484e-10
-1.238619670792338e-10
-1.2386196834272424e-10
-1.238619685598321e-10
-1.2386196701620964e-10
-1.2386196345060015e-10
-1.2386195844657783e-10
-1.2386195363531794e-10
-1.2386195149978348e-10
-1.2386195464547923e-10
-1.2386196458753793e-10
-1.238619803711492e-10
-1.2386199760847608e-10
-1.2386200864842714e-10
-1.238620044531616e-10
-1.238619782471919e-10
-1.2386193016960895e-10
-1.238618712189712e-10
-1.2386182413618357e-10
-1.238618190129814e-10
-1.2386188272881724e-10
-1.2386202383966185e-10
-1.2386221772594702e-10
-1.2386239946943239e-10
-1.2386247245551467e-10
-1.2386233758913698e-10
-1.238619406909307e-10
-1.2386132526826652e-10
-1.2386066777443e-10
-1.2386026781511334e-10
-1.2386047197867168e-10
-1.2386153030117446e-10
-1.2386341700207405e-10
-1.2386568309682206e-10
-1.2386743202402711e-10
-1.238675016999932e-10
-1.2386488309765005e-10
-1.238593063525369e-10
-1.2385180278988127e-10
-1.2384495191930651e-10
-1.2384250881906239e-10
-1.2384823590058518e-10
-1.2386405297906916e-10
-1.2388802165311535e-10
-1.2391306115624164e-10
-1.2392745310128558e-10
-1.2391792469921832e-10
-1.238752876116679e-10
-1.238013368755106e-10
-1.2371434136697268e-10
-1.2364960248901548e-10
-1.236519431944767e-10
-1.2375914500982495e-10
-1.2397924153908223e-10
-1.242692927391794e-10
-1.2452695988146565e-10
-1.2460646312892766e-10
-1.2436520996626977e-10
-1.237359174450561e-10
-1.2280348247005294e-10
-1.2185147294035918e-10
-1.2133769505493023e-10
-1.2176971127307006e-10
-1.2348358423691458e-10
-1.263787150857241e-10
-1.2971396856165613e-10
-1.321011309732551e-10
-1.3181346316001162e-10
-1.2744017876392044e-10
-1.18765094599543e-10
-1.0756655442815088e-10
-9.789871357127708e-11
-9.541452786755294e-11
-1.0550786601591087e-10
-1.3050492926466286e-10
-1.6673728720722053e-10
-2.0287027801623312e-10
-2.2103922078062335e-10
-2.0186323469573045e-10
-1.3311644562218847e-10
-1.9906110277621203e-11
1.077836478012977e-10
1.9542926350170116e-10
1.76594497431054e-10
-1.2430438019602303e-12
-3.427318747027091e-10
-7.74568273942023e-10
-1.1363758181376996e-09
-1.209202149917392e-09
-7.894234554273679e-10
2.0200879806678545e-10
1.6083039310717304e-09
2.9772130056021655e-09
3.612412322653972e-09
2.7749960438555564e-09
2.290664063908013e-11
-4.398911032287491e-09
-9.280465607917375e-09
-1.2482882390461483e-08
-1.1453327629780153e-08
-4.242817471421931e-09
9.182793611799267e-09
2.5814553757917507e-08
3.9316972714997403e-08
4.1219442448723786e-08
2.385142067157239e-08
-1.541300130672191e-08
-6.993294058505948e-08
-1.2169473933944542e-07
-1.4358831699632738e-07
-1.0748767287913209e-07
2.4777727667140858e-09
1.749884378276026e-07
3.6133106472443373e-07
4.777010650919841e-07
4.2613487251837136e-07
1.3456988745921323e-07
-3.926080189819084e-07
-1.0323528815453254e-06
-1.5347239685121627e-06
-1.5724075348755e-06
-8.571133861375346e-07
6.956999103758297e-07
2.806899347699384e-06
4.760151460329646e-06
5.501179984759465e-06
3.9611801963771e-06
-4.2488714697423026e-07
-7.147432905569912e-06
-1.4249626805787346e-05
-1.8451735765224073e-05
-1.5999582800333194e-05
-4.239292200258818e-06
1.6436183659542486e-05
4.101224685524646e-05
5.964139671144347e-05
5.9691096743888306e-05
3.0352803553203567e-05
-3.097268275526626e-05
-0.00011262934195380293
-0.00018617611045132574
-0.00021066071831417956
-0.00014554008322317254
2.910130447274793e-05
0.0002907628447437556
0.0005609953332292934
0.0007115853938331599
0.0005988532882875471
0.00012547997440638821
-0.0006846249696574761
-0.0016277353624141774
-0.00231630894887353
-0.002263203387921289
-0.0010637524879662434
0.0013573237725875737
0.004518383647639489
0.007296313186128557
0.008109908339726853
0.005436564159726812
-0.0013990455886138595
-0.011396398474871847
-0.021399944825972104
-0.02641841049587509
-0.021070758726828162
-0.0021440641011032818
0.028270963870286988
0.06013849511509477
0.07470229673394795
0.046742723791705285
-0.04981512526942035
-0.03393967116870893
-0.10944122728328597
-0.059676550009871585
-0.047388770242851694
-0.02064596127346643
0.07605476424495242
0.08820769275387255
0.038967943039072174
0.12173435818059268
0.10014774041257285
-0.08394708876485381
-0.09631734427592413
0.0063023686382819
-0.20945738282330834
-0.14591857770922023
0.024112162294579496
0.14674804682614606
0.07047429178623328
0.22879270076442593
0.02724628252824623
-0.36198554203085187
0.002395938163658002
0.23953771826444817
0.25978565184300545
-0.01799960435177785
-0.24617254187865667
-0.4284326922693604
-0.1058654702072542
1.4462820031208323
-1.5905010974009335
0.0014903896117027641
0.445303980163339
-0.07030987654709862
-1.4344327005367057
2.3479219111021665
0.7357524383901017
-0.3373005827031799
-0.41589324686608703
-0.44785258936829814
-0.7027555427416642
-0.3097114738809808
-0.03272683514266123
0.11089231155313624
0.1966947808481629
0.32059222298222917
0.5280574713964367
0.7633418233342162
-0.34971524845330654
-0.6940761216326734
-0.4228508770241292
-0.11570910096294855
0.057490290259419055
0.760140231557265
0.3023963133927778
-0.14895542092155567
-0.7615744484009536
-0.43376206882652285
-0.2037629986258475
0.5232918664824601
0.5352496376378045
0.5722420029985902
-0.30041501894008105
-0.2978045398031795
-0.3012147066679879
-0.032740510755194394
0.17215059864527738
0.38900342547999645
0.12495178737378397
-0.26426950143752775
-0.5633306208686742
-0.4982422350922955
-0.15514125820981836
0.3828195398077989
0.7896460696516765
0.8587639993427819
0.2911110995846488
-0.4818280861000246
-0.6457866787903946
-0.7417120349561481
-0.6186286869837084
0.18000827704503466
0.5919078299517685
0.3841876738846662
0.29446968759640607
0.1852770134099206
-0.175105828919773
0.09794284162170132
0.24072475939404514
-0.10857166957134846
-0.45730416675571334
-0.6173361269234717
-0.48877635261752356
-0.07684875671562054
0.45959111908409583
0.7411703425252593
0.7043465558910267
0.1627809478649409
-0.19330764140704454
-0.3608929362785295
-0.3648795861019926
-0.39604217771175454
-0.16487863595456645
-0.08287698707378646
0.12680734214564807
0.19596079064879252
0.4676278980646317
0.2561472772169136
0.02215928298379217
-0.23238471318267587
-0.1515585663316994
-0.20293808291376145
-0.05447262333896942
0.04228968878982764
0.059760991090062145
-0.006458472266662896
0.056339056879405464
0.07004117137394326
0.05877006239169698
0.044622432713647756
-0.15360777222288263
-0.11986581754839286
-0.04042106739932561
0.09482867028885343
0.08937571943923597
0.1372204830401053
0.02242349360445464
-0.07766475312312689
-0.18634282271412073
-0.12128822687326567
0.10904558668040332
0.10502713113563095
0.07238794973594337
0.018038873134088206
-0.052882220516682024
-0.1383265703360771
-0.04000486601033379
0.03536333881494659
0.0740179645841632
0.05363939857525872
0.14452949358859768
0.11532271961240977
-0.05653229488147584
-0.17165705856525246
-0.19745763976862235
-0.26418688222478814
-0.07259543093724265
0.08627592743032785
0.3035522648084341
0.4257787297938595
0.23874757506546582
-0.13124978810799653
-0.19823104199985542
-0.28585796293394466
-0.2960118183013644
-0.08695744621424319
0.1329893405634656
0.19661261552902762
0.15936713411638537
0.07921648170656535
0.0013718306260065542
-0.04881761930182692
-0.06516363395967063
-0.05483939461399441
-0.030898072030972102
-0.005894069528773828
0.011904822557737381
0.019536090737858034
0.01831679344989332
0.01185562496107412
0.004080529171940372
-0.002107486232911191
-0.005364487226777164
-0.005752431576522676
-0.004204400470876931
-0.0019141609897367375
0.00013160891529641968
0.0013848473608184246
0.0017458913714928014
0.001429869445839313
0.0007840116333362888
0.0001308636633507714
-0.0003232210924795641
-0.0005097518642242435
-0.00046882415858682505
-0.0002967363370953872
-9.531962173547978e-05
6.18477693634398e-05
0.00014200808448770402
0.00014844701488782677
0.00010623177674024143
4.6394979760985406e-05
-5.933029624817131e-06
-3.71928184411113e-05
-4.537451505676664e-05
-3.64028088427969e-05
-1.937534600101754e-05
-2.56042171653895e-06
8.876834522977853e-06
1.3345493712982449e-05
1.2012219550039633e-05
7.42450353925191e-06
2.2087785580659177e-06
-1.778038539725395e-06
-3.74534736411458e-06
-3.8238162539580215e-06
-2.6857725041848416e-06
-1.135479645350961e-06
1.9167662471418363e-07
9.667639738744851e-07
1.1579098924755745e-06
9.300432272590933e-07
5.179690263676982e-07
1.2250447027798907e-07
-1.449744764989299e-07
-2.6763671511612507e-07
-2.920467988410406e-07
-2.81773297934488e-07
-2.7603846245051063e-07
-2.6809804224051756e-07
-2.101116269201145e-07
-4.265923729084621e-08
2.6120233580940873e-07
6.542703619098779e-07
9.96419950926412e-07
1.0770802287267465e-06
6.872022876786696e-07
-2.6948914194495056e-07
-1.6596375406277412e-06
-3.052113593450411e-06
-3.7593883017909845e-06
-3.0302021551818183e-06
-3.8522639862519404e-07
3.987370003513893e-06
8.936755265636945e-06
1.2358170579924659e-05
1.167725193266151e-05
4.846919387883777e-06
-8.337189265735175e-06
-2.506620377574846e-05
-3.915334952578102e-05
-4.212246051075551e-05
-2.6056591548745954e-05
1.2175590983495618e-05
6.659881869255132e-05
0.00011979018440884615
0.00014482096327540588
0.00011301019222478056
7.042190493924423e-06
-0.00016390316746759846
-0.0003532956741784488
-0.0004785066274378731
-0.0004405775195960401
-0.00016351115691568292
0.00035494642242532353
0.0009993893880183035
0.0015253280614996548
0.0016047465225853476
0.000939264519496595
-0.0005756220866727456
-0.0026865065068995913
-0.00469917843518252
-0.00556477412326649
-0.004190535099283602
4.777747355231599e-05
0.0067275914742521235
0.013982576894622884
0.01858856483211721
0.01677095672723778
0.005754794991053294
-0.014276626997861735
-0.03854828607912794
-0.057394164801007855
-0.058249710067506434
-0.030358498227821273
0.0284084579041194
0.1045010307071596
0.16432765797015522
0.15566927899469865
0.016729686765742983
-0.1079411094368941
-0.24863420366078542
-0.19511785292198297
-0.09114674535374011
-0.04266024906559887
-0.13907170109027372
0.31759624175056284
0.7844625531561005
-0.5397481129288834
0.2859093608300307
0.7653136543571101
-0.1984329954432222
-1.4616563505485185
-0.20913524472915407
-0.5497770857137244
-0.34788951581681504
0.9158166813296921
1.675155593556718
1.031850760829962
-0.04226146943503138
-0.6462096574522008
-1.2514346653147157
-1.200758320951367
-0.6450075034982676
0.056534139504076465
0.6704228846483776
0.981487015080027
1.0819085670779347
0.6957256185756883
0.1635924577281623
-0.709990820778814
-1.1678697563680867
-1.2057599691551373
-0.5088380935694189
0.3580656843464028
0.9075274195649173
1.0567865183017902
0.6589256609931025
0.06691571800720587
-0.457454687397128
-0.6981134229059259
-0.8256600986711538
-0.5509879240717265
0.09050443016658509
0.721902282377042
0.9889139599381755
0.9282785313144023
0.1608256750373388
-0.8846704265205313
-1.5299350667020193
-1.0149059143188304
-0.30118855231771635
1.0788829704824359
1.5424157390705282
1.179126616892664
0.11308275532939245
-0.6783985713157926
-1.2965356206564518
-0.8327438013949289
-0.09488108274016364
0.42851631448486055
0.5624657190455037
0.4116161063581772
0.11797813596813052
-0.17412532555747734
-0.3399315841753494
-0.2856034654998039
-0.1553207116528164
0.26179899338065554
0.7263004435030942
0.5505291280728456
-0.5858200307443456
-0.40704858781059144
-0.4086077993271851
-0.43358135666826414
-0.06883028995399668
0.9381154803239584
0.4503870079154144
0.11559195281738956
-0.24628327797621358
-0.4382341818720242
-0.2714106192100683
0.04957198326773908
0.13362970542040747
0.20107825715008704
0.07601054877399595
-0.021668027688055733
-0.08112664014996347
-0.10188493038019518
-0.09293877180441208
0.12861956921280426
0.13910461978564673
0.11095429951795753
0.018070101947376595
-0.15619535579303248
-0.21070271577481553
-0.1217742652849609
-0.045541367137424
0.0717120899511156
0.27794139283986063
0.2000015842930165
0.03457097702665486
-0.05097996638534825
-0.10814961041536626
-0.19146484653194737
-0.14319381476956133
0.016214691232214733
0.08953580024948526
0.09696190222751089
0.06650034229827956
0.0245967181528713
-0.010113586877242913
-0.028913858020216364
-0.03162853246233304
-0.023313257372475842
-0.010652375939937122
0.000766009117073874
0.007803395376031567
0.009851444549522739
0.00809007960932827
0.004459857053011153
0.0007751203000374307
-0.0017970315111308364
-0.0028639670050062626
-0.0026460901677505546
-0.0016832672277771095
-0.0005493016800998216
0.00033939230081322805
0.0007958115039316144
0.0008364161275150773
0.0006012734725096695
0.00026498778148066214
-3.0427464899480964e-05
-0.00020786183817766838
-0.00025531540950730436
-0.00020572737857578048
-0.00011020001640926946
-1.5392895556398866e-05
4.9395208040859913e-05
7.498650709591883e-05
6.77964239259723e-05
4.210632020701047e-05
1.272135028432941e-05
-9.83853240300793e-06
-2.1045177443463347e-05
-2.1573674101103342e-05
-1.5180894101195696e-05
-6.402185070814715e-06
1.148769624139167e-06
5.568297349366873e-06
6.628328949405498e-06
5.232132316717749e-06
2.7171543380594996e-06
2.7851393317688933e-07
-1.351394792315238e-06
-1.961340728421553e-06
-1.7357200258083878e-06
-1.0517581530876196e-06
-2.910626998368168e-07
2.8098093154282843e-07
5.552795244263665e-07
5.556500230058199e-07
3.8258005897824817e-07
1.5373519017716882e-07
-3.9040990487587524e-08
-1.488826106353476e-07
-1.7199691410522244e-07
-1.330278538639138e-07
-6.692778233004686e-08
-4.272546201120946e-09
3.666551723874458e-08
5.109675658934791e-08
4.425607362426379e-08
2.6088918651774373e-08
6.420045131955716e-09
-8.065770357126172e-09
-1.4755019296506677e-08
-1.442520064674545e-08
-9.75699145669734e-09
-3.799380294959066e-09
1.1163512438734049e-09
3.8399953363522405e-09
4.327319327377706e-09
3.2476768299923377e-09
1.5132137543307588e-09
-9.473009809486863e-11
-1.1212225852067815e-09
-1.4597217438589066e-09
-1.2573481105451284e-09
-7.758484613677391e-10
-2.6787881199667067e-10
9.844141842902552e-11
2.609063087998979e-10
2.4372298603709643e-10
1.1822722255465914e-10
-3.6669203486970325e-11
-1.6186742879522517e-10
-2.292335039814778e-10
-2.3899927024868834e-10
-2.0927286445989264e-10
-1.6382748874522533e-10
-1.226083333450348e-10
-9.691925504968295e-11
-8.907112284890056e-11
-9.496272426913986e-11
-1.077125744404779e-10
-1.2082375394896858e-10
-1.3006735650748776e-10
-1.3396893906590015e-10
-1.3326012171967875e-10
-1.298462843600655e-10
-1.2578851022788194e-10
-1.2260912432174404e-10
-1.210148492080349e-10
-1.209673836829507e-10
-1.2195105445331734e-10
-1.2328511768709531e-10
-1.24375237388475e-10
-1.2486000981577748e-10
-1.2465720212452443e-10
-1.2393789438311333e-10
-1.2305645627992093e-10
-1.2245148504372104e-10
-1.2252184006761874e-10
-1.2348369585628968e-10
-1.2523186872956385e-10
-1.2725421868856755e-10
-1.2866591944151596e-10
-1.2842202900064087e-10
-1.257186050337091e-10
-1.205056953324974e-10
-1.1393232732139205e-10
-1.0846797318359518e-10
-1.074520723032261e-10
-1.1395856487287838e-10
-1.2913385290247199e-10
-1.5051885902440894e-10
-1.71171470378309e-10
-1.804863137640033e-10
-1.672938037112148e-10
-1.2503521964489232e-10
-5.766935536556853e-11
1.61749887800166e-11
6.38651232595803e-11
4.6717954287865745e-11
-6.444867055579389e-11
-2.6942041470782753e-10
-5.216298853804531e-10
-7.242013538620163e-10
-7.484923734078857e-10
-4.790526216813805e-10
1.2182311156958873e-10
9.503875764373609e-10
1.7304663130431921e-09
2.0494794423885554e-09
1.4825946834448283e-09
-2.0501918002094568e-10
-2.8321806810138056e-09
-5.649518617405578e-09
-7.378981095844513e-09
-6.536820440895829e-09
-2.0454192280405773e-09
5.9999093786933346e-09
1.569708845663315e-08
2.322595427676982e-08
2.3617586503207074e-08
1.253630995271822e-08
-1.1216049497711436e-08
-4.3288579717718584e-08
-7.270463051734068e-08
-8.342552583460245e-08
-5.9316562773947034e-08
7.957245796204729e-09
1.1029633888175826e-07
2.1761909947885192e-07
2.799275643176935e-07
2.40387278806373e-07
5.936825436422195e-08
-2.560386360392286e-07
-6.283979349145135e-07
-9.072610466224197e-07
-9.009309954253428e-07
-4.4699239727103246e-07
4.906512956079184e-07
1.7306693805825428e-06
2.8374655069084174e-06
3.188263936835887e-06
2.17138021098133e-06
-5.058917311809507e-07
-4.487883641693667e-06
-8.569496274791341e-06
-1.0797058409195995e-05
-8.996637594917266e-06
-1.7175475028351167e-06
1.063293308151136e-05
2.491185504966208e-05
3.520163576895942e-05
3.411587154853887e-05
1.5586946414052138e-05
-2.1378268646576218e-05
-6.92635975128252e-05
-0.00011080862047199448
-0.00012185910963308732
-7.926939756844067e-05
2.7105404616231676e-05
0.0001818633688960438
0.0003368172374995258
0.00041571121625135616
0.00033550767175237635
4.337104020494241e-05
-0.00043976553432498026
-0.0009866982323121908
-0.00136494967701069
-0.001290205920706685
-0.0005362731094995549
0.0009198715546781813
0.002769120669235746
0.004330374934843587
0.004671291367881654
0.0029235208732142403
-0.0012499698822191162
-0.007177854385026597
-0.012924517477782829
-0.01551349256375369
-0.011807106819427583
-7.80739655120948e-06
0.018563233385352134
0.03806428108100535
0.04791655925994149
0.03441818666015239
-0.01573339968969233
-0.11080256408372051
-0.04986512227732295
-0.020987965292011763
-0.0029240473484875838
0.029811863750733383
0.09995439706211834
0.020794363428534333
-0.008128039993052795
-0.0017147124866612382
0.013687348005239295
0.0061184909546297935
-0.05466460767375015
0.010130306679782859
-0.005839337527558848
-0.09096574623149384
-0.01617457865759744
0.0608206798678054
-0.011914980531574833
0.010201616689909631
-0.041058513255018525
0.04560674032239473
0.05663848559453598
0.1539419982240274
0.08097353840334166
-0.02551572953411003
-0.2201587390005366
-0.1342452937239796
-0.16667432744707997
-0.08443556893164965
0.1667565695733459
0.24499915328509914
0.19413328804689353
0.031672960410911694
-0.05319663320568701
-0.09168896853103393
-0.1214889784044815
-0.17256560945366967
-0.05791911161797583
0.027875296295193693
0.1026509347170947
0.1863782758473398
0.09133347632389595
0.016839290782722376
-0.04961248177428704
-0.12602960580847347
-0.22781101412750265
0.03817624968933714
0.074792924204111
0.09118933544723622
0.0971999716541956
0.09882972113548269
-0.10295936764301233
-0.11005988680117201
-0.12348257498448044
0.05935790456796339
0.04466474344347679
0.0397429966845113
0.049573796641993816
0.07441500669178576
-0.09039672765520097
-0.05250130063650428
-0.019541820047982283
0.0033719005921919883
0.014776494885019012
0.01643814340558272
0.011975719861469237
0.0052913835316238085
-0.0006057458429163133
-0.004129316370235022
-0.005046145145360006
-0.004032072272797827
-0.002118869079094482
-0.00023876484022036814
0.001030339072199633
0.0015147306362258142
0.0013501968546782116
0.0008256424669979619
0.00023650026530247612
-0.0002099602017430214
-0.00042698496615744354
-0.00043118078446838394
-0.00029940328303452036
-0.00012267667994191002
2.7388498967893935e-05
0.0001137939625849825
0.0001329787803687188
0.00010364982554322443
5.277075582249848e-05
4.1219517232199855e-06
-2.794551996637041e-05
-3.952179223222113e-05
-3.452267843595113e-05
-2.059451819456299e-05
-5.359760064491041e-06
5.951144454953896e-06
1.1252243396047629e-05
1.1097685045828453e-05
7.539313952341469e-06
2.936807712934391e-06
-8.911857761974286e-07
-3.035449853212328e-06
-3.445717232109552e-06
-2.6308859153225924e-06
-1.2949722162691954e-06
-4.5921254066754686e-08
7.586825198708251e-07
1.0311714574178707e-06
8.82001737399881e-07
5.125471315710178e-07
1.189150505970269e-07
-1.6727058987547976e-07
-2.962307579241122e-07
-2.854952190521263e-07
-1.8971640042301254e-07
-6.999366438346833e-08
2.754673154986262e-08
8.063593110182604e-08
8.904457543753656e-08
6.656007063250903e-08
3.153951078105887e-08
-4.927986541014042e-10
-2.064583964151452e-08
-2.6998177348899553e-08
-2.2637454716790844e-08
-1.2857947131388812e-08
-2.699262589711567e-09
4.531606436079685e-09
7.655164654668114e-09
7.205863319171323e-09
4.635978694757699e-09
1.5256739643719562e-09
-9.567036321204401e-10
-2.2676990791722267e-09
-2.4287139703426137e-09
-1.8118830285915434e-09
-8.95222388544266e-10
-7.468590597016929e-11
4.291650067456057e-10
5.755231840032415e-10
4.5004365520344463e-10
1.9168957470016536e-10
-7.017802382165648e-11
-2.526117974053971e-10
-3.2789723675128137e-10
-3.119098795717987e-10
-2.431559804623891e-10
-1.6245389076315536e-10
-9.935670168323611e-11
-6.707411420347072e-11
-6.435559692699541e-11
-8.119101459142675e-11
-1.0514912674055384e-10
-1.2614318961852724e-10
-1.3871528118074173e-10
-1.420382934439966e-10
-1.3847315062776705e-10
-1.3166172551420767e-10
-1.2492063348606978e-10
-1.203262747766956e-10
-1.1852262346955677e-10
-1.1904636379488667e-10
-1.208781024234476e-10
-1.2296482825623135e-10
-1.245612518406134e-10
-1.253499506963241e-10
-1.2538378879711262e-10
-1.2493344694906895e-10
-1.2432212210779579e-10
-1.2380357028545505e-10
-1.2350596076059838e-10
-1.2343575484518702e-10
-1.2351961882318942e-10
-1.2365858771446408e-10
-1.2377371283752712e-10
-1.2383140209755587e-10
-1.2384559718124797e-10
-1.2386066211225726e-10
-1.2392296167751706e-10
-1.2405112278171578e-10
-1.2421544333710776e-10
-1.243357653379648e-10
-1.243036345586694e-10
-1.240279581342807e-10
-1.234938212682954e-10
-1.228136730526472e-10
-1.2224289832207796e-10
-1.2213328477254345e-10
-1.228126625056376e-10
-1.2440784570904958e-10
-1.2666522314032352e-10
-1.28855625531237e-10
-1.2985871164938128e-10
-1.2848901469756115e-10
-1.2404296760038974e-10
-1.1692553051223115e-10
-1.0909390611401387e-10
-1.0399366505699817e-10
-1.0572429190658779e-10
-1.1739821729724562e-10
-1.390339448726371e-10
-1.6575113625729208e-10
-1.8733237093011112e-10
-1.901607663469691e-10
-1.619575510058106e-10
-9.860999020193658e-11
-1.0938042931942168e-11
7.197053445799553e-11
1.0649200388508353e-10
4.752811976101216e-11
-1.3012445745173473e-10
-4.0780586567015055e-10
-7.067294079728929e-10
-8.919096211295235e-10
-8.06066106782563e-10
-3.341935504115586e-10
5.152237646275488e-10
1.542715978977452e-09
2.3452761418267103e-09
2.3968302446349714e-09
1.2360642748100598e-09
-1.2686430098459387e-09
-4.66299079947483e-09
-7.790556741802093e-09
-8.95517012852421e-09
-6.443529469242279e-09
6.403941306561599e-10
1.1459407037523299e-08
2.2849661496274163e-08
2.952939606512829e-08
2.547258244538294e-08
6.446667958924811e-09
-2.686055548944413e-08
-6.632398746230975e-08
-9.606857414157094e-08
-9.579451486608218e-08
-4.8213118565158575e-08
5.0685268673235186e-08
1.819476673588895e-07
2.996706187502595e-07
3.379793635463333e-07
2.319001779373464e-07
-5.009638650323711e-08
-4.711451143728942e-07
-9.044556027001363e-07
-1.1436015470905658e-06
-9.58028291523012e-07
-1.92669578065607e-07
1.1118171304451251e-06
2.625483283235998e-06
3.723780464391759e-06
3.624354490811132e-06
1.681008642763952e-06
-2.2188086408190023e-06
-7.288792060338539e-06
-1.1709560783460754e-05
-1.2925653717506899e-05
-8.477663841210762e-06
2.7299683828901647e-06
1.9097424642789658e-05
3.555344948689574e-05
4.403963119663113e-05
3.5747900540871164e-05
5.026187566985012e-06
-4.600429602933113e-05
-0.00010398258925134337
-0.00014436865323497222
-0.00013704857486085824
-5.7940231270670066e-05
9.563711964873492e-05
0.00029121889346695406
0.0004567935274336091
0.0004933347026963724
0.0003079202545595385
-0.0001369341119908606
-0.0007726251824445517
-0.0013966884184905993
-0.001694852817170951
-0.0013309521190753096
-9.972049379536046e-05
0.0018964115950601157
0.004119854375242899
0.005611374627970594
0.005219994031849726
0.002061742011058161
-0.003886161418006634
-0.011271126798847972
-0.017234567722104566
-0.01796086400858805
-0.010049296304282569
0.007451084663411445
0.030891444964038294
0.05063169041769204
0.05134918861198796
0.014631610778109328
-0.07636358488468882
-0.031397702513855895
-0.048713330165210955
-0.1135859966018348
-0.0009497777407939726
0.11823459584464875
0.06875472573753899
0.06397917381897358
0.10253285921120024
-0.02977281622232681
-0.15339437260690794
-0.08641183356928359
-0.0371641784349758
-0.0008985831120231775
0.03867135225427533
0.10402572801261877
0.01708510233019447
-0.0065118045588865745
0.03946750697311003
-0.04836241372909214
0.11895076943888205
-0.2745776285260531
-0.04803665499675319
-0.0240245536118338
0.16861323121644362
0.09154596497139798
0.29646262248591054
-0.06982825764235077
-0.25429304811801595
-0.08351103700363607
-0.15170450101346059
-0.015935324298624615
-0.0007641594494823291
0.18885203444834536
0.05038502294952772
0.06727962704230718
0.09740585753973575
-0.03149038505013081
-0.11972251953135823
-0.18938414743839097
-0.07709992537985262
0.1717847437588424
0.30739134305284355
0.07979684444709428
-0.15415392280573717
-0.22210032368745977
-0.3290246709872955
-0.05641071278883179
0.22987715269440934
0.36518355689100707
0.17134387637240403
0.0485306759663532
-0.2228415997382412
-0.27198960413838874
-0.12525732911997223
0.0024336149895568793
0.10877347818997873
0.1987484340634121
0.07675864457124716
-0.059395466218579
-0.02004173354848464
-0.020702619526880493
-0.0766247726938278
0.0027729137195702017
0.017592490197102763
-0.021715183002768233
-0.09651184209951195
0.015408939046647231
0.13384824756811406
0.07058917612117714
0.026149838501112944
-0.009699453310722953
-0.05373807312435969
-0.12307866790472455
-0.029402070882590923
0.024236951571970828
0.043199666614842556
0.03833121809421847
0.02193401127591223
0.004294616669974345
-0.008247019834929224
-0.013528555281085623
-0.012553179630137414
-0.007942571853477113
-0.002494891954890817
0.001762909832782561
0.003925841507677941
0.0040799784240727706
0.0029099817720417867
0.0012643329231360547
-0.00017042089767368962
-0.0010249134586619059
-0.0012460165100058236
-0.0009974615545974789
-0.0005292377565942394
-6.800402119021459e-05
0.0002450033607182342
0.00036663424402470416
0.0003292564759018522
0.0002029292276293536
5.971561265944332e-05
-4.952329404810142e-05
-0.00010320080991110677
-0.00010498412712300983
-7.337577203809732e-05
-3.0495476329692817e-05
6.145837340844859e-06
2.7413794926126765e-05
3.232252868514097e-05
2.5349467637115213e-05
1.3032704099739077e-05
1.1754477559545755e-06
-6.693669551911232e-06
-9.585547337494118e-06
-8.426372258715649e-06
-5.06539926504981e-06
-1.3592999943119978e-06
1.4095183114887332e-06
2.721894835136394e-06
2.70349187520912e-06
1.848791633548362e-06
7.314508801965971e-07
-2.0365752327394525e-07
-7.318699302010205e-07
-8.379134289258842e-07
-6.437672293876923e-07
-3.202190716198381e-07
-1.5683796914796686e-08
1.8185946630345144e-07
2.5010573353403356e-07
2.152598590094884e-07
1.260494157719612e-07
3.025848153601572e-08
-3.9826139943248674e-08
-7.179121649350806e-08
-6.966905727940796e-08
-4.664032790558336e-08
-1.756414806729539e-08
6.271791259038024e-09
1.9359371596503313e-08
2.1565008680947677e-08
1.6197452465603828e-08
7.71179989144361e-09
-1.0072924515481388e-10
-5.051182179257682e-09
-6.647004805605671e-09
-5.62262222196172e-09
-3.259810024024432e-09
-7.869775626224514e-10
9.843031589618383e-10
1.7593129404740918e-09
1.662305592794013e-09
1.0439167259371446e-09
2.886793266777486e-10
-3.173876652193682e-10
-6.398923140838017e-10
-6.824227168331319e-10
-5.348643841068463e-10
-3.136995068099503e-10
-1.1578653938983827e-10
4.941925793044682e-12
3.896494861575612e-11
8.251888842065574e-12
-5.19603299749755e-11
-1.0928916891895553e-10
-1.441068946909677e-10
-1.5233996265572919e-10
-1.4252785803736573e-10
-1.2950700938376887e-10
-1.271432846799288e-10
-1.4213164711490912e-10
-1.7039949951555237e-10
-1.9721220878395494e-10
-2.0154424480806406e-10
-1.6439483829617365e-10
-7.936072432177343e-11
3.786762091260864e-11
1.4571901679701139e-10
1.8331498620529316e-10
8.990391480813919e-11
-1.6498344264801476e-10
-5.491574073957637e-10
-9.47639355461838e-10
-1.1716313092916812e-09
-1.0089490058030815e-09
-3.1510179795860467e-10
8.762449523451732e-10
2.2665562739076585e-09
3.2859250891880216e-09
3.2165037320913046e-09
1.4604424414875579e-09
-2.09582981557759e-09
-6.74457129781244e-09
-1.0828834275003562e-08
-1.2008119168083323e-08
-8.015077136711317e-09
2.1846365363819884e-09
1.7166950461305272e-08
3.2324254772906606e-08
4.028830118187269e-08
3.2959057641845243e-08
5.0718057706895895e-09
-4.15626058718146e-08
-9.484330576120911e-08
-1.323702870036833e-07
-1.2650560912352204e-07
-5.4953627478222435e-08
8.515046731620227e-08
2.6455056008179664e-07
4.176435856009246e-07
4.5371303500859093e-07
2.870591059502437e-07
-1.1785500018003262e-07
-6.997737256504761e-07
-1.2746557431246796e-06
-1.5551042545339917e-06
-1.2320107224386705e-06
-1.1428709997176323e-07
1.708459698789862e-06
3.7471636835320976e-06
5.122462107813949e-06
4.771521332795545e-06
1.8653286788168724e-06
-3.6470378777431008e-06
-1.0561686431061498e-05
-1.628487834241825e-05
-1.7304560260157876e-05
-1.0388150221228624e-05
5.662173022412058e-06
2.8238124474911833e-05
5.0001543645195096e-05
5.975541179954115e-05
4.57221518284376e-05
1.0108642163455392e-06
-7.015033302483821e-05
-0.00014804419135350878
-0.00019819103086322264
-0.0001797725050122976
-6.206872558392178e-05
0.00015454045721923954
0.00042071049121899796
0.0006340278477364211
0.0006586759994241259
0.0003729768382548331
-0.00026244137526010796
-0.0011374693600383467
-0.0019600107631035793
-0.0022942730861163015
-0.0016920492834544025
9.378747558223364e-05
0.002871166271711347
0.005849289514822068
0.007682151929504384
0.0068117916118607584
0.0021163026128847916
-0.006280016593504976
-0.01634084419258505
-0.024012352842102475
-0.024065372800310285
-0.012042065771287419
0.012967830279255214
0.04552825667809461
0.07226623054231147
0.0727632623804864
0.023639948381845032
-0.09463999289340035
-0.09017840350148525
-0.15422795115777643
-0.06079494733983265
0.027448048173545778
0.14816530562323946
0.12693170733405154
0.16818525045464083
0.0535423333019131
-0.05115839098719152
-0.18215095790571062
-0.1623171338325322
-0.190036226184206
-0.03693630863753624
0.14420613841206303
0.20423542544937823
0.180861308714217
0.08667679625905578
-0.0940296178028562
-0.19952910937878396
-0.07933943486349847
0.017855804927426538
0.053259305168520114
0.002506522936936919
0.05620686220874688
0.017716053465433052
-0.10094320988520523
-0.08478786882474099
-0.12335570511683105
-0.019595297344691634
0.20176436536275602
0.2903051428209063
0.37550080138164094
0.3854039512473249
-0.3227059205648848
-0.9281015878664849
-0.9236759887096515
-0.319901080737236
0.3171733173389674
1.4023462708514898
1.0653611075340508
0.11046422954018793
-0.3806589025326448
-0.8042291044284179
-0.9678737545308642
-0.029269810738079816
0.5394089496671411
0.15488284346911008
0.10089165012833436
-0.1062779569109129
-0.1537728355889329
0.23728388931162897
0.29095388606508643
0.16870000911915048
-0.023313265280243013
-0.21311130803230988
-0.3336606971954128
-0.09405207481061555
0.04084580252170998
0.05793154055613385
-0.008996167783207236
0.10726158426938458
0.09013644484257118
0.022917102876028755
-0.02378671894281108
0.0005236157141713636
-0.07645742546751803
-0.04911036670391761
0.06887489977001728
0.048521907398991794
0.05082581618124855
0.03350058271588774
-0.04106276585741311
-0.19796364792246873
-0.04427089155247837
0.032139424528368564
0.058722185602586366
0.07067552326687128
0.10227974212755815
-0.020184286019099416
-0.08247994109672786
-0.08358081114716227
-0.035212722364626414
0.03902368373242746
0.10482181344093147
0.11975194592801551
0.0388025202475479
0.023517981449487618
-0.14656909914260996
-0.2635481429783691
-0.0860701148624219
0.05711107211486851
0.05463602762631764
0.19421476878615224
0.14388279070854648
-0.06178726806252992
-0.027223609608713322
0.007242687104820023
-0.024820763120833787
-0.0023862361253558528
-0.002583464170488647
-0.0880663335821361
-0.09826987847832325
-0.04606810281243766
0.07976874621237844
0.10748590622826316
0.073201998031028
0.012680557336645982
-0.04397034834944456
-0.07437712038037075
-0.06392211452733075
-0.005309626270001272
0.10137683795819338
0.048358050529434045
0.020653562176492602
-0.0016446226383235874
-0.03929565018402566
-0.10912701922096325
-0.020238016486799477
0.027389958014827475
0.04147334803458509
0.03399542168517123
0.017263177441557444
0.0008485005700644467
-0.009853719159882333
-0.013475105031818032
-0.011467925908247545
-0.006543531011130722
-0.0013336763877772613
0.0024116249992132883
0.004048106849852347
0.0038311106878044514
0.0025039553093416296
0.0008855181050476137
-0.0004138692156490456
-0.0011067836683218298
-0.0012001143006100938
-0.000885023346259763
-0.0004097595956015982
1.867259463922357e-05
0.00028389720478335956
0.00036316589683888515
0.00030006534783293863
0.0001665647559047456
3.0151601023902708e-05
-6.556561339143675e-05
-0.0001056850440179928
-9.811499267286875e-05
-6.273036650908253e-05
-2.078017892711647e-05
1.224314881272262e-05
2.93205706327159e-05
3.0983200513209584e-05
2.2373821524940195e-05
9.949552386673914e-06
-1.01434625117027e-06
-7.635378113645175e-06
-9.443877632889547e-06
-7.64333088302073e-06
-4.12062764250134e-06
-6.067114766608522e-07
1.8058828231410725e-06
2.76924003897039e-06
2.5150959881423487e-06
1.5697295020839482e-06
4.817373027498305e-07
-3.5716911155278595e-07
-7.766551853092568e-07
-7.995939133289929e-07
