0
5.583495438880926e-06
5.35366121941442e-06
5.294411841367555e-06
5.533959221658881e-06
6.1276808872663745e-06
6.988553569849357e-06
7.84738604416328e-06
8.279745606607156e-06
7.825019383909346e-06
6.192412771404676e-06
3.5028261708774148e-06
4.6823358178085063e-07
-1.6161138981628487e-06
-1.1714596285054256e-06
3.050973547909847e-06
1.1163032536133802e-05
2.142460420414617e-05
3.002624025211013e-05
3.1765417401954144e-05
2.180185304110525e-05
-1.7468583975690824e-06
-3.5160717622930517e-05
-6.769879520060289e-05
-8.281739396622742e-05
-6.295498119293276e-05
2.4039491612822025e-06
0.00010745691239349745
0.00022347154344518535
0.0002996362335226733
0.0002752855649572542
0.00010407790664198358
-0.00021485260156218737
-0.0006100738241318039
-0.0009310948393269215
-0.000976642824769511
-0.0005643794280310086
0.0003682477369889939
0.0016636475267887416
0.002893965496723703
0.003415060392869602
0.002558396304969243
-5.366588680581522e-05
-0.004152928207640364
-0.00858265578681979
-0.011351828451796104
-0.010131873779052046
-0.0032077294041599246
0.0093220915457066
0.02454387450926024
0.036535170106909674
0.037544910047903446
0.020764047384753903
-0.01575528481179403
-0.06529997128370674
-0.11076902153777851
-0.1271047144182375
-0.0891671663168399
0.01552520879839414
0.17237157782401313
0.3292334763727174
0.39662897125103785
0.26353125490382207
-0.17134030130782096
-0.7602711630729709
-0.8735955186394755
-0.18892479142711094
0.6879059216261146
-0.42680450811102477
0.8424719651437064
1.1759768187502448
0.13219146628941147
-1.0403482042064864
0.24320653930266123
-0.4318758855456361
-0.6195716890000085
-0.174456539711913
0.15603261703890065
0.30934066756293466
0.2653485241625674
0.19831184823142545
0.03689219538247862
0.04091200324816235
-0.00283491269612235
-0.1685404527743478
-0.16896623058570803
0.07064717653325087
0.036714652669555856
0.04602295731994968
0.057501954659215176
-0.323763673836753
-0.25131873373800234
-0.05168432951262657
0.3531033581318095
0.21989292750865497
0.3639420260902898
-0.04856385450002823
-0.09138591968455365
-0.2550267690911082
-0.016900691090882464
-0.014012319239643608
-0.22579713264779697
-0.17173175416968625
-0.12501074789093178
0.059921804391405126
0.31211356020520825
0.5106947404385466
0.2639357960087725
-0.09163706978885089
-0.27132065449937703
-0.408631647775027
-0.22010813135412854
0.019789914143975296
0.08709715174822241
0.00030231802164837237
0.20136933195539505
0.13357687639605728
0.023405613413874232
0.07139693400544424
0.05377061607830574
-0.06651984185291793
-0.12306187879106778
-0.1288088332862945
-0.06385202229636877
-0.07224381814234249
-0.06950484565914192
0.040456541542134655
0.14290969047308033
0.09008994311205439
0.28551678365085803
0.08001026757116894
-0.01832537474694393
-0.12195327190437624
-0.13538569793395627
-0.3285063898331187
-0.11978048741349787
-0.07457151220390082
0.08095577151684245
0.2350818382586351
0.4635308574951311
0.2097304320420133
-0.12102423144898773
-0.3528365307965598
-0.32174581864991797
-0.25889259976480217
0.217873205891082
0.3017013881181305
0.18765594516227366
0.06377466081650104
-0.092198555642138
-0.30915301718025584
-0.014771634989422468
0.1723547282268152
0.04792942109497593
0.024075905000354572
-0.07087292589670292
-0.19474164083899193
-0.09681595150559846
0.07330476216606027
0.15440630856144077
0.1632888121056268
0.2898731432004145
0.10117000152448835
-0.4460056762738865
-0.3881977132768062
-0.14197515153002005
0.09922687273155818
0.15648221519473937
0.4496045806916137
0.18251998694262583
-0.06285340965095561
-0.32162831737189274
-0.23314068832270024
-0.027126927808022394
0.08490872511494187
0.11068250929077408
0.0720417748313596
-0.002665907099338145
-0.08564733917833778
0.04537646191490195
0.004458786725371761
-0.0033920986120124846
0.018565915006752906
0.0609720034380237
-0.08845708002040521
-0.04141817349354354
-0.006135696770931208
0.014056739523498991
0.020398747233672347
0.017098234556931744
0.009287345915915854
0.0013217394521979002
-0.004147861579219126
-0.006295256945343337
-0.00566439400438801
-0.0034765157578816154
-0.0009920118717845598
0.0009000546614366639
0.001823486435585744
0.0018437067827380596
0.0012847607726871534
0.0005329183628852393
-0.0001068938913710922
-0.0004764726231533249
-0.0005598832521845758
-0.0004362329207805256
-0.00022012483072777738
-1.2898164523506077e-05
0.00012409566804425282
0.00017393642156625233
0.00015309316569148875
9.402650212443736e-05
2.919381101532307e-05
-1.9070314452243506e-05
-4.180065915543732e-05
-4.128679429404577e-05
-2.622561730618894e-05
-6.656241157891878e-06
9.663416311288887e-06
1.883796095575752e-05
2.0630653107293606e-05
1.7193548758717764e-05
1.15191231103184e-05
6.198488422648068e-06
2.760824753975091e-06
1.5865483054502804e-06
2.2105817538904652e-06
3.7778901000300264e-06
5.453314275411848e-06
6.674692556491846e-06
7.227896653469281e-06
7.185789802166418e-06
6.7801173541163295e-06
6.270906117421969e-06
5.85500627416951e-06
5.627911778716628e-06
5.5911908636519786e-06
5.686456831339551e-06
5.835545294337371e-06
5.972106546352317e-06
6.057938775596076e-06
6.084597626989769e-06
6.065200697346318e-06
6.022572063784583e-06
5.978723224722405e-06
5.948384752612729e-06
5.937031938388002e-06
5.942308512037596e-06
5.957164939544894e-06
5.9732171707924545e-06
5.983422551372001e-06
5.983778570549958e-06
5.9741219479863065e-06
5.9581704991763e-06
5.942808109121192e-06
5.936464404775964e-06
5.946489638655687e-06
5.9757820632366494e-06
6.019533079107834e-06
6.063569933236369e-06
6.086015171627091e-06
6.0634592968909256e-06
5.981357644488673e-06
5.846099409884509e-06
5.693845436895978e-06
5.589925596116314e-06
5.613595232339096e-06
5.82712739002909e-06
6.235342533016298e-06
6.749943174610246e-06
7.179007782031539e-06
7.261427003857412e-06
6.755407300549753e-06
5.568819912895965e-06
3.891454347506718e-06
2.2651096057652156e-06
1.5209004341358529e-06
2.5376002817314237e-06
5.836234688145449e-06
1.1115668573739429e-05
1.692380777972107e-05
2.0705167030075632e-05
1.9419817197596954e-05
1.076033048899102e-05
-5.285911977632972e-06
-2.509852446928384e-05
-4.10996014793371e-05
-4.3191181682910795e-05
-2.226898948594993e-05
2.4714046832064686e-05
8.973035762881375e-05
0.00015120580804976795
0.00017678899268100927
0.0001330391532950289
1.27411218752057e-06
-0.00020465648526863956
-0.0004263141286162528
-0.0005635904693298286
-0.0004998565843558246
-0.00014985182514071533
0.0004800890877284986
0.0012419896515938338
0.0018369380977452182
0.0018747805221593964
0.0010134251504736913
-0.0008446817430259102
-0.003362540199895993
-0.005682407560974627
-0.006546118059727079
-0.004682364785105448
0.0005751729996820919
0.00860985074231768
0.017084167996917237
0.02209789130863199
0.019211045080277964
0.0053299780887196115
-0.018973573071511603
-0.0476086674578812
-0.06877870128072162
-0.06756479715846313
-0.031702824497739555
0.04026794235052096
0.1308183221704409
0.19871443407401645
0.18136379531570723
0.0062090948630032245
-0.19007088018474716
-0.23959629470482366
-0.3261542473526643
-0.18013617161041776
0.11095055830874637
0.8787474736073883
-0.555364591166021
0.09376847829125648
0.2590476360190254
0.11736255111011987
-0.6026145719387533
0.5964186993774427
0.002625011658908689
-0.28158792810542654
-0.31959502302251236
-0.12893781456461517
0.11795089300104276
0.08018248970137457
0.026123749552403652
0.20959540832010393
0.2521441524898759
0.1370791519266072
0.01746356949902906
-0.16436055061449567
-0.45276603688143935
-0.4601585131765674
-0.16242213730592864
0.28813361312339664
0.5372182964837211
0.6024957769218793
0.26095570244625793
-0.14171260939467561
-0.6616508920123362
-0.5195344236646606
-0.272471149521364
-0.00868871299318433
0.2311075621720969
0.41274693464093765
0.2622243179941608
0.2293197268152866
0.07215261951155523
-0.13389036638548218
-0.16702096555768392
-0.21920016375834034
-0.2568778286138954
0.008107115776975591
0.1321606261886783
0.13784028617523011
-0.10040318512020782
-0.07771536209926311
-0.08321963192884749
0.17621413389453203
0.1564327668873407
0.26485414371652466
0.06129149337331745
-0.128328192057115
-0.18853901123978103
-0.18807264090397477
-0.15895382128669103
-0.08742649062677374
0.0807924279756431
0.023061058016908192
0.21603577229797238
0.31327074222739615
0.13132455110669686
-0.1514765804009933
-0.18414529303870633
-0.225087820205058
-0.12435750788986344
0.08791554098959062
0.20468723862651383
0.038470323857800914
0.01488734875262651
-0.03340286007636713
-0.07110353129218673
-0.06352267337297315
0.020179740098079633
0.0031141424138270363
0.0966193495248267
0.09740666690623544
-0.012667029943543948
-0.0636163672193116
-0.09197261375657753
-0.13501920676874155
-0.02658898361965882
0.2049222632483979
0.3376352213476353
0.15882157551110077
-0.5295809272190194
-0.30461233040853114
-0.12020113214328973
0.08600347345765437
0.17677842422159112
0.5960603204351768
0.15485526107362796
-0.17086651352970889
-0.429293429036622
-0.27449191890949165
0.05046862936242019
0.12220119559468834
0.13607712698000826
0.09908944491820018
0.02159014422548
-0.08832451697678535
-0.0265627138952139
0.008231477841711283
0.017333651309177047
0.004612802393704069
-0.02160996300226542
-0.04807327042661491
-0.0579456532317556
-0.03431422279457548
0.0346046319161051
0.1499326841859824
0.09853964278954616
0.05368241243462524
-0.019085754518044055
-0.15189160012454922
-0.16367363070455726
-0.05261271396953286
0.004969375238316648
0.04853547780735947
0.12214086697240889
0.06198603836170068
0.08678789520190436
-0.006199920489190043
-0.03875313198106151
-0.044158864148666876
-0.05737357150512579
-0.1060161060537777
-0.0047408094936393025
0.045812774167151196
0.05593495818581198
0.041394119548210456
0.017856998884663577
-0.003064370063147117
-0.015405610575275923
-0.018335667089593794
-0.01437565689834096
-0.007307888354484993
-0.0005018704224057935
0.0039958613257828806
0.005616354842410625
0.004902152933537498
0.0029283328916701887
0.0007702913324220473
-0.0008327108001295175
-0.0015852549593687306
-0.0015652481463449975
-0.001062721437356952
-0.00041158596313481047
0.0001305588616101999
0.0004347067923527644
0.0004934392753312042
0.0003785838171213776
0.0001897135062654069
1.2909091131208097e-05
-0.0001011268751779974
-0.0001398866016890334
-0.00011892941429210937
-6.672177758019864e-05
-1.1020353358677022e-05
2.9522558196419777e-05
4.7831591704910204e-05
4.636285450637877e-05
3.2837586697704766e-05
1.5900944992411397e-05
2.0870822483856023e-06
-5.442929708623222e-06
-6.647973241683399e-06
-3.4740448975441414e-06
1.4819331261267884e-06
6.020376564751077e-06
8.878434399290406e-06
9.779494810228338e-06
9.157586697723824e-06
7.762193930960779e-06
6.310525772323003e-06
5.277740830679297e-06
4.838985716159482e-06
4.924511837426721e-06
5.3283548300167835e-06
5.817014051518808e-06
6.205502266687932e-06
6.391666921705699e-06
6.356910463286892e-06
6.148581772405727e-06
5.857311669873286e-06
5.595421695253799e-06
5.475249268881876e-06
5.582948519697915e-06
5.945999647389758e-06
6.500404598682538e-06
7.0727489908108825e-06
7.397574980636598e-06
7.186438638233208e-06
6.2485999630200355e-06
4.636286660463546e-06
2.7579235708461233e-06
1.3843294782289056e-06
1.481452055588673e-06
3.8501196191978905e-06
8.637446812883051e-06
1.4885819147089532e-05
2.0363612736013862e-05
2.192493389001388e-05
1.652854293953716e-05
2.7967351768842744e-06
-1.734050130863748e-05
-3.767681102489077e-05
-4.830581294992098e-05
-3.835531823740298e-05
-7.845503221098382e-07
6.192230001975295e-05
0.00013345179730688846
0.00018367388612028896
0.00017547089172976276
7.897390253597555e-05
-0.00010950993455397542
-0.00035048419590846857
-0.0005556595207429985
-0.0006031436797012691
-0.0003780089612109124
0.00016702536838800864
0.0009490250818108532
0.0017201271547955372
0.0020939546724525844
0.0016556241281283652
0.00014965393834871866
-0.0023016055930466695
-0.005038930216724187
-0.0068793708685709045
-0.00639496766361396
-0.002473648041993042
0.004950607881980642
0.014260367652302614
0.021978683022844232
0.023409551034627107
0.01425345616556974
-0.007033503090718022
-0.03687335914918151
-0.06536975774305366
-0.07758409627549366
-0.05816186366936105
0.0008897618904592092
0.09103436501526535
0.17996185732011927
0.21036296842136926
0.1080732118217222
0.0003357210406817735
-0.15902120244287235
-0.36463693958021137
-0.34421052602860874
-0.16088025816591497
-0.03696773878729942
0.2044448114922039
0.49068812758949054
0.4582359904550462
0.23320433180880235
0.04201400052462939
-0.1487680637366568
-0.3740210599489419
-0.6101558806854177
-0.5318399831618854
0.10140665053537758
0.2253310981864537
0.4257940943187413
0.48469564464249654
0.33509043463028654
-0.161519071009156
-0.21209277108225094
-0.26906746709980417
-0.19922652709045569
-0.05662246788809788
-0.06785280191203935
-0.03235119791429984
0.06475902682787794
0.23323852394495298
0.25942869924605727
0.09641804938567813
0.06737447855689987
-0.11774391502706712
-0.13672113375167208
-0.2288896344185104
-0.17709622478502735
-0.30481866498443744
-0.09125580665019506
0.19841645400900443
0.6763045093341857
0.801255235497363
-0.4335038247223691
-0.2894098503875906
-0.25352903515119235
-0.40458222243867514
-0.58814644613469
0.7905590746580251
0.3567698916131752
0.1472124493968056
-0.207573085459861
-0.0931394876957787
-0.11310277836633048
-0.08699601735608375
-0.04786513903486268
0.1589411386664037
0.2770776267251368
0.04345032983520959
-0.0023283826204564427
-0.10369677098612606
-0.27193778533343677
-0.2759533007253915
-0.042412467496488845
0.1316811517088028
0.1568926115147259
0.3269073945647768
0.30042456119868965
0.09593795023840165
-0.29924976315817553
-0.5108136715977742
-0.35965931588054795
-0.05431751101723725
0.20222164516603136
0.5952055476681689
0.48092926018607896
0.18130092442928727
-0.40372379234614225
-0.5692012393749692
-0.37528818762574256
-0.027915655679009582
0.12163316139112798
0.35904037170262654
0.379720569898946
0.06332399723319693
-0.1415439883436137
-0.22002793284375116
-0.1846473540923001
-0.06595401049108993
0.09499091853894256
0.2511762798189898
0.15347199374532186
0.15701651664722124
-0.1684592403144431
-0.42678939595475046
-0.38778749668162354
0.009954511195121194
0.24361028281372887
0.5822356912011957
0.2639118221862254
-0.11635587883277831
-0.40344864135974634
-0.26647277438109795
0.021878065441174543
0.6039845138765063
0.05099695110006394
-0.42848170636461025
-0.38552783484858827
-0.3371467004403533
0.01530583682799593
0.7575024275863225
0.5323233530562609
0.12152801726573664
-0.15163902479823071
-0.39847527244715797
-0.3284983275141203
-0.014391127368253766
0.12994919588996656
-0.2478663960162939
-0.25545516630479825
-0.18791974462648878
0.4315854413520357
0.4138179839921641
0.8816154052119748
0.676685230699786
-0.6004346255421832
-0.9261343294575826
-1.1874771982812409
-0.5414154779742274
-0.018864790639677484
1.425909713142424
0.8405283981004975
0.6052502874633436
-0.20422197833379968
-0.6121146509800309
-0.7056433930095926
-0.18698189499432594
-0.1352161510215512
0.20993157345710517
0.4427314386060874
0.17309058999659055
-0.19370665925875824
0.12895426960970208
-0.09591135368524856
-0.12594290562143579
-0.03154428244679222
0.3142787561943868
-0.15324271861181388
-0.07994902049334861
-0.0832132743783383
0.05486176815415677
0.19009006117470703
0.014182954732540857
0.047997131347947156
-0.7708476308289968
-0.3079860780398548
-0.0608484365734072
1.0085350466995808
0.8480965980101858
0.713111124770145
-0.40347602406504135
-0.9120250034364927
-1.358991719215331
-0.7801263362924962
0.10376318611405311
1.2455245795551615
1.8042495570101815
0.0839996484968728
-0.49382175154812596
-0.5765987009224899
-0.8392408828650624
-0.9408664992707557
0.8991714528209638
0.6988568061185458
0.29302696168224585
-0.0892782865691033
-0.2372316197877331
-0.1576188999784272
-0.06633459506585318
0.020711629678574206
-0.10786054679107962
-0.0605863518920383
-0.0499003967126027
0.09930216467111776
0.34419581430598034
0.6274267760204276
0.2938379921902372
-0.4800420933224244
-1.0525214743664302
-0.6954322318355901
-0.4016068368305627
0.4719089462975964
0.934412040202234
1.29010511058223
0.29348512696018847
-0.24865765100419895
-0.827680276919254
-0.5541771630816953
-0.4779064504138054
0.0680585158170974
0.08551132505883738
0.09216839237098473
0.07636746001845107
0.2406703193835723
0.34954096624769393
0.2934291072088674
0.07678697474090036
-0.16899805133077536
-0.35395037061157375
-0.39078151288070206
-0.16210076590939698
0.09694033357369583
0.19788405902131348
0.18430411890061182
0.11142402338210841
0.02808037864081689
-0.033996852059415966
-0.06255294254113627
-0.06081440133915132
-0.04047026068087459
-0.014772639753269106
0.006226506503957555
0.017650753991949254
0.019419192917040064
0.01450582156923179
0.006885326317544307
-7.761026349210125e-05
-0.004455973308811117
-0.0058348146049371245
-0.004886159437088285
-0.00276068241647237
-0.0005533148169319035
0.0010176225828420666
0.0016960646922574963
0.0015982746008131644
0.0010398504568405137
0.00036411032283273343
-0.0001751396495891118
-0.0004598713861304273
-0.0004947712769153236
-0.0003607095871176976
-0.00016154314613088904
1.6712205236408406e-05
0.0001261514206606402
0.00015792180759068527
0.0001306412693482809
7.450401086421169e-05
1.7613714699571574e-05
-2.201227894889488e-05
-3.835725405164069e-05
-3.4874400159049524e-05
-1.9932558112921735e-05
-2.401491546337398e-06
1.1298185014825718e-05
1.8298575801388835e-05
1.8875515115911207e-05
1.5209645354198564e-05
1.000796348654193e-05
5.466048936535868e-06
2.7687949686290685e-06
2.0875460776508407e-06
2.893248086564543e-06
4.3740597267111926e-06
5.791720792475115e-06
6.690652683047262e-06
6.949564669220604e-06
6.715052384001553e-06
6.275102452581625e-06
5.924794155227793e-06
5.859376249122766e-06
6.112615427545048e-06
6.546877182055424e-06
6.895616941008342e-06
6.854299827544366e-06
6.206933143508273e-06
4.960169778731679e-06
3.4388561719340437e-06
2.2854883173329943e-06
2.313977360902621e-06
4.205484180823907e-06
8.101152527192104e-06
1.3227952318035059e-05
1.7757247137604543e-05
1.9098533803111613e-05
1.473562740771305e-05
3.5088013434216815e-06
-1.3028800008693017e-05
-2.9804540809424425e-05
-3.868524027320495e-05
-3.07097666695913e-05
-2.4624439914855696e-08
5.1428148743964604e-05
0.00011034396839000924
0.00015201772496071855
0.00014590173726629496
6.726860249621761e-05
-8.722512684459014e-05
-0.0002854800147923686
-0.00045520073853796197
-0.0004961912639381731
-0.0003135309763116115
0.00013260437254453104
0.0007753798506213532
0.0014124160304046748
0.0017270087890978642
0.0013781191739428472
0.0001547419569536543
-0.0018440449330708872
-0.004077277224290823
-0.005571900491907136
-0.005152580953877527
-0.0019083802921405898
0.004191266293050756
0.011738783102465636
0.017680999426433874
0.017740636669558284
0.007584617436545893
-0.015451841476447669
-0.050651801017635334
-0.0930392437409004
0.06594188338848958
0.036078922211241954
0.02513956803117252
0.036078174954495966
0.06594086430127423
-0.09303975017492794
-0.05065100865267068
-0.015449349664001322
0.007588465109108037
0.01774457267695103
0.017682990729171025
0.011736628777635474
0.004183593312961336
-0.0019209738875163882
-0.0051667006496194995
-0.005581427765409774
-0.00407481867012193
-0.001823841177862041
0.00019303193058302427
0.0014261115655616898
0.0017666696668781512
0.001419352836562798
0.0007271742222358642
2.1006105771373737e-05
-0.00047031617081943144
-0.000647120385477959
-0.0005224909266923367
-0.0001874228380286699
0.0002238220686140332
0.0005616267870945484
0.0006863097924703557
0.0004988217410751613
-1.9846032079357792e-05
-0.000768629038566455
-0.0015064835235499045
-0.0018798895859674172
-0.0015184832957961774
-0.0001964604483363308
0.0019790390874557594
0.00442973538802595
0.006117168809799032
0.005786404391113485
0.0024596033182406954
-0.003917726022621252
-0.011908740022674199
-0.01842586916705028
-0.019308349962267348
-0.010807148217643166
0.008173257195240103
0.033640094585276295
0.05479618291304313
0.05402400048843438
0.009163265415472525
-0.10218029020183288
-0.09757691136080776
0.014164771290512133
0.03429679509176399
-0.027548436900842493
0.04291273239057153
0.06047032857001808
0.03751397167858158
-0.01646444618988976
0.10736200761572923
0.021361561446936662
-0.25425450274736483
-0.28981223515098276
-0.04999997543279169
0.09599428860169251
0.3609158987181986
0.5290292265630423
0.15627104404971615
-0.21532155074572643
-0.4324703705266198
-0.7055440409093632
-0.39684694073657933
0.16872921431464666
0.6719115208581783
0.5584387047157413
0.4079110853195191
0.12753460923198706
-0.22408780786192534
-0.5905845164501531
-0.4656800394401516
-0.25458381805604047
-0.06319657053714052
0.08052611399414966
0.17936196865660442
0.2077411439586197
0.4578832229419228
0.906862406936969
-0.9850945763190473
0.15660691773371394
1.0774527197707733
-1.238549137381933
-1.307337407226943
0.8932826218377292
-0.27476254114379817
-1.1477296951946534
0.9714459975166243
0.7324015052922179
0.8682566361187214
1.5619752055846923
-1.1377917068788719
-1.256507371076552
-1.214680870023705
-0.7648183791169172
-0.3703526020902983
3.171030459986356
0.6822220051968075
0.3734631060870909
-0.7557090361955499
-1.482194026279602
-2.119618927798931
0.6938077871988653
0.762268170625704
1.263714503032667
1.0772865629080302
0.1421821014659005
-0.5317326340994791
-0.4051097097967351
-0.7255242225211351
-0.8505524095914957
-0.20422901284331357
0.32007890687145624
0.31431641644108155
0.5861237666669643
0.4899004104520226
0.28111269773026754
0.1070199523627417
-0.16556584537007674
-0.4966964237899042
-0.6129313027228751
-0.3609394324212235
-0.09067304657321211
0.12662398843080458
0.25220017316738774
0.421168588750619
0.49097124931666547
0.414136906628558
0.44510560156232226
-1.020000474914995
-0.5833141647934522
-0.18521660791592892
-0.06432684514156087
-0.3488259487605214
0.7214628854979379
0.3524396269332668
-0.05285173416693889
-0.13548040391041627
-0.0067967199962369615
0.3422764976766315
-0.15288536547539236
-0.21260903257377747
0.013278384660897312
0.775170869492739
-1.0478514592010049
0.07439909895775193
0.13452629582845982
-0.2163840031561703
-0.8888260453606789
1.01258339220019
0.3524628419041114
0.33620601849453646
0.30216654104046203
-0.05897606763292415
-0.26125041372286284
-0.369987104543117
-0.5564645463407946
-0.6785916136602061
-0.29913789984454664
0.25837235487491694
0.8297305770742829
1.1312495241615328
1.3109626725828247
-0.8494347730354979
-1.079834914614104
-0.7332149926817124
-0.09441211102827152
0.48636808561383144
0.22228192050151258
-0.11805143980578903
-0.44757212534962587
-0.8198505192087346
-0.5040024076388147
1.934955651755024
1.5695218306313714
0.2816597648876141
-0.40936740099948526
-1.2672739367160228
-1.234741596973936
-0.5436698375007448
0.32965781619629786
0.6549949098362944
0.5970568064861073
0.34875407639274403
0.07407123000282179
-0.12421044829200718
-0.209482677307146
-0.1960842827463417
-0.1250268965472684
-0.040873650274548395
0.023871826742939847
0.05496784960484794
0.05476453288159763
0.035911913613970614
0.013819635029704054
0.00036873558034276785
0.0001925059500128225
0.009841637095476198
0.019515556675468546
0.016699491351956947
-0.009199616062722512
-0.06240836510418395
-0.13796910355879022
-0.021879203931917036
0.1052915069971302
0.06223578152639591
0.060490729619793085
0.10041347425536482
-0.028761887403742588
-0.14487458150468915
-0.06661564210255509
-0.007796522476700555
0.025740745656426162
0.035923867512458255
0.029818427627602277
0.016136982139547923
0.0023021263258617307
-0.007168342561002922
-0.010880358733933714
-0.009788995564867772
-0.006009241575517652
-0.0017188304583519384
0.0015476262269693796
0.003141452900611947
0.003176202799099028
0.002211530485341546
0.000914202898012038
-0.0001895920307173036
-0.000826965367460292
-0.0009705477885502755
-0.0007569354136688453
-0.00038391715014406217
-2.634286914797378e-05
0.0002099679796202053
0.00029586963210891337
0.0002598193271045176
0.00015784904930698588
4.596700489702514e-05
-3.7297813555869406e-05
-7.649017677339488e-05
-7.557383774116659e-05
-4.956397449322074e-05
-1.5786793174810934e-05
1.2371500462694134e-05
2.81916573669642e-05
3.126846889447924e-05
2.5319297560934476e-05
1.551252563161919e-05
6.324816713234107e-06
4.003222669570874e-07
-1.6013611139818352e-06
-4.848900923876449e-07
2.2643638538417804e-06
5.1873011429822715e-06
7.291626622441825e-06
8.189588956260357e-06
8.003946834923416e-06
7.157367566197173e-06
6.150958575041348e-06
5.3979720005209506e-06
5.134034973181595e-06
5.3934962149102785e-06
6.029669735680554e-06
6.761723524922529e-06
7.243021513557693e-06
7.153652691165002e-06
6.315687514808956e-06
4.812152214899775e-06
3.0666938033154332e-06
1.8240570837044675e-06
1.9778177708182243e-06
4.23281571566963e-06
8.664631493800711e-06
1.4328349458225126e-05
1.9136399052080796e-05
2.0222936413600036e-05
1.490004795098425e-05
2.0806101547792655e-06
-1.626071809204749e-05
-3.428544722993512e-05
-4.2925994765039215e-05
-3.247899644484585e-05
2.9832422198094967e-06
6.05012672342945e-05
0.00012452934889586187
0.00016729142613811757
0.0001553705301366706
6.290259070247493e-05
-0.00011129401244528402
-0.00032881050562279067
-0.0005075979970880821
-0.0005370746150075999
-0.0003160642490009616
0.00019187725026689222
0.0009029217868723217
0.001584462966028229
0.0018833892086491967
0.0014301726015120584
1.1513532412711703e-05
-0.002233685368749309
-0.004677932777875573
-0.006229935237026061
-0.005601542196943457
-0.00182533923714762
0.00508733725365161
0.013591249697975248
0.020487937948961473
0.021551114777715024
0.013011726530512444
-0.006352698674085299
-0.033252231597074786
-0.05917993331174467
-0.07222678083295517
-0.06228986256079411
-0.029554773259539344
0.0053672943342985965
0.1929343914312131
0.25233504450638183
0.27986106038556113
0.17047283688784573
-0.14938275669701107
-0.4854907056331068
-0.7488635078982478
-0.3517386775245832
-0.03510146448191594
0.47451141827563326
0.5933998652729826
0.8167398790974706
0.2843802605576906
-0.2105769802226608
-0.37169755866431997
-0.32256058415937494
-0.32601917579620204
-0.32143113681705104
-0.2953580355052386
-0.0918008850297376
0.1418423083844877
0.2856901655998241
0.573851140961575
0.736837703929635
0.17635792376500936
-0.22060002849838212
-0.43428381165261754
-0.6486564742457757
-0.5943959854685241
-0.11756551387778547
0.21745876393372732
0.4956441404676288
0.6052668935534383
0.3978965754073021
0.06984456150696622
-0.4298306193472028
-0.5714581951982887
-0.41169497672403593
0.029448520802532185
0.1727758635158363
0.4663245619492921
0.16273852252759957
-0.10166515124995884
-0.11874132067681172
0.09056894526011244
-0.1160954555400558
0.00996034099543394
0.022452499431156223
0.09316438500401977
-0.17768013006883435
0.044758472796797164
0.03037263790367565
-0.12256378914442595
-0.3019809573876294
-0.2042774123610298
0.03802001303911412
0.42906854875379247
0.8929640110115944
1.0788969211543766
-0.8051343304545835
-0.9354156832304705
-1.0120683487385058
-0.8218477831571802
-0.444121619622742
1.8991889806032471
1.9709754183719381
-0.14246430179469982
-0.4534233560288101
-0.8492995682581906
-1.0418702611317276
-0.9188509657587192
1.0792970036907903
0.9524386903192253
0.516915262683165
-0.014703085689941166
-0.43655919953248534
-0.5359417218948871
-0.4756238452176994
-0.18686557875727683
0.21872424977709587
0.6210508918756052
0.4589043567613691
0.10770322661668363
-0.121892151314004
-0.16315913783511515
-0.3578923594213579
-0.21867559296479727
-0.0004706463526294457
0.11144814798099409
-0.0038948979393405034
-0.022439720170434607
-0.0024386658886117194
-0.013820948625748343
0.23616674191441187
0.9863538176105826
-1.1820944539571592
-0.13639565076064641
0.42571465503910155
-0.003898024996041212
-0.12562525602423916
0.18271742250318132
-0.3232447533358907
-0.24901921498670965
1.0371656912371459
-1.8046179929107726
0.8989917783468147
0.8169347652939362
0.19890643594100782
-1.130492022803209
0.633536747310758
-0.11156206426613607
-0.36311998445492366
-0.10629240126215608
-0.11557548611446164
0.4355125527801031
0.1604090538186073
0.047439782715834794
-0.14457340277220135
0.11929887205293083
0.3641750918809103
-0.6762211232981172
-0.2423898408952792
0.06093424100207531
0.26354476031315677
-0.3824137068236487
0.5791346684247802
0.19026255545460463
-0.13245437698547205
-0.19996442218919674
-0.04425489855306905
0.09271671541999167
-0.029634552393973036
-0.04172419396641106
-0.15887136856184045
0.019245525532414647
0.10503123978415246
0.1168292705059553
0.07276993365331484
-0.012916446386381121
-0.13013471497769982
-0.07069536496121201
-0.02580133456521954
0.014835985295596777
0.06173716902149246
0.12326677985152044
0.0038640423117725356
-0.09578347181603694
0.02345883873459307
-0.037752441152499004
-0.07492189233025186
-0.07942418364304901
0.15939483528847836
0.05047055047360885
-0.0027530956717103936
-0.004449149207956752
0.033906717858074115
-0.10409501236893753
-0.03653215114723898
0.01974786659889847
0.05089729616150339
0.04675606778237808
0.001074291802739705
-0.08821014273637146
-0.018710785398406492
0.016115461100164666
0.02572082278220971
0.02045073593555004
0.009443671287026433
-0.0008383377219110908
-0.007089871444397607
-0.008732138511550155
-0.006939281765408743
-0.0035573095312615042
-0.00025223022454201534
0.0019531208068929884
0.0027630117237439082
0.0024317846259895247
0.0014791761256043201
0.00042741059146107877
-0.0003651017420829176
-0.0007562278914518004
-0.0007834669010476375
-0.0005821693078243752
-0.00030150597984319425
-4.724335594838926e-05
0.00013767125349251188
0.000259446021718898
0.000341367502874995
0.00039132258995549504
0.0003845491318658374
0.00027060549623224913
4.242178619787911e-06
-0.00041033217800510367
-0.0008810166578476922
-0.0012185884767042454
-0.0011762728371061263
-0.0005437466716586192
0.000722182609961589
0.00237534832103956
0.0038323719047813677
0.004265754333168174
0.002873133111378363
-0.0007086163614720972
-0.005965464957820807
-0.011248202606211627
-0.013929664419266095
-0.011149299370011691
-0.0011369641778006874
0.015165684495222594
0.03275086674836497
0.04217864878280701
0.030803275102105426
-0.014277205334677162
-0.10216410950253568
-0.03431366461927916
-0.0024253584427629494
0.010976499358071655
0.029374958557871686
0.07757626388524722
-0.023047804497893454
-0.05824800611924445
-0.023048178398595638
0.07757567190466132
0.029374425433622897
0.01097635031280559
-0.002424860333768133
-0.03431245112603437
-0.10216242414266181
-0.014275645820564719
0.030803851399846642
0.042177392292126956
0.032747349634010194
0.015160346801254406
-0.0011425343160538376
-0.011152484805649333
-0.013927510986532991
-0.011238676915978274
-0.0059489880186407865
-0.0006892784064828743
0.002887459828441953
0.004265100048711321
0.003808364573557642
0.002326266015241776
0.0006576612811959582
-0.0006008699845354787
-0.0011935523795359856
-0.0011643824325567648
-0.0007405474192547503
-0.00020275767582655054
0.00021557213095094036
0.00038371787756810765
0.000286682407092107
8.23419016095811e-06
-0.00030372098824815914
-0.0004818264426428468
-0.000390312493553564
2.209489014994805e-05
0.0006778471802857339
0.0013532085782387634
0.001710113688742128
0.0013929025923416424
0.0001848350858735638
-0.0018133359338415203
-0.004054904684599678
-0.005560499294994724
-0.005150348121891215
-0.0019118934539229724
0.004184681534711464
0.011730011214520223
0.01766962370745442
0.017726533721019233
0.007569778290818589
-0.015462321758528403
-0.0506504565692274
-0.09301904322258503
0.06598317132767867
0.03613430488764552
0.025190619936882437
0.036097425319480875
0.06590020045493569
-0.09315541228229114
-0.050828552033423686
-0.01563743759782433
0.007476313041153928
0.017807740434587042
0.01799222556061885
0.01228249466498165
0.004834524525296128
-0.0014247825992103824
-0.0051597854079958785
-0.00635174955006316
-0.005695175054510252
-0.003991750934577449
-0.0017769866260919467
