0
3.47131100600497e-05
3.471311791122119e-05
3.471312376027507e-05
3.471312356259846e-05
3.4713113905900253e-05
3.4713094058870337e-05
3.4713067887707206e-05
3.471304461932042e-05
3.4713037405662055e-05
3.471305912041816e-05
3.47131158531043e-05
3.471319997029704e-05
3.471328591230679e-05
3.471333238450438e-05
3.471329357503029e-05
3.471313910978451e-05
3.471287798189806e-05
3.471257696971305e-05
3.471236126751001e-05
3.4712386693875734e-05
3.471278067672274e-05
3.471356297563337e-05
3.471457344993675e-05
3.4715446559305764e-05
3.471567228845392e-05
3.47147636343427e-05
3.47125099672945e-05
3.470924124885239e-05
3.470597919653831e-05
3.470433527920101e-05
3.47060588653575e-05
3.471225514332347e-05
3.472246656184641e-05
3.4733991257330065e-05
3.474191191366387e-05
3.4740233189104246e-05
3.4724210611912426e-05
3.4693414787366056e-05
3.465444761585418e-05
3.462176993606434e-05
3.461513652800198e-05
3.465293336021465e-05
3.474232214435811e-05
3.486919600484076e-05
3.499278666037365e-05
3.5050280679631614e-05
3.4974979411830216e-05
3.472691421177069e-05
3.4328058650026534e-05
3.38874527134667e-05
3.359800193261302e-05
3.36900881345403e-05
3.433978542774949e-05
3.5550565746204004e-05
3.705140416335052e-05
3.8271018493851795e-05
3.844512908355735e-05
3.688108822337895e-05
3.3340807134394425e-05
2.8421930616109338e-05
2.374839235142232e-05
2.1765800339260305e-05
2.5013121484771196e-05
3.4925620487070085e-05
5.048691239800672e-05
6.730684325131895e-05
7.78268001271176e-05
7.320566503151189e-05
4.6932477054159065e-05
-6.123501715676459e-07
-5.834454044566676e-05
-0.00010372565430906135
-0.0001072221415115241
-4.27999419195345e-05
9.721402930392e-05
0.00028769277278127705
0.0004640533803518234
0.0005311821382297877
0.0003925856747745466
-2.8580973001370827e-06
-0.0006093726995613235
-0.0012505983817178228
-0.0016307012345412658
-0.0014107892130196416
-0.00035085888394452885
0.001514686830965824
0.003735032665131376
0.005423997905905929
0.005445041739297098
0.00282757719911348
-0.0026562951435461055
-0.00994615069549325
-0.016467149814402064
-0.01852432903454558
-0.012491942928945836
0.003308618299602869
0.026533785073447766
0.049393601938005016
0.058860702195439936
0.03921631815862174
-0.023136001196387132
-0.13377434551434672
-0.08546260107358418
-0.05686705647759871
-0.0162389337007333
0.07040767871795064
0.22915572621736724
0.06982137964575691
-0.01727813859815762
-0.05808118928461917
-0.08643382575412875
-0.13400550946738993
-0.02219533566220186
0.04147564674972207
0.06206993086976117
0.05254088631345995
0.028072666472210406
0.0015948481478432334
-0.018454534843460428
-0.028216027383376932
-0.027222675612700836
-0.017019605924202024
-0.0003671801992764827
0.01877583240405232
0.034882540156300705
0.040847413483937174
0.029032282401169413
-0.006416491888048845
-0.06654677600662301
-0.14519752141634334
-0.028787364775638778
0.10079130578259125
0.060740098427764004
0.06144817642132024
0.10268511628373683
-0.026371615236597454
-0.14325542563653076
-0.06618819642781354
-0.008507886925564659
0.024324381144207465
0.034474352510387524
0.02907035634445377
0.016680467067062055
0.004353441149743377
-0.003973044017259246
-0.007579053039653686
-0.007963309569819882
-0.007346081447440528
-0.007278944889764879
-0.007817867031918772
-0.007500427042749322
-0.00413204859289242
0.0038492139024597825
0.015874675271322285
0.02820954094945941
0.03398598590997495
0.024696568972056975
-0.006939294404947105
-0.06349360538092075
-0.14010696819344576
-0.024051960686468733
0.10257165570466142
0.057591787520613995
0.05295406340165342
0.0907640587213701
-0.03724396542745782
-0.1468487560911053
-0.0566555089052658
0.016225988857802374
0.05858017811758773
0.06143668642268851
0.019416594178369884
-0.06972401282986107
-0.004849800575075161
0.019189489901699174
0.011950277958270548
-0.012938810093693735
-0.03908172913858528
-0.049745825294706225
-0.031447120745824175
0.02173215001881173
0.1043077882572355
0.19800491588994418
0.07482941523142717
-0.09461994661912482
-0.1292392446470375
-0.226066910541396
-0.15470685974406542
-0.06138803414536302
0.11694923927472028
0.23239047855810707
0.30666281146298036
0.12028029674254945
0.015255117214935422
-0.08858280777138267
-0.26899235432285945
-0.37736730765071913
-0.22466112225118717
0.016888913277280107
0.1964285232597025
0.35843098877970614
0.519186303809955
0.25694881261620495
-0.2782975220961216
-0.33795481426334567
-0.3414268926901087
-0.4506361225224974
-0.16438866529602475
0.262959516896606
0.38345055148769036
0.310525406141807
0.28213325196617195
0.04377856124683173
-0.14393264018095098
-0.2766854464569445
-0.16592119135502936
0.0027835804102103313
0.10367972693677656
0.09237233084863461
-0.18652348681330283
-0.20563348093069297
-0.1748352404301014
-0.07402055598371403
0.10513625711987844
0.5161167836700767
0.42399606952652574
0.19195006985207522
-0.10640154697643396
-0.2512935779911413
-0.42843972951061177
-0.3830890769616173
-0.1903872753258475
0.1503415895494137
0.29851885628579433
0.3412984400915412
0.16110632246484458
0.012603652348874353
-0.08553625801989323
-0.1450378726238544
-0.19418123612096744
-0.06270000665469695
0.029051595878996195
0.07427608015885782
0.07808258227792951
0.0527782244115151
0.013042251911116347
-0.027229875822350383
-0.05621294893801393
-0.06458212908353436
-0.04647340962033144
-0.0018222417445451606
0.06024892034364482
0.11860736676048646
0.1402076690828062
0.08510904421973696
-0.08325275882553605
-0.18475892165527363
-0.2108241163306886
-0.11943430477385701
-0.040641638048566166
0.10749353226030992
0.19667172462928362
0.26689399985648415
0.11323321080726963
0.08587509811784173
-0.09602708651659779
-0.32109841167773523
-0.2610404612382661
-0.15304097472320208
0.0049943855639426535
0.24600713556574333
0.41725728362604875
0.16383424929201093
-0.08071339868118828
-0.2942471775616789
-0.2597304648810806
-0.15937137160498147
0.025127156325199698
0.30495839859857843
0.273049469750258
0.0959091908760977
-0.08600875495691915
-0.1480281116098667
-0.16425051807379756
0.010449957173915322
-0.04585540007501987
0.08437170656420297
0.05717860212195858
-0.039984516592960054
-0.09986486995827008
-0.010273942413651267
-0.07126226298363626
-0.013138754115475378
0.18730847035977793
0.09623325375682008
0.22202680270455646
0.2275840307805811
-0.044290674098114186
-0.3364410613523046
-0.34226373351064265
-0.2805320460279104
-0.08897859328025291
0.1601602190628629
0.22672584625714365
0.2612454925055049
0.16753969503465604
-0.0207616753627419
0.05527355051682735
0.09397675773073001
-0.0389398657490594
-0.276012530741934
-0.31617168443301064
-0.20406717546229508
-0.12650355805462365
0.173390009299484
0.3699779071611835
0.5274527741862982
0.28206265285609977
-0.3586060853535429
-0.4001112004309302
-0.2381225433494531
-0.24000719024173306
-0.1403624070832345
0.5471595580017583
0.30672350709009355
-0.004904437552837024
-0.1771295460278984
-0.25389575751308224
-0.13248222263273932
0.24482890247666045
0.505674646425442
0.47117899854843764
-0.21018007184540669
-0.4217925662812909
-0.5420399561896869
-0.8268644589613705
-0.4250689295117774
0.5703253908577003
1.045718776462529
0.5890664494410807
0.4375370263420646
0.06942632131012665
-0.35727966386645144
-0.9339674048000903
-0.52265895837065
-0.09459046267248337
0.0975638257696875
0.31117973849224473
0.2783788766606297
0.15942407020650035
0.09960433678441301
-0.0006100306162350746
-0.09856904796522108
-0.007109396705555118
0.018694455827214698
-0.09957772558791354
-0.04401701684387259
-0.08388529110861738
-0.06509149166927788
-0.006922401635971791
0.09452987903436884
0.058542637396086394
0.11088613947381887
0.0771238102092085
-0.02000791665360146
-0.15930335841453083
-0.118016408918782
-0.07007425120794593
0.012134008979260983
0.15227733078738498
0.16318328108746522
0.042005450543541045
-0.029766552353446586
-0.08094715129050246
-0.14196324649099018
-0.03624756891562744
0.02520362963732385
0.04469706174512421
0.03467755757798423
0.012319390123199984
-0.006169725859930933
-0.010137839571837018
0.0027230533312695483
0.025633097839316877
0.04409916727575971
0.03937467764343765
-0.006345837209944959
-0.10397324380720702
-0.05248858665254953
-0.0367794382304582
-0.029751847332895084
0.0011659885935807119
0.08451818241114756
0.03486732764835574
0.04540594335490382
0.08577268504673428
0.1066184372594438
0.05088094140418761
-0.1302030477407933
-0.2603420674593782
-0.12603718653138574
-0.07396373397015203
-0.02017594794752134
0.130592056466161
0.2609753707386973
0.21977294066579567
0.010251764107731126
-0.00844371855170728
-0.1077415559366557
-0.16898041710398037
-0.2626826779499746
-0.034243436532003
0.10030460176499617
0.14883064845627536
0.13189780587746905
0.07122228615288316
-0.017885917748897792
-0.128507965880846
-0.05969531649757022
-0.01232830939096817
0.014214710386038672
0.02333345817622506
0.020582491587108922
0.012081732562702147
0.002948297662594705
-0.0036329949883392135
-0.006542925764015705
-0.0062489544134971126
-0.004048438828416805
-0.0013500974481225685
0.0008074274701489563
0.0019420295759296506
0.002071923164624261
0.0015241313566703525
0.0007173151786022405
-3.7510314068122893e-06
-0.0004491774297346402
-0.000585959744672678
-0.0004892555704578997
-0.00027697952918722253
-5.493195385620998e-05
0.00011316662366741575
0.00020925397837982655
0.0002457875327369079
0.00024361708282500484
0.00021404258077608855
0.0001524659425867141
4.565571680379943e-05
-0.00011096529606262616
-0.0002942010131828263
-0.0004427359397435451
-0.00046524407353928276
-0.0002715743333904494
0.00017740928926050035
0.0008169801233639279
0.0014479788098428852
0.001756620977915496
0.001403687951257971
0.00017873310161472736
-0.0018195777529525458
-0.004051176969421449
-0.005543934091340419
-0.005123171101296993
-0.0018782361511613089
0.004221466003083696
0.01176857617317331
0.017710189627012016
0.0177692483841664
0.00761281245871628
-0.015423839525629543
-0.05062375480624131
-0.09301092878256581
0.06597065297430878
0.0361082494741244
0.02516940809284833
0.036108271707373504
0.06597073324014698
-0.09301074347649566
-0.050623446382510005
-0.01542345800594637
0.0076131311435545905
0.01776930416442622
0.01770978765672789
0.011767633504544288
0.0042201224200475555
-0.0018795559484945364
-0.005123802222886738
-0.005543161904785441
-0.004048562799907608
-0.001815337012435501
0.00018345659696453897
0.0014068468300106145
0.0017557494051093684
0.0014411655283923283
0.000804132848928426
0.0001613563101661879
-0.0002847827386871985
-0.0004674473165212142
-0.00042646013842807985
-0.0002567410494744192
-5.848601849992453e-05
9.600920527702903e-05
0.00017464449800133502
0.00018076253500954204
0.00013908998777824538
8.017396462814655e-05
2.871931368650427e-05
-1.9691446155200063e-06
-9.94849030821793e-06
-1.0707025581882767e-06
1.5704935520566624e-05
3.2246778027305826e-05
4.348251821712822e-05
4.785728860979574e-05
4.65266898260219e-05
4.2000995132063156e-05
3.686486455673433e-05
3.294406267914578e-05
3.101485157120596e-05
3.094737401378787e-05
3.20789286528752e-05
3.361631002396161e-05
3.4931079207247635e-05
3.56950146504521e-05
3.587220177591622e-05
3.562287904291424e-05
3.518143213066277e-05
3.4756075141678996e-05
3.44735359689757e-05
3.436946604886187e-05
3.441077218859195e-05
3.4531183098879685e-05
3.466409949068842e-05
3.476348188437533e-05
3.4810656066662294e-05
3.481008598294608e-05
3.4779484017351806e-05
3.473942218395426e-05
3.470586701941774e-05
3.468689222504717e-05
3.468305981481178e-05
3.46900036178811e-05
3.470160069444747e-05
3.4712525818568105e-05
3.471961905008366e-05
3.472207585735146e-05
3.4720832936554364e-05
3.4717636634551066e-05
3.4714201033778566e-05
3.471168530325283e-05
3.471053604028398e-05
3.4710609720364615e-05
3.4711434199219724e-05
3.471247665122829e-05
3.471333202156277e-05
3.471380240856784e-05
3.471388266987283e-05
3.4713691178048604e-05
3.471338747228528e-05
3.471310732228266e-05
3.471292909546317e-05
3.471287045625033e-05
3.471290530672374e-05
3.471298823414274e-05
3.4713076015816456e-05
3.47131404404736e-05
3.47131715047979e-05
3.471317342978052e-05
3.4713157390356225e-05
3.471313460990113e-05
3.471311218672829e-05
3.471309239636742e-05
3.471307479149104e-05
3.471305950774709e-05
3.4713049888926043e-05
3.4713052857899025e-05
3.471307630007515e-05
3.471312394313486e-05
3.471318954976725e-05
3.471325328541145e-05
3.471328336789702e-05
3.4713245071306176e-05
3.4713116642577966e-05
3.471290805304253e-05
3.471267483670426e-05
3.4712517297961407e-05
3.471255702328187e-05
3.47128891754617e-05
3.4713520102580495e-05
3.47143125403566e-05
3.471496984375597e-05
3.471508966830366e-05
3.471430093641596e-05
3.4712464906325204e-05
3.470987844126345e-05
3.470738057136423e-05
3.4706253699732144e-05
3.470784895019867e-05
3.471296018272806e-05
3.472110929845725e-05
3.473004356280818e-05
3.473581573803142e-05
3.4733745814011455e-05
3.472030208356634e-05
3.469550814761645e-05
3.466499489823396e-05
3.46404801580346e-05
3.463752696391286e-05
3.46701056956647e-05
3.474278478606806e-05
3.4843022130367585e-05
3.493741458022283e-05
3.497605123568089e-05
3.490752884791102e-05
3.4703418084309695e-05
3.438560880198979e-05
3.404472913948021e-05
3.383538012547179e-05
3.3937077284901396e-05
3.4480243218527656e-05
3.545343788122251e-05
3.662665496975845e-05
3.753781064455461e-05
3.758576198221062e-05
3.6245847105912776e-05
3.337284021834821e-05
2.9492758025656657e-05
2.593323896956519e-05
2.463454464819553e-05
2.7548948670003557e-05
3.568559257251704e-05
4.806573963383324e-05
6.105128907199516e-05
6.859412325439134e-05
6.381788504997058e-05
4.192603965802194e-05
3.7728897171604778e-06
-4.127752314955752e-05
-7.502689004955722e-05
-7.428345735661075e-05
-1.9393099358622453e-05
9.402121190252612e-05
0.00024403463188159426
0.0003779582881857677
0.00042044777905581086
0.00029748259194955893
-2.6388991893597143e-05
-0.0005081940761330131
-0.0010021924423957093
-0.0012720423995538806
-0.0010546586774809216
-0.00017427260249232857
0.0013204198102015111
0.0030502820935482504
0.004301366254801462
0.004183428808296886
0.0019679247213310754
-0.002456848299276383
-0.00817008140509403
-0.013071386770687154
-0.014234455009671763
-0.008886437220701796
0.00408841953326871
0.022523101804514542
0.03988903317681504
0.04551227349354317
0.02657976250101393
-0.028204564255512363
-0.12432561354224196
-0.05824621481000974
-0.017020357045482958
0.01847131777619628
0.06743910365347036
0.14243819558006135
0.04464362545651351
-0.03688506745861367
-0.12165636142772039
-0.03142761193798524
0.01645474910239489
0.014008726790708538
-0.0350207618448714
0.08477281418427861
-0.001401005045283753
-0.06158969538976748
-0.061086074146255304
0.032655209443228625
0.04430553085036313
-0.01515915869298035
0.04681095694674918
0.001944562261391492
0.0019378875951372926
-0.017277685104778825
0.07201465467327314
-0.0004078738468328641
0.10940805637471353
-0.027854049241430034
-0.20403451180174542
-0.16768502492865134
-0.02642281929415918
-0.05923405827470077
0.06238047158763277
0.2486881095242424
0.1677545150945428
0.02956045008303959
-0.01764179222758977
-0.07816408163683684
-0.08973998451025832
0.0009072330548266364
0.06305514220962095
0.0038613205852740854
-0.015429948833882448
-0.17102681430397815
-0.17789082479288637
-0.10229939662177605
0.014638263910423319
0.12590241632986296
0.3465841756382521
0.3294827904477078
0.05571493835325827
-0.15646252917321157
-0.22753277660118568
-0.28551506660421655
-0.23780445202823766
0.04609172827065765
0.33829671724835997
0.24580463505874686
-0.000510091145254202
-0.15553772570676494
-0.16631128106995655
-0.17684272199719037
0.06578827569597707
0.2031403219549743
0.2569707474501395
0.02449431420071768
-0.11974004730355339
-0.21558508352395828
-0.1060797693090857
-0.027776491586416874
0.19453542193675122
0.14882181467738753
0.034771308094900893
-0.13704380506250896
-0.14549675432351936
-0.1604271290288942
0.05258500096064206
0.12387595515049817
0.27017367897242217
0.08803453224815018
-0.04620061299438721
-0.16921423986194845
-0.1190514690656022
-0.12382165122456822
0.004841587091267786
0.07161472037272018
0.0916811236735185
0.08250372587954623
0.056889180045552976
0.01999013654044586
-0.02906919477016181
-0.0922765828281055
-0.16724047574642217
-0.044100516334021
0.09326291778835787
0.061908804916365946
0.07267718757640636
0.12440805968315037
0.002119557630737987
-0.12005289515922335
-0.07242070930887021
-0.08247752772787666
0.030482639934472568
0.05742400511617765
-0.0013994138082844
0.06106120689116624
0.05634677483161555
-0.0004964106703171588
-0.09047387572886725
0.010301191759777492
-0.06952769734561702
-0.0992866629045942
-0.05228922384794414
0.0855031739518451
0.10644315338413134
0.17538828130572828
0.23094847130554413
-0.003927488951299276
-0.20296810566550683
-0.21400213475947338
-0.24029257334322937
-0.23315965376048564
0.1000755604941443
0.2741808100919777
0.1967268703145331
0.1408016515735946
0.12817852249558173
-0.07258635595289349
-0.13369296691327748
-0.1459421316615286
0.006496570581519964
0.06822022856583561
0.027437805634580502
-0.07866059079380724
-0.16918581410879938
-0.336353748305867
-0.2737509913185385
0.08687497972132589
0.5382326236626793
0.9727288237769569
1.1853499984293894
-0.886502909959209
-0.6908094684795769
-0.7775081661485029
-0.9345506281179319
-0.7700547773668903
1.2491081487865363
0.7131600971458452
0.3674944892969748
0.42589598161713804
0.12373861795016527
-0.07933777880766567
-0.052700005175151485
-0.11977244695300425
-0.5759504376688076
-0.8211072197687463
-0.3246208653081721
-0.03214890061194871
0.38953581746509475
0.8868339351268536
1.7583529958582784
-0.7771579439255241
-0.5724036411335923
-0.5098798361008952
-0.44894537731195416
-0.9862391164491286
1.1552329629921823
0.5076197811919783
0.02196811268187461
-0.16986544319892427
-0.1836457040466657
0.0020651053577138002
0.1426821844588923
0.3346405582793677
0.03222990192190728
-0.12665956885676855
-0.28948885608938113
-0.15950944251992438
-0.17549419264371727
0.09373967098094234
0.13906185395271756
0.08857543010703907
-0.12090389198415834
0.02778826906807226
0.008902009790214896
0.23939290454426299
0.276590875373149
0.23002910572598212
-0.2132399794522536
-0.3551128775044919
-0.45452063489541406
-0.308524893196224
-0.05439852430098618
0.40704129675224
0.5753418582748153
0.315675822273002
0.03899397058063071
-0.09610879998821613
-0.36246518728420996
-0.4345883867224412
-0.16290116820521006
0.03829939675456788
0.1862115310665818
0.3126367894083616
0.2437678749947316
-0.014340658918859814
-0.07945541438193852
-0.18631149632340333
-0.17391099302386498
-0.07312392261565749
0.10082823527824639
0.1497144221138988
0.08923722742534426
-0.0553749979076813
-0.0529369263358809
-0.06876461595698911
-0.06717891232264066
-0.015283273094930121
0.11184287700614069
0.12584051932988927
0.02184364172762314
-0.020820301070850537
-0.03363351504726165
-0.05100855962553598
-0.10204514045222506
-0.004444941890875333
0.037826546095082986
0.032939628900905335
-0.003284847171434562
-0.053096668908208876
0.09781139042859048
0.056542822351879914
0.021767324430553216
-0.014622348727646138
-0.06356311075693366
-0.13418821086396082
-0.030520814153443453
0.049115241067470575
0.11006591174653431
0.15834183332135654
-0.0011680082797052157
-0.1640462823138284
-0.1240127471815346
-0.07121136113948202
0.006699055428600657
0.12032701432211815
0.2732520984256028
0.05899004920264095
-0.13723732022083462
-0.1320377222844882
-0.13573399158628047
-0.1469061631374572
0.04734750342130778
0.26535558304615653
0.12201279354771542
0.02153655601209914
-0.04479065621791872
-0.09536544510790271
-0.15175444605207486
-0.03238108986364749
0.0509067618574095
0.0927222897551521
0.09186028836264919
0.049172695895775
-0.03267853563067505
-0.14751214961064385
-0.08352298521809562
-0.02295150985994946
0.05516093644413586
0.16964189515664893
0.13138310517998975
-0.06061371357690272
-0.22044292146079172
-0.17499413644913053
-0.16448320603188946
0.15510492954941235
0.5098606395087147
0.6114180442273563
0.1713623610447966
-0.4732621917222847
-1.3321339962158976
-0.9476363809546204
-0.009532719238332807
0.999494001432239
1.5443160244253815
1.594494435850381
0.02656224381729301
-1.3201491642831078
-2.354566979777937
-1.253298110092534
0.37099197808953943
1.635907334321808
0.9075015991229103
1.3097661754684644
-0.1359467785597599
-0.9235007071539806
-1.2350749999107569
-0.9014211891802876
-0.17702532881115574
1.8570621719642721
0.8711246778470064
-0.5326104978959415
0.1829338471093564
0.11962771064621276
-1.6098228738138354
-0.6382774759014005
0.8810010439553254
1.0759358435614792
0.14175672258253502
-0.274003108768172
-0.47869721796343845
-0.33620040062281614
-0.2722520861305864
0.10884210538408155
0.5960031123137751
0.3393320867831777
0.025348023061086425
-0.13207504487193394
-0.1835485822743497
-0.2239338899328791
0.031872184467431744
0.070235095850164
-0.006336557328370665
-0.07106136782564855
0.02980787535758741
0.07595357357589289
0.06996074329286929
0.033873801578958015
0.006312394013961761
-0.16009693451377072
-0.20245768049434423
-0.054337610767816145
0.1439131398660877
0.23325150945984077
0.22685838101422767
0.10867977188671364
-0.1581206468128236
-0.21490127460463598
-0.28955028891033474
-0.1841486687989341
0.12657481114063038
0.2856908506601995
0.13808084080676844
0.11515575948255187
0.02626289496992122
-0.14101789583800758
-0.21362078162695064
-0.023250267244916092
0.001324605165591519
0.03744236401447248
0.06742002702388708
0.07527897970110349
0.04393795906742053
-0.045306619474066924
-0.01062352121464635
-0.06580378200669387
-0.016480034874659565
-0.058073774513356644
0.023606258856407044
0.0492302543263117
0.0413402663183158
0.01981892576160202
-0.0011990115988266133
-0.014323428605883521
-0.018005504337801254
-0.014494298434996389
-0.007557673579652487
-0.0006708389872428068
0.003988148430255557
0.005747770231379576
0.005098280615539801
0.0031101615023176247
0.0008862720097037667
-0.0007938773748831301
-0.001598507609792073
-0.0015842916404384293
-0.0010404867718251493
-0.00032060521074903184
0.0002828946309258083
0.000600905967804245
0.0005949576746603479
0.0003311189927528025
-5.8145724673087874e-05
-0.00041176789856776707
-0.0005755134559804888
-0.00043885412468501185
2.4847675309817792e-05
0.0007216464501644247
0.0014214648327113288
0.0017873943976914276
0.001467988015345948
0.0002498954976620568
-0.0017652307832390943
-0.004031267558894315
-0.0055679573516704455
-0.005189938523755148
-0.001972886820643022
0.004128935938754653
0.011720112239209312
0.017749088560760518
0.01792199639871486
0.007867440586330035
-0.01513415147914767
-0.05042028933965992
-0.09304221948203267
0.06558539682012589
0.03535444443061239
0.024204906272466145
0.03528582026392724
0.06577756563632314
-0.09211460552468094
-0.04844729519060901
-0.012295669426882254
0.01070650689377026
0.019290268161052757
0.016008497260041624
0.005834332804522894
-0.005440932785962731
-0.012615777394235087
-0.012196416590168848
-0.0032719807578147184
0.011869541144295122
0.027592095770089163
0.03559229762894623
0.026719029285317775
-0.006124412940068547
-0.06467469950404382
-0.14289785499737317
-0.026945412871708443
0.10172779015814926
0.06074283797812351
0.06078127641020328
0.10174848798286101
-0.027176274234638777
-0.143618269185844
-0.06595082359071791
-0.007701253955295181
0.025461813089205754
0.03551371778821219
0.029471240704768316
0.015950726660371783
0.0022783835508697887
-0.007092274779537759
-0.010786313732507522
-0.009736808198695301
-0.00601139268285664
-0.0017366676366652979
0.0015857740974726338
0.003305041633132552
0.003489945109459442
0.0026200544165858523
0.0012710014276722731
-9.387641355314394e-05
-0.0011911382505104065
-0.0018755869710629027
-0.002057740449733668
-0.0016516594711975174
-0.0005977875871973463
0.0010395043349018382
0.0029482697243285736
0.004502388934797199
0.00483957712693513
0.00313442834095023
-0.0009620120604626212
-0.006848790976223845
-0.012693941894473695
-0.015605435376561134
-0.012439049510033873
-0.0012218434248468422
0.017139756687303633
0.03751683890554317
0.050403681609345545
0.043636819244214496
0.006112572489793278
-0.06729783291860059
-0.17142812311532862
-0.08938770929929941
0.004263201885332586
0.13584023225789188
0.1228151242301791
0.16605034143702285
0.0476937654549257
-0.06375229086489465
-0.2028225656129761
-0.19522268343381405
-0.049769519685934696
0.04243910667466102
0.10154114214210012
0.14837179351839136
0.19486299183940056
0.039819763811346026
-0.12800595634990258
-0.12104476082054673
-0.14255161680872033
-0.17991677124652639
-0.005285656335994614
0.21606171956626619
0.11262690702786345
0.0942218791126877
0.14535203570972974
0.02737724502595703
-0.11106605965392617
-0.11920555176084746
-0.23084138147991348
-0.25889294590442774
-0.20197693788650298
-0.06293569174789983
0.3264694531316319
0.8860543600327269
0.8870576215746371
0.3823112029136265
-0.9332128481544495
-0.8474197743861915
-1.1709640331978892
-0.9234411223846768
-0.3849810789377134
1.1908077620851143
1.4318324507008326
1.716638750270507
0.30365215346476826
-0.4528472484209647
-0.8041795192604781
-1.058450975677702
-1.0273436538795493
0.29016541116895345
0.5636111379969955
-0.07572397789810202
-0.29060342968857567
-0.22329643397911592
0.4081746947892029
1.8209264578264637
-0.8974584711965083
0.1834552587152325
0.24828721086169864
-0.6241582619735083
-1.8098171239622183
1.5051816668015316
0.3518586830148389
-0.21139523613641467
-0.09796321199315407
0.0060335391302022805
0.04165190823763234
-0.022722121498642528
0.008030136546515479
-0.04595007408919473
0.057583464159748306
-0.021175821035545134
-0.009425762431714453
-0.028147518346525246
0.000593380849063258
-0.0543094194958504
0.05895376988226837
-0.031988665202189445
0.07162533262856073
0.13907715814935234
0.11499651228080852
-0.07002035567883048
-0.08449493235056435
-0.18044221473144476
-0.18183507097805432
-0.08128901016849847
0.15352611600748295
0.16588544405303257
0.19358676156536764
0.05612265118971935
-0.050359731637257085
-0.1496149159787527
-0.07599911273890696
-0.06354060092585405
0.06294464875860033
0.09293711599755371
0.031667557465145005
-0.1010238162515582
-0.07371919696198136
-0.048361895935122
0.012820771710283712
0.13926549684828426
0.14501696348352971
0.025314893312678305
-0.04144307410831831
-0.0867198769402074
-0.14234031634396554
-0.03196016892514894
0.03367876096913128
0.056744416387439794
0.048583729812215426
0.02441389600773298
-0.0014865663956736901
-0.018891500877790714
-0.0228769487719671
-0.013714089981479802
0.003926519081576773
0.022026897450511028
0.030459669284009325
0.01854921114988169
-0.023020902368043633
-0.10031701685946089
-0.015005533048084961
0.03540017738781334
0.05589216773527267
0.05177104930296816
0.02714309906183333
-0.01507225024578778
-0.07181522699268726
-0.13841102791085091
-0.008449352019444675
0.1241574260512478
0.06155189161615169
-0.0013512986647788163
0.12230202694074734
0.014022330213093256
-0.14429252857198818
-0.16370429317312046
-0.04356885884775748
0.028801588748661778
0.073787956513669
0.11243814181469564
0.16018133636633738
0.02439681402768603
-0.09290950551904556
-0.18867731508112215
-0.05207601726231954
-0.061395050643101676
0.013079477892811458
0.00041465946292153195
0.11723209986464123
0.15680005239074632
0.08317357327438125
0.03328743224165054
-0.07249687102675292
-0.11368158955417894
-0.15112271726595522
-0.011559031226977712
0.12123343376250666
0.10730885244174751
-0.15602532732497987
-0.1471231120746691
-0.1385113198766968
-0.020089999382682196
0.07562141678278718
0.35162371854423013
0.5355055724790303
0.28645745591037597
-0.3771658178982368
-0.4347812929976332
-0.4175844800962724
-0.37511125602302314
-0.06591528920588373
0.4251345645768929
0.45041036204067136
0.3579153319658697
0.05871702335187669
-0.18824460748651933
-0.3743217481357348
-0.3295954441750178
-0.11091145293780412
0.20447723613305804
0.3200391288021729
0.5219426927694607
0.2896129232151434
-0.28116396950744454
-0.6463408163151669
-0.38433844344254414
-0.38364421454535236
-0.05702714485808047
0.4179079331735966
0.6429415529679441
0.34611416721576355
0.1488060407256104
-0.03668496594493405
-0.17951137186089355
-0.28255811111790563
-0.3297507848053885
-0.24352255311885165
-0.06333373890770455
0.050703075638070486
-0.0076188492841819805
0.27124611126650666
0.37388988153445346
0.3367577857511359
0.139213062966017
-0.0806853706191392
-0.3930870836411543
-0.4380445748421786
-0.39681442897404895
-0.18474844841199567
0.12995220792166884
0.4872054949736381
0.5895301239601405
0.2669056637030891
0.06518388173317047
-0.13790118954374786
-0.4956955322067677
-0.5487656391490802
-0.1901439764553201
0.14909342646487356
0.2916902568496603
0.29036837697079565
0.2000957846998302
0.05747914987386653
-0.12676556302813222
-0.16257110188284934
-0.06749924486752552
-0.052625259369226116
-0.11289351609439979
-0.024881597678541766
0.047945247648658915
0.14482631017565542
0.09609272254801297
0.11462442903154256
-0.006592807937089891
-0.09021593467107518
-0.16563847415515798
-0.05915034522509002
0.013153556102689846
0.0476915028973533
0.05119340697924658
0.0358943327119389
0.014455295824758685
-0.003674855560570956
-0.013779521206461708
-0.015510354656498297
-0.011384230109683868
-0.004973617604630071
0.00058373374937588
0.003451184992665964
0.003317559536246975
0.0011334948651182239
-0.0014353149055184504
-0.002660786179849545
-0.0013813268127301607
0.0024992692401884773
0.007759638610919232
0.011990374697101095
0.012217530487230744
0.0060233093863016375
-0.0070399952721065025
-0.024206822813476574
-0.039096292854255185
-0.042830287251264976
-0.027035323121254312
0.011580500892689822
0.06628290516604946
0.11700995054511397
0.1309758561318547
0.06871480501989935
-0.10473978777520239
-0.20635108107170824
-0.22413153294221522
-0.11393298800683013
-0.006971599292616065
0.17299626462463882
0.288205433944982
0.36895782498387075
0.006358555436701163
-0.24124663789022996
-0.23095516821080767
-0.21467679294763425
-0.22382413446383692
0.1350620331135961
0.273506129061185
0.20791428099311127
0.14718586086031332
-0.11307629624758052
-0.18807216256734652
-0.09570446837276166
-0.04779059492775223
-0.04486167655774764
0.1237076418158596
0.07521443991320861
0.027397755734673554
-0.006817249149814672
-0.0219691256200327
-0.019912582276598572
-0.007677712180701159
0.0055796602018457
0.011664561461127798
0.005930334504624513
-0.010966801858872405
-0.032468791337373154
-0.047049985697998044
-0.04096204652311383
-0.0026263428909336453
0.07227955461055992
0.17686188589727125
0.0923851456122904
-0.007513808406037711
-0.14820845007938216
-0.14393390339133427
-0.190520531544892
-0.06495729264266462
0.06682394045029932
0.23620355293301082
0.2575526376324273
0.11970142350838923
-0.012396008079603501
-0.18565164019506789
-0.2409400450078978
-0.1964690555264742
-0.039125151125762606
0.07289526252844307
0.19754327936947474
0.19166559154901566
0.09558084213945485
-0.07551940101359303
-0.131785570644128
-0.10247004445314488
-0.026990371607781338
0.0533601900487948
0.10157683111601302
0.08934697500711776
0.0007154353227193028
-0.16474332777212636
-0.19047808129281174
-0.04533658704939832
0.10894842689723588
0.10624742211620589
0.1640907277411436
0.07586980024226929
0.01056781404773994
-0.07931497559009039
-0.04393107116761415
-0.12065208732660958
-0.12180179840350495
-0.029298975572619887
0.002141067965545702
0.034151997162044354
0.1293910766484559
0.1362221136776195
0.0777885906743387
-0.05165879688982711
-0.08279739782483578
-0.06172021287788566
-0.03835917528438014
-0.056189136722219986
0.054712674210841514
0.08077408796064214
0.024935594759204843
-0.09532318746333902
-0.05124575391746507
-0.00728797870374724
0.07315946247811055
0.02144404953125356
0.05805204323144051
-0.01085308518124685
0.0060001673003735635
-0.11289508567939678
0.0020354145397836194
