0
-0.0003286960402580797
0.0016070960392351296
0.06093546088501901
0.021602183979378475
0.10427757387487249
0.10170411923516808
-0.019260463863378312
-0.10930130744159264
-0.024205588737323386
-0.011732910236235005
-0.10127394086716485
-0.0988319437583729
0.011588620665957314
0.06078451071870557
0.08367509790886496
0.10872033466619956
0.15112182038907304
0.012214180618299346
-0.11490987718110965
-0.2361899095282382
-0.14831206458447072
-0.03571363652063703
0.12520092637338526
0.15636646289052958
0.2675417169343039
0.05021335964099767
-0.12097203410926774
-0.27995411779122437
-0.05833200929110209
-0.07699651239632038
0.056263794160314046
0.1431795804323542
0.1884004815980233
-0.006079775262983979
-0.04253166522645319
-0.12470206242317018
-0.052630422410738203
-0.01809102317171794
-0.003010915071321136
0.01840886922261377
0.07470174053895345
-0.009013517924316228
-0.01654306637718186
0.0558154202464843
-0.0017267955046413389
-0.010838877820597516
-0.0012530277928785253
-0.005511612581609622
-0.05327832082791663
0.03378942861169829
0.04582883357529327
-0.01326288398232025
-0.12602239438739601
-0.0641548207237398
0.005956696527714572
0.1155402140079477
0.08539462416474215
0.12027514481130115
0.00807505147614111
-0.07553715269021456
-0.15862763499603022
-0.0639283634256264
-0.0026460929452129123
0.0267984032640908
0.03521398913858663
0.03615969195592941
0.03917588347465726
0.04511534401798398
0.045120947312261864
0.02367338062638111
-0.0351026838056472
-0.13986250231308553
-0.08596353338107983
-0.05355572021758444
-0.011252966142101478
0.07531070997065194
0.23285419475282748
0.07171945053157026
-0.01748739636039625
-0.060546264945898126
-0.09104319938707454
-0.14009044169259732
-0.02823029933241202
0.037891243961227256
0.0636918705182087
0.06133216086570813
0.04362116146966761
0.019608667541935475
-0.006845183351177453
-0.03565962361998979
-0.06755336982985811
-0.10127420755485811
0.06745667337264753
0.04476440789697188
0.03593436072748675
0.04275927945007667
0.06235728615359748
-0.11198721342830628
-0.08855320669321
-0.07485981206311089
0.12345797043748054
0.10240951804522884
0.05914328883200915
-0.007413315953828827
-0.09440252980898235
-0.19266584987033905
-0.086439970159373
0.04318252009075189
0.21144659316074754
0.22269697873440647
0.06677449149596064
-0.07820364556083184
-0.23724316601398598
-0.2279957750557755
-0.05364885343761738
0.09728115182909795
0.244483432767377
0.20652056704282645
-0.00635415568368468
-0.19404021539433025
-0.1634700611852315
-0.12376236860241695
0.11681637976057037
0.1507336781931822
0.1694054340187295
-0.037403357148342406
-0.07912560129225872
-0.1594809843206599
-0.07178688799020976
0.0025224135144584405
0.09071805901369619
0.021764178082106813
0.0179585520359279
0.08809000883094499
0.024279342310182615
0.0034726481293570633
-0.0067646396133659945
-0.039735197690378386
-0.12083040201851328
-0.06115285347685653
-0.05558885556616736
0.11405688683838373
0.07208869580163454
0.04075990233156941
0.033852277388895444
0.05396677911956213
-0.10609947985272632
-0.05901942858088488
-0.017659463715097138
0.009149216367743787
0.01863721926512831
0.013858990153953475
0.0018565759862463529
-0.008943885688408109
-0.011461011760868616
-0.002401676678694601
0.015905676283806815
0.03467368842105201
0.03925781837168245
0.011492688666141422
-0.06639947529484837
-0.007132385091402524
-0.014193561595725575
-0.07948138417451564
0.01647018491570391
0.10167350078466032
0.00804730801957444
-0.033870268643052724
8.765382387806702e-05
-0.0766740735040063
-0.06543835659840731
0.014432399842972217
0.12353850587159741
0.20383533080299332
0.18566695535144198
0.0015756932276134571
-0.19489401149539237
-0.4108427601303453
-0.40390695663381637
-0.08713151461716573
0.24957170019523006
0.5072867681359341
0.5473705073841674
0.37533041921053617
-0.25301412593178035
-0.6055879731950297
-0.7408952753376122
-0.4846096377023153
-0.028474317317629495
0.8478048256377201
1.5445172571184675
-0.17998786430971286
-0.20511598092157035
-0.4162492533264912
-0.8600795001946518
-1.3099066463605582
0.740160156036499
0.646913350852978
0.7673552410467187
0.40812056868772695
-0.003941246385642959
-0.5209836929589544
-0.44873492281031035
-0.5113431163716076
-0.02193173555883814
0.5328461209386375
0.6960176332569484
0.23993496897345662
-0.42946458506403495
-0.4629902808705645
-0.5610970904678184
-0.38082563118828
0.03640394916541869
0.8198379856559807
0.8218396829479412
0.3875568303877975
-0.042528168270125004
-0.29393404988733374
-0.5948847432218967
-0.7097984589039853
-0.29213108797024423
0.12831961623567886
0.32120344457352223
0.30460700766425736
0.28484176078442575
0.20503607875016006
0.11531440915055428
-0.03041413392074287
-0.1536219624079258
-0.21452847832740002
-0.17069548946851493
-0.14145702246282713
0.014340082876107203
0.10435653363730332
-0.006032234724546741
-0.01305518128478768
0.000884999273816146
0.1424142667187947
0.08655311806406568
0.06383404960844889
0.05739091698042595
0.010147915317792895
-0.16013473600027212
-0.1421149216500001
-0.013339659835752431
-0.02804234191136697
-0.012267023093121625
0.034123167589289724
0.13082438836431315
0.10893601314630201
0.004052968132155705
-0.14797231080859344
-0.11309474571202152
-0.06082273595382288
0.032694646549424
0.18026431967724288
0.17993271763206906
0.014732828255045646
-0.14253072927049848
-0.12048708545491528
-0.13975502435682785
-0.0066949568009068445
0.0874413818954443
0.16243303839671358
0.042637167417652805
-0.04890928630118779
-0.09421666694059308
-0.08215188111468097
-0.009617421574741361
0.11702209427744138
0.0807016259657716
0.05408768069048021
0.003035784050896416
-0.1068798718521075
-0.1023788919516029
0.004385242926286328
0.019262340332458997
-0.034871725240663044
0.07698473928280584
-0.005429151660559047
-0.045832731706981676
-0.018930251771755245
0.08392496754408758
0.0520256593726173
0.056639768319309114
0.057046354227504634
0.010887089743159278
-0.11307522234754538
-0.1231326278030405
-0.19777563535377804
-0.08717001751078592
0.07593167285158292
0.15807799863035998
0.20514753716488907
0.22721932633553263
-0.006286452041352206
-0.15935210364972247
-0.11257192480803162
-0.1427030079999832
-0.1051879304698523
-0.02448132262771167
0.10621139705769621
0.11742387535535777
0.051919822349312986
-0.046666769355476534
0.05791196990929039
-0.009492907055043477
-0.035517186890328706
-0.015580874957021854
0.05018439995906865
-0.039016692612496476
-0.08182247335616696
-0.07408638226545573
-0.01098282338953631
0.10851353114065314
0.07639572290951609
0.07217176786401819
0.0635469547623386
0.012222394585814452
-0.11623102674387559
-0.14133606008673796
-0.05938644093290335
-0.04124325342695702
-0.037800528695390925
0.007841800237263856
0.14473191621054554
0.19962181935402673
0.1685951604406411
0.018177426723995103
-0.10377887950905161
-0.2509745165884379
-0.26169853605901616
-0.14870802158385268
0.10011820990221505
0.3112670445454178
0.3108125704208558
0.11294594336058218
-0.08262807810085024
-0.2839060117676619
-0.29510962303948013
-0.10765978115614604
0.1008808441317168
0.15898384332256874
0.2884154295481981
0.09303437423635637
-0.04542864616782313
-0.16281635884035764
-0.10156094096147604
-0.09808072357280599
0.026782647723596103
0.07173675776932563
0.053423537664141124
0.0008860511230315542
-0.0519271638494407
-0.07433005158013213
-0.04714567703567481
0.029577682618387544
0.13080654699555772
0.2051519730625218
0.1805317191295287
-0.02191594205387499
-0.2675505724774725
-0.38707431911717693
-0.16198900307588424
0.07729089660490975
0.2394023170955649
0.25049114009168405
0.23095881251551334
-0.12239160849174278
-0.3457231260810003
-0.21067799101088958
0.07594132409398872
0.27266436327395166
0.3050234118676531
0.07201728671445519
-0.13993252864392375
-0.23684982383718844
-0.29651923358654925
-0.1545117496771521
0.19799593740532562
0.20434392010233166
0.12495596267341445
0.018994963205208253
-0.06948200228702821
-0.11860639426921998
0.07045217373518708
0.0772297442978862
0.06896601359062712
0.009983818235818063
-0.12777807480821946
-0.15536174833754657
-0.06152187813771623
-0.014000194035120704
0.032266514520872404
0.1221664433755436
0.08671313051478521
0.13313809941473068
0.042195768524651026
-0.02616609370584962
-0.12034770431773474
-0.08172075991859945
-0.13123049147109414
-0.06224756477560592
-0.04191444271571194
0.17949429493752064
0.05421685347106818
0.022141407891908393
0.0997970693696107
0.07608111438138546
-0.08446152133298888
-0.032010134826759226
-0.018284219413698042
-0.08338181275950816
-0.0460183953335801
-0.09957386596137004
-0.014930780420274825
0.050622037787417806
0.1409052995440802
0.08854014124939535
0.10668995946084227
-0.01260153894208912
-0.09331858540908584
-0.1659584747853728
-0.05742611707492898
0.01601999759871842
0.050878946101480464
0.05398572894980592
0.037593882675982626
0.014346230509750582
-0.0061838023410783986
-0.018806292558310494
-0.022259424645772814
-0.01785755850136968
-0.008129511500259005
0.003999282632274165
0.015396624331130393
0.022601699400305902
0.021889028231974146
0.009911310473784846
-0.015044043568356943
-0.051626586922678575
-0.0946262983529601
0.06442093546412052
0.0350328153654524
0.024678930650552613
0.03609038831233879
0.0662069930847312
-0.09273780249308042
-0.050462853766129474
-0.0154344743865808
0.007446522928985367
0.01750575707714719
0.01741664205825843
0.01149672795923115
0.0039973222252747635
-0.0020528852838455564
-0.0052622229684925895
-0.005666773569299027
-0.004174700978515795
-0.0019541827836825508
2.942381570862149e-05
0.0012407939080293835
0.001583428327121781
0.0012681703677774646
0.0006342133887680531
-4.073897802453556e-06
-0.0004462291481500505
-0.0006264719970389538
-0.0005848066285032259
-0.0004157240305250918
-0.0002187388664238781
-6.551829431929182e-05
1.2236787926432239e-05
1.799866465342507e-05
-2.3587396160464665e-05
-8.216382181350595e-05
-0.00013322461717143802
-0.00016360770285345146
-0.0001714328854575748
-0.0001625446827162817
-0.00014585283230226506
-0.00012942825601622396
-0.00011829439864646717
-0.00011398000775227376
-0.00011532589741395455
-0.00011983358558293746
-0.00012493625596595462
-0.00012882425325298768
-0.00013073130389834134
-0.0001307902661400964
-0.00012966148529050284
-0.00012813315582575855
-0.0001268285883429423
-0.00012607240097067596
-0.00012589899336462945
-0.00012614840601063492
-0.00012658758024167808
-0.000127009878324042
-0.00012728981495930132
-0.00012739238264134443
-0.0001273507389012377
-0.00012723083257414194
-0.00012709879630593002
-0.00012700025721039775
-0.0001269536400644923
-0.00012695441235870903
-0.00012698492896931062
-0.00012702475010997814
-0.00012705804134666924
-0.0001270768198083406
-0.00012708055987384462
-0.00012707361831507723
-0.00012706208263130062
-0.00012705123718357447
-0.00012704421035892254
-0.00012704179086632592
-0.00012704304107114594
-0.0001270462233930777
-0.00012704963591669873
-0.00012705212999235876
-0.00012705326521887474
-0.0001270531866565688
-0.0001270523645738518
-0.00012705132836859435
-0.0001270504797751902
-0.00012705001448616915
-0.00012704993681129172
-0.00012705012863093555
-0.00012705043119734042
-0.00012705070955223036
-0.00012705088585475364
-0.00012705094264661224
-0.00012705090608520193
-0.00012705082174479946
-0.00012705073327907353
-0.00012705066956194045
-0.00012705064120421212
-0.00012705064406919807
-0.00012705066607727602
-0.00012705069391040326
-0.00012705071750733905
-0.0001270507317373991
-0.00012705073580890317
-0.00012705073155065306
-0.00012705072170456248
-0.00012705070895826552
-0.0001270506958685321
-0.00012705068530777038
-0.0001270506807766144
-0.00012705068595629697
-0.00012705070322761378
-0.00012705073146676552
-0.00012705076405591595
-0.00012705078845786654
-0.0001270507886234019
-0.0001270507507340558
-0.00012705067134993688
-0.0001270505652669158
-0.00012705046896447118
-0.00012705043533115253
-0.0001270505171814902
-0.00012705074118611481
-0.00012705107951856015
-0.00012705143189036653
-0.0001270516328764389
-0.00012705149560955924
-0.00012705089142130263
-0.00012704984704032477
-0.00012704862163065713
-0.00012704771399637814
-0.00012704775586469278
-0.00012704927771484172
-0.00012705238857935888
-0.0001270564776864282
-0.00012706009765875114
-0.00012706119221308202
-0.00012705775610530776
-0.00012704885297651477
-0.00012703569722299029
-0.00012702230388549749
-0.00012701513554490702
-0.00012702133807170155
-0.00012704561561161401
-0.00012708649504279747
-0.00012713346647955632
-0.00012716691751994477
-0.0001271625152168565
-0.0001271004578529241
-0.0001269778636587441
-0.0001268200118643842
-0.00012668423014501249
-0.0001266502443948417
-0.0001267938889547471
-0.00012714747527046852
-0.00012765860617813525
-0.00012816683069176066
-0.00012841999942492623
-0.00012814530387151075
-0.00012717173028287286
-0.00012557342323497698
-0.00012377544330435103
-0.00012254797189226518
-0.00012282707043343455
-0.00012534965394800926
-0.00013017473495249303
-0.00013626086535088782
-0.00014134063977095144
-0.00014232653104389768
-0.00013635645617454328
-0.00012233511786274883
-0.00010249928332791138
-8.324949586893657e-05
-7.441255102920866e-05
-8.638737009155809e-05
-0.00012535229660356936
-0.0001877705422156532
-0.00025649423246159177
-0.0003013149462856532
-0.00028627035255208294
-0.00018402761242254648
5.637173287240528e-06
0.00023999284312138742
0.0004294778787302481
0.00045465375947376584
0.00020772159113716037
-0.00034760025269917245
-0.0011166866561464033
-0.001844649864514832
-0.002148902738947642
-0.0016335045222972179
-7.635221804231858e-05
0.0023608474135591723
0.00499023547295026
0.006632716900777822
0.005916089701688666
0.0018424564295772099
-0.0054985817325934275
-0.01433913132030168
-0.02113093319598428
-0.021276100086263586
-0.010835847234605707
0.011013794168851591
0.039476160836191876
0.0626480575705143
0.062166509757763
0.016616883890019345
-0.0926884316979145
-0.07518873339094041
-0.12626918450086563
-0.026432979071979577
0.05467070287553798
0.15054966409149748
0.08943747584783517
0.08851491202507514
-0.04703978259369153
-0.12033070254744968
-0.1368059308401086
-0.09962929796620563
-0.009155684527646148
0.13294162004754212
0.11700848483412052
0.12006780713208227
0.10555874891127794
0.029979237214214208
-0.1447590948733642
-0.23742263341192632
-0.23788800189652415
-0.10727549469789839
0.009985188531326418
0.16476691255887843
0.3798222280267962
0.4340887813077978
0.2632914760942194
-0.019868726655644642
-0.49085600376306887
-0.7768564114913457
-0.8359137351059721
-0.36538577038390313
0.5581513941884266
2.021623234843467
0.42777462272957095
1.2847408924129782
-1.3547077684348567
-1.4170189675421718
-1.9294174941991031
0.2207690775314463
-0.33537756981800215
2.0729142680143795
1.252515416927702
0.461727535110445
-0.22121258692137125
-0.6665936599370335
-0.8146011116638706
-0.3804668955693316
0.02591212835105906
0.14636663658592275
0.08161024831500786
0.06458387686969815
-0.18998690211997454
-0.34959886105104193
0.06788789697539814
0.6321760909834131
0.556990301891565
0.4882830064994717
0.3329640792078995
-0.2735165826965164
-0.8756883554204811
-0.9083656813576243
-0.8373397951630992
-0.15122588688048136
0.5918740605164027
1.0794077527148769
0.952298401478274
0.5392643966564007
-0.1604747795018031
-0.6444116584365372
-1.0422099307092414
-0.6489044877286505
-0.08339260523434992
0.31354446641016304
0.44533315274679597
0.6076503964204735
0.4413874704690738
0.10906322706180123
-0.2976119478626765
-0.32374724705194347
-0.30486695268698627
-0.32517793791677246
-0.19430613170268163
0.15111536271916287
0.22315503146714344
0.14467623340537566
0.2102721455343553
0.25771077257631647
0.05759841592548645
-0.076543538256811
-0.06124431126500536
-0.2070471385474982
-0.18365211784721427
-0.19592961179727714
-0.17762097251027587
-0.005007697006927355
0.07246190371614498
0.3924995708538603
0.24228685098780575
0.23382281620868584
0.0997828928932085
-0.08892789450951401
-0.4896348039209552
-0.2491006193542703
-0.07137649294453267
-0.0008766867984486768
0.1769653149830593
0.12115988869451104
0.1138287210556856
0.039255506674075916
-0.03175522016187886
-0.05036058201999364
0.008291218086507483
-0.05256113037512826
-0.04671212751834611
0.00014857073994474325
0.05534107624605599
0.08393206131401951
0.05387772516442548
-0.05807555196899552
-0.06036004457870515
-0.14221377561355986
-0.07323351448801205
-0.008353739842974854
0.10213519063537886
0.10013153952270783
0.20889170556140008
0.027757178237922963
-0.06550176556341114
-0.10560359441405148
-0.12751166674509745
-0.1557846406274181
0.0005897716503406019
0.14645210349085766
0.0933321359567924
0.050480354553965434
0.017871951962755716
-0.016455055691019314
-0.07441960050438247
0.017454558739944042
0.034863404550640714
-0.03772454928071759
-0.002102769183061945
-0.043972709949284136
-0.1340510553736101
-0.033086257191169366
0.09970753804978394
0.09671496715567661
0.1736717982530937
0.12645221568562448
-0.06528700976727371
-0.22862314210784707
-0.18594918277174488
-0.14681569805787253
0.09311516566260326
0.1456587578366032
0.21970398284327572
0.11230412844489814
0.005950112365249614
-0.12638998330546664
-0.11062651494220928
-0.16002233556844445
-0.06783468753111577
-0.007353235055889057
0.06046399816220309
0.17454753592944505
0.16111301355535734
0.02556721595592312
-0.048270603690177
-0.0918062831297605
-0.14105641735097857
-0.0258863023742391
0.03744251464793769
0.04884513802350708
0.022518926458313267
-0.017890026857872516
-0.04548773460457775
-0.03662097754618404
0.023115263431692606
0.134315797517958
0.08202795263690868
0.038168729925187495
-0.03160471785518062
-0.1580827481007411
-0.15892931351092285
-0.03298718577993633
0.039160994476929625
0.08852908305260522
0.14764089053652993
0.040933183109239255
-0.021008057811298924
-0.04193174076683412
-0.03583275304209653
-0.02039632421266695
-0.010356559037489626
-0.012611326245329724
-0.024128941382584014
-0.03295385850171545
-0.022014617223358696
0.025153374652977505
0.11827802675082215
0.05576977172390794
0.02351549661248219
-0.0020964505356046038
-0.0476208076904074
-0.13463570370443406
-0.07333195223434966
-0.060068696486339064
0.12015640948397388
0.08743808974188869
0.059651681896305375
0.047194166458756466
0.051768119246512596
-0.130717339043519
-0.1049001193302604
-0.07118263915619087
-0.023966451022175903
0.04607637091928102
0.1467731216754033
0.07893251454462917
0.0334840155078692
-0.006978311986726331
-0.06258482574102864
-0.14881660310783335
-0.07064817444682366
-0.021062446551601548
0.01488208613780479
0.05150188608574989
0.0924248284062572
0.12284221916653042
0.10750530929441396
-0.003674845521309469
-0.06297042789430414
-0.1082346339166658
-0.1472635113258453
-0.14829737380868174
-0.040358142493007905
0.0757178920791612
0.1080145441310557
0.1511408398253984
0.06675537239326562
0.07200001888249383
-0.061678374488180934
0.00023213562692601765
-0.028807250258036366
-0.037467732481594865
-0.09890652374782057
-0.0581748476506327
-0.12740490885854724
-0.0898985223771281
0.08791048492694088
0.24007860373060969
0.18576952487209042
0.12059847131517623
0.018368606726418123
-0.1571031124419236
-0.2345810322546455
-0.2195144882660165
-0.0864983808417456
0.016140826939881003
0.15058024383501373
0.16792835459977984
0.2886232299300608
0.09212248729480803
-0.07992497061499675
-0.1075256260632904
-0.06816523864634962
-0.2120933748760279
-0.1444775554115134
-0.019619204980914923
0.051054862416017296
-0.020706706873212567
0.07373319699750587
0.21375260682001596
0.23024651386031067
0.09867211923201093
-0.05331164624392963
-0.12551363434331625
-0.21817689615876174
-0.2064579594472765
-0.12403163661750607
0.03977985350987548
0.12959178316810854
0.20485072809159433
0.11908731677076877
0.10429600441785758
-0.03547253543657121
-0.12103807544599401
-0.18866620310420795
-0.07914261338515825
-0.02967098340946824
0.1294707448833538
0.17456776598695403
0.08746324765427514
0.056957949564667563
-0.11634446243800946
-0.21358731651501167
-0.19359221325576814
0.004746278396135851
0.051786164069642655
0.209976041442869
0.11506415084650251
-0.03851026705459669
-0.10362912259322242
0.02394877777695407
0.2202993732847507
0.35724561827053375
0.13364877664803756
-0.29011265176548434
-0.4629738977476366
-0.8317981330683419
-0.9601014326351233
0.017974325438135767
1.117465535200537
2.0217293277079067
1.8362499224411961
-0.8941772677326313
-1.3011935939326362
-1.4704183002379376
-1.7310426310246465
-1.004872654102871
2.163759675635463
1.711840486629848
0.7380318596693357
-0.19211883084814924
-0.4861898897888517
-0.7086270362687559
-0.3275966723891179
0.15037505802376488
0.44019126505580114
0.1251804561726383
-0.1090445115872561
-0.2536276315597902
-0.3713412339011621
-0.4124211131028681
-0.0545924974342394
0.23559717627946036
0.3309960282089213
0.5787733892788497
0.5606725637346927
0.29246276048490105
-0.13366362942053966
-0.47278179975149554
-0.8373269317436075
-0.6192373901152034
-0.04641805473495782
0.21559566992367107
0.42076603792241757
0.4745087132469153
0.061175243406936766
-0.21536134753191374
-0.06801457360701121
0.2629914158105863
0.42397090152470374
0.18305006901182141
-0.3181815138115515
-0.5060832845244051
-0.5235578018831268
-0.4007661929648934
0.14257950591997898
0.4642478155511769
0.547447884922627
0.14733082073670845
-0.04772167573293905
-0.031100578093120338
-0.0691900490757633
-0.07501256258010612
0.027024960146452403
-0.06318497368667982
-0.19252543592307125
-0.1381707171702321
-0.20739177001929465
-0.05477685998571692
0.08583231633699161
0.3616308451708327
0.2634890074068084
0.20151371071596713
0.10097599147031683
0.020078896217243524
-0.41571067068268625
-0.3732810211081031
-0.17783171811054976
-0.09506255555003872
0.06669700412346796
0.3381085112977256
0.36348662659483794
0.1795390909997111
0.006543841406532481
-0.14567335078943291
-0.26132418233688454
-0.3007356990743158
-0.1905240359100794
-0.028221026070306323
0.09809537776436972
0.2808140062097641
0.364422330663898
0.32856137223983317
0.09008227134617987
-0.2748536941006947
-0.4952701380552454
-0.26871619765968774
-0.23640402936423546
0.021737339537566583
0.37212572988400755
0.5004817110322537
0.08440351883625948
-0.024210074211546712
-0.20262630461359388
-0.2493944600129809
-0.17223527615522527
0.021124033704637068
0.12538346879166
0.1340828074448193
0.23390480342031555
0.001291814590266364
-0.1962937703657395
-0.19546081485576117
-0.03186243834079683
-0.13872251265720706
0.04974630296064684
0.29212095332715204
0.33557597180117377
0.11914247588596447
-0.012618766946016645
-0.2876195987771589
-0.4834359922993707
-0.3140179373201503
-0.03443492169352054
0.1340992506665348
0.3648886786482978
0.5844966796018555
0.24359389227544942
-0.0901836229771366
-0.3158655977253772
-0.3668070740795204
-0.375364565822988
-0.04705185344039546
0.14914370522850545
0.375565467966088
0.41344727620849425
0.052719618325682796
-0.3097757835917228
-0.2639449756263151
-0.17789852402480616
-0.19464350282959086
0.16167317426963326
0.37116701093168564
0.3011989465997174
-0.005694557668459764
-0.13430171153951734
-0.2904188686773271
-0.29119079151439115
-0.15880501990662207
0.27868553533262314
0.38102144406165867
0.2901911933526494
0.13297335241483238
-0.16491755873788488
-0.4562043863029391
-0.3498707391173515
-0.2000203498169295
0.08730257813779956
0.22973336506754863
0.33448385793232344
0.26648456614511185
0.23000413122108448
-0.030009263856559398
-0.20779035529502352
-0.4054969080185345
-0.30238969459768955
-0.13547226283601219
0.10228939618910553
0.24729987026483913
0.3418213750742302
0.21217659932336727
0.05763127438599136
-0.14627860948400015
-0.2325926255961801
-0.22336766682689044
-0.11450433820159778
-0.07147041898568268
-0.03782360276640756
0.24659791194098124
0.42477209808885624
0.3072175094746785
-0.3313000202303619
-0.14189564784028916
-0.18336346600629105
-0.30390233809826156
-0.13006294182905753
0.5341994010947537
0.30085162216354727
-0.010577102761664835
-0.1777779216415713
-0.37592341140011065
-0.17693486044592313
0.04773477894801613
0.31949049472053137
0.4437108621442251
0.20597450632745573
-0.22186360948154923
-0.4666349666328411
-0.33693231423722675
-0.213860180323264
0.14421358885204466
0.38387670341599617
0.5340553531225312
0.189879537190555
-0.08846372256354561
-0.3608354156611167
-0.4833142732882752
-0.2869735555374972
0.03085268825830929
0.2997341789087451
0.5589433861260219
0.4403981914396237
-0.038429963947342397
-0.46844619419170463
-0.6356014676832785
-0.5123695087374491
-0.2650674149448951
0.32058352567695864
1.2056866273454196
1.8760015290792058
-1.0484194772641688
-0.16391507051531984
-0.4067418749004998
-1.179046663143228
-2.311288986502254
0.9149458989486098
0.4813820929808991
1.1091116327131296
1.5413235014231101
2.0813972229404554
1.0184900696429857
-2.859608482401211
-2.5048695666778706
-1.8648727286396054
-1.0215936247888002
0.15515926875614816
4.059686067307755
2.7722439370694123
0.7305662104915628
-1.0925741046791855
-1.7005796181189667
-1.9188444765810062
-1.4451808440693672
0.03578841779839577
1.2496836481367668
1.2560545575404314
0.7407699883018025
0.32358209136453825
-0.08826429634853337
-0.49370577995962966
-0.5529176766206979
-0.3285188567690445
-0.2374425573926725
-0.2298525481691808
-1.2431254744415073e-05
0.3768524953501578
0.3956076412567416
0.4777193995067595
0.3490672530823852
0.047930396694659524
-0.4383168623124965
-0.5195540334961396
-0.5503982329845222
-0.1964363889722976
0.17061933070787175
0.449954855120057
0.37206797575038436
0.25840016077534184
-0.00630223481931959
-0.1826530463485821
-0.26833362471616923
-0.08045212235919989
-0.03738521251957984
0.05354796610822461
0.00018518092382266597
0.022241926883669428
-0.05688999012359629
-0.020469778256664937
0.13184771472936344
0.17753471243197055
0.07045051972242561
-0.05280386862857337
-0.06033177379728258
-0.20964316544736095
-0.1345496799814253
-0.03868223137319926
0.10234107574882119
0.13135181667244766
0.09657652206205895
0.039788288869354316
-0.010866250447843237
-0.04225364785932455
-0.052991937116188825
-0.04797286482367784
-0.03323585787694812
-0.013003089922932738
0.01051290059438201
0.03511380418757708
0.05587552263739383
0.06341305529358018
0.04455748774192773
-0.014097817931960218
-0.12064556440388123
-0.07237830341282118
-0.052905552116729454
-0.03373620546846186
0.019448618908682696
0.1375176439118161
0.13869252624420714
0.022794579481113447
-0.028827946471052846
-0.0476208916823387
-0.06851912009382964
-0.12035228115805478
-0.019140154129970336
0.03383016970220704
0.049100560660776386
0.04293885037674834
0.030500112543017644
0.0205195554494051
0.012905909457824069
-0.0004948184530541525
-0.03264843826911198
-0.09691831055932991
-0.003011690865864088
0.04555437381743424
0.05215583294958871
0.02648092241411575
-0.01649999044677836
-0.057620933527926244
-0.07499402879209831
-0.04654620334028992
0.04613638107188062
0.21348490736274978
0.054992082220882185
-0.040506682051840104
-0.09083180909838344
-0.11432955403193142
-0.12455062860181891
0.07165280315600302
0.07180888297256757
0.07270225904785903
0.06525555562077791
0.03213797522172831
-0.050504307860420636
-0.007562948868501238
-0.05751040997866122
-0.005389232369474891
-0.03849952147190063
-0.12633639235318522
-0.025344726408400235
0.11217532670568495
0.1271004860360167
0.04363611186878438
0.06373751037008388
-0.03246941612151187
-0.08069246225081557
-0.1231785804327554
0.0008198603036927692
0.06228251377736446
0.046255763394669164
-0.047411546866112306
-0.0055232061695668615
-0.004462891058277395
-0.014229634359387318
-0.0032647643384196585
0.05647412200848109
-0.015022928742628292
-0.008977859799802595
0.07104051041476521
0.010300704122080609
-0.013727142043002067
-0.02649196865779393
-0.05118649707309866
-0.10479213397695958
0.0034131456941720716
0.07056609070874154
0.09711976709760899
0.0838982438693559
0.0312525409333917
-0.0589479221768806
-0.17960643397409048
-0.11555528121865992
-0.04427252232955227
0.05872757902504118
0.2113542258473864
0.21705414104309817
0.061881423063887955
-0.08107106774946299
-0.2410470712281207
-0.23736448215916006
-0.07126350340351002
0.07424841547818793
0.22666465821764908
0.2123866066710836
0.04695234156835355
-0.06866304458631775
-0.14495786223713852
-0.19681225774067518
-0.03674308593824628
0.12815311649237995
0.09491678613559733
0.0610388719141957
0.02127477383968288
-0.033053107928848934
-0.11210736863006483
-0.024283802069852072
0.026576631558789917
0.042390011281391596
0.030408660169711547
0.001850650630545075
-0.02979195068202751
-0.05067728535706278
-0.0491520578764523
-0.01925350113896934
0.0351048174411758
0.09650710703839034
0.13298646691529317
0.10155638146472143
-0.04285388817342061
-0.1344209280763182
-0.18309649913188494
-0.1658274785201803
-0.0263899891902365
0.11492675406048383
0.144219450574332
0.13471812188705165
0.1313509441676209
-0.05654422211781595
-0.05314188971583439
-0.10664760205377519
-0.07637851665961394
-0.020604430457538698
0.011921550118245859
-0.014251152784594179
0.07857093326860415
0.07887771836528346
-0.016662602536941056
-0.004779669001844589
-0.0758986864669557
-0.013909963217856347
0.0034817150191973163
0.0030951391127116822
0.013304365378556357
0.06038283458016838
-0.035011483449420656
-0.060572358507507855
-0.014031880972471726
0.0962958130242637
0.05240538226408947
0.02946693063269674
0.0009276126448296961
-0.05485963172828873
-0.1483395890568889
-0.07524709076710327
-0.017863425948845373
0.048593262460395664
0.14622134699165168
0.08477846156933677
0.05586652944882683
0.03345385649072622
-0.019044140519667452
-0.13727339963670204
-0.143833180217904
-0.03971782429263784
-0.0023474947372876583
0.009052595880408491
0.04246285067056216
0.13996766002030092
0.1266055461155916
0.004558230514418468
-0.04571790149143907
-0.0581991789725637
-0.07066324761283599
-0.11439096118030741
-0.007331324939511443
0.04769259035043687
0.060079315545184586
0.04573805700426031
0.021038970541439227
-0.0015977401498113043
-0.01559440356034439
-0.019797593287992535
-0.01662996100582329
-0.009859307460938964
-0.002809712925622803
0.002568471276985185
0.005759569938265478
0.0071502089771482286
0.007301878427767653
0.00640015499855563
0.004119939508726448
-4.2282957725376286e-05
-0.006115717872519324
-0.01299085491067398
-0.018133043993948685
-0.01801846772030557
-0.009436564584517205
0.008540904118575162
0.03253440580141321
0.05371205872783635
0.05851005647861329
0.031796618810411
-0.037839457885068754
-0.15217122366370014
-0.0992155325223056
-0.05335312309072003
0.019171792578138443
0.1504760973594761
0.16023523554803232
0.047993401662577886
-0.008223112744387709
-0.046209521488996146
-0.10871458446808627
-0.031054636804605146
-0.031104503173751453
-0.10454187528310087
-0.026566536735671588
0.040470789107590846
0.13576532477713246
0.08855754041612689
0.11016287815902011
-0.007873843007540784
-0.08915141630849735
-0.16341473397399187
-0.056841740620547726
0.014823510575642821
0.04838176151180175
0.0508570074002238
0.03467113311576946
0.012614324443201081
-0.005732048790043806
-0.015498450752620872
-0.016220148670718068
-0.010454723660655007
-0.0021029250868984436
0.005024952353592472
0.008176940572490018
0.006187292561110962
-0.0003198264927263489
-0.008990744874860773
-0.01612805377091307
-0.017540119836148556
-0.009932888101770747
0.007305741220367601
0.030416905970550478
0.05046378138837515
0.054249135348919564
0.027435227045564854
-0.04048352606861741
-0.15078636047920155
-0.09196912905309468
-0.04020724726513919
0.03529748497583929
0.16337973961723531
0.16160270426128429
0.030367303356251815
-0.04705291135478352
-0.09863384014147894
-0.15451014902483629
-0.03846402391785357
0.03693666606884093
0.07053846838359693
0.06932787459190669
0.04408412188223068
0.006168333366702595
