0
0.00015633180737121739
0.00015633180737121603
0.00015633180737121557
0.0001563318073712167
0.00015633180737121988
0.00015633180737122465
0.0001563318073712296
0.00015633180737123243
0.00015633180737123048
0.00015633180737122194
0.0001563318073712072
0.0001563318073711899
0.00015633180737117713
0.0001563318073711778
0.00015633180737119936
0.0001563318073712433
0.000156331807371301
0.00015633180737135196
0.00015633180737136717
0.0001563318073713184
0.00015633180737119258
0.00015633180737100691
0.0001563318073708182
0.0001563318073707177
0.00015633180737080612
0.00015633180737114954
0.00015633180737172672
0.0001563318073723889
0.00015633180737285908
0.00015633180737279414
0.00015633180737191542
0.0001563318073701837
0.00015633180736795724
0.00015633180736604615
0.00015633180736557525
0.0001563318073676126
0.00015633180737261
0.00015633180737982273
0.0001563318073869821
0.00015633180739052881
0.00015633180738661815
0.00015633180737284884
0.0001563318073502844
0.00015633180732493998
0.00015633180730769227
0.0001563318073117408
0.00015633180734745138
0.0001563318074156028
0.0001563318075014385
0.00015633180757292152
0.000156331807586493
0.00015633180750185095
0.00015633180730370246
0.000156331807023816
0.00015633180675268162
0.00015633180662899928
0.00015633180679930765
0.00015633180735031698
0.0001563318082314503
0.00015633180920008306
0.0001563318098296425
0.00015633180961306147
0.00015633180816594893
0.00015633180548723003
0.00015633180218216442
0.00015633179951599841
0.00015633179917350502
0.00015633180267220285
0.0001563318105174155
0.0001563318213657292
0.00015633183161398758
0.0001563318358633689
0.0001563318285377654
0.00015633180652888985
0.0001563317721604963
0.00015633173519611653
0.0001563317123456886
0.00015633172306250048
0.00015633178154857578
0.00015633188670765766
0.00015633201380586814
0.00015633211294101222
0.00015633211902682973
0.00015633197505540415
0.00015633166488063788
0.0001563312448928134
0.00015633085833078396
0.00015633071510082392
0.00015633102702677777
0.000156331904572375
0.00015633324357011187
0.0001563346519783006
0.00015633547599535407
0.00015633497033172285
0.00015633261239989985
0.0001563284891183624
0.00015632360785270642
0.0001563199342233146
0.00015631997961211135
0.0001563258802840869
0.00015633812686696402
0.00015635436738191898
0.00015636891640523446
0.00015637362211536513
0.00015636045208739137
0.0001563255211218588
0.00015627341312102132
0.00015621983778629005
0.00015619034634593845
0.00015621345176517867
0.0001563082961142693
0.00015646977784491184
0.0001566569941798258
0.00015679261861379682
0.00015677986738280643
0.0001565389026941688
0.00015605601423211013
0.00015542875829169063
0.00015488246282441346
0.00015473334429176822
0.00015528542486081007
0.00015667362671788724
0.00015869912905122307
0.0001607336358349308
0.00016177973098392416
0.00016074817469477522
0.00015694140360870683
0.00015062464408969372
0.00014345403684098946
0.00013846779014158164
0.00013939108990681173
0.0001491990030678559
0.000168214918563435
0.00019241206124639152
0.00021287299406919484
0.00021734560805965683
0.00019434564489546224
0.00013926203605631573
6.0618722480673996e-05
-1.6502179299881852e-05
-5.3210546200439465e-05
-7.959687422882597e-06
0.00014452009773881957
0.00039131946678937674
0.000665549934297782
0.0008479737508760481
0.0007953772471263859
0.0003972279116177089
-0.00035088752915854096
-0.0012834892752336497
-0.0020481186387447934
-0.0021704288997399872
-0.0012170131438101303
0.0009676531742286391
0.004024084684493468
0.0069574970818887735
0.00826180723038126
0.006368944758891687
0.00039087424416800297
-0.00904257468599474
-0.019211343447961646
-0.02544473888244833
-0.022340572343648484
-0.006136659504975802
0.022176780976741195
0.053953460323848526
0.07150077477254917
0.04941100587866336
-0.040885870500352986
-0.02404501146116924
-0.11312636125327616
-0.10386997118920623
0.02688651761841655
0.1178175009831604
0.015665634852839103
-0.03413072808942562
0.0034613358964391324
-0.05427697662514373
-0.012570482348559871
0.09945891252660131
0.2318665939964465
0.12256455724694927
-0.08835229041116438
-0.24109520968572834
-0.3408177790775643
-0.1509206482189441
0.0004830085476632777
0.2013666254617629
0.32988890777267416
0.43134121251997753
0.1069893089182891
-0.28086730764809903
-0.39041439057724686
-0.27728385478002804
-0.17748448046040927
0.09686436629567946
0.3490814387335767
0.3832925571090705
0.1929657657504912
-0.04020501863411814
-0.33590449000354583
-0.29883933278719615
-0.3058160635534556
-0.10463573473640234
0.1721474482094772
0.38267012873715106
0.350105821201884
0.24712568169995
-0.0018001001964215741
-0.2996057166723933
-0.3442141123045985
-0.19602601957967458
-0.05667198659813695
-0.06587708913328034
0.08312749389238701
0.11485569103226577
0.13808472351083198
0.21713566492694894
0.35604754205147604
0.10043171205999289
-0.24323671683778317
-0.37698901397385537
-0.3801302537462545
-0.2889747350498903
0.10504886083942029
0.4392565347225149
0.35366568973755547
0.2672423854958036
-0.03308650632993841
-0.18663139189475794
-0.24000928480566322
-0.22397526501301585
-0.13578050990904003
0.06627651400291515
0.05459276399576449
0.11370105435056253
0.11780164174003015
0.1112862085320492
0.09762592071349568
0.03925546669763598
-0.13210062242577317
-0.09812549970817115
-0.13494448013964497
-0.09793682919844938
-0.014098347749313471
0.11708046181221178
0.11612480497751565
0.013215598589790918
0.03885590656596573
0.018137875275797542
-0.030713230408538135
-0.09443127285273213
0.038775165205820805
-0.017596427006535666
-0.04681706989901465
-0.029629903464850185
0.052960331760665995
0.015574254055264783
0.06427928131616757
-0.006259389631778184
-0.01330118161484022
0.016009900279742424
0.048740122613088493
-0.1486759362416639
-0.0054197293258112945
0.057469524530648394
0.02898738910245071
-0.091679833548046
0.10387356021104563
0.031803049374067395
-0.08555586241691181
-0.021280412986888878
0.054273726910726294
-0.029008452521731648
-0.044192223251322126
0.029057523094558058
0.0008807323866312023
0.06842444557065372
0.0147458578166862
0.010168464068969941
0.016275129188575002
-0.008080904356478827
-0.10009864651346444
-0.08744049096225835
0.014676061465499999
0.0030030255480675196
0.08310684208158066
0.065506594217583
0.1635229947327771
-0.005430828118358226
-0.015093239066310018
-0.22434196001505513
-0.17396687216234052
-0.19058303158926418
-0.00015419775905642705
0.05017889641191291
0.36761809202535434
0.2953206886153457
0.30905359953082684
0.03437408758248166
-0.1166559469076074
-0.4975780671727686
-0.38218055982074267
-0.3362684685132901
-0.0166588629710447
0.2010000156070257
0.3732611653169705
0.3328728091853443
0.24111406133243596
-0.04015242552518241
-0.15263047111332334
-0.2253477045401661
-0.2462634828313409
-0.03075342713617764
0.20682817240338647
0.27677204324949245
0.23453291785752686
-0.19983068995325903
-0.2242652696491043
-0.3444807053317428
-0.3780179239087157
-0.07769512072138951
0.42646236086573114
0.37512117994736144
0.3309621290489035
0.1471567074849275
-0.03865046949033897
-0.1847898811872927
-0.3078915071254627
-0.23857973426048837
0.01829860072625515
0.11168343450532013
0.15869861604553728
0.14778013231611503
-0.06582409583328976
-0.36998371676906844
-0.011215892230598866
-0.21696500431148774
0.1759092073968072
0.29059273897158555
0.38518484255614377
0.04111040933654719
0.17019185872047993
-0.360385655438659
-0.2922263034666898
-0.13981684905945715
-0.16511349913174503
0.03089771558639013
0.09906349542457797
0.1200059911759526
0.17686903018816838
0.13099901261333116
0.006788740211172621
-0.011432670507441548
0.02876959530007457
-0.1362851004841217
-0.16825087453443288
-0.1116307576054771
0.01425095783334914
0.014649388905538843
0.1116678189463158
0.13320499429409458
0.10313061290245519
0.036242378290850946
-0.06074155235577498
-0.18364263936928302
-0.12428858711094845
-0.06695115103510609
0.009831474059877754
0.12648563466522844
0.29391958637587595
0.10789283115076916
-0.05019263669025766
-0.20563787153823268
-0.17922036072500572
-0.17784098972079707
0.008280908647960201
0.20048135055978905
0.2212177287753581
0.0835152362544725
-0.01475933133232841
-0.08962675167438316
-0.16412122040330238
-0.05956527448872753
0.011088578585341206
0.045615897476221315
0.050665038132887356
0.0374654996353081
0.017328545852911978
-0.0014184607557084245
-0.014452192543606204
-0.02075037027583771
-0.021033982017820946
-0.016316962945249674
-0.00725424970212403
0.005499491016980248
0.020220680860153894
0.033024453665507596
0.037567408033232455
0.026155543313490095
-0.0076830719364515895
-0.06587060939272169
-0.14310480869640932
-0.02643675543767446
0.10199288294243213
0.0596306632604199
0.05763811388566146
0.09698594170586665
-0.03181136856834071
-0.14531600302296233
-0.06177148053957893
0.003922111518136385
0.04302695820404942
0.05319965832042288
0.0370815974054576
0.0005967955112891939
-0.048220436902331895
-0.09993656435528869
0.05538541435447189
0.026597781987703906
0.01938642924342167
0.03455716670897507
0.06763738833382692
-0.08978682841738549
-0.04739462304893769
-0.013186706208292447
0.008531556927830879
0.017583406089814308
0.016925541392365427
0.01093127761612824
0.0037343782641904594
-0.0018464556136394686
-0.0046443002896641005
-0.004873950173629116
-0.003533777030878262
-0.0017671848712086987
-0.00039108847341781655
0.00031325208865918316
0.0005521143557860137
0.0007866914156826614
0.0014220625471803754
0.002530781853558659
0.003712261795608471
0.00416003551516747
0.002958911966245069
-0.00043939468487685566
-0.005702378121287057
-0.011284140365613668
-0.014523017210049555
-0.012353744776497706
-0.002634137287393538
0.014199443973600014
0.033740012720856416
0.04726138422945663
0.04310101513648151
0.00997761389413097
-0.0583984367415242
-0.1590065098245902
-0.0776020475932787
0.00913321198063347
0.1273115405810638
0.09744444681467786
0.12730197650636407
0.009118262833601396
-0.07761502583858189
-0.1590090378099308
-0.05838393264210488
0.01001032986613269
0.04314479401816085
0.04729994916685137
0.033750858702104536
0.01416122268888458
-0.0027306568902923465
-0.012494342274221248
-0.014663597840789423
-0.011355207300039397
-0.005628530185804595
-0.00017299630411001307
0.003398216483824149
0.004656012982443889
0.004053334226848562
0.0024589324114187355
0.0007329514287759708
-0.0005386644015829441
-0.0011265047443631698
-0.0010984700099995975
-0.000689502495535595
-0.00016702317132363565
0.000264365683142159
0.0005036040420115363
0.0005466614400525588
0.0004521631663488601
0.00030010357342966055
0.0001590570156862012
6.898763130121273e-05
3.9287939597196805e-05
5.70653267651756e-05
9.933205903051045e-05
0.00014387015858768778
0.00017587754321378795
0.00018987876929099813
0.00018804493209044829
0.0001767578988202338
0.00016311740611315903
0.00015247626166530387
0.00014737047430444426
0.00014765452880718098
0.00015137207670947903
0.0001558694136177022
0.00015879378842616288
0.0001587938738454667
0.00015586964306686868
0.00015137237249228388
0.00014765477303501045
0.00014737053317043125
0.0001524760270563205
0.00016311685050979504
0.00017675712762694936
0.0001880442066729727
0.00018987847089710022
0.00017587805895241248
0.00014387169831923765
9.933445198461111e-05
5.706788593129511e-05
3.9289500340395305e-05
6.898684693798222e-05
0.00015905291416824926
0.00030009625282092616
0.00045215436711702555
0.0005466546406096757
0.0005036037535305585
0.00026437582620804964
-0.00016700154130631456
-0.0006894733713054605
-0.0010984433947932755
-0.0011264952108769669
-0.0005386865626477758
0.0007328900982624821
0.00245883940126406
0.004053236986400779
0.004655956978191955
0.003398253250410136
-0.0001728310389359014
-0.005628243283263319
-0.011354869548933123
-0.014663346177021924
-0.012494350690091261
-0.0027310721965657122
0.014160368991027567
0.03374973287468596
0.04729894808599347
0.04314448344177875
0.010011263642217166
-0.05838149243489275
-0.15900541937143217
-0.07761132852016049
0.009120262709405769
0.12730030811519916
0.09743780319386938
0.12730030805036624
0.009120262589498688
-0.07761132867143344
-0.15900541951200933
-0.05838149250599084
0.01001126370293704
0.04314448367426523
0.047298948474845344
0.033749733322534614
0.014160369316371843
-0.0027310722208287366
-0.012494351252337475
-0.014663347311752164
-0.011354871029964608
-0.005628244583133156
-0.00017283141328673814
0.003398254522317345
0.004655960224707233
0.004053241753816444
0.002458844223268337
0.0007328926306003703
-0.0005386888966218248
-0.0011265040853328059
-0.0010984582325275659
-0.000689490321375576
-0.00016701347659938895
0.0002643776982460296
0.0005036265244631338
0.0005466992188519172
0.00045221144134731747
0.0003001449489005342
0.0001590643708673776
6.893380331689738e-05
3.916065929889376e-05
5.688274753834927e-05
9.915157912139365e-05
0.00014378252908234902
0.00017598092606915163
0.0001902341434004582
0.00018862413866712368
0.00017740568507743876
0.00016355424467347972
0.00015236413629871637
0.00014644567733298154
0.00014590086802738244
0.00014917256926306015
0.0001540492321337132
0.00015847019840010355
0.0001609951134017511
0.00016097647395726754
0.00015855459766750795
0.00015457749308391661
0.00015047146238857958
0.00014800865548299276
0.00014888987667652343
0.00015411707092347746
0.0001632652795981888
0.00017393071303644611
0.00018174669562562282
0.00018132745089995104
0.0001682525439287719
0.0001417458847471522
0.00010714403344594116
7.681312896202953e-05
6.815200555880685e-05
9.796223534260529e-05
0.00017384129224238686
0.00028510752682705794
0.0003974569316853545
0.0004561533569598314
0.0004011365651646468
0.00019352326351127213
-0.0001529440689796388
-0.0005481258894094411
-0.0008255614216837875
-0.0007801921455004464
-0.00024698548809590123
0.0007945657905095694
0.0021265791547118067
0.0032620327836595524
0.0035289885206093254
0.0022950952552137477
-0.000696792120116549
-0.004982873590392053
-0.009187553242246323
-0.011172881694424656
-0.008655613103042366
-0.00026653316542123753
0.013198974941178904
0.02781850882145335
0.03646647888045408
0.030109857110624742
0.0005455543203667947
-0.05602069247585884
-0.1358430749342448
-0.02653228813936235
0.09095182047151706
0.03742941834981993
0.029336526237389048
0.07342246996886169
-0.036040263770876074
-0.1170110641322521
0.003068444764260379
0.09158672638893858
0.11605029148090894
0.05028275879293162
-0.11876449059645629
-0.18510985562419807
-0.12153589617790239
-0.08381460573123554
-0.02210825401082265
0.3029700914454252
0.30517147712191844
0.16494765508576428
0.03402007104420384
-0.1478606334906866
-0.4296530406973506
-0.42876560071345154
-0.1231374871118872
0.1397270719460673
0.41982732357981417
0.5579601133062644
0.3580267171043295
-0.21246794189885435
-0.4031195813365525
-0.4513010206326798
-0.35678011998099324
-0.07252426904261625
0.28361731701846193
0.40111239387175196
0.3444768720765754
0.12957741814842375
-0.0827797568170726
-0.17479537638985607
-0.24704037734169923
-0.19085066717917293
-0.06690346694658571
0.10456847982558132
0.14139296126028408
0.08838022482417222
0.0026766680622074945
-0.06011788653403581
-0.05679376491502216
0.036161445901930864
0.018646518142000072
0.06656592123057385
0.13553279780361147
-0.031007513532395413
-0.08994078254933521
-0.08514188037766274
-0.03594809374499286
-0.13071740013002212
0.07255977162024965
0.03859053248592717
0.041896603695853935
-0.048329721825098974
0.01745694201443585
0.058269490829423794
0.05720463058337419
0.16317348916124555
0.10057626489567642
-0.013814603657370571
-0.24985417675880547
-0.2443979573676896
-0.1895705305118248
-0.03387778642059156
0.10302445045807258
0.3061848973228331
0.23988104799685214
0.12954207251461017
-0.043010413778316436
-0.13018256851341126
-0.1993779154571071
-0.11119415061666031
-0.10227632115508772
0.022526258904971577
0.08778338084222628
0.13733880880041366
0.020742828816599404
-0.01937625664430502
0.043921759996346725
0.01802307045235854
-0.1086363099652579
0.037269146288133395
0.019547419807628565
-0.001468175137228524
-0.06335923880811264
0.0027857071365956863
-0.024880029987159408
0.04192914708303783
0.0009642285691464966
0.05793991933470287
0.02498638925830597
-0.08051350105721909
-0.036878285916271854
-0.019531801269225865
-0.0034645083373881637
0.0332875391326597
0.10602867439587628
0.0210168524903894
-0.024575594987761438
-0.04016050714294875
-0.037627254902098436
-0.027240295432760735
-0.015040081561996316
-0.002532169418156926
0.011456510787521242
0.027638978102400694
0.043175909337764565
0.05000232030076639
0.035556270081701515
-0.013903179299221002
-0.10824398481963723
-0.04845316194914965
-0.023757681791615765
-0.012354122432286247
0.014067484362625051
0.08319022756704744
0.014399012861567076
0.012795465918189917
0.06658615928336294
-0.05141687090432222
0.021550788993530773
0.04631354054894561
-0.009021362759842564
-0.1607335044327357
-0.004260745840589499
-0.11407797470578133
-0.04970709326933789
0.0328788768681664
0.16725058837589518
0.16434277040005937
0.20693393035918806
0.05415739748073717
-0.14387456522875977
-0.22534720310955753
-0.19710774912185436
-0.22394446977084317
-0.03215157218780955
0.07197285301456538
0.17333286860319894
0.317586944881892
0.28900342567803733
0.004583557567955218
-0.0724377804730187
-0.10269824183942623
-0.23244253878730492
-0.1571263668165315
-0.09617913347365707
0.015101669467260671
-0.08507306206995931
-0.01181473510295965
0.028980021995991936
0.2000214342276965
0.1972782249086568
0.22793380388445206
0.007514867863296261
0.1780532909470063
-0.055820078132456916
-0.2806048933359488
-0.42848622625954585
-0.14451829026350052
-0.17565788942453395
0.014965931049195287
0.212433941438485
0.40311897827779036
0.3295463006710247
0.058955330883617055
-0.22763341530091744
-0.22612346806608816
-0.08587680416204498
0.01990289931545862
0.12375618171837162
0.2906821825039614
0.04129489209479473
-0.22971509843201984
-0.4434900585718424
-0.44129463425094545
-0.2084050387596559
0.2825533064424475
0.8173949526098259
0.4911087479840187
0.2806768113387111
-0.14953522144557344
-0.41137300352675893
-0.738634241138328
-0.33381988073248275
0.06779117456839394
0.40966848710212767
0.505168757184298
0.21946278939392058
-0.14664579934402225
-0.26608821094031726
-0.3909161823558417
-0.36102702445330886
-0.02239608554510647
0.5449676943117876
0.39661059488591793
0.30277104666956717
0.14793213501835237
-0.04519727068168709
-0.4725266156181827
-0.4990624949445689
-0.21865659455750394
-0.03555841260765277
0.12750702922833307
0.19911405487083397
0.317756110388212
0.1924298729457786
0.0760708152528355
-0.04243331204325382
-0.028006533301839706
-0.1763072754543994
-0.18591383811251344
-0.13403256562866792
-0.06192613238265563
0.027339339151383167
0.16030859240225073
0.1784576269575229
0.12352555481094567
0.027972046776226986
-0.08722110926395762
-0.20870877290885745
-0.12476197745170742
-0.021350325417653193
0.11722506442889417
0.10369756308048833
0.1421715683215852
0.024948286638607764
-0.06608665883434957
-0.15392028611133735
-0.059227555501445275
0.005319287767929495
0.03717235577441012
0.042299304858366464
0.031248580857621194
0.01482331363224478
0.000892571705673242
-0.0069622435555792405
-0.009054507120789734
-0.008039664779569152
-0.006961868675978615
-0.007588860503285366
-0.009524717093727974
-0.010345136064604861
-0.006743156945633234
0.0035925055558878793
0.019907636421222563
0.0368678765007367
0.044386655396039566
0.029335647544653478
-0.020917934370018848
-0.11403737811171129
-0.048917377386558304
-0.01428614804004514
0.00933069006145498
0.04469047419210246
0.11163450501088418
0.02183538665577278
-0.023692263315226947
-0.03366159949139471
-0.02282974374924334
-0.007045281653768056
0.0014336735136461724
-0.002736121898414051
-0.016569848414033937
-0.02942366277277287
-0.025650582134268997
0.011164059315203985
0.09323902855873582
0.0241859464024314
-0.0035018567824404746
-0.008235378268354633
-0.016474663805298037
-0.05810306019559789
0.03880061882784684
0.052817989326268355
-0.026896794675473092
0.0020062202137043437
-0.04407056020264831
-0.136323875401258
-0.03837526610919914
0.08583121146951031
0.06256045797471593
0.10015221467436851
0.18563095619122646
0.08853363514418738
-0.02785949546809511
-0.19079827915104644
-0.4036308810880867
-0.2396465387169222
-0.04931863913133756
0.21894238821251097
0.39081741172358825
0.6418697425784744
-0.11172784510860244
-0.20146986703868078
-0.17604953355979472
-0.16170070211894047
-0.22576316691443457
0.046007660643324975
-0.24759960231823402
-0.34094283740778125
-0.03598267246656171
0.6551805921504879
2.272743743227957
-1.7096328083881067
-0.6783192077936697
-0.05446034764422854
0.13390944278295006
-0.33206274080082987
0.13723486945330202
0.32625162748641373
0.19609390976455068
0.07089162884147743
-0.3643702326897293
0.9482384498761967
-0.13555000731656097
-0.32986198374788406
-0.8881762375950876
-1.1870326687432338
1.2658277798485598
0.7984977607071876
-0.07061419794045472
-0.07241470729723591
-0.006977777680791013
0.060324379067011616
0.2227463918914229
0.16931929759657247
-0.3730588109905526
-0.6028155559978909
-0.4238801233716299
-0.2526080651819368
0.1459171506850812
0.8001853515132229
0.6705005011333753
0.20360486640321832
-0.08134758676025532
-0.37234169351384616
-0.5187435123543847
0.023644078389204723
0.04110773021989671
-0.20562710834840073
0.23198840271377158
0.18689304079927188
-0.239554286147067
-0.30180073969397675
0.16082695135292255
0.09359296028782842
0.19936064143740062
1.1217913888780562
-1.1556043032514536
-0.09369376228023564
0.42928883164813747
-0.0531324737966435
-1.17275937004036
1.084640810269146
-0.02303015183613251
-0.6091615029494453
-0.18237929000683742
0.32505287241321074
0.530130352233796
0.3814792329688482
0.15985337243468592
-0.09930026624276778
-0.5659294366874468
-0.5708461937480038
-0.17224208238895825
0.055036380452231526
0.20484330157160446
0.4069091009308538
0.3889984127574803
0.04726443211950669
-0.16711846056860302
-0.2445437645565098
-0.2027170419313885
-0.07000321089555829
0.12698166084794815
0.16909168415677708
0.04506981017595439
-0.050427271900488554
-0.11920059068267794
-0.16215225246623427
0.016938030577375494
0.20641704029285418
0.1823496256036938
0.10782800949036421
-0.06159580110816002
-0.1667298650700577
-0.23143081285262676
-0.05244833395176597
0.003252573433096031
0.19243646069985884
-0.017019574773160337
0.03888515292229451
0.007104767863683898
0.10909088803715729
-0.061565873550562755
0.06472971180642306
0.042719745978146685
0.024786896693172217
-0.2260009346945777
-0.12575956239082048
-0.06600078893027705
-0.01822549741016162
0.05377331285516819
0.1775494885725988
0.15719030881977578
0.16576941041559887
0.1488664250805773
-0.1606128162666954
-0.22032344185793837
-0.2565088808071173
-0.2506040962072937
-0.14054784569538611
0.16217462001848015
0.34492353715194674
0.46578545894625634
0.3362661210259318
-0.07749921634712208
-0.4349441616276072
-0.3910315615143957
-0.36934544750000964
-0.1505560023414502
0.11829176011961885
0.497437147470738
0.42235646026813806
0.28003275341503625
0.004108929312191331
-0.30859174942225
-0.3666479237000817
-0.2499525287365709
-0.1854461260609253
0.05963917605226298
0.36660954418663
0.24224912854301148
-0.007086267580442467
-0.09650286443735694
-0.17521301277006862
-0.03135384322300698
0.10882379963939122
0.18607614802102726
0.11785533522885523
0.013110654997913624
-0.20896179328890224
-0.20009304153728305
-0.16969510095682497
-0.08220293985724825
0.13315702276549718
0.1626601559633081
0.08443510953986856
0.14807798281163345
0.16337487187405403
-0.09913036015706593
-0.09669530095202909
-0.09627903250030682
-0.15577355506742255
-0.110269809738649
0.03306506373821644
0.0910245390542021
0.09383273199592115
0.07240871452497105
0.04788274554244723
0.0264003144611408
0.00012310738846564763
-0.04669644752243955
-0.12914810026849147
-0.05380272735745181
-0.014356476707654822
0.007781361650638542
0.03835019651510612
0.10249536515996566
0.01707462478670596
-0.014612201480653267
-0.004317076939299612
0.02356644990114585
0.03753776979330749
0.006395958009735409
-0.0930445209876114
-0.0698234509589838
-0.1162791399885749
-0.010437284644817564
0.07679276425687173
0.1716960162609768
0.08862413189742462
0.025198532302476304
-0.036247136230838695
-0.12159142093561419
-0.05494654677028615
-0.04927423345115955
0.09963690011139754
0.014635286749371852
-0.06567685118242039
-0.09335820685949837
-0.02023904495870392
-0.00866383784976381
0.15809040845334899
0.2687867321817339
0.08392307293377933
-0.05602106577902176
-0.21517410152566482
-0.2446009443583291
-0.16900476124784594
0.016894834140491616
0.1409461880408333
0.23840577444110903
0.1354356223739547
0.03781580549606313
-0.07120904183055585
-0.023939250715939775
-0.05537774745061759
-0.1894080956661618
-0.02867871180896875
0.04860027295549838
-0.11602912898645576
-0.07248345074076934
0.22339874404725388
0.19672385362468756
0.24679571439569056
0.1506316527835436
-0.12281575154632465
-0.39225746001673895
-0.4463892363457486
-0.43903936820984485
-0.10357283414451324
0.41517858234480587
0.9229402089188032
0.9500893846229188
0.15479397176862258
-0.43852279863958676
-0.9757560833855359
-1.1095046283812748
-0.7639585939443017
0.2528616731762977
0.9906121298674593
1.273959607591392
0.8294305550977311
-0.1486641999903162
-0.5816813137282949
-0.8504420497660904
-0.7260224716468465
-0.3163384660249121
0.3532078289123178
0.5234697909918821
0.462832648130363
0.2257658745263277
0.02549113313717981
-0.17148041981705595
-0.2311330063978198
-0.22687826867557404
-0.014196594290989588
-0.013128535080934896
-0.00227888376791459
0.07627006422741733
0.10442794287502986
-0.02785139153284323
-0.03817624753454031
0.13561335724157023
-0.07290160794872579
-0.06222549710821409
0.1383522173435914
0.07448093449283961
-0.12375003600338629
0.07033550816585991
-0.007135908312501266
-0.1996220491005797
-0.12381021346851291
0.03014296737046413
0.09148824966324574
0.0969011257312441
0.07747065135502826
0.04873091246308776
0.00644313613324775
-0.07130063375227226
-0.01704540481768539
-0.06456704127025524
-0.03978917915494061
0.04597819928482508
-0.0004093546354111011
0.046555740987213066
0.029159540310152263
0.0028821942636806357
-0.16876183602665004
-0.021375455900244433
-0.09925024516602489
0.03316755109286376
0.1801846621247485
0.308088178370703
0.14705413127585729
0.004275652246498686
-0.21318858003376207
-0.3720663043897744
-0.2921912924248739
-0.13988288737899204
0.16093492399300546
0.3030410644837362
0.3647376778767006
0.18446981904335982
-0.05003156354157534
-0.19539101444253998
-0.13287984787877644
-0.14337837701419073
-0.08548866610848439
0.01723887197883861
-0.022252774154082403
0.036799942632148516
0.047734100622812026
0.05925632586869599
0.10094052085536954
0.1753082838171964
0.05883292087899862
-0.08810194597843186
-0.10506659361281277
-0.21450120926403723
-0.20983718469259585
-0.05364061889167183
0.1128065048124116
0.15141473533742666
0.3071721362332407
0.1936446949517465
-0.01022862817485492
-0.15082320011396597
-0.2819344161490609
-0.24577926197339933
-0.060575664860668246
0.08087480266241326
0.20230107426384203
0.329986080883307
0.08068114452701423
-0.14334772947710203
-0.15114246151075808
-0.15510079532311452
-0.16367716954935388
0.020918075610712142
0.19896135534780815
0.16597064551152135
0.1066923526923734
-0.005357379654558682
-0.0011232214195716298
-0.10376211638245457
-0.11527598058809126
-0.20734519623728614
-0.12084734982752106
0.023901660225949854
0.10769783571039546
0.18890396677146068
0.283161230970612
0.15348926552491257
-0.08499164191989637
-0.14620786723581544
-0.1454044604319546
-0.170598173271427
-0.06107758369260316
0.0018778343385799697
0.09066833597589662
-0.08454445876613469
0.0008163673884009747
0.059955203176696045
0.17156820420245383
0.1642332271502772
0.21227185155274272
0.044730313879101105
-0.23460408417892228
-0.5223842995791944
-0.29489502163710685
0.001065388103193855
0.34335919013237376
0.520920901502645
0.5217516694474318
-0.06777706881394992
-0.4493137395095909
-0.5910467859189827
-0.4114327804907208
-0.18078613594589446
0.25431520315956346
0.6299364819610944
0.6220631692077419
0.21965043102540846
-0.07478230427386846
-0.216360114631765
-0.5716353261176694
-0.6724443227058912
-0.18684768883044492
0.283249287813558
0.37964334269345995
0.5528920043774306
0.4318554443364651
0.011473356620156373
-0.33666668404540373
-0.43722804747730315
-0.4813395616382797
-0.20904167262277343
0.08678658776602162
0.33532962603172634
0.4509773424294482
0.2988880196694669
0.07580010861250305
-0.08757528818050714
-0.3047511288873718
-0.301260646074099
-0.1837179829447266
-0.01974550489323136
0.16701112888752495
0.18865320558917187
0.07765281163936409
0.07131088732280728
0.00104291543805826
-0.11179836228425434
-0.05475673622576929
-0.0204928288967771
-0.003110465374283106
0.0037673863531762566
0.006853103938941426
0.011602673656212524
0.020213001473514253
0.03026510183808499
0.03484172401382617
0.02451335692269977
-0.009047120763981278
-0.06881743831712947
-0.14918624248622403
-0.03548277919967451
0.0927427178151395
0.05531148198821119
0.06415014747266505
0.11811546957695317
0.0021673484957835092
-0.10853905044537696
-0.04099397935708039
-0.015801881225924165
-0.04068031258739516
-0.10804482463643687
0.002606479582077705
0.11822478824925178
0.06371088157123414
0.054273220744221536
0.09132005244038961
-0.03677942672358922
-0.1496379761830455
-0.06773121434312984
-0.006112130695110908
0.028846969546484483
0.039132727780754446
0.0322014799901334
0.01723882541347864
0.002068239168756503
-0.008504854067174489
-0.01287731819108258
-0.011828136265175003
-0.007331909218666789
-0.001538181916047765
0.0038078738229530423
0.007502322397026314
0.00876868515389533
0.007147490749422301
0.0025744304241637917
-0.004328138927757444
-0.011908771750238573
-0.017392747614739763
-0.01734987310384549
-0.008886144067346063
0.008589454776000573
0.03156155050841965
0.05142334670474003
0.05521322770126617
0.02859063867301104
-0.03928335566657873
-0.15040189324791084
-0.09439672769074213
-0.04908615209871289
0.014000915670731437
0.12043597500214548
0.2834597432310276
0.09856821083606694
-0.054832094297364214
-0.20473899080565242
-0.1744348053900802
-0.17248936666955303
0.01044645021274655
0.19669479368495926
0.21103624496751425
0.06970782459261247
-0.026242446144648407
-0.09105298773175578
-0.14893304387428472
-0.026560759027213998
0.05336692991979193
0.07586313783823824
0.03483784719065431
-0.06713334478825089
-0.019576903451984623
-0.005306802262220894
-0.0023348493019636502
0.013375080393031315
0.06465262460555014
-0.03000399031294229
-0.058881811547775595
-0.018627800191830093
0.08505094187344704
0.03771432510875354
0.01797864663991906
0.0010772001293522949
-0.03619876452806946
-0.11043635086380699
-0.028124286884624698
0.014846349614307874
0.03036268931390995
0.03291121524605683
0.03389338577764505
0.03741709459555274
0.039006192547309845
0.02775974586888581
-0.008565365646077428
-0.07712739371880563
-0.17462095341360262
-0.0855029572385652
0.014556694162191493
0.15045389230099815
0.1375477010893971
0.174019150443044
0.039489629387320035
-0.09881613421244174
-0.27447487679299015
-0.10958665360802335
-0.0069898701324370306
0.049974568945408915
0.09057157122065862
0.14599102688780485
0.03927968903191721
-0.02060147644054243
-0.039171548601743295
-0.03205914127041192
-0.018053104521898664
-0.012050121943342549
-0.01987867670989716
-0.036216367309107246
-0.04608604203793509
-0.0297141276940704
0.030264665023583295
0.1411704440775412
0.09481362562980215
0.06673448562097617
0.02144487844490152
-0.0772126884454012
-0.253775594010201
-0.11149512108214836
-0.029433108641656863
0.031901442069284885
0.11802630957689245
0.26564342459757556
0.09113809795205717
-0.013173528416416771
-0.07378373266813064
-0.12414744798962098
-0.19125843258772013
-0.08606818603930882
-0.0014112623185392626
