0
1.816890616297115e-10
3.5777575615292877e-10
4.5964370594500395e-10
3.940116442794637e-10
9.60020648784348e-11
-4.223995219476151e-10
-1.033637592924759e-09
-1.4903679116681742e-09
-1.4778242541972301e-09
-7.298072056294443e-10
8.119381708722828e-10
2.8483158051273273e-09
4.6628610862386764e-09
5.232574216598823e-09
3.554150880704205e-09
-8.501389916403129e-10
-7.3919574422404716e-09
-1.4088063368851754e-08
-1.772804534553576e-08
-1.4744183968778002e-08
-2.762297240493661e-09
1.7535452594976913e-08
4.097274427290083e-08
5.782153502792964e-08
5.5954259479395256e-08
2.542776051435733e-08
-3.5348641000278524e-08
-1.1398119306109203e-07
-1.8208258511475616e-07
-1.9997858183097056e-07
-1.2970893796721183e-07
4.527023878435274e-08
2.9950263710690417e-07
5.536988624069246e-07
6.825653246392491e-07
5.498489723692996e-07
6.912410165371688e-08
-7.24694124151349e-07
-1.6221265113966755e-06
-2.2410426776131137e-06
-2.114769859851263e-06
-8.730068529401217e-07
1.5197476780179397e-06
4.552371260742572e-06
7.101730806375631e-06
7.63095340245995e-06
4.7066782453662926e-06
-2.234475049311138e-06
-1.2103298578838582e-05
-2.17355644225063e-05
-2.624700856778481e-05
-2.044202394341109e-05
-1.193437941922444e-06
2.9815776503078537e-05
6.412994490668323e-05
8.675672013877918e-05
7.976150381403157e-05
2.9398177658294846e-05
-6.468542907687956e-05
-0.00018149972435033165
-0.00027667001233746294
-0.00029073178739705936
-0.00016967750087141075
0.00010525980494324123
0.000487902413617326
0.000852188080807653
0.0010079263801394936
0.0007573029869050354
-1.206309044746154e-05
-0.001222152285670737
-0.0025324809091131543
-0.003355545502300176
-0.0030029375991040795
-0.0009659282990974013
0.0027297749645062356
0.007227001730560057
0.010777908385080453
0.011090084639936715
0.006143004806518913
-0.004654299811648565
-0.019337118945847182
-0.03286565317295057
-0.03782605499793288
-0.026728357310841656
0.004275310331105075
0.05120333491652259
0.0992757098550403
0.12315912221937536
0.09190163092399596
-0.021515482472196482
-0.22841086578082126
-0.3150623864774022
-0.24119911645865674
0.050200106611614344
0.2129635223152257
0.47433028763273155
0.4182731962591297
0.184709117417505
-0.3121540416988462
-0.5517604320761805
-0.574143109910237
-0.16026079905527751
0.16531014951923623
0.5105495384727675
0.5818951917559932
0.2547936024810708
-0.23971753659361353
-0.510037519785873
-0.38762388926853086
-0.11053234060944822
0.2845301530685641
0.36037270704157176
0.27325636037016543
-0.029716011938623586
-0.20529284699700714
-0.3022232689991244
-0.14871105431630688
0.05443378957921933
0.13174999357494932
0.12353283688972458
0.07317754428642412
0.016340162037313002
-0.02501045231725007
-0.043106326924257206
-0.04088490759119416
-0.02676022787133619
-0.009756485241876351
0.0036908687800977637
0.010893553121262688
0.012387975171540989
0.010473397614314761
0.007596929392137332
0.0051859202866374856
0.0032401766466834503
0.0007046223951972104
-0.0035978639988252085
-0.009861934776986298
-0.016495239748554703
-0.02006287411361562
-0.016272849415883684
-0.0019892051089314927
0.022159472164075437
0.04942731768462695
0.06593358840050269
0.05187939277417017
-0.014825213247322836
-0.1535114275587101
-0.176391994828
-0.08728465355893807
0.11542886614373082
0.23302883602597638
0.26182424770976814
0.19424646123720188
-0.17207605439230583
-0.4196130206619938
-0.29743830286173606
-0.11724530532752196
0.035883527740243296
0.2789962042073798
0.30037748512072215
0.1326998607864151
0.13951875433202454
0.019799049829036585
-0.17077105715083496
-0.1880043161808641
-0.1661013665637375
-0.1922315650172168
-0.09505765785893364
0.15104439737566425
0.20912021125747202
0.15673298050161882
0.06463513089324638
-0.01722715087072427
-0.0642361753455965
-0.07355292221359554
-0.05599098055881018
-0.02711998364804676
-0.00039896829948660547
0.016404785356014237
0.02165801829219202
0.018180529378938715
0.01071576100513923
0.0036219434933995836
-0.0005816247643268532
-0.001627001936148607
-0.0010152452582811334
-0.0009677894736614977
-0.0032020395193163814
-0.007914373397843722
-0.013309123298383796
-0.01592582871095262
-0.011858607900810114
0.0012937849497200989
0.02223965352567053
0.044372525905011805
0.05565161347159375
0.04069181712450515
-0.014913967570729547
-0.11904786859661783
-0.0682771929894836
-0.046129709321005664
-0.026021136559074884
0.02117334227578987
0.11671400694692605
0.06385183988849757
0.04132093164576569
0.003009434719473392
0.08473164085322138
0.017230262772292292
-0.05701497849726413
-0.16682268773212633
-0.09956209119092087
-0.19669380430183106
0.04009981181985558
0.13291676088721183
0.20576017905614816
0.16284774363553361
0.07289526952979676
-0.23750766001929216
-0.1820854639061726
-0.008107398297280608
0.01153158356738054
0.18560413722847044
0.2120423451319014
-0.012411956015587523
-0.17961596091861012
-0.15640092926291727
-0.17407691384449678
-0.025284167853383343
0.13001907413056604
0.15121260110575468
0.10086751321832896
0.030970646461051504
-0.024907951645510903
-0.05264972858611571
-0.05337414179737409
-0.03673563613424153
-0.014415656294896408
0.004422940656934573
0.015124848079407236
0.017342920061330865
0.013538384879374293
0.007137918933868483
0.001060864841953026
-0.003042329107721552
-0.00484267864870715
-0.004902003883119098
-0.004066501829923239
-0.00295822615869454
-0.0017359384171716794
-0.00017151383901535378
0.002027649405823806
0.004806083458482919
0.007457162304099192
0.00861827082648455
0.006677308550088478
0.0005618375238559008
-0.009305344135152814
-0.020282589172188573
-0.02751308611444319
-0.025074761771853044
-0.008388271863833178
0.02252064769997131
0.05989330987944859
0.08663243083780696
0.07751012555857671
0.0036650894056742757
-0.16061141874483728
-0.2314016374793262
-0.2123170940088098
0.10258390662652003
0.32119954473350254
0.4459655056364442
0.2731641679557636
-0.19697127803090836
-0.5415988154362483
-0.49714141438790227
-0.35365688118428174
0.030106027323817734
0.592006666741997
0.6233468904008043
0.33407068342095747
0.0410257102194327
-0.21509488313421032
-0.42994189546734285
-0.38699061433043513
-0.2165100880741933
0.026060179271827393
0.15848990358887535
0.2513066505538886
0.19819804808476826
0.08784728248591059
-0.01510986462577742
-0.07709317868698246
-0.09213060693947175
-0.07223826170006842
-0.03641628500470017
-0.0018786740511290737
0.02077140022174727
0.028486271226084117
0.024031614241372973
0.01310358566081411
0.0015987773231732197
-0.0062235810170643835
-0.008510211207039889
-0.005717131497769338
7.318985712295426e-06
0.005663226014599428
0.008295882572732002
0.0058794974291987
-0.001879846604957256
-0.01298452219668117
-0.02311492153258852
-0.026457535095631438
-0.017580658627877683
0.005819323823750386
0.04000357941932442
0.07330125654721001
0.08660481028310059
0.05717221625830027
-0.034503656870628695
-0.1966560426201588
-0.22039382348018716
-0.07963990790645192
0.06127072636553411
0.23383880891949982
0.2504142470772919
0.09433192084293142
-0.08006755707601465
-0.13668223660697953
-0.13944392419031534
0.0677863859960352
0.07796092661692382
-0.06923147775030533
-0.08606417636412571
-0.24515834442085357
-0.19808974161402382
-0.003122648076330979
0.44227438507061895
0.37226490220367836
0.3368249984404411
0.006904719707499684
-0.19841705486128822
-0.4699589741221537
-0.36469436216259965
-0.17402686660435543
0.08690852897174012
0.26799689713694286
0.2577169683756782
0.1523762458910951
0.03114598365254614
-0.057221194351013256
-0.09539731713217173
-0.0896414895383654
-0.0582296717381847
-0.020765394084510256
0.00879652991777707
0.02463902416085295
0.027910907583069914
0.02354239826991902
0.01677364757384103
0.01069372178284246
0.005437191379139566
-0.0009644263894241408
-0.010602449668609413
-0.023451499858651876
-0.035875645396458385
-0.04077539309480171
-0.029871254941267116
0.0020755184481565697
0.052195727576414504
0.10552120115641217
0.134367894825836
0.10288474142656394
-0.023060376553082712
-0.2629763385162395
-0.21057539869001535
-0.23001550847055427
-0.06353873437232
0.14976601840372045
0.44958600815510297
0.23373855082345682
0.2508811572843863
0.012193514857253913
-0.17931717737520994
-0.39038632447868227
-0.4229692625653212
-0.1967371788229611
-0.1569873269229513
0.09172946995821585
0.33471718388285177
0.6939739208344703
0.38983206599695386
0.13077066610515897
-0.26426392210892813
-0.41804700432670044
-0.5377537738607615
-0.366840896724655
0.039593781347822675
0.3111826712532477
0.3359886842768691
0.22404374205497818
0.07419611550863248
-0.04656648971482278
-0.10870084822336422
-0.11357564430189981
-0.08066060993925098
-0.03430298100955937
0.005893846767878529
0.029549706051701582
0.03539635858091926
0.028312572377268443
0.015478211972848679
0.0031751118151093767
-0.0049805831955543455
-0.008299480074796289
-0.00817854403341917
-0.006764518224803364
-0.005697962652468485
-0.005351092173212565
-0.004758707044938583
-0.0022291117682066083
0.0035675517281873784
0.01239076159519121
0.021552339612724587
0.025806978629932163
0.018265095463066087
-0.007793765202859505
-0.05684021733359432
-0.1298282987210774
-0.02486604535156357
0.05974556709514127
0.12104612811409057
0.147819186991126
0.12048702530491444
-0.18417230427303496
-0.18464185885771078
-0.08607061391118519
-0.07545520831271171
0.07718307994214768
0.2124717270273076
0.17361547685124978
0.0006013403949879887
-0.07101279227437494
-0.2075459084297164
-0.17439781412621386
-0.1371421827548388
0.13131746184676718
0.23898279093452918
0.16326537426252696
0.24590026626962708
-0.0014330602824352472
-0.2807542846851894
-0.28543435758661473
-0.07953892696456874
-0.08603004311001111
0.11274476551662849
0.16374260631921644
0.12621371968801814
0.055194830950006844
-0.009704638978096595
-0.0482842985796239
-0.057391731973487646
-0.04483876804076498
-0.022547613144765572
-0.0011520011992406968
0.012909559987108679
0.017877070026449397
0.015497696932865849
0.009186007171192896
0.0023401387373279433
-0.0027167355640747948
-0.00506910557720229
-0.0049791647976750834
-0.003373007326315284
-0.0013079252969010323
0.0004056533232009841
0.0013660318384689381
0.0015545089731023958
0.0011988971264574727
0.0006098561696270076
5.1826866169785596e-05
-0.0003228375727036997
-0.000478217328492046
-0.00045848852311377734
-0.0003379128066674242
-0.000179943685683181
-1.822430031963359e-05
0.00013903541415481502
0.0002890610429016569
0.00041198464848965667
0.0004595350465459492
0.00036468863968714614
7.398940867176041e-05
-0.0004062782217856916
-0.0009691534713725834
-0.001396460592434313
-0.0014012928342900348
-0.0007318196278301165
0.00068109069313303
0.002581416053016575
0.004324961800200638
0.004973395889694711
0.003590116905660651
-0.0002912576592189914
-0.006158060622949104
-0.012200905149489889
-0.015464696956219949
-0.01268798767844187
-0.0018612126900023858
0.015763011283782297
0.033789846212396085
0.03970088240732643
0.015442479598351851
-0.06018932815279297
-0.007792083595914576
-0.04316969068029581
0.02628591128050931
0.004064896212002619
0.10586303295256315
-0.03991856030545304
0.007624513451499934
-0.09952770357717047
-0.1021300796040836
-0.1410352902184095
0.03174122168391979
0.2400897342297393
0.2730223660607676
0.08099415673522338
-0.017253455461954868
-0.11776271696275833
-0.30912905240167654
-0.25234035467315696
0.03047939214829427
0.15512744033254067
0.16381367247015308
0.10855275089484037
0.03584723378760445
-0.02285950361747847
-0.0536526433046024
-0.056961214063040215
-0.04153012415459314
-0.018355085972542495
0.0035445859585438023
0.01888616722727288
0.025843224925113772
0.02473504802510729
0.016752683152192104
0.0034288665457787404
-0.013018027697666702
-0.02890964679549228
-0.03871843027108054
-0.0359053641076937
-0.015449915489128593
0.022179794515817967
0.06671930034962721
0.09521214045476625
0.07233497817879211
-0.045027810883820546
-0.09942848240466448
-0.12276952861022752
0.07269163335041787
0.09994723212332565
-0.0015212784842044728
-0.1688415671028965
-0.12306299918849618
-0.18066049865262052
0.13175847953419545
0.8628525509767279
-0.37251185864852454
0.20809188542471568
-0.03292123234988315
-0.534660234542152
-0.9219411839705655
0.7997066784791493
0.2354219666036315
0.18378227845146264
0.221066499191732
0.09592685919673088
-0.2625889955915599
-0.32733040100415034
-0.15342454185128093
0.035249000661813835
0.048889724710479296
0.12429100344583811
0.11126469960776386
0.05846022603197417
0.002973790317177215
-0.03418288996678285
-0.0470805171427377
-0.040280564363529815
-0.023102514699971505
-0.00476007606491664
0.008552713937759132
0.014498019657720487
0.01389160327608709
0.009267679461045644
0.003443987889457777
-0.001453321891282722
-0.004363665914510754
-0.005173022517758053
-0.00433735237082154
-0.0024900374262933505
-0.00019622190110078663
0.0020976509315298467
0.003976136124577268
0.004949787346015964
0.004459631117023568
0.0020650589461571603
-0.002208114194851658
-0.007495252101014901
-0.011918847074833457
-0.012851040900934948
-0.00775969636400317
0.0044180862736231665
0.021701275568120973
0.037850323028325666
0.04213095862652233
0.02042065161139187
-0.04258103775904327
-0.16106494419592118
-0.14729851317494896
-0.013456562368768157
0.22439226376032115
0.3430172841795414
0.3138069043195922
-0.08738324411100876
-0.6637858464073867
-0.3816544251219789
-0.16409357054980644
0.09895075262897071
0.5262602415042702
0.8162509332393161
0.026101174442835825
-0.4322087421012044
-0.5797545263829882
-0.45217114647859413
0.1130957304835995
0.47732378904732464
0.39167719387003125
0.1883237922257532
-0.01943130805195516
-0.32498839180512384
-0.40873184361144116
-0.11959694376382787
0.13401601600652574
0.1808823836943182
0.07387436439933914
0.07325431497451101
0.03225323451197574
-0.011594395048164164
-0.038690955049805555
-0.04456122095742116
-0.034332721333251624
-0.016874435322613252
-0.0002881795474239497
0.010505304129972895
0.014200371946478649
0.012205722928808262
0.007206880726225384
0.0018502981518949862
-0.002078615089218115
-0.00390434327375929
-0.0038664539693972484
-0.0027024643346643677
-0.001220034518945439
6.682973634342533e-07
0.0007218234349892101
0.001000872880310782
0.0010457012532529102
0.0010488174105712875
0.0010666290021131856
0.0009856173375973538
0.0005867456637460297
-0.0003125522088325149
-0.0016891258599611772
-0.0031896498547230845
-0.004128106766473177
-0.0036609454816320707
-0.0011416111194461286
0.0034258859499541774
0.009003808933470506
0.013436160812646866
0.0138739040506449
0.007792317070670627
-0.005559915225467645
-0.0237452235014043
-0.04047557245999037
-0.04647817384269741
-0.03237429795570485
0.0066201993959311345
0.06531228421833969
0.12450143396389093
0.15069020192355284
0.10124699863932221
-0.06520050420428415
-0.3761739343566345
-0.43604307007521687
-0.22570740279867796
0.28657609386083877
0.7277060388549487
1.1063063968089006
-0.18517573905833956
-0.949004686280447
-0.7505554387240988
-0.6957894392082012
-0.43593433911821555
0.9953894533400033
1.525113308729882
0.3888794842812878
-0.09083833259858723
-0.686031985023168
-0.6127691428633617
-0.47126088039883085
0.0006863815047489192
0.14739599370420245
0.3877069775262242
0.18936706664595998
0.03830922374608824
0.013339326187362967
-0.028552293220498123
-0.05611894784737461
-0.05996470357527394
-0.04475565876469353
-0.0210286243382732
0.0010817847952584272
0.015251287957721446
0.01971611588426703
0.016251948256571853
0.008435576635416754
2.6109608907408426e-05
-0.006093979361539637
-0.008359330780213288
-0.006525222134818285
-0.0014744425206416059
0.005018732811713752
0.010562532631560019
0.012570467976288498
0.008951808223393524
-0.0009389412295473667
-0.01533211326717006
-0.029529131191378004
-0.03643466519828655
-0.028584243433768114
-0.0016611878372767893
0.04120891692791311
0.08582642390404638
0.10577856774682663
0.06529606441042321
-0.07361993922469186
-0.14139240698729624
-0.15167011346562562
-0.09649843645092103
0.05170706244031764
0.13167233782258758
0.18136850395603493
0.02726384165051111
-0.12137938775314203
-0.07149465619693447
0.1609066130500686
0.1622711664656224
0.1356264768364508
-0.08517550804287287
-0.6255261918265383
-0.5709916615236258
-0.1850824942564996
0.6556847916132171
0.6182479162793033
0.6775602622827884
0.3062351234027666
-0.3024658672070277
-0.9840431492170367
-0.5425630339249542
-0.10292605211410705
0.10859775266986454
0.3525906335448321
0.3426625366997775
0.20478345406732046
0.043796823248748944
-0.07479428479029085
-0.12680387810433724
-0.11952805576770767
-0.07679523368860786
-0.024972121350167274
0.016349970800847064
0.03797673963602787
0.040112035881983435
0.028823339745730692
0.012055705383254223
-0.0033784942930123883
-0.013279634310280076
-0.016188158409815936
-0.01273387269291156
-0.004819314296907575
0.00497519884325315
0.013705270315649148
0.018307034280377103
0.016082769089732288
0.005614206239235875
-0.012019514933025933
-0.03222322654168699
-0.04684905295093545
-0.04591493804076904
-0.02142660730216635
0.0271783740663085
0.08746763068795467
0.13063514938434598
0.1126747234554069
-0.018575747085055615
-0.11129260644723657
-0.19559725367106937
-0.07222668347940873
-0.10823823244419141
-0.04175394788147425
0.20555638551735816
0.3125899405328885
0.14534333300427807
-0.049397103913141206
-0.2420926385988347
-0.213560989010223
-0.3491577922573038
0.16085426505445927
0.31374199035449934
0.28358941394215403
0.014383258075432514
0.2226515234484816
-0.38917562986620013
-0.3127969858135353
-0.014765832779887692
0.07523384632278297
-0.03467427925785318
0.09282648843720634
0.11023707675270256
0.07069407237862271
0.016822957319667955
-0.02486580489411382
-0.043973592985684234
-0.04220009408339873
-0.02765429462355425
-0.00961129456812847
0.004975347511147473
0.012849157814376911
0.014102251293312612
0.01086573019876505
0.005819140139778838
0.0010771436387675118
-0.0023013769564305393
-0.0042190248891235665
-0.005080934205122959
-0.005258551923898107
-0.004730989637495852
-0.003058240891953151
0.0002952232589658738
0.005408453150522187
0.011358921310309007
0.01596886400698983
0.01607362238615308
0.008357874210662173
-0.009502274471566851
-0.038016697223698055
-0.07627713037045737
-0.12443290886987483
0.01149537898397537
0.11349382976975624
0.14679938720879732
0.2602852059112179
0.19524907028716487
-0.09679540308116732
-0.4310380476926702
-0.36893789633745827
-0.2099393679937593
-0.0019340529309480432
0.22967243269914753
0.44193014563767274
0.13571457215121696
0.33075003070663517
-0.038163320703686165
-0.30336730677522883
-0.2315200540781357
0.013725195500299655
-0.29698108088792285
-0.0404997719293014
0.16164479631036227
0.13312567954933585
0.1252070509196019
-0.0018826842291287985
0.006411763134193862
-0.009382578272511048
-0.025043956332259656
-0.030515454375326923
-0.025452439128933243
-0.01435323957605707
-0.002605934474064497
0.005910788259258981
0.009665825317296064
0.009166924334453373
0.006078915909967109
0.0022830931162891132
-0.0007938449502192102
-0.002465144639959348
-0.0027336373452048097
-0.0020429600038861548
-0.0009792745057409455
-3.346637463184712e-05
0.0005244403737933332
0.0006591026868751157
0.00050483806801812
0.00026544694008893386
0.00011738944363850549
0.0001422224465776838
0.0003011245800905597
0.0004540403424899439
0.00041809083589546307
5.224238119902626e-05
-0.0006537019827666061
-0.0015166625982134284
-0.002159581000914706
-0.00210067046581906
-0.0009371896671465646
0.0014118586408837829
0.004487114681793163
0.00721280744850091
0.008079994362200433
0.005644679396013189
-0.0007306305318670396
-0.010134883251563628
-0.019770436054310166
-0.025495357353775918
-0.023623626156482235
-0.014044690013356998
-0.004211480070360858
-0.012932485827011307
0.12766756822157496
0.17397575044531444
0.07817254183735617
0.0012780697512820205
-0.07018941454720544
-0.3088853839886789
-0.43930772327204654
-0.1443969116680841
0.11194486268318607
0.45088981588033744
0.544051573100028
0.39147804901385996
-0.07796840599503121
-0.3828259449432449
-0.6508753346826018
-0.38192363826633496
-0.025933725005072465
0.41683942438739613
0.37746816065809746
0.293018306784736
-0.01341284224118747
-0.13999735057860674
-0.3009737590097222
-0.11475489540884856
0.0073273759625011835
0.06665613487265928
0.07635452590547281
0.05590429185662182
0.024694340286037533
-0.0028287926461746074
-0.01920803018819513
-0.023401969161022586
-0.018596112882096155
-0.009596124155183856
-0.0007272222488565256
0.005314431591733629
0.007666627030106981
0.006862295259097059
0.004139451364981497
0.0008245357091578705
-0.002038162103803889
-0.0037970569801356
-0.004139810636601652
-0.0030081142675272197
-0.0005792709273904744
0.0026657322543177527
0.005855705321750528
0.007750395971363487
0.006992301389174681
0.0026330918271890305
-0.005165571841648582
-0.014524361734532514
-0.021720165000349248
-0.021923825779184624
-0.010990456201460446
0.01189093975521684
0.041359968520956254
0.06391403549356525
0.05790019751964881
-0.003928729409902608
-0.14969539496958414
-0.20300441518177978
0.021282601951532334
0.5192885589682099
-0.10054244180515692
-0.015032243639038326
-0.18227926819687992
-0.13845050802216569
0.0005714917352058823
-0.4705514895042203
0.13524785388276603
0.6745735464460192
0.35334452279174244
-0.4822292493028118
0.46183392142298524
-0.14979518591098862
-0.4502856709270927
-0.34039384764721026
-0.06882340799245634
0.17110288576390753
0.22895674172561134
0.17524859138988003
0.07880158314840033
-0.00938412468742843
-0.06263996466207453
-0.07641859062799342
-0.06076825973328346
-0.03145476871180072
-0.002785875743461033
0.016372578320754595
0.0233864218648128
0.020408490713486566
0.011980392605399716
0.00277191300751867
-0.0039053977685241195
-0.006652621940155092
-0.005789811880403679
-0.002745529264745176
0.0006580367954666756
0.002821752604499338
0.002805029025293159
0.0005706994684707177
-0.0029591041872329923
-0.006065257765267786
-0.006670996883211994
-0.003103085532632047
0.004857424664226157
0.01478581102009767
0.02053366485479725
0.011496540374273296
-0.02770575484787839
-0.11735615821586566
-0.08294564252258502
0.044351370488617405
0.22814635804068711
0.23068405806551173
0.2227621413278081
0.0004322046253828306
-0.3950237237622974
-0.6620736686659401
-0.43939131929197944
-0.12938931033087753
0.4561728976543076
1.0406873997125843
0.6374558462301904
0.13429421496614447
-0.28281499173232194
-0.6736133478729738
-0.8749488314494948
-0.24404790754922018
0.16809253246745876
0.4082761316301693
0.3864484385489195
0.23143018280231759
0.0532269013194766
-0.07835468526464506
-0.13718745326061738
-0.13100850294007776
-0.08559485113266196
-0.029647296997847326
0.015411963654696003
0.03948521546072885
0.042758034266732414
0.03180448381429143
0.015132443987525123
-0.00020637926217884103
-0.010249625551225005
-0.014124096334014402
-0.013025655738438544
-0.008919671619444437
-0.003548574925542196
0.00196765622622243
0.006969353312300695
0.010801711169179579
0.01243771028506092
0.010504659604815782
0.0038588215006441977
-0.00741801639322772
-0.021011728512077138
-0.03196930515461991
-0.033503952300307206
-0.019342729216294423
0.012617883452109456
0.056308739576950075
0.09471402369911255
0.10004748694697035
0.03795037627633683
-0.12471946842283799
-0.21085155643566683
-0.22647131968637915
0.0401832253050275
0.21319279969754404
0.32003424956442966
0.18459982194240962
0.02684977569377203
-0.3301849675095673
-0.45048144226256964
-0.2797566266252266
0.04886322492192304
0.39765864853458227
0.6022449948387485
0.25555098454082853
-0.09290422836580695
-0.32046989915782487
-0.5045056035945598
-0.4976379557138744
0.0834385724374753
0.4511852610660015
0.4273166762334769
0.22103193017254663
0.016613848452252358
-0.22433161696443607
-0.34864009907105453
-0.19345195573199186
0.027066819849672793
0.12502799791405508
0.1324035516285095
0.08921990195096266
0.03181775574585872
-0.014858134637950191
-0.03956631779226051
-0.04255983869381389
-0.03094639924696912
-0.013796437138962028
0.001470798197986494
0.01080787182171116
0.013543237792239732
0.011307273343313027
0.006622469154726652
0.0017394453239491373
-0.0019832296282859285
-0.004136955217398821
-0.004935045632194104
-0.0047566472992968106
-0.003800233672557292
-0.001993649077629686
0.0008165546523456647
0.004497584002550304
0.008278957028080345
0.010646290773603191
0.009662931456484036
0.003763853025133466
-0.00714794155987096
-0.02070929696896662
-0.03178408835956503
-0.033393012967118524
-0.01916835156880536
0.0129444306076246
0.05673581030459524
0.09513990060825459
0.10074510366425615
0.040492444650318496
-0.11587140885266528
-0.18596669634988397
-0.16737771440690485
-0.03629170446352736
0.046383450524384896
0.32336039896901575
0.2285508706229429
-0.02077492419352667
-0.22426999581738896
-0.19234507922183305
-0.13787614308098284
0.12966938233201958
0.20577778723594378
0.08952599422482979
-0.017664737298631165
-0.11111873205887625
-0.18022125788904023
-0.006151996666318358
0.23785045477947736
-0.016821888374308053
-0.1394811852021273
-0.10622535509580772
0.09392112737037389
0.053440595423175724
0.14283560786892233
0.11145019235853762
0.09423021158617402
-0.17600682377256735
-0.3539239804377447
-0.06968239820560398
0.07569170343883642
0.1058611168002916
0.05787829725154583
0.16885752437061607
0.06555063771742382
-0.040122846528000126
-0.14927447931217364
-0.070122872228915
-0.011286509971813217
0.022892653703546487
0.03385513433469176
0.027683161182774082
0.012667813550099539
-0.0031286841085817756
-0.013586247794587078
-0.015384310574792394
-0.008228310546820664
0.005291536770480207
0.020138018878965398
0.029728372291569664
0.027554049011981375
0.009580018229393323
-0.02299082458304155
-0.06160399142637218
-0.09034125278852927
-0.08938474298362119
-0.04248976992873908
0.052607516508211154
0.17389832722017518
0.2695240033149246
0.26161046270237653
0.0620429788423315
-0.20174187391843001
-0.5583192494262261
-0.5724718278712476
-0.34481525213703945
0.2646582246437519
0.7951984858316837
1.3421501034929872
-0.268681739600625
-0.47707789204028217
-0.5575675299684326
-0.5779643835649627
-0.5676185765637988
0.6911676895731297
0.6480092391273126
0.15658590577609627
0.04924302268526098
-0.27528709839207416
-0.04918021106209159
-0.12292785362661543
0.04986035381500014
-0.17550335349098597
-0.028870848666291766
0.07414517737640004
0.12677092046426358
0.12406621316311343
0.057852528001824714
-0.08411576717709165
-0.11474288217494484
-0.042110545811343665
-0.06493216532752967
0.02881794611069872
0.05958584101317966
0.05138521971078924
0.026437247722747328
0.0011818323536104088
-0.015346068844250249
-0.020843541894426776
-0.017585778481180463
-0.00984443546624561
-0.0017406542038638682
0.004013946938066877
0.0064515818591662395
0.006007717969314701
0.0038660140727093235
0.0013109097135531242
-0.0007124559799604966
-0.0017699754433400364
-0.0018872055813116478
-0.0013730957744134576
-0.0006198286763055512
4.992226281590588e-05
0.0004580348385560241
0.0005733780966184488
0.0004675340144330292
0.00025475674647540636
4.0676839137213154e-05
-0.00010746720601371892
-0.00016769383587778963
-0.00015351059048137664
-9.666769743009004e-05
-3.0557375557863277e-05
2.080190965847045e-05
4.681246868124174e-05
4.8673112651943044e-05
3.467294334668398e-05
1.5002611480216442e-05
-2.121754678079869e-06
-1.2295383748597066e-05
-1.4898619191145892e-05
-1.19000194161816e-05
-6.291961187062329e-06
-7.815323207048817e-07
2.9488311681985865e-06
4.38965632621491e-06
3.932515977085334e-06
2.4170072102562804e-06
7.044017795840946e-07
-5.988805347347471e-07
-1.236771747621767e-06
-1.2547335359195299e-06
-8.748409854241621e-07
-3.616706921469762e-07
7.581008701508629e-08
3.289815720976187e-07
3.8658812691535796e-07
3.024899789798099e-07
1.5495370387517123e-07
1.3283217141486011e-08
-8.049930693449226e-08
-1.1473748980825734e-07
-1.0062332434042507e-07
-6.031590710952908e-08
-1.6003878349460403e-08
1.7024409063090467e-08
3.261397791519098e-08
3.23081700841052e-08
2.204009943571592e-08
8.670363485581682e-09
-2.492893670112474e-09
-8.779039392459865e-09
-1.0019067847824028e-08
-7.67954983284764e-09
-3.8046349572275455e-09
-1.6651165946689466e-10
2.1873253065898724e-09
2.9945584252209006e-09
2.5714795328714492e-09
1.5018612326112385e-09
3.5668648158768827e-10
-4.792012355199905e-10
-8.587400580991938e-10
-8.311794012511247e-10
-5.54625223006447e-10
-2.0675979135899978e-10
7.775377251199189e-11
2.3346360697236334e-10
2.591200496585176e-10
1.9448633669288577e-10
9.287697057788726e-11
-4.439482988952509e-13
-5.942061575820515e-11
-7.827592234913841e-11
-6.586532469071998e-11
-3.754151562738999e-11
-7.98088240504489e-12
1.3144582285233147e-11
2.2345332944891922e-11
2.1131827037588845e-11
1.370721892022259e-11
4.6677866023686635e-12
-2.574683375439216e-12
-6.4217597482650656e-12
-6.920822887252801e-12
-5.145847630089308e-12
-2.485482365393252e-12
-9.446585798961218e-14
1.3805436537331105e-12
1.8160146296907111e-12
1.4579383526234144e-12
7.094112093234157e-13
-5.275959628203718e-14
-5.858990888912369e-13
-8.078751696677897e-13
-7.637483170931821e-13
-5.650076874676327e-13
-3.304092919776189e-13
-1.4627602661270251e-13
-5.149142890672103e-14
-4.279744081909539e-14
-9.128732712336587e-14
-1.6083929272950696e-13
-2.2202998611124105e-13
-2.588493680798991e-13
-2.6876685877059853e-13
-2.5856995412233945e-13
-2.3882554473158486e-13
-2.191968663220456e-13
-2.0576213514578866e-13
-2.0043584457840758e-13
-2.019009514187101e-13
-2.0720638138581202e-13
-2.1328736515204788e-13
-2.1796286692834228e-13
-2.2029112569266658e-13
-2.2040818261482014e-13
-2.190896250354e-13
-2.1727385816381288e-13
-2.1570968984704852e-13
-2.1479246504786138e-13
-2.145706004641533e-13
-2.1485790026795225e-13
-2.153777807663415e-13
-2.1588271216803305e-13
-2.1622073427917448e-13
-2.1634774254009898e-13
-2.1630162975520696e-13
-2.161603557046068e-13
-2.1600292226159196e-13
-2.1588435588449623e-13
-2.158273542112399e-13
-2.1582708148177676e-13
-2.1586278839969454e-13
-2.1591012671365664e-13
-2.1595006337622054e-13
-2.159728634625497e-13
-2.159777109271432e-13
-2.1596968750912856e-13
-2.159560220896165e-13
-2.1594304798127466e-13
-2.1593455694835932e-13
-2.159315502505909e-13
-2.159329512690434e-13
-2.1593670434745067e-13
-2.1594077536040132e-13
-2.1594377809778387e-13
-2.1594516856610144e-13
-2.1594510530595052e-13
-2.159441419415227e-13
-2.1594290944766275e-13
-2.159418909880149e-13
-2.1594132553766451e-13
-2.159412230456304e-13
-2.159414454448981e-13
-2.159418040657638e-13
-2.1594213705223766e-13
-2.159423499852096e-13
-2.159424205577726e-13
-2.1594237904706727e-13
-2.1594227956102075e-13
-2.1594217441399931e-13
-2.1594209847256747e-13
-2.159420646911096e-13
-2.1594206811981812e-13
-2.1594209402368413e-13
-2.1594212607097173e-13
-2.1594215201228346e-13
-2.1594216600094846e-13
-2.1594216806468967e-13
-2.1594216193954214e-13
-2.1594215254294338e-13
-2.1594214400646834e-13
-2.1594213867611634e-13
-2.1594213703654173e-13
-2.159421382435261e-13
-2.1594214087527039e-13
-2.1594214358787097e-13
-2.159421455057748e-13
-2.1594214632279208e-13
-2.1594214618846906e-13
-2.1594214549408143e-13
-2.1594214466184688e-13
-2.159421440019031e-13
-2.1594214365676153e-13
-2.1594214361843144e-13
-2.159421437861852e-13
-2.1594214403202632e-13
-2.1594214425061682e-13
-2.1594214438380275e-13
-2.1594214442141914e-13
-2.1594214438683525e-13
-2.1594214431735155e-13
-2.159421442474522e-13
-2.1594214419908618e-13
-2.1594214417942696e-13
-2.1594214418406183e-13
-2.1594214420262328e-13
-2.1594214422420866e-13
-2.1594214424097656e-13
-2.1594214424946756e-13
-2.1594214425007376e-13
-2.159421442455019e-13
-2.159421442390793e-13
-2.1594214423348842e-13
-2.1594214423016715e-13
-2.1594214422931763e-13
-2.1594214423029698e-13
-2.1594214423212812e-13
-2.1594214423392725e-13
-2.159421442351451e-13
-2.159421442356154e-13
-2.1594214423546605e-13
-2.1594214423497117e-13
-2.15942144234412e-13
-2.159421442339865e-13
-2.1594214423377826e-13
-2.1594214423377246e-13
-2.159421442338965e-13
-2.1594214423406407e-13
-2.159421442342069e-13
-2.1594214423428955e-13
-2.1594214423430833e-13
-2.1594214423428086e-13
-2.1594214423423267e-13
-2.1594214423418643e-13
-2.159421442341558e-13
-2.1594214423414465e-13
-2.159421442341493e-13
-2.1594214423416247e-13
-2.1594214423417696e-13
