0
4.9475680074896766e-09
4.419823355975825e-09
1.4082275519751237e-09
-4.044753572284256e-09
-1.066884592787717e-08
-1.5879323730571135e-08
-1.6287861594663013e-08
-8.905929739790317e-09
7.150349582445571e-09
2.9003005538299483e-08
4.924704237140645e-08
5.697213248114086e-08
4.11048240976267e-08
-4.228939513958718e-09
-7.379108638340524e-08
-1.4736301051437797e-07
-1.9101450803068979e-07
-1.658665718426026e-07
-4.437924555380449e-08
1.6949464096588976e-07
4.239781098748072e-07
6.172280684315124e-07
6.184655409792671e-07
3.1563067997199556e-07
-3.1852690956295233e-07
-1.1637926372197227e-06
-1.926137649279874e-06
-2.1817344921202537e-06
-1.510487978231247e-06
2.9476782353207923e-07
3.0025836494143394e-06
5.802371655063727e-06
7.3677280868782125e-06
6.2107139978181326e-06
1.3213789961015478e-06
-7.057077186098039e-06
-1.6820790835217474e-05
-2.3962070061645164e-05
-2.3439418363979663e-05
-1.1062024649158938e-05
1.395116418880703e-05
4.6607398050300684e-05
7.524935132989244e-05
8.343174650711538e-05
5.524682191690161e-05
-1.6524028880562987e-05
-0.00012180932852323764
-0.00022817521942660956
-0.00028382966537950733
-0.00023191051395209705
-3.5565581961681186e-05
0.00029227098667576124
0.000666354295179006
0.0009291654541902775
0.0008865859675662965
0.00038231311012188894
-0.0006031711901615834
-0.001863599709503135
-0.0029375310570786462
-0.0031876451943269836
-0.002012700730614525
0.0008353629036522483
0.004924545495571823
0.00896177220579802
0.010932006851705313
0.008675357524936676
0.0008728413953947583
-0.011806846774402798
-0.02587077174286317
-0.03506920493816288
-0.031865437890493196
-0.010416958696866343
0.029478586730501913
0.07876210233848721
0.11760558718306569
0.11765858228835582
0.04857366913886827
-0.11274318933375396
-0.37419940853544936
-0.32761798321420865
-0.15989402604011588
-0.07720677713384295
0.0633536573936366
0.5274192617981476
1.2996194111218367
1.3194595735495829
0.5651079161456111
-0.42530371683567914
-2.030821546958879
-4.481490851480058
-5.911027717059306
1.0387683482622456
9.095724611134417
6.03256179081821
4.299750601351369
2.7368669651909476
-6.436541493938527
-17.093391090781296
-3.968075202830352
3.8685028380546895
5.761438750103202
6.771895276940258
8.562552249380225
-1.3062426668956266
-6.164554812196469
-4.954743544886075
-2.4459135623468344
-0.11511162593573734
1.3989361958924535
1.860708076236972
1.4838671800482819
0.7445837954728997
0.03242694193914728
-0.4263036642439952
-0.5730272851006658
-0.4720955363683508
-0.24693891941348303
-0.022253640960553014
0.11372666043287996
0.12394612233411617
0.018778645871336378
0.04129632743035808
0.048624509596789274
0.09463177746500817
0.01728230310924803
0.03225822540551542
-0.06719511604521111
-0.10573964357325998
-0.11916114758211195
0.052401326876513464
0.17022322418758282
0.20246743131144426
0.1308677290095695
-0.04108148518564641
-0.2812381862588785
-0.5294551271414847
-0.7132754037721194
-0.3830835012886119
0.43743021450656727
1.601842477508398
1.2192470198901246
0.8873035774800567
0.5927717600814407
-0.7347155050359339
-2.6598559164927185
-2.7348174754991623
-2.713068820250134
-2.719836758094741
2.2409043331592056
10.131996019339333
5.823156158196746
2.0653770886745435
-2.0411155223816766
-10.961621334136424
-10.22169987683149
-1.7120419219599323
3.8521726855277527
7.340692955044234
10.46903230730927
1.3563552165914043
-3.4372393426933336
-4.958362317128773
-3.9018289957370276
-1.8234352686622122
0.12467971616180037
1.668928837744245
1.9203584855307656
1.38758491177321
0.5830401117354304
-0.11431278885525034
-0.5145837986175927
-0.5998692157032542
-0.46330056790791685
-0.23690424275092373
-0.03329821081129538
0.08625901386495494
0.11664851686676947
0.09338081610704257
0.06677823335995342
0.07546115896714628
0.1265713575082395
0.18742836387294073
0.19042226996743902
0.0496461721073646
-0.3161698698521238
-0.7638005648679987
-1.119950729433786
-0.19772188436836477
0.9679470838465284
1.884671158479269
1.9976147952783248
1.342898403480793
-0.536452572442213
-3.046766808582088
-5.644205159905043
-6.063843270595338
0.8713822551106863
9.292276465049072
6.705593726039021
5.78409891059035
3.8748674838965695
-5.353528295085629
-17.469781020307828
-7.508811113838775
0.8635783444405724
4.122801839632352
7.88004514535277
11.75620803419671
2.834376583643357
-4.305740038907884
-5.345247065226115
-5.31929559406306
-3.673783178663362
0.11461395229164748
2.2585158381425496
2.740172419585059
2.052045870083834
0.9191448408211217
-0.10419449952159412
-0.7232909005155941
-0.8876964392719472
-0.7110499769932009
-0.3726419250706935
-0.036665505598403
0.1930702742924236
0.2825472211434268
0.2519231319026919
0.14951615965441492
0.027704372436979267
-0.07244848244397126
-0.12682377643591833
-0.12713980680595652
-0.07749003148142652
0.008119084582384698
0.10634071377359582
0.18485680993263534
0.20566211728444
0.13382337509809555
-0.04842380802615443
-0.32646811311684776
-0.44505888017387674
-0.516404075061648
-0.45108200124985565
-0.010394113394230348
0.7324455682724962
1.1459464880579693
1.4380656433719674
1.3221151330363055
0.5564322729559514
-1.2661186307767314
-2.7352367708899905
-4.725666474769126
-4.860514732978813
0.43036147565772953
8.500126128526666
5.253144913514284
4.4693351495565485
3.429555818030139
-2.3232669185811945
-10.592870261235507
-8.922772294091088
-4.013620926256734
5.277962995054048
5.163183259855866
4.530908038564576
5.982732960247186
3.0983173511749897
-5.976093043765674
-5.0574513877623195
-2.5171756262355554
-0.7054218972494405
0.26917212666664136
1.5695798503405658
1.71185438503694
1.1771243788427734
0.43226207954303975
-0.1889781775017995
-0.5277190796883405
-0.5775225904864515
-0.42637900143930085
-0.19297318272395173
0.021628851780036016
0.1581007961488096
0.20079212925079137
0.16576760474131177
0.0845417688832856
-0.009314727187304053
-0.08762371617875565
-0.12986795300265566
-0.12327694628068797
-0.06383890194469657
0.04038616695369689
0.16496276850263317
0.2674817185476452
0.29315909606000223
0.19039278144149124
-0.06537927924723974
-0.44729127859729745
-0.8654654503112871
-1.1833415028890206
-0.8716851370094086
0.5042566690692635
2.3900911408640444
2.3852897572969027
2.4738324615144123
0.7716783972711404
-2.4253842776376056
-3.9650570128570344
-4.0438662261733
-5.004713570457442
-1.3855943149104881
4.613818746745404
10.584873239639633
6.089136819116803
3.961033102539679
-0.7763681983403562
-7.660947265625536
-17.640740238691837
-4.92482238386842
3.728073131334874
6.433362115719372
9.085474489954384
9.846317057373755
-0.09534513887206378
-6.149126082802677
-5.97936403199668
-4.9847460193682505
-1.030852288357745
1.604555936869761
2.4342370393321024
2.1769922492833897
1.2994533580255039
0.38899379481979335
-0.38042918073171406
-0.677425958803837
-0.7622371157235777
-0.597402928348718
-0.3601172192101545
0.01701573911077867
0.2675768878217727
0.3813524147420426
0.3780340650543019
0.2815339268757202
0.10708280355772018
-0.1352220735020134
-0.42574103028078225
-0.5212678657366401
-0.5550462273055786
-0.2598276630393276
0.18676291030350847
0.7076035258411902
1.0856170119628237
1.3642669012201976
0.7083385477522678
-0.27456300373448306
-1.377562515940125
-1.6533038277935248
-2.7496377645360286
-3.773784563662287
-0.9016844289299191
4.50738219155349
10.394829188042918
4.828141061792313
0.08342857816660784
-8.603976899060351
-7.348963548070726
-8.20512730986603
-0.8324845083942517
6.081703745201877
11.544984434926224
5.54482480175668
-1.8723559583436329
-3.8048236226139465
-4.416890461750266
-2.729906586767911
-1.8583996621865622
0.9896598525379817
2.11814372285083
1.7993055518313084
0.8656595066468843
0.11809402136277644
-0.4000571235065268
-0.45088083336575496
-0.1867058354561615
-0.09788328755540857
-0.14803458443639608
-0.11426427500149608
-0.14258213779995502
-0.12309300783173685
0.11500133130088223
0.19243117514568225
0.15967718043602888
0.07531783372740386
-0.010837360233699408
-0.06681545468308134
-0.08013193182835891
-0.0545502742727649
-0.00486494050703216
0.04833440051690723
0.08340215366938286
0.08240259678427511
0.036480685367036476
-0.04858946259635492
-0.1487194935847174
-0.22308876714551668
-0.22452002769229693
-0.12033364591862832
0.07848954399538596
0.2869706018899987
0.5260327393007509
0.5254580343762606
-0.04044833277154784
0.5172815425296139
0.19791169303668674
0.012141929536710495
-1.340794519614726
-2.2560328034334534
-3.5004453634909276
-2.80125113895802
3.078010439526303
10.856345399533586
6.379175575198753
0.9096393934980952
-6.500753320287258
-7.6726304611856735
-11.014154068391694
-3.5244928099409103
3.9929739440990093
13.570381109793935
7.197008622917293
1.9097298382531431
-2.145339070625553
-4.25327793834768
-6.412983142253902
-3.7829070861291076
-0.6887597849056869
2.302582167875586
3.054782126330507
2.378835900673829
1.1243784793513878
-0.050874632636537596
-0.7858722639579562
-1.0030099367230672
-0.8197690772656115
-0.4371832845459017
-0.04629954399606264
0.2263920037405598
0.33327249058636327
0.2913134407682311
0.1552078802083701
-0.008750760753242017
-0.14102195378877633
-0.19880678730318088
-0.16106096652130583
-0.03246056737712607
0.1521239824716137
0.32468185752077583
0.3872692836936248
0.22563099030372383
-0.26662235880507357
-0.5598670898427406
-0.8690171513702799
-0.9565877697834401
0.034836600181824835
1.1285498589657206
1.6632190203162238
1.8815513245465054
1.7879947402079324
-0.3203145926209643
-3.285102689927278
-5.55589284286785
-4.7869897507511
-0.42417941498863854
7.334498517842319
5.316645536997519
5.068131011524842
3.621132475690958
-0.7980906003656681
-8.193743205554492
-6.348450350938343
-8.536763500256523
-0.8007679848206545
4.748231461400993
6.9053180563973005
6.456865052939378
7.439017103971508
-1.2423978489993435
-6.7924098456468585
-7.42838481789985
-3.6210651535517075
0.5119683585174507
2.545558935628419
2.8326078428817825
2.041343596826069
0.8732726938039249
-0.14167354270635815
-0.7328872465988515
-0.870933803221409
-0.6844647609606785
-0.3593775453298619
-0.056661479698384885
0.132724911863314
0.19473354243182883
0.1710312035922579
0.12444069118642184
0.10492267758696541
0.12628239563372032
0.15920666200691463
0.1418176791304125
0.004773288085085138
-0.09610530388091038
-0.35033421939988446
-0.6792180370447698
-0.7501384070389174
-0.42483399337879446
0.16344821921708486
0.9241244370069861
1.7487753388651774
1.915292072600987
1.7862069171323194
0.0032801394638906256
-2.0605583432941432
-4.872742529787238
-5.040173849258675
-3.424240873164745
1.5041052052772381
8.744153743724182
6.248841788819095
4.0167381601065655
1.7441756071738068
-1.938807908633544
-8.372470818048452
-5.941278869568494
-7.971909434255973
-0.4391887421940428
5.2804960160139185
6.5341123030041635
6.039957064097152
7.725501547122819
-1.060282266029191
-7.125817154187874
-7.1297468137800815
-3.4078480823727335
0.05088498698825448
2.360662215767567
2.837161952812256
2.139439448489236
0.984017269733341
-0.06950922208435642
-0.7171639986669355
-0.9013509875664052
-0.733149972034194
-0.3935082736344854
-0.05065242671002403
0.18727699324585176
0.28314354873400854
0.2558286663501172
0.15403530406767088
0.031492568917754156
-0.06927249584992516
-0.12327319379585921
-0.12231302098762796
-0.07144736690909058
0.013953008241078691
0.1094781793699459
0.18266509198238812
0.19634566797637928
0.11633493806888942
-0.07728620505361779
-0.3799979061266177
-0.761914237029395
-0.784647769328003
-0.039448502833518494
0.8010889685286899
1.5394622113165646
1.6488145641711751
1.3346855131322448
-0.33085004022299525
-1.8299658772339913
-2.6357890121531744
-3.7434926744764856
-4.361857572489971
1.615852091451708
8.016733446789534
3.997522528546044
3.0185426872284213
3.101663484080557
-2.211239201657173
-8.502715698492304
-5.918168145035504
-6.607751982766701
3.286840707601676
6.094475640340781
4.462078636669488
4.205072261298858
5.562181812677108
-4.240562263940992
-6.740675175375096
-3.6370156700019485
-1.2095199169383808
1.1031104554282685
2.123930945866905
2.002088393861643
1.0121791138999512
0.37574953944234657
-0.4431929039220772
-0.7589725933932653
-0.6229598184040197
-0.35495799752154356
-0.07874078021528355
0.11953727340264297
0.2056709296107531
0.19044785073811168
0.11175797255774919
0.015371319107882423
-0.059650580209300454
-0.0890853704897829
-0.06632210896813472
-0.0018763454809797118
0.07890138093845128
0.13984661188006273
0.14061152531188334
0.0464490031555636
-0.16014039644699365
-0.26981769364917785
-0.2447175812143844
-0.2301323387948872
-0.18162552637356685
0.09617962192095691
0.5094643915696849
0.44922095291255054
0.19629805372256048
0.9704652288873584
1.227341578274595
0.19347437593430963
-0.9879140496778113
-2.3478156018451366
-4.679877630562472
-4.480912399362091
0.9409427190710754
8.046314349243984
5.668149285705778
5.213786578656124
3.6009988465512657
-2.4533697692465015
-11.122019336751386
-11.980024359428207
-3.8161190744373594
1.8774377479610342
7.145524635672951
9.348060065761524
9.99061470122744
0.8941877949000702
-4.758111348005893
-8.35882617900346
-6.818378037438533
-1.5797505939468939
2.0997705021684125
3.3472180182812754
2.83220670836301
1.6297179739565053
0.32283236462300857
-0.5751883078371103
-0.8646486151213115
-0.8008698642869322
-0.584921781079406
-0.2519441072025882
0.010913941621598953
0.10428655528103498
0.2172474950436634
0.20125722945404775
0.13272670881084395
0.0777448976998952
0.06824019479488357
0.0939689649442826
0.11042423958661363
0.05931070220179845
-0.10467455288688633
-0.38955723075592336
-0.5546362615728244
-0.5211978260541489
-0.2095265225909903
0.20329496270219297
0.8221810947924287
1.3964191945707696
1.5345358320148554
0.7904664415669378
-0.3831971988298031
-1.2502920708481773
-2.838576990726275
-4.696538332605974
-4.8215697618095446
1.8281499742384486
9.305964995955788
6.283491976547234
5.075868440688823
3.2144760432206967
-5.639594834258375
-17.207183384322814
-6.999856199733738
1.1133867212426363
4.464761599562935
7.366295842229227
10.367437711295658
3.6873775489958738
-3.7771443264232265
-5.438180005812678
-4.93036370295585
-2.569419232705203
-1.1517214603637866
1.6024543082774751
2.568219834045928
2.182590758468263
1.1714423019143896
0.13206517090950606
-0.5791425033075941
-0.8531937640411505
-0.7623026391561284
-0.4658345729661718
-0.12668674236735625
0.14021763190130906
0.2834453429069693
0.30365877275504294
0.2300120560439143
0.09791601047732632
-0.06369376769723104
-0.23421582974873106
-0.1964235302338274
-0.13107974071275533
-0.01633742462774358
0.16655292331669794
0.22391638226544489
0.14206090056585302
0.08666082280801701
0.011564893345583162
-0.12470297608880473
-0.14032343454612836
-0.2171796184500077
-0.30104293231048335
-0.3199123309018337
-0.22062574353120945
0.18281745134490024
0.5632644360131296
0.6568329903295008
1.4831934856662914
1.6246558653243408
0.36257366099683064
-1.9565161208538626
-3.5823524621597906
-4.926201895664195
-4.694881511544392
1.9952253399559976
11.401841797907656
8.403186298853285
4.799073718406041
-0.2183153800589858
-11.873856250599625
-14.322049603347658
-5.969150095374318
0.7546973137716383
8.32978501244781
14.974956207224455
6.099423005687513
-0.7111936216017082
-4.429430918936296
-7.113738084807762
-6.859915685645356
-1.840842311878349
1.9821735053889196
3.4320312802589257
3.054698122526529
1.7705021155375438
0.37481552936290974
-0.6321478285600894
-1.0742065908458363
-1.0240813970726261
-0.6822059088596827
-0.26241056057073286
0.08263311051284342
0.28684484401050553
0.35626524150431826
0.3336707795053707
0.26229464417917825
0.1634025800387072
0.03403743654363257
-0.13759083328449515
-0.3488045990188907
-0.5651195162333523
-0.722638248815509
-0.5586792823971163
0.131517479068028
1.028643581593297
1.8441072295999639
2.1317489950745614
0.9825367599059204
-0.9999352656972081
-2.0853172694926942
-3.6417554302602646
-4.291000325908664
-3.6594705618425922
3.4714194147778135
7.498967589877719
4.97631381846852
3.813259699399639
3.421431676065002
-3.3983324936087325
-9.565700966135047
-10.66500184513725
-2.5747872116304173
1.858797088343087
5.31759326601721
6.661287744660257
10.810280702880567
0.9180612260141711
-4.233175643603085
-6.650795391260342
-4.745829486471162
-3.3790285453094913
0.8765935978632523
2.7882502185273723
2.8797647919740665
1.931431139820648
0.6910429429478001
-0.3166620566318591
-0.8538567096984261
-0.9282118119730588
-0.6938103227088729
-0.34406189891062355
-0.03212785253877606
0.1658541588830095
0.24745527740882328
0.25456397883690574
0.2357494511332394
0.2161260829843555
0.18487095588592392
0.10352060098844146
-0.06891004102418656
-0.3441497901703009
-0.6806665710200244
-0.7826217939381612
-0.532372102098265
-0.056212085933381985
0.7926288082472758
1.7654072113133117
2.203774347480365
1.3138676394804523
0.3371993367822607
-2.0130733981734736
-3.7238418948052012
-4.559801460549716
-4.1349561411062385
0.5884218021195832
8.427777110003472
4.879397489280553
3.176813366975955
3.0609261475557124
-0.6916326171369557
-7.065019811527997
-4.510946177090151
-6.790482892889451
-0.3362999723920038
1.5862470212650421
2.174670783846954
4.006508983147707
8.192408376788196
2.759438169217478
-2.4213410748222124
-3.9670243788705526
-3.6932789388022633
-2.6842181575645774
-2.4903890894832217
1.0469477814843942
2.5374219957968833
2.41697234598986
1.4637398100595547
0.35525489591745163
-0.4720187760103498
-0.850068807488606
-0.8219122385583671
-0.5448392043799658
-0.19663059712889955
0.08842396934506727
0.24540504161606302
0.2728559730910107
0.2089027736724214
0.1037543427139683
-0.0012130724046736888
-0.08351024539337826
-0.13970018185341251
-0.1797455231024271
-0.02010100401792544
0.12162031778978487
0.23042008707039605
0.29840434495603174
0.13230105642473602
-0.23656966106509317
-0.5452647929867654
-0.704565958991857
-0.6259699142533978
-0.07285696007754627
0.6742969580093164
1.3631414802511679
1.7586315891596844
1.7063093048087214
0.480064081795787
-1.4093037634679921
-4.007004477907647
-4.397336418460326
-3.560637209337109
-0.43999925348502544
8.02983863228922
6.066904404210779
3.9406349846303645
2.172571258299323
-0.5205880907340422
-8.637648938442128
-6.860764114681467
-8.41772330537399
0.5849669834596781
8.423755435960295
5.746360646618744
4.73016885484868
6.456048456319116
-2.3597853835100913
-9.486447291111222
-5.098777053727025
-1.1074916288213694
1.327930307862012
2.2394167551870674
2.291419797451196
1.1310735341280511
0.5543550117817947
-0.04382295562560048
-0.5157363947521171
-0.9211659971768128
-0.4398587737084608
-0.47676689684407036
-0.19080679933835712
0.1380681144716608
0.3044947422154023
0.34847019157994236
0.31878681249818897
0.2453138912639066
0.13009843693032103
-0.041317452650829735
-0.2754178325087673
-0.5464303777931661
-0.7880421644107917
-0.7139865147430323
-0.2711416099769433
0.6860197410068571
1.7274402331594938
2.2251362635558016
1.6131427151267015
0.5442105955836101
-2.0816919381324315
-3.486032013807378
-4.875113318983655
-3.889382550880909
0.7214653152604692
8.244413329369044
3.905922799843847
2.711397684725759
2.16866369435
-0.6537681101897134
-5.397325036783095
-0.9635443964897009
-1.5295736511417959
-6.9952305487826
-2.967752250490575
-0.30669525975330914
4.046497359537089
9.12656790198387
9.121735122231003
0.8819987529642849
-3.7409671396748485
-7.186297009666169
-8.313918360999438
-1.6245328108132628
2.2432516530719453
3.4875548423259657
3.071483887799022
1.7564375576870443
0.38345582301034875
-0.5133052079913603
-0.9459435545026295
-1.000613977440486
-0.7113875537480542
-0.33478234797023776
-0.0614680438358022
0.22096731208372564
0.3194834207107763
0.2982304117651504
0.23278786454575343
0.1734090857587354
0.12792652542000651
0.06713439962053284
-0.0516691590359852
-0.25284840319544744
-0.5156092030740884
-0.566019315105379
-0.49818493653750434
-0.226643926391234
0.24016940246939164
1.1288394335925116
1.8654243587762636
1.7088970389121232
0.6727417772656487
-0.6757615982197844
-1.9869669978850524
-3.7512682467413723
-4.262254256485568
-3.5855753847367766
1.6635040345752916
8.818178010513616
5.698451646159364
4.181939331576299
3.3428149843974526
-2.033715656954747
-11.103959529086298
-11.639422910755759
-3.3979570304942155
1.8253272704027503
5.269600493024701
8.997161607989703
10.30394036552169
1.4371707074389424
-4.227336994250802
-6.583978935370816
-6.967646376582051
-2.552355519614719
1.0187187763770267
2.8950236128575617
3.024787147360635
2.03529416112847
0.7244438302285218
-0.3436843739341081
-0.9093383090665467
-0.9760808967605977
-0.7080357496611208
-0.3172005186262118
0.02230760718472866
0.21722577551520386
0.2577329863415551
0.19287995239467445
0.09503729787489276
0.02686056021206668
0.019142301687400585
0.06293171625870546
0.11568843690994172
0.11890672607038176
0.022777461693186497
-0.1886544985849783
-0.4805880879206713
-0.5686034970753264
-0.5454996086199803
-0.13466614495798127
0.440386487998104
1.1933004799113556
1.7504648513840604
1.5947411767617514
0.1907623627666909
-1.8248001400398797
-2.0391490853106813
-1.9199336770012632
-2.2050737719565903
-3.2678614338754186
0.9527505480993689
7.328452985725681
2.749465412857924
1.5066394993104557
3.5522147384862683
1.259048663078784
-5.999880869885127
-4.610718634504933
-8.016383918612656
-2.530780801664141
1.2438226934841605
4.046202443409538
7.211651245280357
9.201375979560641
1.8310745367418384
-3.8860576664538335
-6.324047244579871
-6.236082649575717
-2.1868613250443514
0.590632785849179
2.645587922199036
2.917668212526446
2.025338771493609
0.7642636675059434
-0.29476097115171285
-0.8781041711666643
-0.9723173384319262
-0.7257862418215207
-0.33970485673150386
0.015218782886866487
0.2406779113982012
0.3140163371579744
0.2665305901455703
0.1533240283066323
0.027769564343874956
-0.07279840618821198
-0.12992924567206007
-0.13951909238276153
-0.10543927910914239
-0.03577673149452016
0.05658711140002067
0.15043898292455862
0.21340252968644474
0.2039912698784037
0.08100068465323823
-0.18101302111430373
-0.375944595682545
-0.4591556529285827
-0.35836316991464334
-0.20680447352124448
0.20555538426494774
0.5770760729110479
0.6579127701976863
1.0561260536776091
0.9045875178988934
1.3921999097974302
-0.05911956304561977
-2.8169171901539456
-4.929534465309074
-3.5629332040563932
-2.432516810799403
2.188414599308333
10.99281572835528
7.8782604747629845
3.4852944014396785
-0.8701464951415
-7.339525007845217
-17.790421028333046
-6.267081071060012
3.094802400621454
7.846750245826699
9.675438902896818
10.040303099760974
0.9088132570834982
-6.054312379074044
-7.894758813204443
-5.7848319300902515
-0.9040927234486272
2.036240440605703
2.9831903024318147
2.5243493998955753
1.3950133632760886
0.22884719145727037
-0.5819873126312123
-0.9092934094627445
-0.8264816488980714
-0.5095800160083713
-0.14433761662406688
0.13496079200411779
0.2683676923091979
0.2623601612915542
0.165165910367391
0.03894105901805892
-0.06217929501006044
-0.10475730566436282
-0.08030656702614891
-0.0037818549199645462
0.09143969743339224
0.16130232858583307
0.16186860508943773
0.06314493149374795
-0.13619769894465766
-0.39843464182340976
-0.44830504008502975
-0.3935094280514511
-0.16650795108559147
0.21869768687246796
0.611199777578053
1.0933472062861382
1.2018190619531584
1.216713219786535
0.11693361638097165
-1.0267270338993415
-2.477334387788073
-4.15055775932572
-4.4949629666288535
0.4362338068311422
7.362117695590062
3.7185026637924636
3.133461588112224
3.174430623073876
-0.17952644143628307
-5.9987093310975625
-3.149148104337016
-5.720218327038579
-0.5069765501671272
0.5603446409831147
0.2544060478135671
1.6645361548639974
6.148288951935599
2.991248268720106
0.3112942125131225
0.8729751468357526
-1.611352580946474
-2.795102792121487
-4.370975749205702
-2.2505557230539064
-1.5559354961706662
2.1419995073320592
3.7846158675562918
2.6923643122874594
1.0603533467228614
-0.4263583809492303
-1.428209934225782
-1.667416824077111
-0.7885321831634494
-0.22725583978963484
0.2716289358002898
0.47678767377681447
0.4467555155193471
0.2843725775193262
0.09199120770881605
-0.05822313172078485
-0.13462195861804524
-0.14052647454829983
-0.10010884537803844
-0.043103878993805265
0.0065324894009028455
0.035971138635354914
0.04341615068329777
0.03460470926075029
0.018245300004444517
0.0022068378516505904
-0.008629188371316758
-0.01279509742863719
-0.011441627382596803
-0.007017800307522959
-0.00203058959125189
0.0017580504312742797
0.003606979273985273
0.0036520752402511287
0.00254177735251422
0.0010466483663504297
-0.00022575295741275188
-0.0009604561240677923
-0.001125836676650948
-0.0008794145795720565
-0.00044926963196458534
-3.700630253708328e-05
0.0002353883786661005
0.00033434309917659453
0.0002926989898276774
0.00017507820786003792
4.606116501801101e-05
-4.9935956162299784e-05
-9.510575873615831e-05
-9.403005667543802e-05
-6.402846159157063e-05
-2.5079590239447766e-05
7.385324033536329e-06
2.5624203567089377e-05
2.91743739116275e-05
2.232339503440895e-05
1.1027514556222807e-05
4.415144438774323e-07
-6.394333494393535e-06
-8.72572390931631e-06
-7.479982645690743e-06
-4.359305121414934e-06
-1.0253890894487384e-06
1.4038516447272599e-06
2.503170351484795e-06
2.4182003461500046e-06
1.6103807333198142e-06
5.970847756218004e-07
-2.3025265762863844e-07
-6.819421239325708e-07
-7.550963177162666e-07
-5.65925227141077e-07
-2.697590966097937e-07
1.7548354629355601e-09
1.7300543506640418e-07
2.2741525448729577e-07
1.9092901805489423e-07
1.0830665484985888e-07
2.2255922803493895e-08
-3.9131270528682875e-08
-6.577080235953642e-08
-6.211725913802706e-08
-4.043537961296843e-08
-1.410723227063967e-08
6.9510048842664304e-09
1.810827300327204e-08
1.95216947552328e-08
1.4329066169293059e-08
6.575726555694855e-09
-3.801863302422555e-10
-4.662506336948809e-09
-5.917804426011258e-09
-4.866354539743842e-09
-2.683204465555089e-09
-4.647453428809471e-10
1.0842833653536134e-09
1.7267110434393475e-09
1.5951718367599572e-09
1.0149310184297586e-09
3.3171308723914734e-10
-2.0361777927417835e-10
-4.784450217247082e-10
-5.027434111608089e-10
-3.6094562247409727e-10
-1.5826848533647015e-10
1.972950558122067e-11
1.2660775534536698e-10
1.5515843701203685e-10
1.2524540114313402e-10
6.766774645349643e-11
1.0539787266094608e-11
-2.8489685574362073e-11
-4.389716451088731e-11
-3.955364884119162e-11
-2.4067331032413584e-11
-6.359556706582153e-12
7.232086193764035e-12
1.3981074096121332e-11
1.429594313869012e-11
1.04415114274336e-11
5.150910953946631e-12
6.013341996572516e-13
-2.0606946823950198e-12
-2.6983106822791094e-12
-1.8561772787758645e-12
-3.403475774557549e-13
1.1290817606719642e-12
2.110946453612034e-12
2.478139768126821e-12
2.3419064683889327e-12
1.929616618458676e-12
1.4712175119222037e-12
1.1265837573862743e-12
9.613992996356168e-13
9.612680766627341e-13
1.0656133568759815e-12
1.203527468817737e-12
1.3196767649357303e-12
1.3858363214463386e-12
1.3997352027980845e-12
1.3762327039246239e-12
1.3363935760958915e-12
1.2986404798417683e-12
1.2739796695966327e-12
1.2652927226804593e-12
1.2694218691321503e-12
1.2803726824436075e-12
1.292225087683618e-12
1.3009520845568589e-12
1.3049802153530906e-12
1.3047791179558425e-12
1.3019647310853227e-12
1.2983744117929187e-12
1.295412682569817e-12
1.2937722289557198e-12
1.293479332717701e-12
1.2941304207826337e-12
1.2951757785643343e-12
1.2961446370219266e-12
1.2967629767501968e-12
1.2969667156711443e-12
1.2968445896149461e-12
1.2965543581481568e-12
1.296248261399007e-12
1.2960275747998783e-12
1.2959297461946507e-12
1.2959401600484258e-12
1.2960158158013253e-12
1.296109161252182e-12
1.2961845921821602e-12
1.296225166622771e-12
1.2962310338707414e-12
1.2962131109748132e-12
1.2961857239454642e-12
1.2961608885621014e-12
1.296145412006549e-12
1.2961406831269469e-12
1.2961442293034459e-12
1.2961519056411825e-12
1.2961598016153612e-12
1.2961653743970298e-12
1.2961677394700126e-12
1.2961673374115343e-12
1.296165309853666e-12
1.2961628860232425e-12
1.2961609672676e-12
1.2961599664090377e-12
1.2961598584326495e-12
1.2961603490872268e-12
1.2961610655202971e-12
1.2961617014101773e-12
1.2961620880506642e-12
1.2961621964170812e-12
1.2961620949173019e-12
1.2961618922772444e-12
1.2961616888301183e-12
1.2961615483123028e-12
1.2961614914293218e-12
1.296161505202901e-12
1.296161559388676e-12
1.2961616222483156e-12
1.296161670995016e-12
1.296161695611455e-12
1.2961616972837113e-12
1.2961616839168414e-12
1.2961616652022619e-12
1.2961616489396596e-12
1.2961616392996103e-12
1.2961616368559189e-12
1.2961616397276474e-12
1.2961616450671706e-12
1.2961616503031643e-12
1.2961616538409352e-12
1.2961616552010081e-12
1.2961616547590618e-12
1.296161653314718e-12
1.2961616516865015e-12
1.2961616504496609e-12
1.296161649846137e-12
1.2961616498315316e-12
1.2961616501941117e-12
1.2961616506822903e-12
1.2961616510977135e-12
1.296161651337562e-12
1.2961616513915266e-12
1.2961616513110477e-12
1.2961616511705968e-12
1.2961616510359952e-12
1.296161650947067e-12
1.2961616509147682e-12
1.2961616509283725e-12
1.2961616509667794e-12
1.2961616510089036e-12
1.2961616510402444e-12
1.2961616510549895e-12
1.2961616510546356e-12
1.2961616510448387e-12
1.2961616510321214e-12
1.2961616510215222e-12
1.2961616510155681e-12
1.2961616510144097e-12
1.2961616510166471e-12
1.2961616510203355e-12
1.2961616510237917e-12
1.2961616510260234e-12
1.2961616510267843e-12
1.2961616510263774e-12
1.2961616510253584e-12
1.2961616510242699e-12
1.2961616510234768e-12
1.296161651023118e-12
1.2961616510231456e-12
1.2961616510234096e-12
1.2961616510237404e-12
1.2961616510240104e-12
1.296161651024158e-12
1.2961616510241818e-12
1.29616165102412e-12
1.2961616510240233e-12
1.2961616510239346e-12
1.2961616510238787e-12
1.296161651023861e-12
1.2961616510238728e-12
1.2961616510239e-12
1.296161651023928e-12
1.296161651023948e-12
1.2961616510239566e-12
1.2961616510239554e-12
1.2961616510239484e-12
1.2961616510239399e-12
1.296161651023933e-12
1.2961616510239294e-12
1.2961616510239288e-12
1.2961616510239306e-12
1.296161651023933e-12
1.2961616510239354e-12
1.2961616510239369e-12
1.2961616510239373e-12
1.2961616510239369e-12
1.296161651023936e-12
1.2961616510239354e-12
1.2961616510239348e-12
1.2961616510239346e-12
1.2961616510239346e-12
1.2961616510239348e-12
1.296161651023935e-12
1.2961616510239352e-12
1.2961616510239354e-12
1.2961616510239354e-12
1.2961616510239354e-12
1.2961616510239352e-12
1.2961616510239352e-12
1.2961616510239352e-12
1.2961616510239352e-12
1.2961616510239352e-12
1.2961616510239352e-12
1.2961616510239352e-12
1.2961616510239352e-12
1.2961616510239352e-12
1.2961616510239352e-12
1.2961616510239352e-12
