0
-8.462372413404256e-07
-4.836076408142873e-06
-8.755832695752788e-06
-1.0633099574581471e-05
-8.357201135266938e-06
-6.39116302910833e-07
1.187635389073429e-05
2.5805905992796818e-05
3.510557711384994e-05
3.250499272700693e-05
1.237849502018263e-05
-2.5527783086665074e-05
-7.28528516329762e-05
-0.00011174098117242942
-0.00011813029252696657
-7.000865410110527e-05
4.0548586118857725e-05
0.00019529634234724075
0.00034362149422422866
0.00040869836894722296
0.00031013489602951886
1.520553244686424e-06
-0.0004869789419465528
-0.0010190425590221137
-0.0013577623626005245
-0.001224015488086583
-0.000409520076334742
0.0010794051476169975
0.0029004141457197167
0.004348865469973873
0.004494932963328752
0.0025114289893389615
-0.0018583995644666867
-0.007842214944749059
-0.013420180689928793
-0.01559368250114984
-0.011291551526688908
0.0011618908653846364
0.02041137505167799
0.04096912500904411
0.05348344576146166
0.047007212594585734
0.013247485204704602
-0.048254401077560335
-0.1261932037632723
-0.19771963645508545
-0.2353798934595424
-0.021437113501360232
0.23328302980529664
0.47304785861720844
0.5931010030089484
0.4562287882466755
-0.2681574241126142
-0.8513339760751403
-1.258331596002845
-0.5299396533625098
-0.009408607688978035
0.9879056870165054
1.0835852253479539
0.9574763820579019
0.11231310160631576
-0.303617770420513
-0.8232502842418828
-0.7624710263536656
-0.12896495791085943
-0.16447520419718653
-0.1330496829361461
0.24690611666200324
0.539822362810411
0.31778243512037857
0.09103045553134899
-0.34310054147563884
-0.5279994012587944
0.24634323046974554
0.9568065992723914
0.2798922271883531
0.04463925882946081
-0.2984575070709097
-1.0062355778439245
-1.390546560791239
-0.004903417089741112
0.9218919952264953
1.0160483044100799
0.6797022499895156
0.032026205708115166
-0.31143693446478304
-0.6213516883220451
-0.4136992901215996
-0.004753996809895066
0.32346088105111
0.1418364447790861
0.07920448813876842
0.01853140972955654
-0.31284167843979727
-0.3592727001244137
-0.16097440891652784
0.21401259282760074
0.4352217465909415
0.48275208078865955
0.23951100827810218
0.11022854248032356
-0.13383876724030133
-0.49521627568462595
-0.693104740034658
-0.5277865789120788
-0.08005219999753177
0.2521079042677302
0.6907115893062222
0.8102061859918609
0.4886795935780348
-0.10570629323932504
-0.49066849034404914
-0.8207752307995703
-0.6352628924306264
-0.02363646105863597
0.38031455092998273
0.5798363070474885
0.5867959032210056
0.40114554312349543
-0.1906266278139234
-0.7990122851977677
-1.0094833754230166
-0.5722779319712984
0.5844963630227005
1.7213505211303357
0.05116326800511668
0.1226577189516961
0.03702099659502785
-0.505615944515509
-1.1472166262898
0.5768760874632464
-0.34247933943636216
-0.4068519099532367
-0.46527483677264236
0.20501684648261387
0.8104523855505229
1.9704898360788328
0.490745967756164
-0.40363320640777317
-1.179161721153307
-1.2782155653748986
-1.2173093319242703
0.2657270964341147
1.0028797334463542
0.9390176280290036
0.6580912841921235
0.12457103298399526
-0.34158713392566536
-0.6574487865718522
-0.5528943641768519
-0.35021270179141256
0.037588141883382734
0.2867164312344244
0.6300487032901169
0.6289075221486382
0.3658462865625303
-0.13270068469416663
-0.44769196899915115
-0.9088345292152483
-0.7487395451167697
-0.28978195465732054
0.8283850901585575
-0.010858367775112553
0.9290257369749372
1.084227509537285
-0.22582164120085568
-0.7707557485182329
0.45298095727791016
-0.703342136599064
-1.4804763206486722
-0.18734279180143343
0.17546852938771193
0.4503718329355452
1.2382278039075754
1.227003449676989
0.36296248720256163
-0.7223799633295541
-1.0393964541749219
-1.1512756669732112
-0.5050566406950228
0.1908304572256448
0.7370286419929056
0.7774971524004284
0.5252667398722929
-0.09391996341250218
-0.2655261492064864
-0.2780756607860214
-0.2941009848856227
-0.11451745027762626
0.052579071192685525
0.21403240577787286
0.20582474480633448
0.10347110937212105
-0.167888100267238
-0.023317974820966335
-0.21086264036823138
-0.21190990731272452
-0.05287768475176538
0.07107452534147672
0.16362425990726165
0.19294880748174686
0.2636893303523352
0.0020613550404929904
-0.042796152109328425
-0.18290164636972456
-0.16654178817752058
-0.15158876739879015
0.11701551512365128
0.12279736774983992
0.1868371970706187
0.07264857468948173
-0.21165097070897262
-0.4148358017774421
-0.2507334332848967
-0.015339669610528074
0.9890228949100106
-0.17012457828337724
0.3309563148444285
0.2755418025845698
-0.5738953399235855
-1.0479049113087573
0.4536040285468301
0.17074684819773095
0.7760199983092425
-1.0456690649029523
-0.42236711576763575
0.47923564641730304
1.4325518800487922
-1.458153033627079
2.2534348776562876
-1.0096297046070537
-0.7962838643774875
-1.3761397330210987
0.6915720546474272
-0.4451246471842702
1.4326276065035262
0.15994783891074243
-0.26432371533949794
0.08654090639357127
-0.5478053864117463
-0.012954326673335003
0.37263293661380137
0.4368902865365031
-0.22022410453860936
0.004713568776193762
-0.24825159427111976
-0.47567219640711905
-0.49935516956928677
0.12394604009176785
0.47348124107380113
0.6262785692971203
0.425281322810542
0.06777641862798518
-0.2805632312344286
-0.4521749258982542
-0.4395480516832246
-0.36972360058220083
-0.10360078567214835
0.1372770271464796
0.5243391431596139
0.5716562829115309
0.2994123208563314
0.024299502805118264
-0.2197895479518077
-0.4382414548266624
-0.42428582968429773
-0.11588697026319343
0.027496357011030613
0.22492905006001826
0.1553507191855547
0.12936958617837735
0.060873641931296754
0.044968670754716486
-0.2552153365083906
-0.013633393388136171
-0.04073748792871382
0.22081063353688854
0.10367888739053475
0.12726700025481222
-0.18713349402574853
-0.09983308332586585
-0.23965976360294922
-0.19970577005237042
-0.1454035923862611
0.16565325486602486
0.35770526584689427
0.21417278455392855
0.06887940086358764
0.6188172062961236
0.3602000977254218
-0.7581017469275803
-0.27790254949982157
-0.9924237552751132
-0.9455957462654948
-0.48291127128178757
1.0495530118269643
0.5812382377667601
2.0073032221290186
1.5349886005700935
0.11418883292967319
-1.6485490092131443
-1.9271301829785026
-1.7218992094913943
-0.9716449901264197
0.8376315808013327
1.9767774865755323
1.7354400319369419
0.7012172714311099
-0.09757615966531934
-0.9710908801931736
-1.088650271667465
-0.58110893572051
-0.26596923221297264
-0.22176273636011234
-0.017364212611633442
0.4166954491245798
0.9000472503298407
0.9272271547307903
0.43146539904175546
0.0013330328104595572
-0.6542260056291341
-1.2148828123833944
-1.0644759061390097
-0.04301694466939131
1.150160894028861
-0.09158750327750191
0.6474867444599345
0.5397289265220052
0.07270828798289365
-0.9599816358431692
0.3600806286361991
-0.08874829924529058
-0.029638963447158787
-0.15500898628078744
-0.3065987505920779
-0.2714506462053514
0.005641810909818889
0.39729498645178446
0.7656560601147537
0.3436819132524256
-0.06492299655446847
-0.6662091250180364
-0.6465802095305387
-0.5493320223685182
0.5295026630276117
0.5226937780993436
0.35889108962955274
-0.0708440361321696
-0.13579604633854145
-0.47403467333023164
0.010533103342534723
0.35795007107139887
0.36698607011717244
0.01626336354322068
-0.10697733540491934
-0.17305266065775715
-0.27830118349163724
-0.42539924733320417
-0.323272124828555
0.19115190998890896
0.7148362354257543
1.0367571056585694
-0.493032269839011
-0.3743565926476169
-0.349899993140813
-0.39137256965559253
-0.49131027389049226
0.9335560783264186
0.6310949338911163
0.10549459367463411
-0.17745344138334274
-0.36835174680298916
-0.20188461903290605
-0.16588680914743364
-0.08229696156367243
0.09487952522369913
0.06556332705374603
0.15896382612839782
0.10562644009749249
0.012934796511180664
-0.05139578371188681
0.13389159400354766
-0.054127248701498945
-0.07338407087377473
-0.0037662570426032645
-0.1335284082011292
-0.14814274050734624
0.0766632242589151
0.2778715196618986
0.20627286715062682
0.028433306712299142
-0.2695425013296507
-0.6790049246198309
-0.3714324717896141
0.4901317254435837
0.9343514268321705
0.9703192789366544
-0.4062645485115392
-0.5859013864031879
-0.9077113165423842
-0.8323984582999441
-0.5454841834922713
1.202631014472786
1.0318827509001403
0.869492978406858
0.5165535053361638
-0.9412509244899524
-1.08555072172446
-0.7040315321450004
-0.14442288202842218
-0.1016030676438318
1.3628422561387823
0.7855028474844006
0.07334040206435062
-0.7005947962964755
-0.4764920457379251
-0.37399835902332973
0.33896537842398367
0.46481120314539365
0.08109769678492847
-0.26485481173012326
-0.36916050691389163
-0.3937544608694198
-0.10050429344350388
0.3042492773051602
0.523007318815176
0.5323973141509001
0.37518077160653995
0.18767356000874577
-0.13978680273225513
-0.8838841290105285
-1.0143241640796512
-0.5497683215539014
0.03955324654195938
0.5822265885321513
1.126904790005826
0.8637919584572802
0.0747943146601985
-0.47239518759918847
-0.6900411002973584
-0.5151752783470802
-0.25764119700074123
0.2306686456586106
0.359657867528872
0.18358090199572946
-0.026415963258542827
-0.20925587633435014
-0.3340577703250742
0.3895240588618329
1.9131962410536723
-1.4331679230445344
-0.5107910083865468
0.06354334264569901
-0.4575446568177681
-1.5508672046389729
1.9513220010989876
1.0173220094540558
0.1726273132773926
-0.3242467418152722
-0.880055208842804
-0.7482160731810391
0.1899806304679172
0.4324475488259399
0.4518718581466015
0.4901201118275374
0.16363935062575083
-0.5144939157806182
-0.5003761606841878
-0.28525160953010176
-0.0752254424080524
0.20736851251523983
0.10187469522655697
0.1746329632401049
0.18271837151297293
0.24586119359552788
0.0324848699977997
-0.2391676341498232
-0.3887407596807015
-0.057372369719603286
0.10598055907349432
0.0522633313921723
0.1354846415239964
0.3155893980395986
0.165209623662492
-0.11830605589675545
-0.2986042641219602
-0.6911219584418719
-0.3678808680387265
0.018287728480765562
0.5931669677649863
0.817405941903403
1.2587610408263805
-0.003615233731172439
-1.13998152060656
-1.5113244292358423
-1.0196473946568878
-0.09364201857376873
1.4824906020996225
1.714766265935319
0.9542543620932572
0.09264781624590353
-0.9920774185174392
-2.359936005519291
-1.1430328442634041
0.07198539932634802
0.9975732236541109
1.5519263494311768
1.359436505841485
1.0884631740811888
-1.949170754155146
-1.1429725416333165
-0.9044363093663307
0.19795220178078005
-0.3351973681811497
1.8523136338999218
0.33773919912199474
-0.11169118161145423
-0.34976183593298243
-0.4405148512456695
-0.23637420190910458
0.04090695116740466
0.007222394886076943
0.10932684880494553
0.008588352908801012
0.16230274960173746
0.20957224058342336
0.16704311769830696
0.03689751346860959
0.02555162356240391
-0.2328648799059916
-0.6577030820106856
-0.518141550785944
-0.052023709838813006
0.4933708163508272
0.6095898349253891
0.6830922857221297
0.3782315630115803
-0.14220038697430848
-0.5620189202782192
-0.5387250366362638
-0.4361702546053898
-0.48452259171748707
0.020301806988504603
0.6788201331709177
-0.07491937129584884
0.7591550668150272
0.4955432471527965
-0.05845621015241871
-0.5908334795330465
0.15308457643138557
-0.5805006920543071
-0.11063000453847292
-0.09638786835775309
-0.13520073582515718
0.017175059543403856
0.21294179738399657
0.4769496152294688
0.5832931064596418
0.2548787247429444
-0.20993894197198365
-0.4897709399257861
-0.5873908800532727
-0.5917736768132218
-0.07146432905708208
0.29460795669180856
0.45569031452637276
0.11407951886695462
0.2567604487758833
0.31103973876155744
0.13428976958125663
0.23984458181222368
-0.14665697227842
-0.4131340631003227
-0.6868430102941268
-0.37896716379026724
-0.3624286319031672
0.4126786021817731
0.6741394085713365
0.5712286841121134
0.227753637493879
-0.0805103123676842
-0.3206840725566143
-0.4782552621679756
-0.32793256633374546
-0.014032571538081311
0.1518201976092871
0.2764165904771437
0.2614541961626006
-0.019737997093590406
-0.1381387613136575
-0.115158983383923
-0.020407660375819883
0.036063564891213165
0.11515793132012504
0.06352479705822515
0.13221144399493712
-0.0011423482732422223
-0.00883398335054812
-0.2929339606054171
-0.17468395425827604
-0.2996714902790494
-0.2624723520509376
-0.04945388613256725
0.5081235590175973
0.6848266115271506
0.6327941593980868
0.3886261304144361
-0.08064934702499564
-0.8031892290576736
-1.3236007907480585
-0.8498169157518652
-0.249419638155985
0.49857913113183533
1.0135615841492853
1.6200101070841006
1.2911014767361293
0.056989857931519464
-1.5204545841313224
-1.634669315576449
-1.3312079244181374
-0.8608444703533962
0.48791056941921784
2.0883869069676813
1.8489331977225614
0.7125594840603733
-0.3775260122170433
-1.438875885044943
-1.5629502960457538
-0.42360691330846384
0.1815137367119623
0.7417919633210524
1.0071353030260368
0.5496370820834009
-0.2620587894109568
-0.4642403657111429
-0.6803116837868554
-0.29887502092778295
0.13716001763057303
0.3237627945676595
0.37520475468588427
0.20032122825200033
0.08619333410580697
-0.1055442591615046
-0.331721731890548
-0.35736653869408624
-0.15106269032048117
-0.09192919829123498
0.011964675159655713
0.500898030025252
0.6487286513819354
0.6691556288441866
0.3511224955119566
-0.47958535180299555
-1.2897919084066405
-1.7880184977947582
-0.722571203028587
0.2565806979148707
1.6844164401165551
2.356171030020594
2.0449451136182706
-0.49630324789790464
-1.4411188811309896
-2.3399312532742296
-2.37923819248631
-1.1135164635489871
1.2980353474615596
2.3664307778189833
2.918751386425292
1.9896279091617284
-1.1881552413379761
-2.2892733945101376
-2.5451070054075475
-2.0120141437244308
-0.5233569322147084
2.8529178635596275
2.6818426562550917
1.219834176326467
-0.2708935593988064
-1.1205882965048353
-1.5768356526615996
-1.1009283486928694
-0.08444857482275529
0.5843928519154892
0.9032803932218294
0.50795281253342
0.02207960628238477
-0.17407238136244146
-0.14886466629071327
-0.202975405146699
-0.04162263731997566
0.25497941638750976
0.05634092428646806
-0.4022785081065264
-0.41546906478319673
-0.017452718308324015
0.19373166183961724
0.6223867146486798
0.4411464548149616
-0.23328284823484347
-0.7499756729527618
-0.3222873614666712
0.17770444115789535
0.4242362789261505
0.6448821725886372
0.4369810635116702
-0.20123540490176467
-1.0282269458803652
-0.718845115059603
-0.24373199460230802
0.5198553235285239
0.14750795025430663
0.81235884243065
0.43580097538331064
0.061453858701290845
-0.5407679971625471
-0.04590028348743368
-0.5347781821077077
-0.26089760040721105
-0.03531974232049194
0.16640500398115501
0.1798033215275389
0.2201840454202951
0.2571919602386013
0.40584084333655485
0.139536737797957
-0.07640432881002863
-0.5399601719645759
-0.8718873256697117
-0.7968437319233393
0.04206873668404715
0.8365574331447525
1.5511908568063375
0.8733311578130398
-0.40124783105370376
-1.3403774472909278
-1.0202417394615304
-0.2706882817758309
1.9551460851833564
-1.2208458009018766
0.3715626825175617
0.11092769712876134
-0.660486597677305
-1.2802740791473575
3.198533386634683
0.5913860510762053
-0.6009320125199689
-0.7375829109570512
-0.9580880198993724
-0.9053625951820318
0.5217786198959756
0.7745122965659564
0.22441469036109968
0.11557376567003137
-0.28475490735667386
-0.32791996507363225
-0.016666382157018836
0.36988539014181904
0.05992777855873555
0.18503445558517398
0.1926056979545832
0.07573514635677044
0.016832846406805477
-0.36349060580024045
-0.76443922375191
-0.38289957484871623
0.07990870718268085
0.3831586669432225
0.49363875358086995
0.9339836949331956
0.15008225234287098
-0.8926414345153996
-0.6871835915341676
0.049552950385885766
0.20906321728215616
0.51392420597301
0.7324477349403775
-0.309850994589099
-1.1217016992127664
-1.1482388125771166
-0.39505550715961885
0.9223380387345225
2.717075055863025
-0.014150178873837115
1.2080696077481445
-2.402761431163312
-1.6163324745327425
-1.7120753561662323
1.7475385130441468
-0.11533382375416239
2.4343273699683694
0.6718384028293717
-0.6256018898887474
-1.1700201788694327
-0.7191044500618156
-0.2253366107011459
0.19784564521825226
0.48383931364709193
0.601522790711689
0.13955823211464236
-0.1008464350411268
-0.300384172053577
-0.40821477807568124
-0.5305924495260111
0.46978960848109746
1.3613017191178516
-1.2780686909427632
-0.28502479635727174
0.2645210910682208
-0.16980788140923692
-0.8174507180990943
1.9860959323166802
0.8014968746817467
0.11832062188563354
-0.5792249934684178
-1.3275610679668561
-1.2091526415062916
-0.5199793743637792
0.20251550414073088
1.0965768525125523
1.4671569284635881
0.6909142467400596
-0.030657251224206636
-0.4561095823301071
-0.8376398534129492
-0.6315689739865508
-0.2178784980236314
0.14741996548152067
-0.061984450811025424
0.12596097616923813
0.1268072603808033
0.13791962989239986
0.2861971090311651
0.7987907636304465
0.40573366575544595
-0.02425025679604921
-1.0243147931071006
-1.067139818363242
-0.9256880577424275
-0.07702339718873998
1.0482811178677205
1.590072895090204
0.7890354366572853
-0.04502111687309017
-0.7134504502783318
-1.268362157575458
-0.5394911784161324
0.12191514300989144
0.46503540010556205
0.5280495560161097
0.20709007263178797
-0.1781288741336175
-0.31154602608214044
-0.29842501358229756
0.12442088364608973
0.9844894085850812
-0.12250083659475995
-0.017743096739072546
-0.1147710869107975
-0.5933918826844157
-1.1849528254740782
0.21973607955929736
0.537021013411971
0.8416214167397867
0.7230435888693324
0.26888662875831054
-0.11335919761427536
-0.6407618485291268
-0.8851956274893845
-0.7158095042015614
-0.07618264778280114
0.19466719423748752
0.7054125279852753
0.8414099578085463
0.5059518469477645
-0.1058687034738711
-0.2941974700894407
-0.6114007848096433
-0.6084743495831336
-0.19181347654956932
0.19586804498834057
0.36846701210796845
0.37211509474087356
0.2576326373640985
0.062216664597894974
-0.19397355841474379
-0.2986630033828915
-0.23378267178620285
-0.1666868128038052
-0.05268041275732571
0.150395804380864
0.26062804613952734
0.25249762220233457
0.24882956187476396
0.13064965803172723
-0.23427950511843595
0.05010938052273996
0.35198386052926156
-1.4559060169718496
-0.7886480151266968
0.22375245037887406
0.47471074186740136
0.39933801899340043
1.6990965107547906
0.5010851666893623
-0.43046488877946826
-1.032501020290369
-1.0534418875217955
-0.3680156791957601
0.27586284488902707
0.4674511665793741
0.5082526252777764
0.16969802704676556
-0.14893636819168427
-0.25222137401644196
0.6316504723410309
-1.160899324433812
-0.13792021223154127
0.5381204225031527
0.6404765220933778
-0.32550625875075573
0.887945054035837
-0.30138098358356125
-0.8657268846163831
-0.5273537517880363
-0.13332948036864845
0.5448166803459843
-0.21309498709776825
0.28573675886894034
0.5095335028197242
0.6789917701404525
-0.2324875256739221
-0.07520040827565992
-0.8859097686492828
-0.654179893208711
-0.709860301111542
0.45915079903381484
1.164449488138525
1.2698475294583125
0.1645260095934064
-0.42664220403720826
-0.997813339004363
-0.6026963275145418
-0.6092081510372368
-0.09000131934475795
0.3454201659946696
0.888722396397022
0.46447491166150573
0.6812912550417377
0.020058879154846262
-0.5377511613795268
-0.8541307864977085
-0.5733016502931979
-0.2777055120888861
0.32604465526703286
0.7934109491490894
0.7151458223852273
0.29637849622831414
-0.44576502680386193
-0.6663516258362272
-0.6712743797433878
-0.3074408916363022
0.2241181372859496
0.733335422893846
0.7976752350026565
0.3285934416216157
-0.43860603392922043
-0.5303208460177398
-0.8069699754597864
-0.13887434196799647
0.20211691526293726
0.7345103412316074
0.55308888883767
0.5238815246346346
-0.5017010892597157
-0.6549797765106674
-0.6133400495611672
-0.37647345059125226
0.1318717753941191
0.6361181877862846
0.6670431883959136
0.5242921117951065
0.05863804711670266
-0.7214750731818586
-1.02781014894721
-0.47165411835118326
0.14032595553723048
1.1903921057747677
0.2256448536295087
0.9451467855678044
0.21418811772320784
-0.6919379830564155
-1.6288474719961412
-0.3342948883951093
-0.21493496284309005
0.019741293243783112
0.8848625275922177
1.234300026815566
0.7927137020672104
-0.47021019560086874
-0.31644780180517973
-0.9805160511453415
-0.9008963902365252
0.13153063875520338
0.5932535392523914
0.41790460359284803
0.37052980154515547
0.023797383483020976
-0.25252596611617323
-0.08710260414600904
-0.0932267894812941
-0.05405970099347243
-0.11400276237118455
-0.1803319292953205
-0.136021583805616
0.13852120913392718
0.3404486035963169
0.524540178272772
0.29689075054469327
-0.17321633261053437
-0.5263862974283778
-0.582397551361774
-0.5208071426760618
-0.08451389223729318
0.5921434921259651
0.7413809600348175
0.524956735581325
0.220733600579034
-0.15789124799203885
-0.6142645860761918
-0.5089856227648349
-0.31011509150322647
-0.17098137943397265
-0.14361457338244898
0.1759974323127788
0.3846064856232034
0.6101046123405661
0.8721988685539973
0.48064275571737436
-0.5252448803293929
-0.9075762244525215
-1.1570033988400439
-0.8462447551502076
-0.031614555242712714
1.0956771091553679
1.1290706848522296
0.9718590001193973
1.2013427682267042
-1.71207989361504
-1.1403514859002248
-0.6183543345577975
-0.18600986761107796
-0.9759350204601721
1.9515049790209342
0.9444905452702084
0.09661995704968691
-0.3900399196683954
-0.20539497990954386
-0.3021342862995393
-0.2532325644877079
-0.012118734177444567
0.1144783182757863
0.0778753170396297
-0.1151429475313515
-0.014719248377826248
0.05412948337136238
0.1719165533509675
0.007190036247131699
0.004450222497021572
-0.020489494796126592
0.12255632900312208
0.007656563353749769
-0.19352431344082396
-0.09679506109380963
0.1074661578425692
0.6625826494335286
-0.9524060507303848
-0.22864393575909434
-0.04360596970774412
0.11164268945764917
-0.30170063281324083
1.4992550304852155
0.6058887281932387
-0.1666953370250344
-0.6348573192309693
-0.9850437587314665
-0.71916642103569
-0.029195458456393195
0.5890056995041928
0.6897833367896601
0.4197354924494953
0.07010636326927301
-0.14572315915881945
-0.28704536409146214
-0.2603746105374323
0.21455989151584753
0.036918060025050936
-0.2516869385225154
-0.2554941368564401
-0.12613119532975448
0.023414176152543542
0.496794790846781
1.5924513024528035
-1.4095310713865872
-0.8489744525709156
-0.2817424043953199
0.11916601301079648
-0.04659892811605195
3.38208892015495
-0.6684679118463689
-1.4778959288947366
-1.285341157715412
-1.0511397055387668
-0.4539467951707868
2.467808905492288
1.44796567540846
0.13256933430500378
-0.742841617269542
-1.331976644050021
-0.4298666389537515
0.3753762406172754
0.5331855002841275
0.34128309583211475
-0.05525481882879783
-0.46810424851215576
-0.27048663530354183
-0.005271685806430624
0.2010972155442326
0.22070600644461164
0.30862716091740566
0.29711489174765326
0.003718406112996986
-0.3486204098456997
-0.5079685172018985
-0.5787201546113161
-0.22687153408502825
0.2910828890692633
0.682904020201634
0.7758119132509357
0.4918192645805059
-0.14343784387986072
-0.5584361230280034
-0.7746156672628497
-0.7493994697252347
-0.14468191495961874
0.46928182599150114
0.7803412128806119
0.6894684423098544
0.27556734949986395
-0.41636605258312914
-0.7641227180085933
-0.7470266697746072
-0.13141754573278225
0.526711790861383
1.0643026260823414
0.4922864786867855
-0.4100738267541728
-0.4816471287047069
-0.553865370492873
-0.6284247898937895
0.12825977253039644
0.7703853113419412
0.5464775787358424
1.077186767663428
-1.249608618055236
-0.46420435622752537
-0.19132022983093994
-0.23290840731562515
-0.7683199792741976
1.8283923824424706
0.7647393785221357
-0.5852917740535163
-0.47775040156512344
-0.37899472961073494
-0.3423457377091418
-0.19453619059653152
0.8623893930425673
0.43788268932140445
-0.061745664578089984
-0.44102886577042993
-0.3146057364313381
-0.10298897101981451
0.1691833480694722
0.2706898527072633
0.16065376689704164
0.19077202697665854
0.11690065467725423
-0.08064104694680996
-0.37401915672660707
-0.6720092809452242
-0.4218291143741273
-0.034818309362570826
0.4672113533169176
0.9991857926329256
1.1749565000615556
0.103934687829645
-0.7710443128679697
-1.0068013529623678
-1.0916244933171881
-0.6065837181215632
0.3650799656154446
1.1835797638692636
0.9768927439637951
0.5768489069643062
-0.10615854032034684
-0.46115145011625125
-0.7188992308361695
-0.6833456898241076
-0.2781573748983895
0.27482392639540465
0.4429690158097584
0.3469108608486337
0.31838497387041176
0.06707053052731039
-0.3359313645612073
-0.4590959383625724
-0.10285354775116055
0.10929029843732953
0.5378564412786033
0.5351485288174199
-0.14189706233629082
-0.7130152530284088
-0.35637564216556344
-0.6018305778869671
0.05566209439114879
0.7229568079817517
0.8676146195853126
0.28687755509349233
0.10214993380188668
-0.6167825072821302
-0.6073525593679322
-0.3681288363279059
-0.1293906881526625
0.1496174358351485
0.3583720096164648
0.3987251486041348
0.14925307653687153
0.04254960146754652
-0.1388678689846938
-0.04972070176429082
-0.15907530533645764
-0.12612595766103377
-0.18238802408784585
-0.12524070857137734
0.07601970474212376
0.2645602157367197
0.2771620324665412
0.12969922547151244
0.012557045070479443
-0.30294907984916886
-0.2510743864642011
-0.057799042639127704
0.06741259002601747
0.13194796490036925
0.15427897590744877
-0.04390885633215226
-0.044107410471593125
-0.034314559047081354
-0.009628843332510415
0.028783243020377644
0.07548792576627694
-0.07701700140805022
-0.035956394506405226
-0.006271686862196578
0.010441024478794832
0.015762195677777223
0.013311278189083507
0.007254681854833378
0.0010553285502562866
-0.0032012022388651514
-0.0048703065417338536
-0.004379069488658898
-0.002680372979618846
-0.0007547663442645249
0.0007080662263411811
0.0014179442783222966
0.0014276017494796874
0.0009898153780479484
0.0004047065995198657
-9.151485862217862e-05
-0.0003769108766027705
-0.00043997154762534085
-0.00034270176838370605
-0.00017431368132417925
-1.3427608245951258e-05
9.254929973415577e-05
0.00013074118083675543
0.00011413650390572423
6.803936350751187e-05
1.7656376347852935e-05
-1.972727187701854e-05
-3.722834738430211e-05
-3.669157939220839e-05
-2.4908916659767636e-05
-9.684668846897833e-06
2.9698925931184104e-06
1.0052494927406004e-05
1.1400962858692738e-05
8.70073176667517e-06
4.280730268328992e-06
1.508307374280431e-07
-2.5077032175907875e-06
-3.4062490797747424e-06
-2.9109929444930485e-06
-1.6882576902214333e-06
-3.864980536007694e-07
5.593417057703702e-07
9.850403308228627e-07
9.488818592123025e-07
6.317636178248986e-07
2.357567436328956e-07
-8.668104052943324e-08
-2.620245279088326e-07
-2.896192006659701e-07
-2.1512274779747132e-07
-9.925916264552386e-08
6.649807489700182e-09
7.323500358244123e-08
9.417556947342664e-08
7.9705207603774e-08
4.7341203873427747e-08
1.3747115970314928e-08
-1.014980528541638e-08
-2.0459286900406525e-08
-1.8956710521921372e-08
-1.0448728250662175e-08
-1.6115856343874086e-10
8.044499974653927e-09
1.2374120120708082e-08
1.2901135043755104e-08
1.0857757508987346e-08
7.825169892840242e-09
5.112308415295546e-09
3.4476890812157853e-09
2.9654037421958943e-09
3.381615788456989e-09
4.236556513670158e-09
5.102505692423337e-09
5.705395430585693e-09
5.953840944963296e-09
5.900544236563749e-09
5.672942783755275e-09
5.406023862804031e-09
5.197459343688672e-09
5.090853625037726e-09
5.082003561533284e-09
5.137766967520529e-09
5.217025377936074e-09
5.2864352065678256e-09
5.327969710506043e-09
5.338914903417628e-09
5.327092063852494e-09
5.304549668129713e-09
5.282253884091563e-09
5.267066531763297e-09
5.261112761573033e-09
5.262857973544012e-09
5.268930428839408e-09
5.275847353281302e-09
5.281141733643104e-09
5.283758545349032e-09
5.283865167238115e-09
5.282350247243409e-09
5.280281705270389e-09
5.2785078890447835e-09
5.277473678119616e-09
5.277229937355651e-09
5.2775623622792725e-09
5.278155691062391e-09
5.278729088876005e-09
5.279111075611198e-09
5.279252835979679e-09
5.279198391328639e-09
5.279036777373413e-09
5.278857748572125e-09
5.278723526442943e-09
5.278659509097413e-09
5.278659875273893e-09
5.278700865219258e-09
5.278754777694555e-09
5.278800055478715e-09
5.278825750997386e-09
5.2788310435426174e-09
5.278821775985231e-09
5.278806185545527e-09
5.278791455867403e-09
5.278781863913737e-09
5.278778513812066e-09
5.27878015781896e-09
5.2787844491490326e-09
5.278789077397625e-09
5.278792475622341e-09
5.278794035910582e-09
5.278793946727671e-09
5.278792841669868e-09
5.2787914384136615e-09
5.278790284046631e-09
5.278789647122356e-09
5.278789536213327e-09
5.2787897927187986e-09
5.278790201716766e-09
5.278790579666712e-09
5.278790820116991e-09
5.278790898587402e-09
5.2787908500978025e-09
5.278790736395966e-09
5.2787906168869335e-09
5.27879053096941e-09
5.278790493097801e-09
5.278790497436034e-09
5.2787905271293e-09
5.278790563606565e-09
5.278790593001795e-09
5.278790608749766e-09
5.278790610951972e-09
5.2787906038965425e-09
5.27879059318351e-09
5.278790583496765e-09
5.278790577479965e-09
5.278790575661473e-09
5.278790577066464e-09
5.278790580072967e-09
5.278790583155304e-09
5.278790585324474e-09
5.278790586239445e-09
5.278790586075525e-09
5.278790585280063e-09
5.2787905843330444e-09
5.278790583585436e-09
5.2787905831971244e-09
5.2787905831572394e-09
5.278790583350255e-09
5.278790583630448e-09
5.27879058387843e-09
5.278790584028705e-09
5.278790584070296e-09
5.278790584030151e-09
5.278790583950805e-09
5.278790583871398e-09
5.278790583816713e-09
5.2787905837947236e-09
5.278790583800278e-09
5.278790583821528e-09
5.278790583846085e-09
5.2787905838650744e-09
5.278790583874621e-09
5.278790583875216e-09
5.278790583869961e-09
5.278790583862643e-09
5.278790583856302e-09
5.278790583852557e-09
5.27879058385162e-09
5.278790583852755e-09
5.2787905838548455e-09
5.278790583856889e-09
5.278790583858265e-09
5.27879058385879e-09
5.278790583858613e-09
5.278790583858047e-09
5.2787905838574114e-09
5.278790583856929e-09
5.278790583856695e-09
5.278790583856691e-09
5.278790583856834e-09
5.278790583857024e-09
5.2787905838571864e-09
5.27879058385728e-09
5.278790583857301e-09
5.278790583857268e-09
5.278790583857214e-09
5.278790583857161e-09
5.278790583857126e-09
5.278790583857114e-09
5.2787905838571194e-09
5.278790583857134e-09
5.278790583857151e-09
5.278790583857163e-09
5.278790583857169e-09
5.278790583857168e-09
5.278790583857165e-09
5.27879058385716e-09
5.278790583857156e-09
5.278790583857153e-09
5.278790583857153e-09
5.278790583857154e-09
5.278790583857155e-09
5.278790583857157e-09
5.2787905838571575e-09
5.2787905838571575e-09
5.2787905838571575e-09
5.2787905838571575e-09
5.278790583857157e-09
5.278790583857157e-09
5.278790583857157e-09
5.278790583857157e-09
5.278790583857157e-09
5.278790583857157e-09
5.278790583857157e-09
5.278790583857157e-09
5.278790583857157e-09
5.278790583857157e-09
5.278790583857157e-09
5.278790583857157e-09
5.278790583857157e-09
5.278790583857157e-09
5.278790583857157e-09
