0
2.2065056589637287e-08
2.148768376631773e-08
9.98731651244319e-09
-1.3108496334805198e-08
-4.3148067711514513e-08
-6.935771476745625e-08
-7.65978326290277e-08
-5.0289854803088265e-08
1.6073515964784036e-08
1.1303657659764675e-07
2.105751486203718e-07
2.609544671364223e-07
2.1197398119974149e-07
3.010066867662991e-08
-2.7217005887669613e-07
-6.157559962584088e-07
-8.553122769708766e-07
-8.12399105296486e-07
-3.442108605505699e-07
5.653634755706065e-07
1.7242630365849767e-06
2.706076797477191e-06
2.924162705093642e-06
1.8277526592047493e-06
-8.057964412961111e-07
-4.570826138732272e-06
-8.268606671891071e-06
-1.0037769912038288e-05
-7.887009970528364e-06
-6.010153468461151e-07
1.121019241127984e-05
2.435240954081061e-05
3.31214744971471e-05
3.065752857350148e-05
1.165488040033196e-05
-2.4121163697147436e-05
-6.877527775478012e-05
-0.00010545417883548635
-0.0001114528031097641
-6.600732476300732e-05
3.834508621682116e-05
0.0001843677378435466
0.00032428190414244315
0.000385584363322128
0.000292425740557806
1.0460863158524347e-06
-0.0004600356379151544
-0.0009621227450941445
-0.0012816101764211484
-0.0011550652775682842
-0.0003858640540882123
0.0010202875498220819
0.0027410412121027334
0.004113060323478447
0.004262011236375083
0.00241257527262678
-0.001669746331612691
-0.007246599758702814
-0.012404490623979206
-0.0143190705824652
-0.010135297236934073
0.0015946992551657381
0.019266255356091642
0.03699812228380179
0.044576414053128365
0.02912228463302528
-0.021527237824241163
-0.1145610512618557
-0.04861437499029679
-0.01253697166046879
0.012588908464666836
0.04863796683193037
0.1145367381927932
0.021452190304802065
-0.02922875282935336
-0.0446727311232964
-0.03702867637389125
-0.019179471687342933
-0.0013688302197939822
0.010465993434082001
0.014649889967024429
0.012571349239116968
0.007072064143228263
0.0010418427665981776
-0.003448449854785024
-0.005435809339134156
-0.004935133838571274
-0.0026193714621037412
0.0005025938735472354
0.0033242595860490166
0.0048133482512666675
0.004193452322900416
0.0012044169447557546
-0.0035561401680022867
-0.008300082169271734
-0.009882909733588163
-0.003958782411168318
0.014486646488588651
0.05031846543148137
-0.09266431898961298
-0.012605508533196492
0.08962910942546982
0.009912043304827887
-0.059120311892412805
0.07280611005326966
-0.00474836334124819
-0.10099185775534049
-0.02236648037515863
0.027927087730446862
0.04916364117699842
0.0416237863153199
0.005399446682505947
-0.05977160926614026
0.046413890780310565
-0.07374732708693892
-0.014808680161413401
0.03216073142909382
0.07900696037329386
-0.06062732033288932
0.027480928964597855
-0.043046744839817144
-0.06062087393519001
-0.01773590623204814
0.08637925678654307
0.043238277591547226
0.0339854006341263
0.03089489443110612
0.0018548788138967884
-0.08297653170210913
-0.04415987961332137
-0.087833524170148
-0.004253334704943205
0.029352381506721908
0.0424892427298713
0.0637722329054969
0.11453225688374892
0.005717970876795643
-0.06114915089902318
-0.08989034335011604
-0.08472273819056446
-0.047003354511567404
0.024771548274700385
0.13192448151510047
0.0713805167411274
0.03280989116506441
-0.0010328420548682531
-0.05059941581697957
-0.1340195953214705
-0.06224087767936306
-0.037040068517666065
0.14730239947814378
0.0997570976436579
0.0281100543632874
-0.06340221562326652
0.02647436078913328
-0.10130159222605574
-0.04302333820850026
0.009477520539046862
0.06836008643877825
-0.052653929479187574
0.05834955831808611
0.00837900803656036
-0.0023321913250247284
0.019559241957388396
0.062211397228654354
-0.08827982243391541
-0.04419782774965812
-0.013135439021143405
0.003385205189234545
0.00914285988576168
0.010669552175420559
0.013893988627704548
0.021123384943300325
0.029361446361540148
0.03060750452684428
0.014271975285308908
-0.028804977388727438
-0.10192829635766908
0.0006299787600106454
-0.10598644353872806
-0.00035327129638427004
0.13920869856942159
0.12771502586420416
-0.031602294547202654
0.0515308091864193
-0.04230324921690549
-0.13588475512482534
-0.0484975847276121
0.00893074228354097
0.03523635476193938
0.03709906597212668
0.025162741902402013
0.009931189009835233
-0.0012401210325385164
-0.005477564774770503
-0.004130315493828558
-0.0013955405582789715
-0.002437573217303997
-0.01158123668322068
-0.03106060429653799
-0.06064891786594712
0.10179171409260895
0.059248030444461953
0.014756109729167504
-0.028498981376314063
-0.06631832926006662
-0.09289919387294711
-0.10185650128471407
0.11052503290743838
0.14071430974411323
0.17444784525025728
-0.012891521394741829
-0.0506836016847384
-0.16355558326979364
-0.1615495109197046
-0.03418134648729412
0.048897229097496685
0.13072981667595449
0.05611547818407845
0.06081820346443987
-0.03577150110782127
-0.032959531537548305
0.0537217360174485
-0.0015544435658564571
-0.02724138884163189
-0.04682553636811569
-0.0731370143530818
-0.10617324690739645
0.06473105760526648
0.05491391756547576
0.07660318343112668
0.1322561378748645
0.011635678545911157
-0.10623414009561376
-0.04709821527669356
-0.03393668161249971
-0.0807215936981782
0.010506239096997948
0.0486780358387763
0.0497279329430044
0.03139671113334356
0.008695441387072619
-0.008722599407316078
-0.016994433120411868
-0.016796854930527436
-0.011304216124436401
-0.004206763890265953
0.00165918981852953
0.004891095224154425
0.005431617669119929
0.004090502420440846
0.0019713691173588116
1.7857869111194476e-05
-0.001223073210782576
-0.0016267522404323108
-0.0013749934208805996
-0.000787058160539208
-0.00016972617728480148
0.0002737370951908995
0.0004689305706019699
0.0004461868508305422
0.0002926498889426121
0.0001042386478065763
-4.748375655132535e-05
-0.00012867895358536463
-0.00013992928331321852
-0.00010341430914791568
-4.8062568583498373e-05
1.947854717157934e-06
3.298407796101229e-05
4.2336681118874324e-05
3.5052817278751e-05
1.951369506822418e-05
3.596634657350837e-06
-7.596223502377362e-06
-1.2309681041349878e-05
-1.1453596029702387e-05
-7.340394916167013e-06
-2.448890703106246e-06
1.409780959064158e-06
3.41170772186755e-06
3.614548443504344e-06
2.6157867735098272e-06
1.1681638887514243e-06
-1.120653627855928e-07
-8.87170216542776e-07
-1.100965915009023e-06
-8.929326107743067e-07
-4.828617847201002e-07
-7.282445301297155e-08
2.093316582828752e-07
3.225889360663318e-07
2.9366087381623116e-07
1.8378711439112857e-07
5.695726167373543e-08
-4.1052646193910296e-08
-9.026511347832045e-08
-9.325585132259591e-08
-6.606766937192164e-08
-2.82619737747726e-08
4.4731992070598546e-09
2.3792523520636133e-08
2.8598905089865722e-08
2.2723520219731455e-08
1.1921161761409986e-08
1.3693182909639796e-09
-5.734141943798266e-09
-8.440890504533253e-09
-7.52143826217118e-09
-4.593443242699693e-09
-1.306203154369672e-09
1.1849067451589798e-09
2.3966470995113822e-09
2.4209209173016305e-09
1.684203192875663e-09
6.915617802255918e-10
-1.588632901552505e-10
-6.588068255671324e-10
-7.823743019230364e-10
-6.245298311726459e-10
-3.2593833272575825e-10
-1.402236531087753e-11
2.265194687901826e-10
3.558763932454113e-10
3.6570764173522237e-10
2.641970996483931e-10
6.970194794771965e-11
-1.8450567316302057e-10
-4.40029560264757e-10
-6.088243619111289e-10
-5.860049202906891e-10
-2.859438657224733e-10
3.0357527811258706e-10
1.068020994001475e-09
1.7432628400926919e-09
1.9543228562834794e-09
1.3333986529847308e-09
-2.950253116081189e-10
-2.7149453751765e-09
-5.196353950880523e-09
-6.555142970436444e-09
-5.472146831784633e-09
-1.064585020530044e-09
6.425368544268424e-09
1.5096500541566455e-08
2.1362070716450085e-08
2.0738754191731677e-08
9.535560925904874e-09
-1.2867252384685738e-08
-4.192998858349163e-08
-6.719590889466931e-08
-7.400995597582797e-08
-4.8304142635626275e-08
1.6128736009506764e-08
1.1001340489196162e-07
2.0417658053154727e-07
2.5237464432044695e-07
2.0417517686414864e-07
2.737966953421034e-08
-2.655249224353655e-07
-5.975831413628031e-07
-8.278765684526571e-07
-7.838449294615197e-07
-3.2796106787850587e-07
5.541588237040815e-07
1.6751903767229406e-06
2.621340272339115e-06
2.824821627806241e-06
1.7542872174508265e-06
-8.021620946095639e-07
-4.447131965559422e-06
-8.016124998398655e-06
-9.706176112513385e-06
-7.593800464159482e-06
-5.129686282166582e-07
1.0930602450875345e-05
2.362958227291329e-05
3.205436387625499e-05
2.957219369065909e-05
1.1075616401122742e-05
-2.3615145593697563e-05
-6.680342125250418e-05
-0.00010213743320969937
-0.00010764510655366294
-6.330021736922107e-05
3.797867579609961e-05
0.0001793244183337307
0.0003143324934546567
0.0003727844674170306
0.0002814288748960635
-1.6817548083438874e-06
-0.0004483505228999206
-0.0009334175813570141
-0.0012401524217035592
-0.0011138840552792008
-0.00036541469647357114
0.0009978938724135836
0.002661973187419884
0.003983388696181817
0.004116268745911237
0.002313258346796451
-0.0016467463457734773
-0.0070416231890413315
-0.012012933691989346
-0.013825612982324315
-0.009723997595255676
0.0016734218909853554
0.018780506921983162
0.035859560729967564
0.04296711005311398
0.02756198111929332
-0.022241164961015063
-0.11358514514078723
-0.045447443166099985
-0.007464581693990003
0.01818066262904338
0.05231050367169552
0.11339576692460474
0.013317861696305413
-0.04432341983432365
-0.0632081855689735
-0.05172208895958791
-0.020452227318457094
0.01908549864367975
0.05442404315140048
0.0717935814110348
0.05680570266565055
-0.0029213236725434922
-0.11344662689573276
-0.0700566819527505
-0.05494541166710886
-0.03887236601999937
0.0127997410517595
0.1311184757511755
0.1344709292881836
0.022689056875287206
-0.023374159976557594
-0.03652030816168884
-0.05396953845378583
-0.10728972695764166
-0.014571562299033506
0.023081255763728055
0.020214536927390784
0.001763293574185758
-0.004339031776487474
0.025296985604651684
0.10359390245116927
0.030102500161797063
-0.008118028213700007
-0.032099836211730105
-0.06451840226978454
-0.12348773884947366
-0.01884081099064414
0.04787879418511462
0.08012474996775378
0.081679609911828
0.05311501995741911
-0.008795456940482949
-0.1084511775060732
-0.04695261647512078
-0.018015340489636853
-0.006228426559123483
0.01150643199541787
0.06177716822953718
-0.0310646056752884
-0.050733352256484315
0.006275214934906488
0.12810049353475114
0.08808348606075102
0.049350851952397266
-0.02661572455075198
-0.16915196598738663
-0.18873617812911792
-0.0723954504840039
0.013236006722469678
0.11155398586747044
0.2618291721740019
0.08657222472670563
-0.014823058154257617
-0.06410219316234386
-0.09526041901822101
-0.14269133504117307
-0.0308977043365244
0.030982859434927873
0.04885514926779342
0.03874863973933978
0.01973863847921566
0.007189498369420723
0.00807745612331973
0.019241775695648524
0.02867399496099776
0.01941403436296353
-0.024861360685061194
-0.1139734571813236
-0.04686564836436435
-0.010309742966978067
0.018637750576991373
0.06716216459989878
0.16011713111847234
-0.08540932159790249
-0.06289175808944814
0.023595560650741147
-0.038889590367094905
-0.0698671368073887
0.10674613432252228
0.06480140118621155
-0.021329201287427404
0.027111719277473415
-0.001960307380540237
-0.10695092392936269
-0.07010835670102591
-0.058824396495433584
-0.03157719318934853
0.052201610300843325
0.22082880270378444
0.08131234582476511
0.01602683184236509
-0.013166473485149977
-0.05435110823505274
-0.15191349826368308
-0.13427552339812235
-0.006914413893982482
0.04734224492447777
0.061380964630392644
0.07309874384259561
0.11475241106793052
0.005647129407234335
-0.05014349992972287
-0.061297546766602255
-0.043841457881734346
-0.015220776460957115
0.010267811117856244
0.023879637309042624
0.02286276114592411
0.009659833090514647
-0.009423106732190226
-0.025730159588385624
-0.029985889960491882
-0.014424677976660397
0.024703428944822203
0.0847266022294474
-0.044883031953788094
0.017907823832514984
0.050401189708697995
0.02997523863579671
-0.05978808327767468
-0.022988496232829447
-0.047105009537497154
-0.10238892358159053
-0.146267871552494
0.06720352706998381
0.17468482699697865
0.19146123503140475
0.104603830631381
0.07490147433435179
-0.1520341134998351
-0.22885309641001206
-0.1897440617026299
-0.04008404379224314
0.04386786303327963
0.10562529110482025
0.19355041188847277
0.146146666387604
-0.01738310184361062
-0.09895708954866546
-0.11680792981388445
-0.09747341321972508
-0.06845800519035146
0.14603050749881144
0.1262156178261645
0.056543674064911724
-0.07380358708924149
-0.06893055444949285
-0.12385497495954491
-0.02373087387366069
0.053942866531254074
0.13438472167048532
0.039700328602660005
-0.015509492328756213
-0.025621733849155275
0.0074082188007971285
-0.12295195770990025
-0.02486007235359518
0.09359155276645725
0.024553451103503408
-0.04022512593362033
0.09019565808964765
0.006492848577368826
-0.09938401954621798
-0.03230892242227
0.007325335644189694
0.023557973563156517
0.023417945142355887
0.014756296409790565
0.004249514053582035
-0.003793249463260647
-0.007647447939233523
-0.007627538759999319
-0.005175304874024609
-0.0019678851029554306
0.000702168199133147
0.002191027476678382
0.002464818063389234
0.0018833573167392997
0.000940137544945836
5.664486527176503e-05
-0.0005237761626318723
-0.0007450246799859872
-0.0006826869562663009
-0.00046552951660851075
-0.00020899174396628602
1.9702877574085177e-05
0.00020188654594214498
0.00034335186895628354
0.0004429358145072285
0.0004714724737637011
0.0003737417997037734
9.674365365318337e-05
-0.0003639403150990857
-0.00091897354328849
-0.0013673175161178057
-0.001429847435847054
-0.0008455241780958972
0.0004839057852868912
0.0023462323689011615
0.004140519961790716
0.004947412900100722
0.0037991676752905683
0.00013153009514372968
-0.005700470606967224
-0.012060824143028247
-0.016094300615704882
-0.01443082740716868
-0.004566837245316585
0.013346779306584847
0.034922234846901795
0.050999390034694225
0.048936448930525324
0.01601841489619246
-0.05562338640787515
-0.16423438719809313
-0.09611342139372822
-0.027690208032555997
0.06769199718824519
0.21036018860114347
0.20620571142069685
0.04395351800193215
-0.10023200829602162
-0.25238756588325933
-0.22935099958339542
-0.03183932095892087
0.15467396193580335
0.15200252792934277
0.17847199467145627
0.04064306329766009
-0.06892213333931702
-0.1676270237484012
-0.07527177765962956
-0.006814794194592517
0.03162569288787481
0.042730172152709585
0.03498527157710912
0.018652409657207863
0.002381642271254884
-0.008627129826400468
-0.01283666018775977
-0.011436798155800607
-0.006940765335874315
-0.0019034495319424282
0.001893933650943997
0.003715096927931954
0.0037134846800851804
0.0025565927117505993
0.0010282190412786297
-0.00025919667166977335
-0.0009929378179373714
-0.0011476269713765414
-0.0008877033537934844
-0.00044647815325329844
-2.8106796489986367e-05
0.00024535759566755486
0.00034186915710836426
0.0002963263647876814
0.00017510471270090568
4.3799711299815535e-05
-5.2940393823453725e-05
-9.764357681749076e-05
-9.548125892703808e-05
-6.433954885296715e-05
-2.4572229305629204e-05
8.252376776026887e-06
2.644850133646896e-05
2.971459545267044e-05
2.2515423152773428e-05
1.093935232889062e-05
2.0355963488054898e-07
-6.652863722960888e-06
-8.916652421910503e-06
-7.56859659912277e-06
-4.355546494011917e-06
-9.64356254671923e-07
1.4820864203014542e-06
2.5678837968781577e-06
2.4541679042869627e-06
1.6169370639788747e-06
5.829903401957537e-07
-2.53000403665035e-07
-7.03038662207645e-07
-7.685288851683622e-07
-5.702869178525196e-07
-2.670164658088848e-07
8.095530833881666e-09
1.7955094498858835e-07
2.3191827744115998e-07
1.9261186929027007e-07
1.0762957019172057e-07
2.038654965371154e-08
-4.090413864894112e-08
-6.651192315203861e-08
-6.152535274725234e-08
-3.8907119532564905e-08
-1.259326564464046e-08
7.2738054350835524e-09
1.6300560574123455e-08
1.538795947283301e-08
8.811389166029016e-09
1.8321259948745277e-09
-1.4039295318777683e-09
7.540811148043008e-10
6.982829840227691e-09
1.343588753129683e-08
1.5061594676444766e-08
7.599324181914088e-09
-1.0150296078969803e-08
-3.4469234077005933e-08
-5.6193530391968264e-08
-6.23963709451235e-08
-4.0695517725659304e-08
1.437612981020388e-08
9.480204502551022e-08
1.7536059986618646e-07
2.1618368758754718e-07
1.7395797425731245e-07
2.127019294621161e-08
-2.3068965590653e-07
-5.152828645255531e-07
-7.111175829677344e-07
-6.701145706562535e-07
-2.749976566780616e-07
4.850393808046874e-07
1.4472222949428475e-06
2.254675712602132e-06
2.4196438298755095e-06
1.4879012753802583e-06
-7.179355735818529e-07
-3.850306837055396e-06
-6.903303555525173e-06
-8.326274883752756e-06
-6.471833664140004e-06
-3.5157027880435246e-07
9.494351042045133e-06
2.037616512240587e-05
2.753237846900438e-05
2.5273827460027475e-05
9.248956177232078e-06
-2.0635266521166375e-05
-5.769572036120494e-05
-8.78336157071042e-05
-9.217837000760929e-05
-5.361772530570182e-05
3.374833524747453e-05
0.00015519182921908193
0.00027064151472751865
0.00031972011672406684
0.00023971214563136076
-4.887290917697545e-06
-0.0003890827260127925
-0.0008045812491427278
-0.0010648109445250326
-0.0009514214430402484
-0.0003034168862941948
0.0008702807707937493
0.002296748895722981
0.0034206153615878444
0.0035143271960796007
0.001937621931220948
-0.001494965621570441
-0.006156994922744622
-0.010445877630367976
-0.012005867024585466
-0.00845688456123164
0.0014281478442578273
0.016400783976389794
0.03180599384142014
0.03967540234051479
0.030309059433820125
-0.004688734797504166
-0.06870800287366331
-0.15728491491811605
-0.05785729149955365
0.04686079937835678
0.17257861725688725
0.1267749395397598
0.10503516265783733
-0.10739800388887835
-0.12922264829414482
-0.17478287900618958
-0.047898160119089254
0.05929829737400255
0.16228859043899416
0.07727144076263284
0.014960497930093592
-0.02223822493266072
-0.0390176495004417
-0.043197962527902464
-0.04120691606778402
-0.03510815556335664
-0.022447114733226053
0.0009469023550521339
0.036195496543677826
0.07652697913863331
0.10464637685283609
0.094295468904733
0.01678328914405926
-0.14868053253217678
-0.20412484652761606
-0.1259350536283302
-0.06582555545481449
0.03911127951222914
0.2497368834717212
0.20708807897164858
0.11994029634476272
-0.037630739469216426
-0.1179020366729094
-0.1837408304447413
-0.0913134158000017
-0.07707307857651029
0.04746465111921013
0.0928997272665363
0.0835918068337293
0.047608543014101605
0.008468437461729737
-0.019340755899105475
-0.030874990472522207
-0.028398825881692003
-0.01784427379090946
-0.0055245540224809755
0.00401676683771487
0.0087937252678311
0.009068354020477497
0.00644457174817219
0.0028647739508223394
-0.00014393333796596747
-0.0018276372405925784
-0.0021917968898747795
-0.0017406065918525834
-0.001123443313907152
-0.0008203800660783866
-0.0009531702254521496
-0.0012598077279470255
-0.0012290051815597447
-0.00035524491983165746
0.0015580456036550653
0.00414913619524036
0.006420248511322267
0.006933774867606423
0.0043207585913451465
-0.001977200791219682
-0.010960998211862012
-0.019681146262254715
-0.023596173231973258
-0.01795298834264959
-0.00013670850331522815
0.027534984262601453
0.055570638672846145
0.06685617109913568
0.03901047857701749
-0.05024413698723167
-0.015688826427394404
-0.05731968407802444
-0.15583575598221835
-0.07322863034734697
0.04048678105665058
0.0353900935650018
0.14778033619280415
0.18883327922092077
0.14010963764876844
-0.041759024848603186
-0.2121929301052871
-0.2219968043308195
-0.1031284426741063
-0.06218999448000903
0.11646385527247928
0.26028141139806815
0.19596161059755351
-0.059634230111174004
-0.10192934327243765
-0.13502478023280273
-0.16554771851409003
0.002021488056526248
0.16635872694424034
0.12728426594313963
0.083410636017643
0.03215680116382273
-0.22708218165654984
-0.08836611909086436
-0.13649729918982376
0.05112737426508139
0.09773208662394849
0.21786311145201515
0.009628448547825717
0.052109737616875464
-0.0906242385501916
-0.060229407554676144
-0.09279957348013271
-0.009304923410455048
-0.010564172079367424
-0.07792424098613068
0.020843146202285143
0.12224677037869736
0.05709344319145323
0.042778979556915966
0.08013072804384604
-0.0444656376983688
-0.15277614417523355
-0.06683449275745
-0.0024427207673463165
0.03386670708729077
0.04407444354522562
0.03535520053001803
0.016053634992719817
-0.007519557957424319
-0.03276129100656514
-0.0609759220852848
0.10348406376176437
0.054834945603433424
-0.011813398859970261
-0.0975971628161754
0.0027247948973803575
-0.09813499773772971
0.018470325402457927
-0.027195659416800216
0.18075165101784973
0.04820595829027698
-0.03196870239787442
-0.07913888759822658
0.0794948274125908
0.01548014402151197
-0.09392173701854394
-0.06013017186226814
-0.08055174647866474
0.060195622253969315
-0.014708023301891856
0.11851293682400667
0.07729579207473355
0.06849646823338555
-0.1118269642340807
-0.07497418848827449
-0.034379895533386086
-0.0009477687805567415
0.019470205422609962
0.026180467770429563
0.02211394435234334
0.011785585939110166
-0.0003439047930668118
-0.010704938553682446
-0.016760282529998793
-0.01686470493705854
-0.010290591734738922
0.0023473406786913677
0.018390559620136755
0.03262123179968643
0.03755391743667708
0.02500161320425045
-0.011119320021975661
-0.07151652841727822
-0.1492166731882887
-0.029796001179320086
0.105076122414703
0.07160258378604047
0.07771986129513984
0.11972410635021787
-0.016469606413277636
-0.1495813759422957
-0.09498684583429443
-0.05795185204903923
-0.031141120531209283
0.002344950779136324
0.061448098926024305
0.15800155136296953
0.08956472804539944
0.03729719881178236
-0.02989117145927955
-0.14615330970960586
-0.13780397830738192
-0.014730741818780865
0.03288805869964244
0.03177697497702842
0.018112480639818216
0.028130440458699297
0.08961672433055111
0.01649194410250802
0.0077153409894852336
0.05052611688835735
-0.07321581981098892
-0.17984866694620055
-0.07857813903526113
0.02987781004701111
0.15025114887672808
0.0870453788964257
0.03928522938158029
-0.0016448912432613155
-0.05020057512743011
-0.12205028242229607
-0.028935211816055875
0.024754654604690753
0.04258512620984443
0.03419481838322467
0.012172633775985698
-0.011021526773926697
-0.025390514927122746
-0.024939633988249662
-0.008695779824516407
0.018637013026121387
0.04662393317672454
0.06024331567827668
0.04281363798158977
-0.01927316164901391
-0.13099826690793084
-0.08432011822036205
-0.05720411799825346
-0.017470750432748903
0.06899800623616534
0.22817742803391958
0.06962703485532672
-0.01665614626676916
-0.05692531576556973
-0.08527524065929311
-0.13349292399827686
-0.022894800170769055
0.039331128322675
0.05881962463639412
0.04921827985843739
0.026285177303563553
0.0030725510842402022
-0.0126226703534036
-0.01847389055516001
-0.016206787957351674
-0.00952427396367284
-0.002215195728656141
0.003065710901714755
0.005236409019674753
0.004605435165240669
0.002347216473270024
-0.00010149942202563898
-0.001548018586244752
-0.0013748163481804765
0.0003166518382254461
0.002739336422940095
0.004627009930596416
0.004612816391735617
0.0017511091358165434
-0.003915445065753921
-0.010933283020300175
-0.016417300732067767
-0.01667208359618292
-0.008543272021724009
0.008703345820372398
0.03154067643280197
0.05123509766532582
0.05468593156553669
0.027542394955014003
-0.0407646244644099
-0.1515401637292555
-0.09319323345856335
-0.041678490535355724
0.03409866302928408
0.16320769210760463
0.16320446654504026
0.034087542727467064
-0.04170048687660041
-0.0932271525734451
-0.15158111842590635
-0.04079947182093422
0.027533573518685368
0.05472340404674474
0.051328849072185226
0.03167874436798843
0.008844488864068665
-0.00846639827616268
-0.016734783498378175
-0.016670110249575966
-0.01136244114212864
-0.004412177914233434
0.0013922108492583898
0.0046486534895487965
0.005269202176573369
0.004023581055883313
0.0019829571149628878
7.430565021649237e-05
-0.0011562802669979055
-0.0015743438513326478
-0.0013480069904511522
-0.0007845188172233807
-0.00018339777057098147
0.0002541074633175713
0.00045167526494990383
0.00043582814305721026
0.0002898924560697483
0.00010715442105766683
-4.188580651288008e-05
-0.00012312876336711026
-0.0001361397754460273
-0.00010192048877402337
-4.8487166566064054e-05
4.4175224739360233e-07
3.1263268069781815e-05
4.101658344613764e-05
3.4397889875938266e-05
1.9483861108625153e-05
3.971620388495794e-06
-7.082024693968415e-06
-1.1867738315707749e-05
-1.1195183173923399e-05
-7.278690524508674e-06
-2.5308949384709214e-06
1.2624158767139507e-06
3.2689386675522565e-06
3.51920979953881e-06
2.58019481508888e-06
1.1814830481894679e-06
-7.19439928191742e-08
-8.425988293536898e-07
-1.067484826276394e-06
-8.769279947105298e-07
-4.829335658182972e-07
-8.307389589938636e-08
1.9582403107050753e-07
3.112457185332214e-07
2.8727621453450923e-07
1.8261719977409185e-07
5.9549939987613124e-08
-3.681917015237655e-08
-8.632571703160958e-08
-9.086463642941629e-08
-6.566157391657567e-08
-2.9569800028959555e-08
2.2079721395386195e-09
2.1565255203973643e-08
2.7403169323872267e-08
2.3305703594438814e-08
1.4522748021671433e-08
5.494590931323987e-09
-1.4246905721863298e-09
-5.9722194388740445e-09
-9.068494822984727e-09
-1.1574106974056775e-08
-1.3304905597385483e-08
-1.2755874292864161e-08
-7.725331156730345e-09
3.298462074154154e-09
1.9470085932899376e-08
3.6392944240390825e-08
4.623458986005403e-08
3.975882242965188e-08
1.027626298698789e-08
-4.140389948909711e-08
-1.0292184024127245e-07
-1.4973575327790742e-07
-1.50184027767463e-07
-7.701822059275268e-08
7.654908469782617e-08
2.8158606644171746e-07
4.669548922432914e-07
5.298791912233838e-07
3.6824737085888656e-07
-6.866081119625291e-08
-7.253360456940201e-07
-1.4057306665856875e-06
-1.7883023083703016e-06
-1.511639384592384e-06
-3.294356154335069e-07
1.701310495173488e-06
4.0723356394208985e-06
5.81266480079755e-06
5.698554509508478e-06
2.7098632058861806e-06
-3.349025811543607e-06
-1.1274220124714327e-05
-1.8243299782640228e-05
-2.0266814475538434e-05
-1.3476977856682465e-05
3.8955985314075875e-06
2.943194352355588e-05
5.528578785183512e-05
6.890018104438744e-05
5.6461566286755776e-05
8.977985429523862e-06
-7.0490914881865e-05
-0.00016134662435105193
-0.00022542304328719326
-0.00021559878486789017
-9.382179010647525e-05
0.00014487329981528234
0.00045071266998621573
0.0007119389379262373
0.0007739076949433796
0.0004904029378747057
-0.0001994162857034316
-0.001191479173322285
-0.0021723639051451664
-0.0026522138084583155
-0.0021036579425192845
-0.0001997475175840662
0.002908974145032638
0.006392251227573932
0.00875606688298743
0.008195801595200709
0.0033084697216536896
-0.00597876650470293
-0.017597268327658528
-0.027114884399380017
-0.028564973564598153
-0.016550107640540115
0.010632908247859344
0.04771453751934031
0.08041287566719306
0.08614983939114437
0.03848927974501476
-0.08502318418120973
-0.09362404224775879
-0.1760450297862642
-0.09867917832036491
-0.011254240421758231
0.1406697886546575
0.20005222529820918
0.1851008226029748
0.08353848428915168
-0.14314828576181904
-0.14701187160262558
-0.17741185314274008
-0.06732050608196873
-0.026723336118790086
0.15557790753736278
0.10380338414964825
0.04471698285807297
-0.0011316583756655714
-0.024020182393817677
-0.02518002413864587
-0.01359389222862788
-0.0011669619682648054
0.0021875382116570393
-0.00756228450974813
-0.026429452149773245
-0.04249032299387397
-0.038398508524245936
0.0038980994596250927
0.09715666779015988
0.04320386428805586
0.029631131096955792
0.030335370656818378
0.010291688046296526
-0.06639048243961064
-0.027149274850969466
-0.08293234200941015
-0.02379782425692416
-0.019644492610388097
-0.026250428210592116
0.0045867523719510086
0.11316746452147274
0.12132404281231915
0.026213601260353107
0.0005221536655267188
-0.0007055271421885596
-0.028405463456696877
-0.12622273678302984
-0.11932571852728008
-0.008470546826566765
0.029026788554767504
0.03187403149987695
0.043341238683749624
0.09915660581288864
0.018039058908925456
-0.002832216655942272
0.013461127898061125
0.03010215635445303
0.006657567015594464
-0.0895499291099877
-0.07355413691251053
-0.13710167911979862
-0.049303305790022255
0.03601630235463546
0.16814314613442785
0.1863783105687368
0.11061966577511809
-0.06111105272702746
-0.14792571900783555
-0.1770793946687569
-0.17543512541277526
0.03466997793718022
0.23411042411038321
0.2026532162696192
0.11612495546150967
-0.05119684821488498
-0.11845075054462
-0.2875905183068833
-0.13576602773218252
-0.015478807182066793
0.1359180430354356
0.18000901512889148
0.16009373528193685
0.08911382211923957
-0.05330251133151413
-0.11435252575983958
-0.15518860833105205
-0.03644700861955336
-0.006493887258803797
0.10536657083232974
0.0908592969038462
-0.03855260605717916
-0.05468407936487482
-0.11684175640716485
0.022419538296600292
0.009763008375902795
0.0825630434489469
0.061377090116205894
0.14574891234889933
-0.08500152884489107
-0.06592855020934021
-0.03727645437873991
-0.034817375548443545
-0.08250653557023803
0.010797299753684233
0.050236570398797926
0.05051325925871988
0.029990825220760634
0.005320513673293979
-0.01207242097370408
-0.01726000592916672
-0.0112216640516332
0.0008987312532057487
0.012044664819553082
0.015603972004399697
0.007653359049202126
-0.01112987080783907
-0.034282363700711936
-0.049672607855712
-0.0414645570052342
0.005959546837097907
0.10280667892738765
0.048959461945019114
0.031273997186968765
0.024546822197676205
-0.0036021865435070825
-0.08508721231076818
-0.043149662349313625
-0.08611218302062369
-0.005100041221710841
0.023507870479526887
0.031677021582483915
0.051404158377171306
0.1070734665267287
0.010739432213723813
-0.0384723834408521
-0.05112644062085409
-0.041986428798327785
-0.02442005152716262
-0.0064876893961953825
0.0104409989510204
0.030707346106231884
0.06187540096759837
-0.08821235612389536
-0.01403484700284907
0.08574475987730337
0.007343574895839312
-0.057939197942121844
0.07774131651648446
0.0012920449865837882
-0.09834577850224
-0.027630151134310253
0.012857673731164816
0.027909525243370006
0.025666892530195776
0.01497358501743275
0.003113158906177694
-0.005431720775077456
-0.009091673841906924
-0.0084963022394742
-0.005406060862670943
-0.0017202673850084593
0.001176203438910397
0.002658155573163463
0.0027754915156783535
0.001988465954602317
0.0008723090555933267
-0.00010520848367901318
-0.0006907098569102904
-0.0008457983345424979
-0.0006802481244448388
-0.0003634431109779678
-4.970628110994378e-05
0.00016427456703999792
0.0002484241543118126
0.00022419311078422506
0.00013894651808957976
4.167799778540516e-05
-3.286494870371693e-05
-6.9783432580443e-05
-7.13830259601043e-05
-5.013608026720393e-05
-2.1058553846181696e-05
3.906568016837812e-06
1.848483933738919e-05
2.1945059404618896e-05
1.7291463166040556e-05
8.955043779351622e-06
8.878627126906823e-07
-4.493411122979851e-06
-6.497190581725938e-06
-5.739069523327842e-06
-3.4697884227800012e-06
-9.519572004648511e-07
9.380176865374751e-07
1.8413814205306433e-06
1.8387862937390134e-06
1.2637650875817274e-06
5.058538977690758e-07
-1.314429440398834e-07
-4.936970879994217e-07
-5.689610164403567e-07
-4.3916589998056905e-07
-2.2009537988891538e-07
-1.2848592811080614e-08
1.222920553214028e-07
1.6966807060169694e-07
1.467389549044547e-07
8.647493529262331e-08
2.1379523372663627e-08
-2.647449749856176e-08
-4.8497124028460374e-08
-4.730801179460165e-08
-3.1802727348293336e-08
-1.207398631433862e-08
4.175177726507219e-09
1.3155776960622858e-08
1.473689466516392e-08
1.1143040758024345e-08
5.395436355909549e-09
7.731928913693045e-11
-3.310720699651121e-09
-4.421049251738705e-09
-3.743952816058637e-09
-2.147019092453826e-09
-4.660330701943428e-10
7.439620270366747e-10
1.2786357356133869e-09
1.2192825811593636e-09
8.025734053272169e-10
2.8969170152800306e-10
-1.2411256854168355e-10
-3.461920364523013e-10
-3.7770977398999253e-10
-2.788236823621911e-10
-1.2826122060570795e-10
8.049691055942257e-12
9.283789473140035e-11
1.1858657003944263e-10
9.894955543507865e-11
5.6718573370138834e-11
1.3360202880504659e-11
-1.719127042350958e-11
-3.0112598836902706e-11
-2.78494527427823e-11
-1.6684206928256082e-11
-3.367864101129508e-12
7.157187829533016e-12
1.2634103598398723e-11
1.3209026542808955e-11
1.0502992908950244e-11
6.564780687638746e-12
3.0749557263378984e-12
9.570587117070153e-13
3.6764773490879277e-13
9.291624616049698e-13
2.0438179968706482e-12
3.16088931355073e-12
3.931158018692246e-12
4.241801935574944e-12
4.164756761062456e-12
3.866430293362096e-12
3.521116325076731e-12
3.253749201164159e-12
3.1190739330095856e-12
3.1103531327280825e-12
3.1840479956841056e-12
3.286910527360021e-12
3.376153417311072e-12
3.4289503982183613e-12
3.442223141340516e-12
3.4263485219289706e-12
3.3969813006900163e-12
3.3682342443046318e-12
3.348843747992107e-12
3.3414201394486434e-12
3.3438835392591944e-12
3.3518348659517737e-12
3.3607792196689883e-12
3.367562592069924e-12
3.3708628719154016e-12
3.370929416132724e-12
3.3689283965377973e-12
3.3662428132612635e-12
3.363961989649978e-12
3.362649969780346e-12
