0
2.6216912958088143e-15
2.3964489176108278e-15
2.2512514860231595e-15
2.304115544730265e-15
2.6439497372269732e-15
3.2698438579392393e-15
4.0393837744073034e-15
4.656702476680834e-15
4.729219997302306e-15
3.904978870981063e-15
2.0696738325187185e-15
-4.590757346416733e-16
-2.837552042560248e-15
-3.806374785448722e-15
-2.069883602817712e-15
3.0863946358658904e-15
1.1106301195962275e-14
1.96996166550484e-14
2.4964220757933966e-14
2.237353213559952e-14
8.644834611638465e-15
-1.5920961731974347e-14
-4.550756684547833e-14
-6.844838837623152e-14
-6.958034704314588e-14
-3.568705273965931e-14
3.6857995617171736e-14
1.3473793455387832e-13
2.244208783381372e-13
2.5695162602547986e-13
1.831255183571937e-13
-2.2407390820831272e-14
-3.348033980879177e-13
-6.621346363244599e-13
-8.517550973984658e-13
-7.302847129207904e-13
-1.7701956257171373e-13
7.860081358631286e-13
1.9220394316318958e-12
2.771633772965077e-12
2.7498384923395634e-12
1.3616131612602329e-12
-1.5020174941932626e-12
-5.286174384111596e-12
-8.66025706842488e-12
-9.723435511173404e-12
-6.6104352935840806e-12
1.5685831236482895e-12
1.3723322404896677e-11
2.617133418486221e-11
3.294823282632735e-11
2.7422547686636204e-11
5.176637501839578e-12
-3.25312392278481e-11
-7.609254911600072e-11
-1.0743698822526228e-10
-1.0402638765597085e-10
-4.736865209193855e-11
6.55205276141733e-11
2.1164575202525614e-10
3.3828504252078733e-10
3.717179780571784e-10
2.4136833324134985e-10
-8.358966583843926e-11
-5.559674368581846e-10
-1.0285354956573705e-09
-1.2685140247624964e-09
-1.0226350011507e-09
-1.300653656216188e-10
1.3446793574656642e-09
3.012730199447734e-09
4.1642417640446775e-09
3.931912480278578e-09
1.627014389162655e-09
-2.8175393399288456e-09
-8.45331300156767e-09
-1.3194314228863051e-08
-1.4184736409509306e-08
-8.759528874751729e-09
4.131496252836106e-09
2.2468795662573148e-08
4.037659596671657e-08
4.878030787470516e-08
3.802195948085278e-08
2.2812098237277013e-09
-5.532879965508293e-08
-1.1911038862452327e-07
-1.612129881945918e-07
-1.4830450238942355e-07
-5.481633237411853e-08
1.1994977148993148e-07
3.3704207780136916e-07
5.14040928740868e-07
5.404465377283377e-07
3.158367477949952e-07
-1.9479370637959197e-07
-9.058119658121627e-07
-1.5831263951264653e-06
-1.8733811884568475e-06
-1.408872015445717e-06
1.9570821711736487e-08
2.267481282375819e-06
4.702691974356374e-06
6.233800935428193e-06
5.581480694188942e-06
1.799876683260234e-06
-5.063700143612485e-06
-1.3415624937794811e-05
-2.0003798110605065e-05
-2.055770972770486e-05
-1.130190833924384e-05
8.89604028619077e-06
3.6433380856254054e-05
6.199922423284987e-05
7.184995076128148e-05
5.2009429259229056e-05
-4.978241791950982e-06
-9.258978805751182e-05
-0.00018542362222908956
-0.0002407607166994797
-0.00020956589350506843
-5.6987483319103233e-05
0.00021223397657615486
0.0005331203224494885
0.0007775125602512709
0.0007805550107394656
0.00040063547851607403
-0.0003973384112230353
-0.001462818787970839
-0.0024260495003002687
-0.0027530161321471713
-0.001913177207388809
0.0003572886159322522
0.0037711266746711034
0.007312609101291525
0.009316866106615081
0.007916174320861256
0.0018464703722360226
-0.008574582498754764
-0.02068217080449556
-0.02941743619969863
-0.028451906501080954
-0.012635989026302329
0.01861364103256185
0.05801578932092737
0.08873042736211648
0.08578474200483663
0.02139265699388259
-0.12653834800958258
-0.165168023229377
-0.0803231491854336
-0.03612006410734693
0.018226147175667437
0.13603711500765236
0.15917121550723956
0.10710709454489957
-0.0272214171163265
-0.0736984861142625
-0.0751828665805952
-0.07531888904159907
-0.10810985092527761
0.007812252505489524
0.0693052738289166
0.08440195670971376
0.06615437878205895
0.02741583880617144
-0.021700349213604277
-0.07359699596248544
-0.12154076212642484
0.04154242792511717
0.02251422548211659
0.025697687848022528
0.049972673626912135
0.08693932693450608
-0.07861922760194008
-0.0657022533238612
0.10779064146835142
0.03050841423022288
-0.09767553062420432
-0.06308845726745033
-0.03921670192613755
-0.19238713882834182
-0.09224628238330136
0.2749109292007721
0.294336005045626
0.31853066427221505
0.07553430463150287
-0.1093798483205963
-0.48403970813937264
-0.44244729293364743
-0.3125317482029254
0.033679223347977204
0.3481735971323981
0.5631805226575114
0.35086262751733815
0.1010033114686201
-0.07568698854912422
-0.32076960223315204
-0.38815243733614174
-0.20498648438992756
-0.045406601537865694
0.07685551571214821
0.19816725527469636
0.1836708963187456
0.1036900931300618
0.01528160495411273
-0.047148867022645834
-0.07213899818518857
-0.0651445100515542
-0.0400213195956527
-0.011334810263854946
0.010562754763634191
0.021254607328144274
0.021464966485359387
0.01494149592734478
0.006170346626101813
-0.0012988736076346378
-0.005619294669153347
-0.006599505475296793
-0.005157078185378449
-0.002627246874280526
-0.000195687024629472
0.0014136990226864808
0.001993214821664877
0.0017269159525612663
0.0009927304561787049
0.00017988429473112034
-0.0004284641779002997
-0.0006977751738533667
-0.0006282074408478116
-0.00031313333673015233
0.00010539982993169333
0.000472268496871685
0.0006467050333439199
0.0005291761548522914
9.344157320961743e-05
-0.0005798732141849516
-0.0012840129221738505
-0.001704914384604726
-0.00149873652355771
-0.0004304646766184209
0.0014556329553181075
0.0036985525025125324
0.005404469336863209
0.005432795616493138
0.0028122829391995217
-0.0026829718636006243
-0.009988602561314586
-0.016524464693844408
-0.018589640241934307
-0.01255301740698183
0.003266846547281144
0.026524354863413094
0.049420897494933724
0.05891397467514541
0.0392665142326872
-0.023132576039314477
-0.1338632309004577
-0.08567010661661831
-0.057176374470164555
-0.016573524763926793
0.0701810179641344
0.2291941669674191
0.07024260663149996
-0.016476760159678836
-0.057091101459209974
-0.08565051499163935
-0.13395208498804212
-0.02333893136193272
0.038986321571547904
0.0586622130601254
0.04934100819672222
0.02675479761290466
0.0038714772712391127
-0.011658136332330427
-0.017679523257080512
-0.016040084067713636
-0.01041596674327484
-0.0043401603856383746
2.8857098728616643e-05
0.0022417278316772555
0.003142122239638302
0.004019380356313054
0.005702401318118259
0.007932550803637499
0.009259115740978926
0.007559337011742824
0.0010993040477494526
-0.010164570370886325
-0.023547078780117713
-0.03347097183802352
-0.03270415960015805
-0.01516371100043878
0.020169144921060457
0.06541908091465012
0.1018346303006594
0.10143567185472029
0.03323787533762151
-0.12669676783162517
-0.18419831119256727
-0.11915996120375533
-0.08495112707167464
-0.016890878548221716
0.1517761349600711
0.27113708687797033
0.15946793325498604
-0.002749793607949004
-0.06728736962642429
-0.10301317714204336
-0.17642964998929545
-0.13436844300950931
0.005914947346271841
0.056868933049808036
0.05193675501644258
0.031478197059003975
0.027786434910849707
0.05327917637099395
0.09485052285780533
0.11606066127513656
0.06731772555532045
-0.09773689098771701
-0.20367741662854916
-0.23839664875734728
-0.14781827694853888
-0.04389840351848857
0.17468819085128712
0.19451329736930828
0.2605614316397338
0.15942952499464091
0.018535305701024296
-0.07764387783670565
-0.058533713525305404
-0.23367436060468688
-0.2636108366951571
-0.14368414552770103
-0.005465119481692614
0.06442909279185705
0.19352277835000026
0.28961002792429563
0.21352790831126187
-0.03401441783262406
-0.10878605556179284
-0.1051110539929882
-0.13009055097291436
-0.07752556089320392
-0.007705838927184593
0.06348508942193086
-0.03454592330113732
-0.0349944392574365
-0.04819821444354284
0.019627049127630865
0.04627159860954521
0.0754035611613196
0.10413253104479084
0.07958368204372689
0.10649001379960017
0.06570152249404589
0.04091115075133394
-0.2518084859109921
-0.43928066946028305
-0.2795747709384011
-0.06940249021760932
0.12911051380413746
0.4493011982002557
0.5813465478409217
0.34823398916258724
-0.09426471722737156
-0.43354490088158887
-0.5620946984608503
-0.34143408781284557
-0.18286057433185046
0.14804727757414654
0.5068318534685144
0.5377517669423215
0.24886301005851558
0.006019012253274052
-0.25175059539446365
-0.5829450606985379
-0.4141717034334327
-0.12435957318786181
0.14991724905138357
0.2901456813756966
0.5632289310094566
0.3946897968726471
-0.04083124025582
-0.4081854438122835
-0.38524775969830277
-0.2335635758147802
-0.17852541891070542
0.19401591746222976
0.32568322429917573
0.26535792853273893
0.0503040399109329
-0.10430819790798504
-0.20559070870643412
-0.07576473509143927
0.05736859081038278
-0.03176340288436469
0.037893309864579304
0.05535430283781167
0.01708763016114595
-0.07422567347068061
-0.011124661537694945
0.017007926930438934
0.022028964112335132
0.015017344468365154
0.00463123090454351
-0.003729949585350366
-0.00784428113003891
-0.007885609404306212
-0.005335124888002564
-0.0019686148968651902
0.0008339365491931401
0.0023822053960450354
0.002638410122531153
0.001987753505586143
0.000960924344194483
1.3547594771810644e-05
-0.0005894356892315598
-0.000787035089217786
-0.000666711861365656
-0.00038278832121342875
-8.386890473729717e-05
0.00013135557941093537
0.00022653495785261824
0.0002160952891457758
0.0001420928287598509
5.095405196051117e-05
-2.260465020315094e-05
-6.210053324990168e-05
-6.772692883652893e-05
-5.0168011317107555e-05
-2.341406291394161e-05
8.153878420969785e-07
1.589211394207125e-05
2.047622700514327e-05
1.699179525766547e-05
9.488603660219879e-06
1.7822644505749175e-06
-3.6495865190647574e-06
-5.948493956703149e-06
-5.548209959619457e-06
-3.5648620261570984e-06
-1.1983065018181527e-06
6.727672487692168e-07
1.6468822169817888e-06
1.74970284294422e-06
1.2691596942245084e-06
5.693452307467313e-07
-5.099077402265054e-08
-4.276011644614471e-07
-5.325602465223921e-07
-4.329061466219318e-07
-2.3486008965877157e-07
-3.631347472721104e-08
1.0063795639607688e-07
1.559108259464956e-07
1.4226713894388482e-07
8.927192444136177e-08
2.790295867263246e-08
-1.962783612250402e-08
-4.358139582003583e-08
-4.5147704091475045e-08
-3.206092546382571e-08
-1.3784148016232e-08
2.0766991506049877e-09
1.1462902889208068e-08
1.3826200796335064e-08
1.1010655317624637e-08
5.798762899035841e-09
6.983537251714289e-10
-2.7397960437822082e-09
-4.055411421194452e-09
-3.622607490002932e-09
-2.226435090042879e-09
-6.650540321270819e-10
5.078032951173079e-10
1.0704076840169154e-09
1.083943326058394e-09
7.698616795427073e-10
3.768186138236052e-10
8.186687947487057e-11
-5.3865773875577884e-11
-7.600586919554283e-11
-8.908881376456286e-11
-1.913265779142955e-10
-4.1450736479331543e-10
-6.894824990885708e-10
-8.527691461310372e-10
-7.00989829348604e-10
-8.607213086731916e-11
9.738458890412414e-10
2.2106474536778464e-09
3.101940086761831e-09
2.989973827447626e-09
1.3337153804214706e-09
-1.953938510150936e-09
-6.200119049675045e-09
-9.864745205739441e-09
-1.0798917097425637e-08
-6.952779308922866e-09
2.5556001178645016e-09
1.6327541149204e-08
3.0049850676334725e-08
3.692958469092874e-08
2.9603145783756106e-08
3.4344284554783225e-09
-3.9617166805123573e-08
-8.813423497737822e-08
-1.2137858461478037e-07
-1.1410156192536329e-07
-4.6369205254551234e-08
8.35290499872283e-08
2.4765996221667267e-07
3.8500637781954807e-07
4.123347551861227e-07
2.523191674434169e-07
-1.2492206092410232e-07
-6.59561995792977e-07
-1.1794792687119831e-06
-1.4199035171228288e-06
-1.1001227799089945e-06
-5.2570549865645265e-08
1.6289212245179487e-06
3.483640491853921e-06
4.6980939256572584e-06
4.30214627620456e-06
1.5562011143410335e-06
-3.5505005039091933e-06
-9.871537939576016e-06
-1.4996625273348999e-05
-1.5705857994696832e-05
-9.086613395890183e-06
5.8526998251810884e-06
2.6578941823233245e-05
4.623675798254804e-05
5.4518278965380176e-05
4.073908498493926e-05
-1.1148747886404157e-06
-6.67126227472716e-05
-0.00013750797843198434
-0.00018162855827929484
-0.00016184823817347506
-5.0825620439143904e-05
0.00014968378437081877
0.00039280317102087845
0.0005834450771452559
0.0005971872656029406
0.00032456080843047745
-0.0002663249227767836
-0.0010690375680990135
-0.0018109792005483634
-0.002091252028499391
-0.0015036852595421081
0.000166223834170946
0.002724690457380593
0.005428806403014949
0.007035065242612468
0.0061234580659528404
0.0016975008548701538
-0.006075602951942997
-0.015269425886157437
-0.022128718925428763
-0.02187454323778614
-0.010514625029605875
0.012611662453442864
0.04231257485984121
0.0661885163753938
0.06561045489892364
0.01967211557434239
-0.08833601221259116
-0.06371257611211945
-0.09511673130730082
-0.1540020835062141
-0.00013112916696291982
0.20761026868722784
0.09828197445293352
0.07850501193616329
0.12888356535520426
0.009241471473441325
-0.12844010020684832
-0.12335208442646406
-0.19110861332477758
-0.11642083686928698
-0.05653490813290123
0.044805618355938874
0.23698679410372614
0.3427112408674415
0.14632563432069495
-0.004502394208087098
-0.18345122501309136
-0.26175075719300595
-0.28467454166699
-0.05700190416283276
0.05747473613806905
0.12280838508094416
0.20950215617880993
0.17275314578029388
0.037638986234226075
-0.004498633826378336
0.011667131444044417
-0.15902728790823256
-0.15466137994018814
-0.19275667515381317
-0.06560901459811055
0.05393087688981823
0.1984876291360505
0.18960359550646072
0.22551865197241253
0.07876989502716641
-0.09473840938688158
-0.33837889308974683
-0.27620717516060206
-0.10117213607280476
0.024517998172207817
0.1568315057341796
0.35050684705335466
0.2411282840261508
0.2362277863501534
-0.48136033316958887
-0.34073336166649726
-0.16828593992541785
0.020837916046641515
0.021520288449973602
0.6301913413964151
0.23598472520591593
-0.18151666377771547
-0.24532990265085225
-0.3685148645812896
-0.1436198316662468
0.05910557001521593
0.28288113978165386
0.16882275054447482
0.14073356677074148
-0.0032927333835963066
-0.08963360884752959
-0.15975271045433379
-0.057079394181882605
-0.01515200565288772
-0.05058312717385143
0.03795368895709887
0.06565689495741239
0.05471263895080158
0.027219724831241514
2.7407730175579875e-05
-0.017520421612635093
-0.023122654973157773
-0.019318966511110126
-0.010754394677076683
-0.0018825785013949735
0.004382414904749613
0.007018249810992376
0.006518862180808747
0.004181415745891592
0.001404347730191693
-0.0007878926388014793
-0.0019283061153680117
-0.002048999708938277
-0.0014881155012814685
-0.0006718190966800374
5.1355693762959324e-05
0.000491143717298476
0.000616944955221449
0.0005083522151572592
0.00028875690813710315
6.906629312971482e-05
-8.414098477076205e-05
-0.00015422870620801447
-0.00016079617963972594
-0.00013731360511537037
-0.00011031532218990978
-8.731375928273396e-05
-5.6504861543329096e-05
2.7152922001782693e-06
0.00010282897524731701
0.00023171260510894485
0.00034442132884910943
0.00036996420254029896
0.00023596880848863688
-9.244440380561043e-05
-0.0005714496403803906
-0.001053979491516342
-0.0013031057793232662
-0.0010580061709833015
-0.00014986940611733625
0.0013608146867126253
0.0030809942956901105
0.004286463412493192
0.004087941276899208
0.0017755158174627198
-0.0027248443404694436
-0.008443021951310553
-0.013235296056189299
-0.014163050969458022
-0.008496617683287976
0.004769574241341772
0.023305832086975453
0.040416741281433494
0.04533526508349501
0.025315443637149385
-0.03065303747517364
-0.12756223214382592
-0.06128433493729938
-0.018379884679725643
0.02046142150082823
0.0742695541123118
0.15531459572645767
0.06517483527324701
-0.004598870264198689
-0.06711558731568078
-0.1322335725586906
-0.19976815304746665
-0.05737754237486555
0.11519687993830309
0.13686579035991403
0.2149553001399657
0.1389586881794211
-0.11835447234312595
-0.1925169070828852
-0.11516460871198145
-0.10326170154548237
0.04605050975739699
0.15365895005932229
0.0514039391292788
-0.027044063458280122
-0.054413906086328796
-0.015593664731477105
0.08947728315377056
0.045830670622658144
0.026525366738343967
-0.0014138838294070685
-0.06918682870941213
-0.19854450381479538
0.0033491526061886143
0.1448544263974886
0.046607591595280114
-0.06428161015594179
0.03952429952310047
-0.01964819379637548
-0.028151108359422975
0.017024443562821834
0.1081315400744266
0.028612345333427762
-0.04289320370948981
-0.1271812182906021
-0.039331237129242705
0.014410015929973836
0.03667276117167408
0.03627820810083272
0.024231767850252044
0.01002780568643125
-0.0005988573216860176
-0.006107399617200095
-0.008064801576364782
-0.009218007228094384
-0.011511774083129348
-0.014744294909438257
-0.016330103352185526
-0.012333792983680548
0.00043192009071691637
0.021852751023764105
0.04646456216323173
0.06302249023610194
0.05657136570919788
0.01316893373980603
-0.07376901122142386
-0.19782009775940312
-0.13765704366766876
-0.061383576083743355
0.06260421443417585
0.2511411427019815
0.2938437133625878
0.1489628838589261
-0.048530702646439806
-0.16743626137283504
-0.25530571589215073
-0.3168929189404796
-0.10455527829916676
0.07483132628931247
0.1377292590057987
0.19330236663829456
0.31396402457669076
0.11628472750850911
-0.042121064319927896
-0.049405751030485674
-0.21487597745057768
-0.24114092981281673
-0.20159405657432306
0.07070653409143644
0.18118383783717845
0.16208595378898402
0.05714238984046576
0.10859826197071606
-0.04983594258467696
-0.1939685154797817
-0.10657008928431311
0.02522754879743009
0.010070811316308378
0.04977140446377604
0.1357082702085126
0.0468603275456935
-0.04846628999168354
0.013326044787076406
0.00012646749787226938
-0.10628386132919894
-0.10286799725489482
0.03734016537349966
-0.03815857678043196
-0.07061676578841918
-0.003477782844501523
0.20302939956185517
0.15994761228047993
0.04412906074858913
0.0016981899797476746
-0.03984034901890227
-0.15409922047701224
-0.19804788483819105
0.0007999262071534605
0.04879568020919537
-0.018416323019936155
0.052730106316803686
0.11934033691120115
0.028690864989191094
0.009124654519782047
0.06703487789393242
-0.009923757974060997
-0.04478899276237205
-0.06092708245853239
-0.07244470555987034
-0.07832034384380786
-0.062224673100560984
0.0016466737695317209
0.13835819189646448
0.16097999181709272
0.06237983546355324
0.013332318822020123
-0.032041628752442174
-0.12522118475588828
-0.11031488560251129
-0.01334734314489188
-0.03691367467069668
0.03871724738802543
0.04906712879160715
0.035914694712702484
0.03764436163477472
0.08193514233552078
-0.017752866972564795
-0.06170860236544551
-0.06055207789479814
-0.030654420733407912
0.009898838344414108
0.04394175233817108
0.05665934041261663
0.03664382167336874
-0.022731876857911962
-0.12169132163558925
-0.05309360663461609
-0.003282429164788731
0.04483628501542495
0.10741967230022445
0.19602723590637786
-0.08334552924885488
-0.1279478915898458
-0.13417437840727917
-0.09461840695450348
0.0011814996372767964
0.16190292045944804
0.18771664199930363
0.06538178399445743
-0.03172703791962528
-0.1379688488212547
-0.08631876509644894
-0.09956898959040748
0.014730650706173735
0.06408221167703694
0.06639072020871574
0.04322127413023608
0.013611083786455279
-0.009749583938868621
-0.02145393297492313
-0.022018590158543874
-0.015362170303531403
-0.006249948660916774
0.0015363312026731874
0.006026548229568938
0.007011882845123314
0.005460812397953348
0.0027821653053461733
0.00022205896666960444
-0.0014662798036977202
-0.0020772016954939444
-0.0018161247570229232
-0.001084754432399933
-0.0002838500631419122
0.00031134384307785623
0.0005908106087135005
0.0005833812372220935
0.0003967517144420906
0.00015493888117029352
-4.6383056284436604e-05
-0.00015930544543235118
-0.0001810808612367531
-0.0001383932707557315
-6.82280270630108e-05
-2.5555694403689814e-06
3.97958748645333e-05
5.4184631070368164e-05
4.63927177585761e-05
2.699475143108388e-05
6.300730681539841e-06
-8.761121114930415e-06
-1.5562108345951546e-05
-1.5013267914806215e-05
-9.981386610239961e-06
-3.6777143698838313e-06
1.468140386941958e-06
4.276554756651613e-06
4.724827137934999e-06
3.5290263315572747e-06
1.6515679465601145e-06
-8.426678445761463e-08
-1.1927652525116604e-06
-1.5463184183958776e-06
-1.2805516278375534e-06
-6.597740567723407e-07
3.851204765021837e-08
5.923498073784903e-07
8.593015175712642e-07
7.755867771375985e-07
3.5278359093681305e-07
-3.161549993857881e-07
-1.0469066670622737e-06
-1.5700036732335874e-06
-1.5779190217695299e-06
-8.265746536252377e-07
7.215090935228201e-07
2.7595836692862524e-06
4.580206977851161e-06
5.180479367618109e-06
3.575451546393291e-06
-7.115493262081442e-07
-7.120330112939713e-06
-1.3726373818739366e-05
-1.7394282880181115e-05
-1.4617112696367298e-05
-3.0269781413605563e-06
1.6777627994426804e-05
3.980473574811495e-05
5.657808301837943e-05
5.5203432753721556e-05
2.582609822933594e-05
-3.3329008100433734e-05
-0.00011039293596037715
-0.00017778231784152716
-0.0001966715930511292
-0.00012960151733761103
4.0267079379809454e-05
0.00028888568707030414
0.0005394363354910626
0.0006695584681051964
0.0005452140932105793
7.996364476553447e-05
-0.0006948097142631948
-0.001576977867630629
-0.0021941651713532997
-0.002088413482620404
-0.0008921173464288594
0.001438547352149965
0.004414451056181358
0.006945886746152622
0.007532157590106316
0.004764429707928502
-0.0019240540892818802
-0.011486901648853874
-0.02084207985928661
-0.025212813411965462
-0.019516861183205045
-0.0007486297548973225
0.029203981841691228
0.0613733486829037
0.07948385981339316
0.06275768978605488
-0.008087332267865
-0.14294683641828285
-0.13531120032011845
-0.1595175097268326
0.025242435411881613
0.06413018006750046
0.19211808867898622
0.22093842661158258
0.13291970261178443
-0.1151430227752442
-0.17882902440958792
-0.10820820350806509
-0.13167799691553742
-0.04709978342978148
-0.022902953574573927
0.19167994677924305
0.05091182396149343
-0.0036153190230577906
0.04499164244164063
0.18403219069890067
-0.025498949135951698
-0.03827269089434706
-0.10934039441407417
-0.07845295507257209
-0.1587080155194814
-0.13321553497476946
0.038870662842396285
0.20868906288484396
0.2210120938184382
0.1006513043669039
0.04689009833275032
-0.16246023697980766
-0.15982418025649103
-0.1746295495294994
-0.023489598514732653
0.09301165413091077
0.18715237670526522
0.0775262801418853
-0.017123804397495397
-0.0813357574478558
-0.10365046069767983
-0.0763956359928269
0.0035705963612175165
0.1325842239263621
0.09759724811181854
0.0756096006735591
0.037026024884732785
-0.04691894724798817
-0.19480337088790567
-0.20752971810166118
-0.06660939654176853
0.059786558814842225
0.20441201635150957
0.18687275628731176
0.20400776850838598
0.029423004128862687
-0.17687241369173684
-0.2522549274591113
-0.21537580427761838
-0.057033140692083005
0.05805724954906635
0.1793882773173028
0.15366732877340092
0.20952047991240758
-0.05035635776032577
-0.04711280987708715
-0.015175754150059347
-0.18766013992201466
-0.18337151919513495
-0.00021610983902301675
-0.01748097814741125
-0.006227086653691684
0.2560046272529077
0.17179267701921866
0.11730576732188594
0.04609194620838594
-0.09710262386609272
-0.35684533248421474
-0.14892629054919393
-0.05072908741187885
-0.004162670855910433
0.06943439139253996
0.2473284853367203
0.1836035517552822
0.09452719472569333
-0.04460785433197766
-0.09094582385467448
-0.11755809466567882
-0.194946356770324
-0.17644909429303496
0.1087751406981441
0.2550376627418662
0.2749562429321208
-0.005409236554779075
-0.14798865405892442
-0.30142942479531404
-0.2013155332313385
-0.17661220708902192
0.23597389255850015
0.47311511493306535
0.32909029111373755
-0.04873012957553469
-0.14916479333673904
-0.2741329112612804
-0.31166561672085097
-0.11489495053992393
0.10618579789539423
0.17904180601546665
0.1532244457831732
0.08228606627943486
0.009350397265546713
-0.040201459053194444
-0.05882154137704607
-0.05190992216340821
-0.03103996779899395
-0.007934561901047327
0.009299752816876724
0.017386798153330014
0.01712689777428447
0.011644376338443778
0.004554195837912674
-0.001349491919025947
-0.004665512811023297
-0.00531201931656366
-0.004067695836365023
-0.0020129000486213636
-8.228975688554828e-05
0.0011721196586168968
0.0016107748221952523
0.0013963917608000162
0.0008303400995145521
0.00020736335079102095
-0.00027174888993224686
-0.00052317687792197
-0.0005560150525090851
-0.00042825203064606826
-0.00020742412967831173
4.969715594504119e-05
0.00029674818534917963
0.00048568203392625994
0.0005572192750742148
0.0004468717477103578
0.00011208547182068393
-0.0004256415796370531
-0.001042037185892296
-0.0015009282431546302
-0.001499187664539662
-0.0007754236934852676
0.0007353738175094204
0.0027526835340571563
0.004585295252592108
0.005232225142340079
0.003696861817175047
-0.000516884328774596
-0.006866169473626935
-0.013431316133883119
-0.017065573115663157
-0.014250792079668962
-0.0026653144134749225
0.016860513078567202
0.0386783928990872
0.05183416445221271
0.041533762066020496
-0.007210739976975791
-0.10444176978575309
-0.050238211930017394
-0.031838689684287456
-0.0244372713203928
0.004058892141719506
0.08545311237717862
0.04306424940694931
0.08544823721284646
0.004049625625639677
-0.024449498543035644
-0.031850922309022596
-0.05024583898105862
-0.10443937205997375
-0.007194123286170029
0.04156471767858051
0.05187288022506198
0.0387107254790436
0.01686717038402833
-0.0027023310560521027
-0.014338565207606312
-0.017190391502128127
-0.013553296262227357
-0.006923664512091449
-0.000444202033260517
0.0039394381112532965
0.005623773269832769
0.005019346629555688
0.0030400169355031623
0.0006492172808047047
-0.001409442413265153
-0.0026866966477602843
-0.0029780843240838828
-0.002249104011435522
-0.000610982215677321
0.001633237153131511
0.003916702023334631
0.00540022633899623
0.00511977026418439
0.0023322238728276804
-0.0029962190778253083
-0.009733352348943857
-0.015421640283264666
-0.01668869695273778
-0.010374571047259718
0.0047438160876748766
0.026104238294136894
0.04617283632682043
0.05279974406227049
0.03170341395068684
-0.029067777467920036
-0.13386734618036364
-0.07539824140690823
-0.03398154273181745
0.018772645915647503
0.11261893685003199
0.07008228130176443
0.0997489556278508
-0.006077134328895634
-0.06859294560219338
-0.11583493964564676
0.025248536253154534
-0.06475851607059237
0.00546128291291853
0.037593942575522406
0.04064859592370239
0.026763087048225977
0.007400898544533942
-0.009052782767228285
-0.018061516057017078
-0.01848362391333401
-0.011587183158592723
-0.00013684577897963773
0.01217480897637791
0.02105224287361654
0.022014289494352166
0.011223859431622036
-0.01322650404317385
-0.04995604920503434
-0.09359650561105418
0.06453039572909616
0.03418363819496537
0.023099636458134544
0.034291222006670986
0.0649403553969334
-0.09262629525954767
-0.048320050994987075
-0.011182793589757864
0.01295533730284754
0.022364470116364346
0.018970959876700073
0.0072010951164577855
-0.007277756376026994
-0.018642521319926775
-0.0219022990951772
-0.01400961782981426
0.004826620842494545
0.029906840366901874
0.05154595533847693
0.05612840023847646
0.029227765046572343
-0.039493000572337934
-0.1509753992897834
-0.09328587176992537
-0.04215202835053505
0.03359868979676711
0.16297690150918573
0.16338162825227112
0.03460795532768091
-0.041093972818276044
-0.09291203901968326
-0.15192521895165242
-0.041991830561375044
0.025647324414404572
0.05273294245817731
0.05020030834688981
0.03248946080176055
0.012320108836456449
-0.0025035742551494378
-0.009790291551693524
-0.011594373178404435
-0.011716116263317467
-0.013113568418342214
-0.016111992782237378
-0.017990531555554856
-0.014141132715549332
-0.000560115150423742
0.023024110885943663
0.050482042983514636
0.06835148258443204
0.05769461167587622
-0.0009783582268131396
-0.12068219243770653
-0.10107830748258273
-0.12463021176142337
0.041948326175468266
0.040564702842083813
0.11087388764308279
0.07924274402426501
0.15134366371415936
-0.08911296832422472
-0.07523354833319974
-0.047399237083155736
-0.042707584154219054
-0.08670556199810937
0.010496562807749372
0.05330797888775534
0.05605343695109505
0.036782508277355956
0.01170486868664803
-0.0082506605968291
-0.018345003675007722
-0.01892435943727088
-0.013286328532680327
-0.005493215940211241
0.0012067739223556185
0.005104110339460993
0.005997875641013114
0.004703250878400366
0.0024224033058627224
0.00022599444215397164
-0.0012334393108039863
-0.0017720668076358994
-0.0015603312568954683
-0.000939895641540814
-0.00025432282403312854
0.00025870796603968
0.0005026106193288647
0.0005001868475893691
0.00034266931506568007
0.00013614229466761
-3.699104452780378e-05
-0.00013500573845352836
-0.00015492563826869117
-0.00011922004952687304
-5.9451845694104586e-05
-3.095514387487679e-06
3.352864400141291e-05
4.624712818234939e-05
3.987360243641949e-05
2.3407239742811684e-05
5.689375708741671e-06
-7.295479355843263e-06
-1.323656555971436e-05
-1.2868205619983963e-05
-8.622487532612696e-06
-3.247355686852278e-06
1.1662729549103263e-06
3.595217531295666e-06
4.010961262242372e-06
3.023254444539206e-06
1.455574272277347e-06
9.843624119599505e-09
-9.078275100473378e-07
-1.2051753451009184e-06
-1.0173323820935363e-06
-5.812056173616079e-07
-1.2421865019122757e-07
2.0318243534569978e-07
3.462873301202691e-07
3.2816842346471664e-07
2.1404268285405225e-07
7.548190271296721e-08
-3.438207526089427e-08
-9.09903753260052e-08
-9.599986547675333e-08
-6.760397893167654e-08
-2.900194579515263e-08
9.592598231117818e-10
1.3000314050653197e-08
8.293785195742097e-09
-4.079798471109773e-09
-1.1779577665165985e-08
-4.602170605670091e-09
2.0666541981143146e-08
5.724737293965596e-08
8.84944155369443e-08
9.211916829339848e-08
4.857176897539447e-08
-4.79527970857123e-08
-1.7938910908121274e-07
-2.996532898864205e-07
-3.417021717342514e-07
-2.38706196509386e-07
4.2884425570928796e-08
4.6766815480000407e-07
9.089582538807393e-07
1.1584367873040371e-06
9.815547666701353e-07
2.1792359810852447e-07
-1.0966371864801654e-06
-2.633936533523663e-06
-3.765515461002416e-06
-3.6981223524485573e-06
-1.7690071773527755e-06
2.1517226710897066e-06
7.2878210312566735e-06
1.1813521415367483e-05
1.314415014651963e-05
8.769415769016656e-06
-2.4662989121779933e-06
-1.9008137107319633e-05
-3.578379447501646e-05
-4.4661618472016735e-05
-3.668231126046471e-05
-5.993874007151162e-06
4.5460792208818045e-05
0.00010437687713219961
0.00014604952573092124
0.00013993160028984999
6.12963792569182e-05
-9.31988709874836e-05
-0.00029145406962303115
-0.00046117346569655505
-0.000502161019125052
-0.00031949673903251824
0.0001266422814852764
0.0007694192314355426
0.0014064528137687454
0.0017210379251954167
0.0013721365006019498
0.00014874671794614484
-0.0018500477694620833
-0.004083276101596665
-0.005577879131023516
-0.005158523620338064
-0.001914279851319647
0.00418539987928099
0.011732917766774664
0.01767508396831284
0.017734614878706347
0.007578452881897567
-0.015458136016098101
-0.050658141290380786
-0.093045474057735
0.0659359548924224
0.036073450021037436
0.025134571423918808
0.036073450021028824
0.06593595489240713
-0.09304547405775297
-0.05065814129039556
-0.015458136016102464
0.007578452881910124
0.017734614878738442
0.01767508396835968
0.011732917766821924
0.004185399879306058
-0.001914279851341555
-0.005158523620423114
-0.005577879131166338
-0.004083276101760448
-0.0018500477695784032
0.00014874671796202184
0.0013721365008188364
0.0017210379256230603
0.0014064528143187334
0.0007694192319078761
0.00012664228160214804
-0.0003194967395349951
-0.0005021610203587226
-0.00046117346747785135
-0.0002914540713919663
-9.319887186513178e-05
6.129638022039772e-05
0.00013993160368827774
0.0001460495313028065
0.00010437688339315755
4.546079647329494e-05
-5.993874999584746e-06
-3.6682320071990815e-05
-4.466163529859542e-05
-3.578381567638421e-05
-1.9008154774314958e-05
-2.4663022867209902e-06
8.76943664574473e-06
1.3144199062270705e-05
1.181359053827409e-05
7.287888025133506e-06
2.1517532843624677e-06
-1.769049147900211e-06
-3.6982583528541463e-06
-3.7657330455988e-06
-2.6341758265966177e-06
-1.096792860256971e-06
2.1797679777113652e-07
9.819118586141958e-07
1.159098178524281e-06
9.097746233014189e-07
4.68327134645628e-07
4.29699046164165e-08
-2.3956922155623674e-07
-3.436389273667185e-07
-3.02332533674461e-07
-1.8192142334677564e-07
-4.9004928144985284e-08
5.037747494953466e-08
9.755160324329282e-08
9.698144110517489e-08
6.637940526620889e-08
2.6317528806673088e-08
-7.2376466505516566e-09
-2.6212425204285626e-08
-3.0044803776960276e-08
-2.310096556713398e-08
-1.1503861777273104e-08
-5.787274321193781e-10
6.51449172810321e-09
8.971263710589885e-09
7.728291684655239e-09
4.53193812208238e-09
1.096308337405172e-09
-1.4194041196568743e-09
-2.568585801651753e-09
-2.4947657965962795e-09
-1.6701234603267485e-09
-6.275507481801523e-10
2.2781403683975765e-10
6.979994474802666e-10
7.778491376379164e-10
5.858167650599559e-10
2.8163296267629514e-10
1.339063699439709e-12
-1.764328872551494e-10
-2.3389525905520254e-10
-1.9730695326953906e-10
-1.1261151225069575e-10
-2.3885351468186827e-11
3.971686655101045e-11
6.757160807702934e-11
6.40960260679265e-11
