0
7.04516358806206e-16
9.731744828033247e-16
9.0162686577021e-16
3.276675379040419e-16
-7.574610737913168e-16
-2.1156860461686463e-15
-3.2361626225443664e-15
-3.4287027159380347e-15
-2.059815916550916e-15
1.1021856462934935e-15
5.539788595280333e-15
9.806458828672655e-15
1.1700287815693217e-14
8.910691052212116e-15
9.402787113128029e-17
-1.39029834501352e-14
-2.918919187179161e-14
-3.8979561545439374e-14
-3.525926234217134e-14
-1.2019715433945945e-14
3.061577765942007e-14
8.289366692486953e-14
1.246471887087742e-13
1.2919076731537785e-13
7.268743895861586e-14
-5.245042963640626e-14
-2.2439020035668307e-13
-3.8556205355755745e-13
-4.502874905045549e-13
-3.306881312225801e-13
2.1283076239541028e-14
5.670440439554611e-13
1.150115271702575e-12
1.5048045220901458e-12
1.323754404046147e-12
3.85230024569698e-13
-1.287908009421302e-12
-3.297498910966706e-12
-4.8484668448875464e-12
-4.91026718585065e-12
-2.5880845568809357e-12
2.3574041654331457e-12
9.011618975152193e-12
1.508703751219507e-11
1.7253630028925385e-11
1.2174855945978355e-11
-1.8518064221085747e-12
-2.310739052704416e-11
-4.5312642226511045e-11
-5.807561992034171e-11
-4.962590400825514e-11
-1.1815165678746378e-11
5.376481241512722e-11
1.309131334544275e-10
1.883243049213451e-10
1.8624898792744958e-10
9.118213532770973e-11
-1.0400072183152164e-10
-3.6122029919526877e-10
-5.897220741393143e-10
-6.602274495446886e-10
-4.4628406698577155e-10
1.1177569927611934e-10
9.386655055902895e-10
1.782916072669131e-09
2.238541853732104e-09
1.8554321785061144e-09
3.3556251450051326e-10
-2.2318580314191312e-09
-5.189588201759476e-09
-7.306551751149254e-09
-7.051462941658634e-09
-3.1732215385881534e-09
4.519893539098602e-09
1.4450844033264243e-08
2.302438318062217e-08
2.5227428941214215e-08
1.6276647865085437e-08
-5.8908766459664895e-09
-3.8021986682407465e-08
-7.006505170564905e-08
-8.61775534707154e-08
-6.91723608713588e-08
-8.207410566623905e-09
9.218824998622477e-08
2.0542459162390102e-07
2.8314978333209917e-07
2.664476431935031e-07
1.0874074414855585e-07
-1.940935740398624e-07
-5.770494191547832e-07
-8.979040962439014e-07
-9.624890525917232e-07
-5.902287405064184e-07
2.8897861632480304e-07
1.5360911713481111e-06
2.750052402964075e-06
3.313357735201757e-06
2.570739035704987e-06
1.301737133780732e-07
-3.791123435303351e-06
-8.12012741655515e-06
-1.096007078130008e-05
-1.0047079938682563e-05
-3.652773960855414e-06
8.253141076937942e-06
2.300232078494268e-05
3.4976419220337174e-05
3.6663642205986535e-05
2.1261683456143082e-05
-1.3558163428683844e-05
-6.190675991248221e-05
-0.00010780951224571946
-0.0001272250529196778
-9.521110856901026e-05
2.306305558481863e-06
0.0001552884842714853
0.0003205351873255779
0.0004237259292763522
0.00037798238318802814
0.00011939334139570252
-0.0003481593118252481
-0.0009155652218023585
-0.001361177025737044
-0.0013947116648840307
-0.0007604389624605817
0.0006168045381238238
0.002489914697609438
0.004224528426994885
0.004887384162534051
0.0035336091548438895
-0.0003330921395920348
-0.006253829967971309
-0.012484707092461819
-0.01611048175752077
-0.013806951304467073
-0.0032612514563974114
0.01505131242704689
0.03637179065008111
0.051290993523001344
0.04726486469526298
0.01224238317304715
-0.06028325458099957
-0.16652664300736805
-0.09029948555922612
-0.0054340127330990045
0.11704526552084418
0.09907720036959095
0.146772076667997
0.046399721656925956
-0.03284945493441283
-0.1300176794809386
-0.08055981739585592
-0.10577350297654539
-0.007072705067587392
0.03327274898620499
0.04568577245266447
0.06371229663262191
0.11466967442040528
0.013418598996377465
-0.0391756275299062
-0.053292877679103394
-0.04444948955977975
-0.027441580857111063
-0.012017326319617211
-0.0013709568787165958
0.00654795192788903
0.015766712425569134
0.02839549014765267
0.04154720587903953
0.046283279582197676
0.029242909018822604
-0.023239135123077657
-0.11972693450049596
-0.058993835332859484
-0.02816333070162127
-0.0049353586706994785
0.03640568254606981
0.11705917426718344
0.04658753139802893
0.019198027787520645
0.014910661323363484
0.005470471504861415
-0.03666124830034359
-0.12890647405915462
-0.07174996973130883
-0.046986421371114605
-0.022123035792170273
0.039993875267320025
0.16924374799826356
0.17811979378806977
0.05742235941603723
-0.02005483282757143
-0.08868327033871709
-0.17589801853017734
-0.29043607688098344
-0.018013084258366487
0.0732188513140459
0.21920958565883375
0.2440159607208858
0.14809054559869003
-0.09415329663774254
-0.1266531292024598
-0.197438924767924
-0.14386595613725628
0.01702076690853515
0.09016766070702198
0.09700438953304912
0.06611498439119043
0.024100651770379143
-0.010470896683114224
-0.029027001286701763
-0.031520792028577334
-0.02308004242071139
-0.010401455941112405
0.0009557414721280838
0.007898118099308458
0.009857789762180038
0.008039014290712635
0.0043885232000743
0.0007132013398732158
-0.0018337293829219575
-0.0028733081003842905
-0.002635242854101728
-0.001663050807796246
-0.0005294744245970091
0.00035278336988992925
0.0008009508608921717
0.0008347301733338407
0.0005957940624477529
0.0002588165400107839
-3.5112319759578216e-05
-0.0002101457656762013
-0.00025536860818380904
-0.00020435313146722608
-0.00010835136023387656
-1.382007079308918e-05
5.0304450712953956e-05
7.519457997171563e-05
6.749843382104796e-05
4.1582715422776355e-05
1.2217856872596647e-05
-1.0175767140516864e-05
-2.117863433537547e-05
-2.154481055325079e-05
-1.5065095280510953e-05
-6.268592061989009e-06
1.2603788068585319e-06
5.650524765185531e-06
6.693400092172489e-06
5.292047921067554e-06
2.7666115889980572e-06
2.8885454676626764e-07
-1.4228151637689693e-06
-2.1474995142099845e-06
-2.0294280054782427e-06
-1.3812850251973864e-06
-5.174095855190286e-07
3.325257748248112e-07
1.026605748307821e-06
1.4639991096376876e-06
1.5379362092823899e-06
1.1316447682219543e-06
1.7605548995662114e-07
-1.2469091001472118e-06
-2.805941147234789e-06
-3.897635797046902e-06
-3.763807888054085e-06
-1.7721744224912284e-06
2.1891008000654954e-06
7.339198341814094e-06
1.1857735801822437e-05
1.3170045105068417e-05
8.775644609149495e-06
-2.4744558992930344e-06
-1.902285301083248e-05
-3.5798071668323266e-05
-4.467116608627608e-05
-3.6685889099204604e-05
-5.992558877366158e-06
4.546479321788784e-05
0.00010438132998429198
0.00014605287596851436
0.000139933208170534
6.129638330192787e-05
-9.319988301374867e-05
-0.00029145540898244067
-0.0004611745945270001
-0.0005021616627485833
-0.00031949687494956577
0.00012664250919530224
0.000769419618219864
0.0014064531805954856
0.001721038165007447
0.001372136585266488
0.000148746678041421
-0.0018500478757441743
-0.00408327621673771
-0.005577879215866949
-0.005158523659555596
-0.001914279849439816
0.0041853999065775745
0.011732917801640673
0.01767508399709524
0.017734614894663377
0.007578452884762756
-0.01545813602241098
-0.050658141300533366
-0.09304547406715218
0.06593595488640622
0.036073450019048374
0.025134571425097257
0.036073450023843136
0.06593595489537803
-0.09304547405561027
-0.050658141289445874
-0.015458136016204672
0.0075784528811733394
0.017734614877829
0.017675083967623694
0.011732917766424314
0.004185399879245642
-0.0019142798511706698
-0.005158523620160088
-0.005577879130927963
-0.004083276101612945
-0.0018500477695353194
0.00014874671792471943
0.0013721365007414797
0.001721037925543723
0.0014064528142621535
0.0007694192318825831
0.00012664228160366874
-0.00031949673951803975
-0.0005021610203385599
-0.00046117346746337085
-0.00029145407138699903
-9.319887186884825e-05
6.129638021179494e-05
0.00013993160367943886
0.00014604953129736804
0.00010437688339251068
4.546079647615882e-05
-5.993874996745074e-06
-3.6682320073752725e-05
-4.466163530874681e-05
-3.578381569585148e-05
-1.900815479949423e-05
-2.4663023090572656e-06
8.76943663812771e-06
1.3144199080539288e-05
1.1813590587011494e-05
7.287888096382412e-06
2.151753354402789e-06
-1.7690491159097419e-06
-3.698258398287809e-06
-3.765733192430267e-06
-2.6341760626763667e-06
-1.0967931223735011e-06
2.179766223433547e-07
9.81911905281642e-07
1.1590985518043778e-06
9.097753273924904e-07
4.683280131413601e-07
4.297062437697866e-08
-2.395691088011228e-07
-3.4363983092468045e-07
-3.0233459956224564e-07
-1.819243095115591e-07
-4.900768974710863e-08
5.037626977573512e-08
9.755345042346043e-08
9.698720058762149e-08
6.638850808338826e-08
2.632742808690183e-08
-7.23136857369095e-09
-2.621496555112192e-08
-3.006003051274847e-08
-2.312873965669631e-08
-1.1537779917163566e-08
-6.056417416346065e-10
6.5119089500156864e-09
9.008406671483848e-09
7.80991228929684e-09
4.643627023717277e-09
1.2004743457452483e-09
-1.378463866096868e-09
-2.6477470120412694e-09
-2.7247283851244048e-09
-2.0250888188447515e-09
-1.0051422832194733e-09
5.460643787849077e-13
8.203079381066608e-10
1.3923618143576348e-09
1.6753795893442274e-09
1.5850216744583705e-09
1.0003293990130902e-09
-1.508454772715657e-10
-1.7593153633237268e-09
-3.4222336238505366e-09
-4.434189036316092e-09
-3.948892085910403e-09
-1.3242227204713454e-09
3.423395124793529e-09
9.225366263775725e-09
1.3863388485776574e-08
1.438991269529186e-08
8.158801521543262e-09
-5.6904618278418795e-09
-2.47662448239702e-08
-4.2711092214412045e-08
-5.003055730878512e-08
-3.695127687086775e-08
1.9231445643516434e-09
6.241037071153766e-08
1.2724911637476438e-07
1.6701347810228802e-07
1.4755360841449666e-07
4.408374354565057e-08
-1.4116719835983822e-07
-3.6437340923021006e-07
-5.375658959819419e-07
-5.463630223201087e-07
-2.9100921756965e-07
2.559740749903208e-07
9.942944818250947e-07
1.6711523048286601e-06
1.917304843178938e-06
1.3614488839934595e-06
-1.8799016777053044e-07
-2.5441266773675132e-06
-5.014045361901039e-06
-6.44656736335856e-06
-5.533581927644872e-06
-1.3636191415237247e-06
5.898738719987426e-06
1.446939321208178e-05
2.0883950418477124e-05
2.072974472855719e-05
1.0270078106344676e-05
-1.1321911839028109e-05
-3.986680211319689e-05
-6.533279132537177e-05
-7.338269502623793e-05
-4.994069430661302e-05
1.1718927843722383e-05
0.00010339059273084479
0.00019731395360876824
0.0002485032534910697
0.00020691703245507596
3.918237393677041e-05
-0.00024528609341657043
-0.0005740914810358529
-0.0008109699322672714
-0.0007858483217406568
-0.0003589675095264591
0.0004928019325487713
0.001597186100001109
0.0025585996450533484
0.0028245593690022224
0.001868648588080148
-0.0005323399787467483
-0.0040091966006126235
-0.00743573713839461
-0.009045895645672576
-0.006946796098628389
-2.309255703184751e-05
0.010950080432661111
0.022347583570402365
0.027339929029639772
0.01650062345387881
-0.02059367718441223
-0.09321701274577511
-0.007628752018079831
0.03373279880641419
0.03180278154166497
-0.010234950303179216
0.11224478440234115
0.005617442282838358
-0.12046630437790007
-0.051144691854009584
0.034575315152953055
-0.03754777340498163
-0.04100982414180953
0.0454750782326927
0.0315862207358738
0.11056758911884945
0.05796328223764957
0.035247506523923305
-0.0017413087401374472
-0.0914594252949692
-0.25584653124432705
-0.0940162706096022
0.01665150052874812
0.11180667725452556
0.22688469698035904
0.18455346367804235
-0.012175897356628959
-0.17888315077978587
-0.14215612883044834
-0.1296418227698178
0.03790043370235669
0.15031795172304427
0.20823621646229745
0.022094767450382267
-0.18806332352720123
-0.19243014902472588
-0.1534126783197845
-0.03231739781422052
0.1991790982263955
0.3463103492741775
0.18323198317825726
0.055168872610953636
-0.10774591007467821
-0.36880566877736587
-0.36334498437045654
-0.08649044172238712
0.10454663487385289
0.27445931487322545
0.2868919431820642
0.18399352153451337
-0.023824454915202277
-0.15522673146616942
-0.24533957203367912
-0.1298105031647215
-0.03246063103684783
0.03929434166888467
0.09112148146866973
0.13377168744679604
0.17508066832955602
0.015969620863034183
-0.14788501180742689
-0.12004038468855303
-0.0965328156004176
-0.06234576391519954
0.006587695770379099
0.1362272055917244
0.14490024303090293
0.03530615474710789
-0.008690590331908953
-0.019240135068190133
-0.03677050905590514
-0.10005631121042854
-0.03725910385800204
-0.06051341988210588
0.03467992767809358
0.06561564222490265
0.055859592165904894
0.028440889334425394
0.0008368507655551135
-0.01721080362625438
-0.02318900425678
-0.019567688947278547
-0.011015257011116093
-0.0020530840289169094
0.004332139350446821
0.007065039507574279
0.0066148972489997035
0.004279335306840948
0.0014726604889924793
-0.00076015964128826
-0.0019351314755124043
-0.0020750007235752314
-0.0015165414824836437
-0.0006904606370233288
4.729962127648667e-05
0.0004990754520190919
0.0006290159375609147
0.0005148782978914017
0.00028208643282296803
4.710023994334378e-05
-0.00011568382738455086
-0.0001818193489766118
-0.0001662504956923726
-0.00010430795648247905
-3.320344374574371e-05
2.046151138965114e-05
4.550293897075846e-05
4.452261781423757e-05
2.8520985532130827e-05
1.0541298656319237e-05
4.1389425686779716e-07
1.7047886693497524e-06
1.1162777856936058e-05
2.044406320500146e-05
1.9593954191263726e-05
1.508529862575788e-06
-3.373292881118593e-05
-7.613557777996743e-05
-0.00010628503439361535
-0.00010031436711796946
-3.938772943275022e-05
7.824087312797579e-05
0.00022683137836278873
0.00035030448589743
0.0003725741642035108
0.0002235716890141065
-0.0001227395865507585
-0.0006100759260733051
-0.001079915071148847
-0.0012903721582223754
-0.000987048501647304
-2.1080208568809916e-05
0.001516421974927555
0.003200334911766452
0.004287777193678647
0.0039008054136675354
0.0013822869863028128
-0.0032498463899202374
-0.00891704721334322
-0.013394556367774714
-0.013745813082020062
-0.007373304859818073
0.0064561572606122945
0.025053448263570265
0.04140371334200321
0.04464166383063147
0.022321666644572382
-0.03578413441398252
-0.13351021821824124
-0.06555401288731505
-0.017867236537790543
0.028242051205365774
0.0894827429178216
0.17412643550662987
0.078840775992401
-0.009135985136078124
-0.10471979478661919
-0.2154403524307039
-0.13404626120834948
-0.03721803863763917
0.10815306065667404
0.13313409688489328
0.2541277958512782
0.06485327175397786
-0.06352964877494369
-0.17414158723034506
-0.11144115806799523
-0.10883561004232424
0.018715220533222734
0.07524886465749646
0.07856423849874757
0.05216584102782943
0.017666427035350325
-0.010091432692944704
-0.02449550773853445
-0.0258336052387462
-0.018484153610256175
-0.007963416257192083
0.0012468449523132766
0.006727758756752852
0.008121138790356783
0.006482373312258232
0.0034297480536741426
0.00043113599996575893
-0.001599814884343487
-0.002385853083996244
-0.002139317033029055
-0.0013163586005246564
-0.000385278207155514
0.00032391310039375207
0.0006715918742239506
0.0006821335295177081
0.00047608163103061686
0.00019724257710885892
-4.0698435190026426e-05
-0.00017856351768026646
-0.00021011588194228236
-0.00016456084976864665
-8.442207022380011e-05
-7.390104269236377e-06
4.3655516112354136e-05
6.234122045943695e-05
5.4724851597510825e-05
3.284110239871446e-05
8.753726857293417e-06
-9.2169192391672e-06
-1.771357287551979e-05
-1.7566193203559143e-05
-1.1995355635820148e-05
-4.730014524511927e-06
1.3419870367612186e-06
4.765512293826582e-06
5.445701872253578e-06
4.17797620617342e-06
2.0730380313396508e-06
9.473614375167591e-08
-1.1865533434726463e-06
-1.6272774840587681e-06
-1.3987143553633074e-06
-8.17938987331633e-07
-1.9540576121255035e-07
2.594276331081081e-07
4.663222504435263e-07
4.5182139634435173e-07
3.017567729577455e-07
1.1270964933617979e-07
-4.205352666929396e-08
-1.268648356601583e-07
-1.4096856762718355e-07
-1.0593497133554824e-07
-5.0734645125179346e-08
1.3091723198051198e-11
3.2119071136490265e-08
4.241822879796313e-08
3.570782582076423e-08
2.032728781553332e-08
4.256860870779795e-09
-7.238918868177641e-09
-1.2255466176924522e-08
-1.160806509808058e-08
-7.578740229317188e-09
-2.6659866701722637e-09
1.2738253348037005e-09
3.369486170322403e-09
3.6448008221763345e-09
2.682461736147808e-09
1.237092851933689e-09
-6.32050480697029e-11
-8.662450451733459e-10
-1.1042424391873147e-09
-9.105018350306442e-10
-5.039970851083956e-10
-8.962669726051492e-11
2.0050938859668272e-10
3.2156582213587903e-10
2.9789053433083187e-10
1.9002042706064048e-10
6.251362663337064e-11
-3.765821705929547e-11
-8.92980517276895e-11
-9.412719138393663e-11
-6.783154013782513e-11
-3.004167728693076e-11
3.237181333054303e-12
2.328456022607951e-11
2.870858719685709e-11
2.3188502813141904e-11
1.2464957010230816e-11
1.7928532401157877e-12
-5.518867871794049e-12
-8.424363639216685e-12
-7.635861825516636e-12
-4.75589929615662e-12
-1.4506347357206773e-12
1.093067625869762e-12
2.3617064936781418e-12
2.4279670655177234e-12
1.7127737067602276e-12
7.261416342778375e-13
-1.2457772365648686e-13
-6.240155194520158e-13
-7.454377203480709e-13
-5.898073421002936e-13
-3.0740809607861183e-13
-3.287170847678665e-14
1.510560276846833e-13
2.2026832934519985e-13
1.9529117818553248e-13
1.1850665270123107e-13
3.2923350118330066e-14
-3.1462351236345825e-14
-6.225650277845426e-14
-6.210392151931804e-14
-4.2391610664324195e-14
-1.6537090472375916e-14
4.918460877535829e-15
1.6571891185683935e-14
1.8056753185267387e-14
1.246922753174111e-14
4.3086286784976824e-15
-2.325169337439714e-15
-4.902635830380922e-15
-2.941297590977735e-15
2.1049785085762497e-15
7.404504715412152e-15
9.64716430957912e-15
6.187864053390431e-15
-3.733598715147098e-15
-1.8011293865936618e-14
-3.139409758734535e-14
-3.639749532208937e-14
-2.567389826993565e-14
4.4103371958210475e-15
4.997777313289502e-14
9.731015026910262e-14
1.239598841402937e-13
1.0475350614551455e-13
2.258576428976352e-14
-1.18511556859371e-13
-2.8312734428801516e-13
-4.0373302012643825e-13
-3.9532689172534577e-13
-1.8717657449562257e-13
2.3405284125237527e-13
7.844243918671891e-13
1.2676440623713645e-12
1.4065861900642498e-12
9.329481402940539e-13
-2.754073447491127e-13
-2.0494256078653038e-12
-3.843159546855789e-12
-4.784063918079688e-12
-3.9134341897400526e-12
-6.088635089801596e-13
4.913827260642419e-12
1.1220417705946037e-11
1.5657901909466066e-11
1.495451803499315e-11
6.4729876956056795e-12
-1.0121511021404574e-11
-3.135992035400437e-11
-4.947102915037968e-11
-5.3714166151052016e-11
-3.3948834425785406e-11
1.4019504777367413e-11
8.292106755245267e-11
1.5095018296698478e-10
1.8407445105606486e-10
1.457097655131367e-10
1.3268547412149425e-11
-2.025846604840314e-10
-4.438883152904677e-10
-6.064957478976509e-10
-5.645932860449047e-10
-2.2012735523828307e-10
4.327600878022492e-10
1.2513314593260208e-09
1.9283477581505154e-09
2.0479998979040285e-09
1.227809661059267e-09
-6.735317027920719e-10
-3.346541681401887e-09
-5.921811976077525e-09
-7.073470685501503e-09
-5.4076508408386834e-09
-1.0994734414569414e-10
8.316891529284357e-09
1.753621112238858e-08
2.3464540857005702e-08
2.127009784205614e-08
7.319635051572615e-09
-1.8335360080175183e-08
-4.984530552808589e-08
-7.507991291132712e-08
-7.796070098078475e-08
-4.409311458831802e-08
3.116216980711474e-08
1.347406610360789e-07
2.3203663294600135e-07
2.714542648681211e-07
1.999734374103728e-07
-1.1547680700368015e-08
-3.401513014809255e-07
-6.918538057712248e-07
-9.067370125991164e-07
-7.994883488670875e-07
-2.3598661562580723e-07
7.708875474261352e-07
1.9822750546461955e-06
2.9198876473262055e-06
2.962745065417676e-06
1.5703827258444173e-06
-1.4040635545599533e-06
-5.413022297639229e-06
-9.081267693630278e-06
-1.0403259988234134e-05
-7.365658627331511e-06
1.0649944267009978e-06
1.386421378913959e-05
2.7259962646161794e-05
3.499681943039385e-05
2.997733336989324e-05
7.271041357809053e-06
-3.219792116958182e-05
-7.870806439316809e-05
-0.00011342523214598209
-0.0001123951905216947
-5.5376963568098744e-05
6.202654452269029e-05
0.0002170049060470377
0.00035498877764124874
0.00039810766616701963
0.000270039516867507
-6.547979401421069e-05
-0.0005635359027915596
-0.001073051553682369
-0.0013496116331709162
-0.0011217113067856252
-0.00020876424667696177
0.0013372849415882826
0.0031229047954706725
0.004409231183387391
0.004276756114277432
0.001975218499427872
-0.0026061743892674878
-0.008510411761557353
-0.013563008884916196
-0.014740271900978064
-0.00918332298459991
0.0042489768944117485
0.023306151404682375
0.041244518629212225
0.047072022327182515
0.027650556674699768
-0.028491681242509427
-0.1266894659056058
-0.06280303966851103
-0.022836359847336944
0.01363493767353982
0.06701812599722294
0.15055214667514927
0.0653774776466648
8.736907806139908e-05
-0.06476610771824862
-0.14890230858557865
-0.06444867652788785
-0.01116753933695328
0.023488668530055754
0.05987326749619098
0.11930679823715305
0.01765392604920312
-0.03852500455235526
-0.05249777284659391
-0.03525827824329337
-0.002225339053045511
0.0300522077623507
0.046733052990557994
0.03724587320221821
-0.002166068032600789
-0.06617147483023764
-0.13933666611012988
0.0022782483346550863
-0.013926735473732776
0.03495468661670482
0.1586306929071759
0.14728986604322689
-0.02948541688134123
-0.01737152994880415
-0.06677848192143424
-0.22053658573926707
-0.1039521677239337
0.07961735793748861
0.14695511468015038
0.12896701666994614
0.06396876988192529
-0.006875433569575726
-0.24144113693371005
-0.1977839398490377
-0.03739905577252079
0.2679144633628087
0.1271017618135152
0.12285991473221962
0.01076330397359084
-0.0737892866005647
-0.20250779247070497
-0.03916094162781151
-0.02707201536248384
0.01786046784265789
0.10807227680112705
0.08061711890785135
-0.009026600327623707
-0.09410884061393054
-0.10453243334223877
-0.17632792503934247
-0.0631289250898891
0.2517649557015017
0.5467801014495313
0.3625201588007002
-0.38485100471298467
-0.3790785773979312
-0.47676784532711153
-0.2896881097984269
0.014961310555981927
0.6960747449820369
0.41061905992667386
0.18926821872788982
-0.1735751178513335
-0.31257152982729625
-0.27273715915548236
-0.08924878827979857
0.025505399858220555
0.08384110509008323
0.11521620307625266
0.15405592763590395
0.028368127766878047
-0.04709410304473788
-0.07203103103997213
-0.05746656668529374
-0.020768457560304605
0.018974044568175995
0.044143037938131104
0.04043021204399486
-0.002055927996863711
-0.0879681954896392
-0.016300767573062886
0.019149533112131155
0.028174324860594176
0.021739211629622657
0.009567063076012837
-0.0015087474795240873
-0.008064766128523528
-0.009601776031034034
-0.007473653006705037
-0.0037134410223538653
-0.00012058956468572841
0.0022240935981062654
0.0030330330889707094
0.0026089255884590478
0.0015317502769799098
0.00037456416372115103
-0.0004737023726363951
-0.0008625561936172497
-0.0008396750416163601
-0.0005634590420626983
-0.00021307127892366366
7.501165159103051e-05
0.00023386267876858744
0.0002614263289136358
0.00019733493959976506
9.524144165018904e-05
9.413060790971002e-07
-5.902075418915233e-05
-7.85572832005965e-05
-6.642269297977257e-05
-3.803232092089102e-05
-8.209107118202563e-06
1.3221071287246521e-05
2.265815645997078e-05
2.1564006362829716e-05
1.4147506863202096e-05
5.043256792520963e-06
-2.289966738330229e-06
-6.215910258950459e-06
-6.7617278904363526e-06
-4.998609460351357e-06
-2.3243228454182637e-06
9.258478325196383e-08
1.5929856481519218e-06
2.0456141038229933e-06
1.6941352954075449e-06
9.43466647259735e-07
1.7429263347459002e-07
-3.667424724866778e-07
-5.947167706154676e-07
-5.535171815614882e-07
-3.548479081302658e-07
-1.184915745147223e-07
6.800892486483226e-08
1.6480811814659507e-07
1.746653717852496e-07
1.2643734578215678e-07
5.649523171050684e-08
-5.3765031996720655e-09
-4.2848620006655515e-08
-5.3197395520257615e-08
-4.3157170134667567e-08
-2.334682984886133e-08
-3.5319253881335358e-09
1.0107077243490608e-08
1.5585360270465477e-08
1.4191771834898127e-08
8.88463996255645e-09
2.756155659090428e-09
-1.981013348648902e-09
-4.360673746969957e-09
-4.506608519635372e-09
-3.1936722670967116e-09
-1.3670585467807417e-09
2.1499433761229738e-10
1.148979857265123e-09
1.3816676128523443e-09
1.098059099823566e-09
5.762062316517174e-10
6.633390609086672e-11
-2.769666755769126e-10
-4.078209298278566e-10
-3.6344838397357935e-10
-2.2203948724774663e-10
-6.332686521307077e-11
5.684368713265515e-11
1.1515465152109229e-10
1.1614148820127552e-10
8.054919078891926e-11
3.2910510606815984e-11
-7.494943197198438e-12
-3.0723298942972e-11
-3.583872508629612e-11
-2.7897372273666893e-11
-1.4170687084426516e-11
-1.0649140045871859e-12
7.558606920129196e-12
1.0653315127877322e-11
9.281238053761683e-12
5.5092554572186466e-12
1.3974453052323483e-12
-1.6397458667156232e-12
-3.0382359407814346e-12
-2.9512119657593402e-12
-1.9436134137658614e-12
-6.713584086598524e-13
3.517738260117919e-13
8.625184195402551e-13
8.466110873554368e-13
4.687372794684248e-13
-2.2430456028774287e-14
-3.832467160775637e-13
-4.437238085940562e-13
-1.526272354153686e-13
4.015141462097572e-13
9.980368744624003e-13
1.3295028594066624e-12
1.0918714181624813e-12
1.1339397562674458e-13
-1.5072835046589514e-12
-3.3091011926238394e-12
-4.492235460971389e-12
-4.11428253378986e-12
-1.465849712769538e-12
3.451775984143395e-12
9.520395657026397e-12
1.441057639230316e-11
1.5026865569155442e-11
8.58718053482152e-12
-5.826368914872971e-12
-2.573496467614546e-11
-4.451425923401125e-11
-5.225308571002203e-11
-3.872977968157801e-11
1.7312226311652956e-12
6.48242646956131e-11
1.325913781127201e-10
1.7434823897158334e-10
1.5441915317627626e-10
4.682138893411696e-11
-1.4630414354356568e-10
-3.794242816780973e-10
-5.608670569069207e-10
-5.71218944196665e-10
-3.060719528143988e-10
2.6381256608544945e-10
1.0344640053133121e-09
1.742622383953999e-09
2.0030212447403873e-09
1.4274377297345025e-09
-1.8570002837734869e-10
-2.6436365628493574e-09
-5.225402730034786e-09
-6.730531031516556e-09
-5.792352458072164e-09
-1.4550477033999052e-09
6.116837533366889e-09
1.5069189135680644e-08
2.1791388370705204e-08
2.167616175687457e-08
1.081164121064238e-08
-1.1687160274925802e-08
-4.148531509607255e-08
-6.813451318498629e-08
-7.667378549619237e-08
-5.238325869875562e-08
1.182167998658743e-08
1.0746721289916099e-07
2.0566655051056718e-07
2.5950755319309285e-07
2.1670942807272016e-07
4.2271536489471224e-08
-2.5424770781670566e-07
-5.975779464324144e-07
-8.45690249588442e-07
-8.210428518100918e-07
-3.774642624150814e-07
5.096024441045399e-07
1.660408657685272e-06
2.660898400530006e-06
2.9307634991772465e-06
1.912932240424462e-06
-6.384082380302434e-07
-4.356006536922255e-06
-8.084693742593292e-06
-9.99334019184247e-06
-8.084921281852807e-06
-1.084397244606788e-06
1.051386181850066e-05
2.3662691147328545e-05
3.278211053122417e-05
3.103911877388428e-05
1.2987832551383243e-05
-2.1941554734265446e-05
-6.633173934697494e-05
-0.00010379774069251814
-0.00011185664763484062
-6.946828356653911e-05
3.175819191183819e-05
0.0001760866595910464
0.00031740435170489397
0.0003843143700929287
0.0003006439832722118
2.0209730617698522e-05
-0.0004330177348032739
-0.0009360066382852396
-0.0012697897736597926
-0.0011716635209584815
-0.0004391960201967925
0.000935183542166103
0.0026476646238086927
0.004052627275146152
0.004283425590401996
0.0025527897571757693
-0.0014108786590050742
-0.006927788324512972
-0.012148068294096573
-0.014287639031322881
-0.010474973488666502
0.0008358519354576346
0.01821881967530862
0.03601066566801107
0.0441702615741048
0.029834972278288636
-0.019397210061127358
-0.11123951021806408
-0.045043386603681734
-0.010324182723909822
0.011579903335172155
0.04306335262283859
0.10454480805359627
0.0094861525691788
-0.038296293749658795
-0.04454114394425055
-0.02230340880325081
0.01127274376425331
0.038241363884654114
0.04285776416982127
0.014311554216644677
-0.0509700680755347
-0.1481717212292488
-0.06523202921810807
0.012950458069384316
0.09786449058190684
0.1907370804540189
0.27943978360659094
-0.05820739586533188
-0.24466340260546485
-0.2901172654023631
-0.18339035456976835
-0.0918124479913201
0.22848344745549992
0.4158448369008209
0.2878413895481305
0.03535114473853721
-0.17042163833087143
-0.36098894374203744
-0.35200096291118305
-0.13253117717976554
0.13193592950014146
0.28358232056576976
0.35039856015785514
0.12814364060672737
-0.026061242800898228
-0.18605112169249202
-0.23828355142373542
-0.05986867507089106
0.1000093967533981
0.030984958906088593
-0.036249660318503164
-0.035251444753221055
-0.07505656231316665
-0.055749013233618215
0.11360418882095692
0.09757355902235171
0.1213270695350846
0.1656039991161604
-0.02818407083717757
-0.14335200349944588
-0.06743388222969252
-0.07132297351168548
-0.19372534401976457
-0.03494564045638028
0.03867839354443225
0.08139213167528
0.14996079810049465
0.0864690108273246
0.1069982393931248
-0.0009068202903174778
-0.07198178024694797
-0.15095806118413183
-0.0787351898120636
-0.08157688154951655
0.03365851959812271
0.07773056012502788
0.07248643745103742
0.042674251682953725
0.009057234447726286
-0.015402663952977036
-0.026030562859863736
-0.0244820989324894
-0.015718027714587045
-0.005160168711528252
0.00320141765211304
0.007536554005852977
0.007952903371481409
0.005748343124574049
0.002566510402029176
-0.00024476232850319826
-0.0019464735079179091
-0.002416126811152931
-0.0019599787034282512
-0.0010603200221464962
-0.00016055229682137822
0.00045874341266779263
0.0007074845385375156
0.0006442132319301175
0.0004032623527310914
0.00012503790085353659
-8.999042535574795e-05
-0.00019795304118047101
-0.00020448083569074858
-0.0001447819685904839
-6.18131817490559e-05
9.954239686645021e-06
5.217338586997309e-05
6.244474126434774e-05
4.9247476382621364e-05
2.534579109323197e-05
2.267275040694255e-06
-1.284232192398081e-05
-1.7899070336607648e-05
-1.4791513693190547e-05
-7.486558978367721e-06
-1.607037491387446e-07
4.147676753564549e-06
4.209661139662558e-06
6.705738612570763e-07
-4.34123278648969e-06
-7.92938050586549e-06
-7.372416513376214e-06
-1.1820792692800123e-06
9.930843885863586e-06
2.2525641202624452e-05
3.075901173340976e-05
2.7905747109318473e-05
9.071275794779596e-06
-2.547484536872257e-05
-6.756400459394414e-05
-0.00010065124559466716
-0.00010313324154075848
-5.604160744961112e-05
4.6118886605735675e-05
0.0001848826030489724
0.0003130442524096465
0.0003612527614522432
0.0002593312468772318
-2.96303523272652e-05
-0.00047179070519590464
-0.0009381779170771169
-0.0012130293782368629
-0.0010497200506995373
-0.00027431676994462973
0.0010866719329427873
0.002703334813788003
0.003929426309458234
0.003938246239026659
0.0020269055859420074
-0.0019631700719202707
-0.007249595267681702
-0.011946946594940373
-0.013359066891045372
-0.008854171464470454
0.0027521033729082777
0.019657768008010883
0.0359859303484711
0.04184334573351155
0.025013073608275434
-0.025793814153987828
-0.11698924036492646
-0.04697000942444965
-0.005318680392045832
0.024974414528032673
0.06296214431206411
0.1247126992871036
0.019934307468148567
-0.048398917759100324
-0.0815916686158798
-0.08159166858553929
-0.04839891767470472
0.019934307585978167
0.1247126994029782
0.06296214437865102
0.024974414496244865
-0.005318680554248497
-0.046970009708224625
-0.11698924070085236
-0.025793814409516926
0.025013073602041594
0.041843346121191054
0.0359859311658218
0.019657769101204627
0.0027521043639112653
-0.008854171122295208
-0.013359067741907099
-0.011946948911318154
-0.007249598758405441
-0.0019631736984248413
0.0020269035317634905
0.003938247681818855
0.003929432567698612
0.0027033455982229987
0.0010866845559493572
-0.000274307461979432
-0.001049720568969317
-0.0012130451706995901
-0.0009382100664851857
-0.0004718328617963839
-2.9667549070393646e-05
0.0002593202200604214
0.00036128852859086544
0.00031313634744240643
0.00018501833429279216
4.625669100951679e-05
-5.596843910692498e-05
-0.0001031982847346755
-0.00010090266809176571
-6.798608106627341e-05
-2.595862159304635e-05
8.728401225271554e-06
2.795453279947321e-05
3.140274694621653e-05
2.3792408479518583e-05
1.155798404035112e-05
2.127206361339792e-07
-7.0321974850317115e-06
-9.423519991433026e-06
-7.99810977112882e-06
-4.602183951953859e-06
-1.0183723295745983e-06
1.5667985690352963e-06
2.7139689043619664e-06
2.5935437098954433e-06
1.708613292410331e-06
6.158945191802709e-07
-2.675625752489912e-07
-7.431273564410345e-07
-8.123096861607171e-07
-6.027852683595546e-07
-2.822473066980431e-07
8.581364859922707e-09
1.899240602782312e-07
2.454434796531755e-07
2.0403726816532694e-07
1.1421395688183975e-07
2.1764454872248415e-08
-4.351864045629865e-08
-7.125557158035699e-08
-6.658650949974801e-08
-4.2868850371324993e-08
-1.4494172586228263e-08
7.979237388116576e-09
1.9710907089231533e-08
2.0987628864181612e-08
1.5250985278930164e-08
6.865544324627356e-09
-5.811003178994103e-10
-5.111679453509258e-09
-6.384401340964146e-09
-5.1988836024615274e-09
-2.827616788450446e-09
-4.455016685705054e-10
1.2006736855305319e-09
1.8678721747793222e-09
1.7075846138182827e-09
1.0736962550487355e-09
3.3780476614691626e-10
-2.331584302163929e-10
-5.217242924119524e-10
-5.416242518104422e-10
-3.853235601365906e-10
-1.6627240096900828e-10
2.4177706233122853e-11
1.3714364469981267e-10
1.658566991007852e-10
1.323062267469833e-10
6.98210938173012e-11
8.512327885109212e-12
-3.293447686294873e-11
-4.8889683342749754e-11
-4.3740128635868844e-11
-2.6842534548144368e-11
-7.78059859838442e-12
6.706805290521911e-12
1.3782185241329628e-11
1.3961407090368271e-11
9.721276172090273e-12
4.0070296456286214e-12
-8.580999328699521e-13
-3.668889255959889e-12
-4.303342062835145e-12
-3.362903498362066e-12
-1.7192224679356625e-12
-1.4311423149956023e-13
8.987669303307468e-13
1.2777358604946171e-12
1.1190811422130071e-12
6.697227493753492e-13
1.7654628529879796e-13
-1.905690571317566e-13
-3.6344157512674904e-13
-3.5949893851352054e-13
-2.4490428616625083e-13
-9.602832582698746e-14
2.811181727254192e-14
9.788143554506634e-14
1.1147937026822093e-13
8.528161827174803e-14
4.206571229419497e-14
1.5643011707280559e-15
-2.4565041998633973e-14
