0
-2.6824590045038083e-16
-1.1455977600280534e-15
-1.9796118773965195e-15
-2.334116124756637e-15
-1.7560818713482672e-15
1.0899177913281765e-17
2.786127702400158e-15
5.787137919693145e-15
7.666027266971255e-15
6.845530642949791e-15
2.1631966510979105e-15
-6.314964153514978e-15
-1.661397309193115e-14
-2.4715165059150647e-14
-2.5350441955794775e-14
-1.387327908256836e-14
1.1090601212431843e-14
4.506664651823252e-14
7.654177416884931e-14
8.855284987672505e-14
6.388305468633448e-14
-6.600595141839138e-15
-1.1475423656591577e-13
-2.2914258849685326e-13
-2.9701177789012047e-13
-2.579134510596542e-13
-6.902872363332902e-14
2.634971920675302e-13
6.59163181783227e-13
9.596261949108826e-13
9.615537514362794e-13
4.907166837956187e-13
-4.952550472164458e-13
-1.8094564895993598e-12
-2.9947396008401307e-12
-3.3921467796094737e-12
-2.3485208177980614e-12
4.582404373157515e-13
4.668291578679869e-12
9.021354600769787e-12
1.1455168185512451e-11
9.656312192026805e-12
2.054523459089145e-12
-1.0972098165480588e-11
-2.6152534132365937e-11
-3.725572585820849e-11
-3.644325648374104e-11
-1.719930689250146e-11
2.1690551575642924e-11
7.246377291632308e-11
1.1699584814793677e-10
1.2971799356644761e-10
8.589703175528814e-11
-2.5690630041667982e-11
-1.8938642447505185e-10
-3.547632163129581e-10
-4.4129597148269246e-10
-3.6057622756514823e-10
-5.5305630575300037e-11
4.544091068599451e-10
1.0360368649697511e-09
1.4446812896467066e-09
1.3785499735411693e-09
5.946590948789356e-10
-9.372853420919215e-10
-2.896506299208864e-09
-4.565468043141916e-09
-4.9531999614735954e-09
-3.1249551020492833e-09
1.3044953117473132e-09
7.662056644383788e-09
1.3933740603640798e-08
1.697889962449091e-08
1.3424048025485457e-08
1.1902315919235824e-09
-1.8731039207339094e-08
-4.098423101805524e-08
-5.5956079193904255e-08
-5.2041862934264145e-08
-2.020852312452978e-08
4.0061007165771583e-08
1.1557003673465617e-07
1.7795179910128324e-07
1.8884393699602284e-07
1.129924297628425e-07
-6.257039930499405e-08
-3.09199487618852e-07
-5.466005254744896e-07
-6.524216508277609e-07
-4.981391995287965e-07
-8.814235389550465e-09
7.688739209377954e-07
1.619041116984692e-06
2.1647783360846933e-06
1.9604355983065582e-06
6.713471140119279e-07
-1.6968205706753782e-06
-4.603321713622724e-06
-6.928244305275108e-06
-7.188257312242902e-06
-4.056683885300985e-06
2.8917609523148796e-06
1.2448186434244826e-05
2.1416763843704304e-05
2.5036410114435998e-05
1.841861615860893e-05
-1.117366628150625e-06
-3.144195065817308e-05
-6.387264487366812e-05
-8.364944370530644e-05
-7.368126850106601e-05
-2.1615778038601694e-05
7.132257726801153e-05
0.0001830554348580506
0.00026942659337246127
0.0002731478452112933
0.00014440867437907098
-0.00013023694929493453
-0.0005001381128691956
-0.0008383051151547778
-0.0009596803962593752
-0.0006786239163628302
9.99649886041652e-05
0.0012812897822233448
0.0025172785785191453
0.003231352436810526
0.002770367090537184
0.0006827469802674398
-0.0029409551273111793
-0.007196752426868888
-0.010339546463006515
-0.010155533104145506
-0.004786767558032529
0.0061287944356594355
0.02036632062802005
0.0326125315462716
0.035099382814038
0.01965290765356401
-0.019120695890491115
-0.08051374430378269
-0.15584178492371234
-0.029573511037738285
0.1159646365377792
0.09352567210788144
0.1043918967789953
0.13559346919068338
-0.037170248990585346
-0.24145569844966278
-0.09787046047545597
-0.011907913229160638
0.028947674729823965
0.052072737763703636
0.09217109974577169
-0.017813385374857615
-0.0547496058538776
-0.010757744224989697
0.10461763374563779
0.06576263789135778
0.03600512814288549
-0.024141325012721985
-0.14710238041037726
-0.1495458824053695
-0.027957224640510068
0.03961292513421691
0.08605961777689396
0.14474136845626456
0.0398436080986596
-0.019193176333254815
-0.03784313529678863
-0.03204267194082464
-0.021285041240071547
-0.02173660551085718
-0.04135626554350194
-0.07817402176349181
0.0780321886901897
0.04138768786494652
0.024476245242181897
0.03372812600465269
0.06718832128019236
-0.08471857468871298
-0.035879407000475615
9.557318728330498e-05
0.014232256740874388
0.005173164375078393
-0.019793462061092088
-0.04584745493068887
-0.05392355014122026
-0.025945563489363613
0.04883498427209556
0.16813886575215523
0.11401999590601211
0.055443835954458266
-0.043384501694908845
-0.21097930262652395
-0.2571490294116316
0.03286626090806215
-0.10448779155647188
0.17767520702617204
0.3211620504746122
0.1490353408359347
-0.1407584424958202
0.027701855776408355
-0.1811825701957435
-0.20161919065292666
-0.05656411772475692
0.04552037668150765
0.10694973835006952
0.1329523532395665
0.12414445615653066
0.07336969384079153
-0.03132446893428419
-0.19884150148857166
-0.22618009672108114
-0.09335647583855498
0.034550040776474666
0.19827403530100565
0.23188350306311514
0.15258129287176722
-0.042567094030809924
-0.17180540208421735
-0.2586897902881019
-0.12234116958072533
0.0271493935805848
0.18643760318226668
0.15200536214055174
0.11332476733975036
0.050574961793835534
-0.06122025020513175
-0.24319881928672804
-0.1029632480171269
-0.02889991594644375
0.008454687339997463
0.048006128217459906
0.1255020175886871
0.06109919061493811
0.05135481178808879
0.0685097997165075
0.06783959667934081
0.001607977821603792
-0.16389110589907122
-0.23330053134770473
-0.17478173999223176
-0.12445916303979869
-0.003516710543329731
0.2559721073944471
0.4846651783634984
0.2591012386910813
0.10247493392674523
-0.09479408193634405
-0.44037714747651846
-0.6032834823300055
-0.18890284873062652
0.06432952903395563
0.26539096558608755
0.536262626517424
0.37616693611597707
-0.16279869396519628
-0.28216770268652586
-0.22749806703990144
-0.07001852958538504
0.1125795723107248
0.2517066749189164
0.09919738880873656
-0.16465604596265726
-0.3266979919066622
-0.3426874462917348
0.05189257190712267
0.32228282761041466
0.5116381661336717
0.22412279724870032
0.022046330090515254
-0.3607659803069613
-0.3948939545350786
-0.3311624555446139
0.013324635860371945
0.2541915424149735
0.42660633764470646
0.16808307538082037
-0.09404222794212616
-0.14592900296420225
-0.18263078563250626
-0.20078033071420828
0.005993163774576402
0.24628436854246274
0.12596516188092924
0.04283422232719858
-0.015429411555673286
-0.06858784135683499
-0.13778621154302853
-0.03905909529086571
0.020799732046124935
0.04467237740026859
0.04234547412007101
0.026222419262718056
0.007364394816217094
-0.006938725815012252
-0.013761320345728533
-0.013698067570674054
-0.009312184075120907
-0.003581585219800556
0.0011933845246110877
0.003860985408112036
0.004354715476473874
0.003314016455859525
0.001624275893652419
4.944545288711227e-05
-0.0009621998208468965
-0.0013022723226923404
-0.0011114395535003461
-0.0006441913400428107
-0.00014772656301180253
0.00021243356391263034
0.00037405630638690754
0.0003596686284226544
0.0002384047932968907
8.733277232172457e-05
-3.549021049135565e-05
-0.00010213877566692036
-0.00011246053695715337
-8.392342935609983e-05
-3.969737353753669e-05
6.64874360242913e-07
2.599635153523619e-05
3.3918264551613e-05
2.8354206455254036e-05
1.599205861765515e-05
3.1833227646531497e-06
-5.913900201181294e-06
-9.825961265828718e-06
-9.237289907877413e-06
-5.984393417788249e-06
-2.0600740250197025e-06
1.065378362089885e-06
2.710761293978497e-06
2.9065747513085515e-06
2.124129778414861e-06
9.66688942160084e-07
-6.710691098539975e-08
-7.003040170275692e-07
-8.825798359130691e-07
-7.22702038669635e-07
-3.9618432624437484e-07
-6.60435790984463e-08
1.634433427935505e-07
2.5768283878007106e-07
2.3695977245944514e-07
1.49957407382291e-07
4.814710233053729e-08
-3.128572099939995e-08
-7.179026441175611e-08
-7.503301686383696e-08
-5.368760278119807e-08
-2.3440337739899957e-08
3.0075998442793746e-09
1.880438910058508e-08
2.2935899117924127e-08
1.839797636666525e-08
9.789576513422088e-09
1.2899590771601076e-09
-4.4903549015386385e-09
-6.747474056120338e-09
-6.071337662838652e-09
-3.749922930673335e-09
-1.1113440250214325e-09
9.049535296537164e-10
1.8983713711193975e-09
1.934250738762609e-09
1.3525630316845914e-09
5.613118505838009e-10
-1.1540067311097967e-10
-5.074776970175842e-10
-5.954428899778282e-10
-4.617084074275319e-10
-2.2831233953636702e-10
-5.287767659413075e-12
1.3855220372906972e-10
1.820426907754911e-10
1.4208114699601703e-10
5.694963162391419e-11
-3.018701249465796e-11
-8.37296023028473e-11
-8.331003181829131e-11
-2.7610411790357537e-11
6.479295623894855e-11
1.5785743583288344e-10
2.0519240928031283e-10
1.631965983272861e-10
9.572967005575723e-12
-2.370295256628805e-10
-5.044384509085121e-10
-6.717498102475178e-10
-5.997460009070458e-10
-1.8752812576459018e-10
5.567398654186715e-10
1.4573130604114698e-09
2.160440021972018e-09
2.2052035280529368e-09
1.1880893055154573e-09
-1.0052247075253863e-09
-3.975946533754503e-09
-6.710991463483072e-09
-7.725674744767949e-09
-5.521560702171161e-09
6.831811836771907e-10
1.0152630347224606e-08
2.0114889906579783e-08
2.5946390241158232e-08
2.237567712920183e-08
5.705194197872812e-09
-2.345298520883163e-08
-5.797737544982903e-08
-8.396841891589549e-08
-8.366423666663363e-08
-4.195218940609754e-08
4.464564399278553e-08
1.595053386062541e-07
2.624259689617838e-07
2.9575654494902414e-07
2.0267892334477885e-07
-4.430775491587428e-08
-4.1281747560837984e-07
-7.917775810810843e-07
-1.0004952609174542e-06
-8.372966113861289e-07
-1.6673718310683001e-07
9.752068636153627e-07
2.299370637448259e-06
3.2589477242704946e-06
3.1694233586480957e-06
1.4659857504548529e-06
-1.9486448945891617e-06
-6.384904968876405e-06
-1.0249508690147833e-05
-1.1306100072450657e-05
-7.404111947191161e-06
2.411601465260939e-06
1.6736193333876117e-05
3.1127348664612436e-05
3.853150221144355e-05
3.124431864778014e-05
4.329804166264076e-06
-4.034032535643765e-05
-9.105769714772818e-05
-0.0001263379928625073
-0.00011983480051897465
-5.0502000314274884e-05
8.395693117500595e-05
0.0002550726776006484
0.00039978023176487235
0.000431414341822888
0.00026871699162041307
-0.00012098171411521814
-0.000677457120380988
-0.001223326181769332
-0.0014833886543673769
-0.001163296085654325
-8.311559179953809e-05
0.0016683362302245376
0.003622640148607259
0.004944592029090278
0.0046344602842273465
0.0019299496707696003
-0.0031753809601814545
-0.00948889181857105
-0.014522563753879197
-0.015014001720173052
-0.008209946308417048
0.006195810279682645
0.023902929480119035
0.03433132777521079
0.020215452412005775
-0.040982416325055775
0.026234367325416032
0.0001702605912068024
0.06743397977462784
0.028232223552997017
-0.09976688960431668
-0.2807273086894391
-0.0650250245263302
0.00035479015750236766
0.15706517620156635
0.42116365935939226
0.3760866091586813
-0.021886347127924862
-0.4254100024668967
-0.47154099581534076
-0.36193591387888974
-0.057901580491100654
0.3062449948334273
0.5971001076930165
0.45554333634557187
0.08213380685381352
-0.35914260245878554
-0.5221863732092082
-0.4563933267323133
-0.19326001088009295
0.25103063417250343
0.6598018013167067
0.5980655719983682
0.2062651680197722
-0.18639351634874854
-0.6318986626849628
-0.7300380114108063
-0.40921717035809746
0.06569760913065609
0.457478094064072
0.7047292572283698
0.6744982175040886
0.13875875327571488
-0.21533430840491188
-0.5454613901137566
-0.6004388053417871
-0.47357945968739246
0.02026576008684289
0.3381280684954275
0.5793036233857491
0.447641171826338
0.02163738790424816
-0.25810318402590915
-0.38428669113251174
-0.3693550917408196
-0.033198262880611756
0.4014267817102653
0.3061424808332306
0.042466973220148224
-0.038242402020620826
-0.18803787538475228
-0.2513105465565862
-0.05452825327843068
0.19887912307415967
0.12727186186417613
-0.03491329422043528
-0.04432294828776921
-0.05527052049875622
-0.025293282880181116
0.0800947789499159
0.08360923824539601
-0.005910195095323551
0.006746903807334299
-0.09441200124735585
-0.13315639712172517
0.06184218959433478
0.05844961307888371
0.021540656647019978
0.11408792987574526
0.10055690144736465
-0.04672728240431933
-0.13932019697209383
-0.16535291377546257
-0.08685230645681452
-0.04444057397446187
0.030395843340714688
0.19843717834991256
0.2966237597732539
0.12857223632587442
-0.1344197985985886
-0.14205022859473246
-0.1478172491378959
-0.192696377988776
-0.09568595086126601
0.14596179435903467
0.14809331501670817
0.12716993754460124
0.08970405824323305
0.02803783594144763
-0.07608874517751807
-0.04189902901740576
-0.07778072482725526
-0.17193926840006468
-0.08936215011206758
0.022963438303480087
0.02331199466218326
0.15844552123114944
0.24815484289647974
0.07660061454062586
-0.005973674880905382
-0.07107205813941318
-0.19300559075533016
-0.22932727002074274
-0.006898581313540857
0.08241990652586188
0.07607601691098476
0.028016318242354763
-0.006822784205570084
0.01340267601315662
0.10775758249369038
0.06906670980189779
0.06748299489403353
0.060571962657579775
-0.1923961581242541
-0.3160982897836521
-0.10978494853089177
0.05328333927476749
0.21719006019949455
0.22924245872579285
0.1264968885018913
-0.0717918623316679
-0.16400131819333258
-0.16044483772279802
-0.07659127152998019
0.07084662322236811
0.06353739027212557
0.07829720030245203
0.0840309329000958
0.0417253418168426
-0.09109461055446735
0.04804646267649712
0.03685215696198846
-0.12253918397286445
-0.19854808386579223
-0.13211548623947164
-0.04710956024787775
0.13194353341184079
0.2592601737090623
0.35126755365543155
0.1810214426806845
-0.11288362099868784
-0.4051320381030433
-0.35812643309699466
-0.20241148456135105
0.06903777602943735
0.2911711437084351
0.3073118802177467
0.14908214539409775
0.02441295159290752
-0.08232599077514169
-0.19974890817149077
-0.15425772039736088
-0.15723148756147656
0.00016217043123366645
0.1429379102513816
0.10136310143986756
0.09804790323523241
0.13835114053348943
0.007694441462118985
-0.12347944549815343
-0.08925919991548584
-0.11638404044030057
-0.015186972424086672
0.023847101759821056
0.027411773337538758
0.03213050039037629
0.0753328407221544
-0.013509073717583812
-0.018742918544237673
0.0590542196941775
0.004274852387787093
-0.00948209952244412
-0.013162533116343935
-0.035416550170079865
-0.09680588245516149
-0.006519851875881964
0.03763373258529035
0.04627024407132095
0.03381709886665243
0.013973929303071394
-0.003393131705691846
-0.013379950766894914
-0.015451110920910505
-0.011847603649241513
-0.005794927199625096
-0.0001045615803132571
0.0035615979871811885
0.00478949575296206
0.004082849040778494
0.0023674131078041238
0.0005458958335385414
-0.0007760728676150207
-0.00137032486307347
-0.0013190461782336457
-0.0008753681093492424
-0.0003217526345876295
0.00012881301491564904
0.0003736977240281648
0.00041209445271356423
0.00030787543799320674
0.00014592221013527945
-2.057148243287834e-06
-9.504921876523564e-05
-0.00012425057928979228
-0.00010398300550238378
-5.8734338596665466e-05
-1.1788822519469563e-05
2.159154251294676e-05
3.5979847290100205e-05
3.3864484189484635e-05
2.1966222514026355e-05
7.588113861142333e-06
-3.875635470116732e-06
-9.92067109285198e-06
-1.0652082056849978e-05
-7.793284594649626e-06
-3.554268744475141e-06
2.362321085965103e-07
2.560965818797526e-06
3.233340879412477e-06
2.650540941781514e-06
1.4552749049381782e-06
2.451920808972251e-07
-5.969313793391271e-07
-9.436372201242743e-07
-8.687614385786876e-07
-5.504827772073131e-07
-1.7744103001345987e-07
1.1392756818510134e-07
2.6276227804221677e-07
2.749998301461366e-07
1.9699108245732188e-07
8.620510605506037e-08
-1.0774417145256605e-08
-6.87773867536903e-08
-8.403158184301831e-08
-6.748032413562303e-08
-3.596562482808757e-08
-4.810058505355624e-09
1.6403174227592837e-08
2.4710682541064973e-08
2.2261746717266378e-08
1.3770432463356593e-08
4.1036794581634565e-09
-3.292478872002108e-09
-6.945632865549011e-09
-7.091296683230616e-09
-4.972215577114396e-09
-2.0809296947541774e-09
3.9737849374859313e-10
1.8415754271284345e-09
2.1811110404568277e-09
1.7158127929334973e-09
8.863679517201251e-10
8.51724287985914e-11
-4.4829769152131144e-10
-6.460076824850343e-10
-5.696248374566391e-10
-3.436611205319967e-10
-9.356557555623776e-11
9.375093745634867e-11
1.8288825298383314e-10
1.821096328325318e-10
1.2475623612028174e-10
4.964634227270879e-11
-1.3070968024545495e-11
-4.820582640134023e-11
-5.4874013785885614e-11
-4.162066350708824e-11
-2.034131440968319e-11
-1.2826944520447626e-12
9.747885157505421e-12
1.1888602826232269e-11
8.037766141276763e-12
2.810567025726175e-12
4.0108628937295333e-13
2.9048846240902123e-12
9.44980570109855e-12
1.6327067054450405e-11
1.8179129034604775e-11
1.0111689010739273e-11
-9.696078142897904e-12
-3.767479914449137e-11
-6.393216906079678e-11
-7.380441058359508e-11
-5.2494461051887186e-11
7.693048998028293e-12
9.95254143526059e-11
1.9587059939803386e-10
2.516329505238568e-10
2.1562042238127226e-10
5.225415949013186e-11
-2.3185337038854478e-10
-5.667044470498406e-10
-8.166581914933571e-10
-8.092009558624385e-10
-3.9857245194401693e-10
4.468748440958935e-10
1.5628543668591798e-09
2.5563940271025713e-09
2.8667727489114775e-09
1.9444919153212887e-09
-4.714073854366496e-10
-4.057264001307603e-09
-7.724974675363982e-09
-9.714528468031552e-09
-8.071378348848492e-09
-1.4967637369135075e-09
9.631598033230422e-09
2.2472579006208437e-08
3.169196199663809e-08
3.064417570311466e-08
1.3886204643256835e-08
-1.9441991707074712e-08
-6.253353460569595e-08
-9.981906430767466e-08
-1.0955359272676975e-07
-7.094830914012124e-08
2.502931499502162e-08
1.6438041867274771e-07
3.036055163001556e-07
3.740187707071539e-07
3.009787030783963e-07
3.7216053134291265e-08
-3.97983372461174e-07
-8.896524781172124e-07
-1.2282644015251825e-06
-1.158105801494388e-06
-4.7648905124739937e-07
8.355817872861911e-07
2.497429063847089e-06
3.893084828916018e-06
4.180238330962538e-06
2.5739659312024816e-06
-1.2331347712710475e-06
-6.642283223211848e-06
-1.191762933152608e-05
-1.4381721977932025e-05
-1.1188471820785514e-05
-6.27873567561008e-07
1.637185391907584e-05
3.517040474600823e-05
4.7547605280027465e-05
4.3676602949947816e-05
1.6034156048109025e-05
-3.555468638136456e-05
-9.956519423957019e-05
-0.00015166171551108987
-0.00015925492333338426
-9.277185013508656e-05
5.801901297955787e-05
0.00026773866686304406
0.0004672347146286466
0.0005522523915414449
0.0004144371185203203
-7.647993760451827e-06
-0.0006710139580280001
-0.0013888184064227063
-0.0018389383938066358
-0.0016441677218461544
-0.0005260661076557753
0.0015006514005157824
0.0039655224712788015
0.005910234011966794
0.006078709059628938
0.003364812204883938
-0.0025534139686471807
-0.010597678762010402
-0.01800718724891585
-0.020726982130457927
-0.014673601791594576
0.002218336031015903
0.02768969132971923
0.053516248582953396
0.06563198999567854
0.04683841220906009
-0.017905137943882012
-0.13484862756271604
-0.09587185848132365
-0.07673359816711593
-0.04102671158380125
0.05031405624315165
0.22648270860825456
0.09547077402415004
0.038276816539867725
0.01127902036894524
-0.04349848240506317
-0.18326482368458985
-0.04909504432997644
-0.05485616998506015
0.016575042797916963
0.00912627723328369
-0.017146497744003102
-0.0003798846365290175
0.10855582748653785
0.13478340853319606
0.0744718426128054
0.09804544051772954
-0.03880364600117476
-0.17936031192356675
-0.3507351675052458
-0.1553489983962454
0.02678262318124402
0.22512373072338432
0.26026791389026416
0.32855259679385157
0.19745482134795328
-0.18477368507303393
-0.4682295128038757
-0.27792501129712366
-0.19840661650633842
0.02619110456646364
0.2761453968674444
0.43072984058485486
0.1437718538016304
0.02961324599869478
-0.136164116420128
-0.2033539973785701
-0.2278997896953151
-0.054789490286028725
0.09123174832483298
0.005535675284078185
0.09634487571282062
0.17472928683242614
0.04631450751488206
-0.09240190390331451
-0.05261906793734536
-0.0484145116291178
-0.09135205866341023
0.013071772455964411
0.06611751559196087
0.07415913136348762
0.04623740969282975
-0.007668094985809424
-0.0770800926596209
-0.15086217573658398
-0.017815641856940217
0.13108698768383842
0.09940296686118563
0.08280453922339243
0.06962384471913358
-0.15501012794304758
-0.20300396315561953
-0.07822781013766425
0.024538722074114876
0.11582646572886723
0.20487117753314496
0.09395468927395308
-0.0229617438748707
-0.1563609321986524
-0.11407294166020426
-0.09481185843192186
-0.08589528212027504
0.1334710397943823
0.18480449187737533
0.08242626403201829
0.028889598461788863
0.01593027174917749
-0.16968302188164916
-0.13846074920275755
-0.09269033730293022
-0.026211998549649857
0.0698974385787411
0.19803470253559244
0.1455406137020613
0.08148850796991403
-0.03855637543701521
-0.060411368051346157
-0.21558427704342673
-0.1075844279851285
-0.1054597406541409
0.052530350890485945
0.04558366472672444
0.15100369925480853
0.02426879360656706
0.08395901272362813
0.10548502530789322
0.025299666194668825
-0.045156797721467204
0.0012202553513691629
-0.11014160802782157
-0.21644409639163703
-0.10730734043098218
-0.1268803490996167
0.011314586006399233
0.20022844136860857
0.31267967116124434
0.18075639451086412
0.18838963858071917
-0.11996049925864338
-0.2173422321721171
-0.36698010844743056
-0.19968439341400984
-0.10434443084818379
0.1653327576530243
0.2711421545959398
0.26605165018109933
0.17494154503229134
-0.012479451355017174
-0.13480494973447224
-0.24198743282932422
-0.17584820247904148
-0.15591856570083537
0.024309347724255925
0.19024012853037156
0.17212074669334496
0.190584883251875
0.047931185035092735
-0.07170455684161847
-0.19424835063115006
-0.14401735935446905
-0.1340380947864373
0.03750140220795299
0.1837386951083437
0.12102281590933861
0.060538893196071836
0.003561055509096158
-0.0580508306876812
-0.1371637503101326
-0.045255589498906526
0.012231286895489416
0.0373900195896081
0.038265250822440915
0.025529821944821566
0.00908996594653232
-0.00418600625820466
-0.011197575413588073
-0.012043323054257503
-0.008743860037409998
-0.0038759037571957436
0.00044570625908370813
0.0030597282285947346
0.0037693451487911204
0.0030476725161276237
0.001642751942508935
0.0002423107961133457
-0.0007191735832105569
-0.0011033131839951805
-0.0010024167467516834
-0.0006260770879069088
-0.00019278486712442645
0.00014145288394815222
0.00030880680620942795
0.0003183916949206683
0.0002251670216346024
9.596373290180568e-05
-1.5714021486635712e-05
-8.147756766096567e-05
-9.768160773842392e-05
-7.747352877932174e-05
-4.052662087760056e-05
-4.509152145907024e-06
1.9688239544377625e-05
2.8859156841483224e-05
2.5659443105708483e-05
1.5626985745692913e-05
4.397902790113743e-06
-4.085358806235288e-06
-8.180271049251389e-06
-8.212088523044897e-06
-5.652190986370721e-06
-2.242911382188008e-06
6.396207839181032e-07
2.2755090159447037e-06
2.583921678079147e-06
1.9195094733563323e-06
8.152439762211292e-07
-2.3071879707769388e-07
-8.799886155217454e-07
-9.933535194648527e-07
-6.133446454450433e-07
7.834099642047912e-08
8.0991237079078e-07
1.2739481454623623e-06
1.1968054427417406e-06
4.2916258894585674e-07
-9.53806220181659e-07
-2.578928296751075e-06
-3.7832290363273777e-06
-3.756326298221995e-06
-1.8346814856692696e-06
2.101800488677074e-06
7.2634328316917675e-06
1.1812894415558277e-05
1.3158753293115182e-05
8.78910198770048e-06
-2.449535099754553e-06
-1.899844979747281e-05
-3.578160549265618e-05
-4.4664856553443114e-05
-3.668797354065355e-05
-5.999304530254754e-06
4.5457201701359135e-05
0.00010437557048441865
0.00014605007161478244
0.00013993314812101992
6.129807840510852e-05
-9.319760593353849e-05
-0.0002914534737141491
-0.0004611734790020974
-0.0005021614137560615
-0.0003194972518878527
0.0001266418537452589
0.0007694189909305962
0.0014064527667293333
0.0017210380152363055
0.0013721366493008754
0.00014874685739122836
-0.0018500476793557128
-0.004083276070807134
-0.005577879147367778
-0.005158523661409818
-0.0019142798952308429
0.004185399847265142
0.011732917752267983
0.017675083969407278
0.01773461488932937
0.007578452895235253
-0.015458136005203764
-0.050658141284431205
-0.09304547405677013
0.06593595488993301
0.036073450017140685
0.0251345714203495
0.03607345001878189
0.06593595489169723
-0.0930454740572735
-0.05065814128932239
-0.015458136015001196
0.007578452882673219
0.017734614879043393
0.017675083968286074
0.011732917766554517
0.004185399879036399
-0.0019142798514877905
-0.005158523620419446
-0.0055778791310791016
-0.004083276101710572
-0.0018500477696837296
0.00014874671764834386
0.0013721365003555252
0.00172103792519374
0.001406452814194084
0.0007694192323510715
0.0001266422827319109
-0.00031949673788316067
-0.0005021610187092853
-0.0004611734666593248
-0.0002914540723007758
-9.319887506162689e-05
6.12963749825989e-05
0.00013993159780733712
0.00014604952730616248
0.00010437688434591654
4.546080477904017e-05
-5.993859167301622e-06
-3.6682300149110216e-05
-4.466161873171701e-05
-3.578381258034898e-05
-1.900817449586385e-05
-2.466348352355953e-06
8.769371645832824e-06
1.3144136170112576e-05
1.1813561970620128e-05
7.2879277824897954e-06
2.151881430221853e-06
-1.7688444641750638e-06
-3.6980335797208406e-06
-3.7655872963984757e-06
-2.634226798651713e-06
-1.0971296181581522e-06
2.1735433416439813e-07
9.811446170318001e-07
1.1584802347884999e-06
9.096971672176155e-07
4.6914205240059646e-07
4.4793549727390135e-08
-2.3705007986256797e-07
-3.4126208227727264e-07
-3.013519331149663e-07
-1.8363075039342854e-07
-5.412311362577015e-08
4.239415886231628e-08
8.897447013696439e-08
9.16927893660182e-08
6.889431524819648e-08
3.9926034118683895e-08
1.7196996433897362e-08
3.2903368150810075e-09
-7.071736868641031e-09
-2.176918422589664e-08
-4.503096676090427e-08
-7.26751217291231e-08
-9.100756972711491e-08
-8.067363874457093e-08
-2.528864251261902e-08
7.728295364768331e-08
2.051532245265367e-07
3.095944092533851e-07
3.2420987084276456e-07
1.881561622178866e-07
-1.2011566041934934e-07
-5.492065747519179e-07
-9.57797632498452e-07
-1.1322966334988055e-06
-8.503828328852625e-07
1.4311945671278104e-08
1.374137189670315e-06
2.846386201143715e-06
3.7706883421441095e-06
3.3733557603774555e-06
1.082959106430698e-06
-3.0706274370757304e-06
-8.121923152029062e-06
-1.2102602204180474e-05
-1.2429457931986907e-05
-6.820578253458981e-06
5.4051920160710375e-06
2.206343141619023e-05
3.751739766660476e-05
4.345209069469313e-05
3.1417501908675294e-05
-3.0854225679103804e-06
-5.609430617335054e-05
-0.00011222680253756197
-0.0001456328140021429
-0.00012665813628614034
-3.425067782530904e-05
0.00012867154484862196
0.0003227450865183647
0.00047040539001697555
0.0004719378672021624
0.00024176101335320892
-0.00024119595405858624
-0.0008856662242257561
-0.0014678174351332538
-0.001664605069629633
-0.0011553586986219205
0.00021888048526135813
0.0022833149147125976
0.004422116524058792
0.005626485063727436
0.004764644427956796
0.0010696587122148583
-0.005268916750466284
-0.012641299097051424
-0.017985974235736772
-0.017460772299982073
-0.007902371653449201
0.011169664160096843
0.035642651757107305
0.055932471956800296
0.058076772661852134
0.02727370876127676
-0.04661275247839186
-0.1632553644812097
-0.10832848978772083
-0.05465583843512649
0.031054985821385658
0.17746233231850547
0.19767273650235062
0.08280315160515436
0.003320996784964571
-0.08163761736757573
-0.21024514177356796
-0.20477024171682204
-0.06465271495578687
0.03107298202298456
0.11282650284762899
0.2055411897403626
0.31621954021056103
0.02976275822567522
-0.08443904510995094
-0.2574474837400313
-0.30375352267250116
-0.2102769195741108
0.06288538308399819
0.16937852500777023
0.3562819130170829
0.24518573330246707
0.02283800786665043
-0.15463149277311566
-0.1457659394370751
-0.20265727861770463
-0.15270230180673355
0.010529160821369007
0.12497287963013165
0.04811113131096295
0.040026095004110446
0.14686091228692646
-0.010944244357251994
-0.04319421818233898
0.013136624608945494
0.10334520592632021
-0.03141940865790074
-0.0391799829470677
-0.14398420883606725
-0.13814329818496124
-0.18292616865034794
-0.01892092380848768
0.2158434972255782
0.3653586512687748
0.24010733528928913
0.01302311449973351
-0.17090436917822474
-0.37513432429113036
-0.2503770181017139
-0.020401766603615975
0.1200971622998564
0.19631527215298336
0.23840976053324536
0.06803375461202812
-0.10834860586748059
-0.09799919700483704
-0.11471796959177637
0.029802171160864633
-0.06770095781310503
3.4406395025974404e-05
0.048728747053639984
0.09779885765927368
-0.0350118009660739
0.062321057447659534
-0.005512131693265792
-0.04031961134120617
-0.04800994384314928
-0.035973326586041666
-0.01146786306020213
0.018426977740587495
0.045653193290431666
0.059924498754554495
0.04870025871943934
-0.0007775787081730628
-0.09756216927249943
-0.042492459580811257
-0.025021193541067188
-0.023038449123034564
-0.00632343539276951
0.0569911868044643
-0.007467995924978713
0.01243500097942622
0.11075362416871735
0.06309470536838073
0.031230340586076447
-0.027828951753199032
-0.15039514991262914
-0.15570676856624363
-0.04021577100306628
0.02112173116170483
0.06674016549276061
0.1363149300788948
0.05879686369558665
0.04464725296490107
0.08466820288479611
-0.04448354309079343
-0.1702586885516865
-0.11340407485044748
-0.08049943037218713
-0.06272981337150187
0.15877394297313002
0.20352518569959885
0.08248661986848373
-0.006843374133194708
-0.07921389839773807
-0.1554388210131672
-0.05454149444501771
0.012251949286856061
0.04363055436030003
0.04649450547651884
0.0320363665569214
0.011609456110456103
-0.006171029364878532
-0.01658051210335917
-0.018477226032270675
-0.013229994886630146
-0.003574438020822166
0.0071958826889417325
0.015674196031828416
0.01867984041344641
0.0138306453922222
0.0005277618314817748
-0.01880239833613286
-0.03773043624316992
-0.04583830037818215
-0.030324416369421323
0.020742337376363957
0.11429229502001428
0.0487641923497077
0.012910287691471225
-0.0121923376649642
-0.04836249873838346
-0.1144464108005844
-0.02153518081279102
0.02903925474520061
0.044471764521557156
0.036912425589084454
0.019219273329476216
0.0015868637480091312
-0.010115919871259494
-0.014288516904948187
-0.01237639265765593
-0.007228817267488821
-0.001664035870425398
0.00240886662625232
0.004253499204911207
0.004104163270380349
0.0027346748666398158
0.0010175076681275454
-0.000385507804520284
-0.0011528357648368853
-0.0012788905971115245
-0.0009599411165199562
-0.0004588746798194492
1.1992093720577435e-06
0.00029189341858358256
0.00038478432412890877
0.00032356194134083817
0.000183922944093403
3.821309952324116e-05
-6.5900230547752e-05
-0.00011122782887035706
-0.00010522477105462371
-6.861460091366229e-05
-2.4054079751129315e-05
1.1641824966025714e-05
3.059783581085175e-05
3.3050885155878075e-05
2.4296936009331877e-05
1.1181580243972567e-05
-6.037103366895885e-07
-7.87246683971213e-06
-1.0016855519704006e-05
-8.250183622304155e-06
-4.559725281563195e-06
-8.02791197232169e-07
1.8246973343791471e-06
2.91822430188725e-06
2.7001648543588766e-06
1.720210280486839e-06
5.637498022536389e-07
-3.437790964139038e-07
-8.108087976501173e-07
-8.53485861267687e-07
-6.14350757673675e-07
-2.714705535313482e-07
3.013445660901962e-08
2.1157495885821293e-07
2.604049651233566e-07
2.1010073183837504e-07
1.1275655523154709e-07
1.6002764775962395e-08
-5.0207179724870575e-08
-7.644490809339497e-08
-6.920907553101957e-08
-4.304953854122662e-08
-1.3073446748872068e-08
9.970221645585694e-09
2.1441876587003882e-08
2.2014316749284368e-08
1.55118995479614e-08
6.560564236674439e-09
-1.1490431889611903e-09
-5.668910084246599e-09
-6.761095275624947e-09
-5.343882240531298e-09
-2.78079856854256e-09
-2.91912586984485e-10
1.3739278651559233e-09
1.9995441803904556e-09
1.7718872968967483e-09
1.07532054976058e-09
2.992635196600408e-10
-2.8509583173464367e-10
-5.659425589808712e-10
-5.671699423894027e-10
-3.9108859043494104e-10
-1.5772375462513036e-10
3.911748919174472e-11
1.5146874737648573e-10
1.7532594227944477e-10
1.357502319654851e-10
6.837877197302951e-11
4.4279927867136586e-12
-3.741691408131322e-11
-5.222627474825535e-11
-4.531126229499576e-11
-2.6806672479397882e-11
-6.7391078926326e-12
8.059835871102805e-12
1.4910432857784283e-11
1.45956126135791e-11
9.845123856817908e-12
3.769338436350102e-12
-1.2504296067529284e-12
-4.036723501706537e-12
-4.540974557601006e-12
-3.444050314118485e-12
-1.6760491438938153e-12
-3.473917415152517e-14
1.0146062827433733e-12
1.3621803013102506e-12
1.1573339129160148e-12
6.668260022839143e-13
1.4852177173645754e-13
-2.2574986434731854e-13
-3.9217910200959217e-13
-3.752015340619957e-13
-2.474694015857008e-13
-8.948867812114823e-14
3.8369105933934605e-14
1.0729763776284744e-13
1.1744568117055194e-13
8.723661191284554e-14
4.091198589292741e-14
-1.164384607863204e-15
-2.7432239267390018e-14
-3.550644903581301e-14
-2.955109022401132e-14
-1.6575711023562006e-14
-3.2045453325382456e-15
6.247580338327049e-15
1.0272563623866804e-14
9.60849039001956e-15
6.1845436520091745e-15
2.0819922229370634e-15
-1.1706565785221864e-15
-2.8712767251510532e-15
-3.059567534885085e-15
-2.2322326499359002e-15
-1.0202574565193428e-15
5.716311241920967e-17
7.134666793194243e-16
8.986468599218758e-16
7.279744112374853e-16
3.8536032705585046e-16
4.0805065268424694e-17
-1.9750166165539099e-16
-2.9422333367303135e-16
-2.7115586101462576e-16
-1.7947232937672633e-16
-7.300035170908404e-17
