0
-2.5807550097308735e-06
-2.584178755919739e-06
-2.5864960940900364e-06
-2.5859228036895622e-06
-2.581063602397319e-06
-2.571825518822821e-06
-2.5602196121534197e-06
-2.55059112960984e-06
-2.5488329234538074e-06
-2.5603796225025896e-06
-2.587263379595502e-06
-2.625137486629143e-06
-2.6617160239784858e-06
-2.678220424131933e-06
-2.6548653624758916e-06
-2.580024977617382e-06
-2.46069831593053e-06
-2.3298705459956653e-06
-2.2453404091446807e-06
-2.2756384990710706e-06
-2.472483219435793e-06
-2.8355346832738203e-06
-3.2823459701806416e-06
-3.6413370242258916e-06
-3.6846168397608804e-06
-3.207607737275778e-06
-2.1433967995119476e-06
-6.756166886453094e-07
7.066274995086319e-07
1.2724925888992833e-06
2.6925806139793346e-07
-2.7194176574192163e-06
-7.373071608326262e-06
-1.2364702148578895e-05
-1.543051355545384e-05
-1.3941811909913694e-05
-5.988675515876181e-06
8.26160322632514e-06
2.5441283983089637e-05
3.878422521413111e-05
3.94878280174352e-05
1.986909829365358e-05
-2.2199177899600144e-05
-7.901536093945125e-05
-0.0001311395126559113
-0.00015016052814369584
-0.00010749060987068663
1.164848812020179e-05
0.00019292657938725852
0.00038307108585893977
0.0004935162254679949
0.0004235628933397073
0.00010296034455227381
-0.00045580159578973215
-0.001115621800734019
-0.0016100166999566533
-0.001599321954287807
-0.0007955369314415348
0.0008659138303447348
0.00306498932395903
0.005032095491338942
0.005667425303960517
0.0038928806180008077
-0.0008018090173930289
-0.007775543451294966
-0.014882167247954606
-0.01865821043450867
-0.015282610528902923
-0.002301758086749668
0.019251279738656996
0.04309739138684891
0.05728724729578871
0.04594809334176854
-0.006584558778521914
-0.11005780042476311
-0.0628625881997698
-0.0491829411846092
-0.04051937197281523
-0.001943307898947474
0.09831584769123383
0.07877906617920787
0.1375489354045703
0.05093619872596926
-0.020964354058065727
-0.12300844649035826
-0.09153414557258287
-0.14326668072666515
-0.0705877844169907
-0.04505849665955512
0.17183803622638738
0.21454245038764644
0.10120599915291892
0.028212216620052476
-0.026423582273906333
-0.09221484046766751
-0.19226781766020293
-0.13174151465802955
-0.0932961824936472
0.15850590721633265
0.06532372798835144
0.060012957865417965
0.15386451798216047
0.13061614893143603
-0.05052067797553583
-0.04346392059687146
-0.09894571526619833
-0.248597997201334
-0.09492525442874065
-0.010887333358018274
0.05043840235588244
0.1393121988644978
0.29177495910634105
0.11753320540996545
-0.0021340192242431115
-0.10568890701663615
-0.23544706535803248
-0.221007203680878
-0.0686938000031524
0.03897956195255996
0.1341763923771686
0.249375992336787
0.2042755035503539
-0.0004029244926444488
-0.1799308568625794
-0.15551257724296452
-0.14244599046370168
-0.14227840822560897
0.05757367179485076
0.2770372096050479
0.13314306550870814
0.03149710969908828
-0.036630815130454374
-0.0908348558001436
-0.15406136252339284
-0.04487457872266072
0.02724570784117188
0.06228141315109728
0.06663346447185985
0.048896181319527415
0.016675905636055487
-0.02437682929141929
-0.06956139831023755
-0.11346219940788563
0.050796159188092764
0.030470694502827342
0.030634051192791962
0.0514922289650166
0.08718868996878393
-0.07292390350620286
-0.04068074756381145
-0.024419926724829604
-0.02504801759739874
-0.03447757902484002
-0.03725922315225945
-0.015241995629234038
0.045873849160651424
0.15008397350594227
0.08718597089295409
0.03351079312672041
-0.04215526636247896
-0.1690830394803162
-0.16501245386608068
-0.03034365601582457
0.05146228716557355
0.10757327075577776
0.16648483892459212
0.04977964161696849
-0.03186257646800025
-0.07750768847731988
-0.09123742164807501
-0.07684313681631072
-0.034763638233287826
0.037387982462116935
0.1413373934378393
0.0738909388700293
0.024502334910851378
-0.02371736712250953
-0.08977318452300573
-0.18925663474061188
0.0699781565723396
0.08925978074331353
0.07773756427959397
0.04972195205886154
0.02233417278125219
-0.1861533204198945
-0.1584642178061282
-0.08280196378909117
0.039497531484699595
0.18484138453109022
0.30123437681975374
0.31074944713654373
0.1245586899935015
-0.1302281043760568
-0.47901722704662497
-0.6759002649680622
-0.6011247351596436
-0.08829781157331945
0.42136521147275224
1.0138805544897052
1.2522511980469002
0.7669603634364208
-0.09936066307990549
-1.2015446568549277
-1.8870418238295636
-1.5202560953643471
-0.2731260671212443
0.8066754915037714
2.073211851965001
2.7559318537733217
0.48510714902867963
-1.0974908132404328
-2.0496806012867026
-1.8067628219543141
-1.485874747665485
0.9398574082658177
1.3914383226508302
1.9908654274537962
1.5772996577499805
-0.12242331505514696
-1.6543379082113248
-1.751590968322962
-1.2496759673530458
-0.8493373862865343
1.051021297364679
1.867314690260648
1.9289155473495099
1.6156423343834099
-1.8347363916311883
-1.8519319207581806
-1.4302102890151174
-0.650017637829437
-0.8624312823375262
2.6591240906881497
1.8299636992208568
1.0765659372232386
-0.28796918330617843
-1.4229504068735437
-1.6765915501272828
-1.1045980525353387
-0.2324967214597187
1.1207189230052463
1.7713968262125483
0.6885009331889903
-0.062281942261660436
-0.5262704483855242
-0.42310252532729314
-1.288380612998593
-0.02147277470317092
0.5407996574319233
0.41995762240784296
-0.32964174740144164
0.7477660170771341
0.08526518838914417
-0.3165818466317755
-0.28532907494224063
-0.06339813241249571
0.10657283092271401
-0.007723472368657202
-0.023560433107633463
0.056702078507524074
0.04257960750824138
-0.04878752105714597
0.0030996554537303374
0.01848180264164099
0.014658292968826963
0.0043770194966412275
-0.00463660839890447
-0.009118590736317246
-0.009008130953342647
-0.00595500105974265
-0.0020141957110356994
0.001215014889729999
0.002947023566241142
0.003162818889516717
0.0023336090251674653
0.0010910393396536611
-3.141119283243073e-05
-0.000730747629296839
-0.0009456053027257766
-0.000787425631209305
-0.0004426773385385049
-8.738713177780421e-05
0.0001637995301457226
0.00027077489365481106
0.00025309197966120073
0.00016197754054474945
5.276800444284203e-05
-3.380514365632557e-05
-7.891542777698152e-05
-8.346739875114837e-05
-6.062638935910195e-05
-2.733051121666596e-05
2.2184714073756843e-06
1.983873616568438e-05
2.3666955520129674e-05
1.655266364331266e-05
3.784526408037165e-06
-8.944506669558615e-06
-1.6942326705512536e-05
-1.7336823637682784e-05
-9.545619763289621e-06
4.4400889099813905e-06
2.0035971417315877e-05
3.062684360714189e-05
2.9082706653556014e-05
1.0348421784181964e-05
-2.532901383567056e-05
-6.966760010238809e-05
-0.00010576625241390159
-0.00011128769641790191
-6.612298391211763e-05
3.6563091360075974e-05
0.00017934854908518045
0.00031507878664328273
0.0003728150285725598
0.0002789347153749097
-8.1951067947412e-06
-0.0004591660047691256
-0.0009467982946008456
-0.0012520625761554022
-0.001118694724750817
-0.00035786070314116725
0.0010196529953662
0.002692889371907769
0.00400885271980389
0.0041115739689659495
0.0022461128965980868
-0.0018107758250982566
-0.007332017853206296
-0.012446893510981357
-0.01439897386681162
-0.010389962039169228
0.0010666570188148216
0.018653898991732865
0.0372773742802772
0.04839095101435844
0.04221726559666461
0.011869571665283261
-0.041554295155640145
-0.10486056388424712
-0.15225258373620695
-0.15083089503099947
-0.07300578033458566
0.08602947947026017
0.2909788166746366
0.4571291228679713
0.4570949155227953
0.14803707961616652
-0.3838046561704791
-0.9738255113793444
-0.9444289111969891
-0.30379595846006785
1.0136748217698652
-0.5262198610978698
1.059396556129143
1.6079446266714392
0.9953933970177252
-1.221393751726978
-0.7141747424547329
-1.4771830978293148
-1.3483111404545767
-0.5919766280403983
1.2468871152872787
2.2390716554136114
1.3618802165301214
0.031483696145573295
-0.8968423196352271
-1.4673597921636305
-0.7347001540463737
-0.08681421943432992
0.3932948639794907
0.5226053245207872
0.383611267312771
0.08100415232717491
-0.09358227024389897
-0.08076055388494988
-0.0568212192781916
-0.026296315031534356
-0.009409304279977448
-0.02904070435870276
-0.10032873267348355
-0.024767246009796576
0.010465247569546214
0.028457755703983848
0.05555340561596028
0.11390945969371503
0.0161235244704972
-0.03650631034195616
-0.05200588229913923
-0.04336388935323416
-0.023789939031018965
-0.003309389754400639
0.012503408715179184
0.021849324764760206
0.02496029296108777
0.02237166831163019
0.014079673989940202
-4.9428911326357357e-05
-0.018860405972391154
-0.03825285567852461
-0.05033828170924491
-0.0443440958166018
-0.009621790594773725
0.0598371912620499
0.16100450676134087
0.0797398983745188
-0.007205981241696158
-0.12597404885255203
-0.09715271708054005
-0.12850117489571264
-0.01200088917664904
0.0734301127077174
0.15471599796821806
0.055946719282970084
-0.008343076424186479
-0.03578345882866349
-0.03450567172775785
-0.018615652852738616
-0.0027532004911406224
0.00263347340483553
-0.005691666868950428
-0.022880083432364858
-0.03737895736069158
-0.03440841011200313
-0.0009929377637932122
0.06860219575088858
0.16883417403032505
0.08228436717124996
-0.01620536616459806
-0.15122165200832544
-0.13710558833028977
-0.1710547254129157
-0.032523995104101235
0.11008398550511422
0.28780450056326584
0.11945299805720623
0.005020486838129865
-0.07317607066366168
-0.14261292768891318
-0.2299532294440181
0.047526433265628235
0.08533845929726687
0.08979311378884754
0.07289188286640948
0.04715353335081305
-0.17760400784742783
0.004708353516120738
-0.0034412805146998644
-0.0031137088730580757
0.0008712409378267982
0.20003183731398522
-0.016320910188493135
-0.057714055863818274
-0.1278901150701507
-0.02088012188006812
-0.12008862179599995
-0.0017059387851561718
0.15815332994897563
0.17511233539364177
0.05049637716557828
-0.029597207386470533
-0.0895829722023707
-0.1561194786972661
-0.049895987160278016
0.019273254462870325
0.0526435101372443
0.05885136435627994
0.04864524152019043
0.030528142628694955
0.008943949238456123
-0.014689124661405114
-0.03904694294308024
-0.05984698211862882
-0.06867069994790825
-0.05519795532075524
-0.013304845991856575
0.050030762461623815
0.10560186675687154
0.09621701416883634
0.13788562732907286
0.13021513172201155
-0.02414105261435866
-0.1942349446590758
-0.19591348976678022
-0.1748622080361055
-0.20427165646071796
-0.10035381093682515
0.34604040784549234
0.12842827117618946
-0.01570821336458462
0.16549012720126702
0.4272556921848378
0.23967048617943118
-0.17916922607154478
-0.2148011801251037
-0.4051223815318589
-0.6016169865943666
-0.5566999319403776
0.2564781772372208
0.5965609656514472
0.7948811562967949
0.5067093634704947
0.09158024028096094
-0.17032984172913057
-0.6337212289490711
-1.035016149651726
-0.6531732569748095
0.299723747605284
1.0571162857612872
1.8609395216992828
-1.0682475420253337
-0.5376373735825477
-0.36527023086484844
-0.3541597494685908
-0.473884948274409
1.5425121737645262
0.38966627314683394
-0.4216740614433147
-0.7726999681644412
-0.9436894608590958
0.37158865623188364
0.8403405085858393
0.6613870562872729
0.34754352050137916
-0.06678795394192766
-0.5907985068080316
-0.6265880871402733
-0.32159473296595975
-0.14150828274074756
0.1281944543854846
0.5558522663383969
0.4252858295283623
0.20142335360416022
-0.088069846434588
-0.2514894373283005
-0.3170853756164033
-0.1122548980208135
-0.047552833275866443
0.08910276354998992
0.1280535544683194
0.10737576742831345
0.0616087784949777
0.014104701071984572
-0.025023017211352142
-0.05589315753425908
-0.08308967090973605
-0.1100296171839945
0.06419996629228579
0.0446301239742218
0.037586565394060446
0.04712556700273464
0.07265766564358982
-0.09116121017216623
-0.052416011314127826
-0.018951718168360308
0.004111173459959407
0.015406298870067186
0.016823468025168403
0.012078341894382234
0.0051265407326696495
-0.0009983489988634935
-0.004686187768939924
-0.005658730520252229
-0.004526315535883064
-0.0022646482063704847
0.00018949113535152436
0.002142298631952682
0.0031733111773550398
0.0030818933125879135
0.0018463976705121253
-0.00034898759302964117
-0.003032254788746887
-0.005383270342395349
-0.006303620046633389
-0.004702443821157708
-1.2152392551615487e-06
0.007265705478348048
0.015004395295039144
0.019582053902102946
0.016564577253807986
0.0021913553071936805
-0.024760952628894526
-0.06146395257746499
-0.10080591902319692
0.06688299236749885
0.05030132388113586
0.05308745811581127
0.07110023351257501
0.0927388952012863
-0.09721243455812723
-0.11137379014317884
-0.15374372225822538
-0.016736359889100206
0.11704688005027154
0.06888669214062318
0.05641473638210748
0.08760695377912299
-0.04157492928567452
-0.1455962637489934
-0.045175052201955154
0.03744911653721168
0.08236743093783826
0.07481889020847211
0.007649197915385968
-0.11621230232783031
-0.0819727383874955
-0.06345856300338663
-0.027172021546508655
0.06018890446124484
0.22271568102655037
0.06800733473821485
-0.015332443136334046
-0.05415488189166051
-0.08246149971763804
-0.13153629590219898
-0.02208974948021179
0.03917078768503169
0.05812723833007486
0.04844258937572726
0.02573100566002297
0.0028393287223479296
-0.012614965467249844
-0.018401977225920196
-0.016241152395458893
-0.009739787583902544
-0.002541947878323837
0.002833790187666697
0.005369493925235424
0.005313269021584988
0.0036342365987378357
0.0014520732054986803
-0.0003708546371500443
-0.0014062778728398432
-0.0016342855188701804
-0.0012965131482672455
-0.0007184156956292542
-0.00016876335902053164
0.00021046801387233208
0.00040360692456583767
0.00047228628396472666
0.0004893168268481883
0.00048507236967425813
0.0004269090625420355
0.00023912392554052694
-0.00014333575445138117
-0.0007075458416222162
-0.0013114843070599872
-0.0016813313982228628
-0.0014805948556446899
-0.0004522132833061412
0.00139878347808087
0.003650743008939394
0.005431423599285722
0.00558989614992913
0.003107272826780983
-0.0023191122217577674
-0.009706569837078191
-0.0165238274017853
-0.01904456185292569
-0.013509773154149302
0.0019867129754138125
0.025365088691545856
0.049026158157818
0.059924161975531104
0.04200105345863351
-0.019017919233243367
-0.1295894062596441
-0.08323765881892813
-0.05882555848849231
-0.02381054454844102
0.05776249777742114
0.2148294753304967
0.06003324106034402
-0.014965551293577527
-0.03788311909353797
-0.04864324890840467
-0.08926575206714138
0.00599703245535033
0.017730082026379067
-0.055672152491338556
0.0007702560305222619
0.013949354095254957
0.01582972874773274
0.03608633471095233
0.09598743554885258
0.0050072517086337184
-0.0391164468662442
-0.04727135125704577
-0.03420014326767515
-0.013846563647592788
0.0038005852761698977
0.013830492903202499
0.01577815957189451
0.011983892940422347
0.005761662921512908
-2.2436923784109212e-05
-0.0036920085673902724
-0.004852784208925297
-0.004050336433633835
-0.002259904934931714
-0.00042676644826995043
0.0008214484214268118
0.001266365725957551
0.0010373019216926387
0.00046692844965378277
-7.006577001978588e-05
-0.00029085626258656104
-8.922011361966332e-05
0.00043556813240632446
0.0010064644680403483
0.001251862238938229
0.0008376217442496163
-0.00037310098646469966
-0.002175486905666548
-0.00395864393349052
-0.004790955229900432
-0.003698935986599525
-0.0001183069003735962
0.005599409317183692
0.011837521600549118
0.015783798705989657
0.01413083521595538
0.004437223841333292
-0.013119418135646564
-0.03420155189917931
-0.04981147647904794
-0.047598956044000856
-0.015266715855182349
0.05451382775951914
0.1592849633469313
0.08433117592695825
0.0044567497793029116
-0.10962532277594217
-0.08207176872668562
-0.12319628152902938
-0.024665300647469825
0.03948081362820037
0.10631183724387022
0.014262978514134068
-0.006765060826570319
0.0571745917720488
0.0006587595389875661
-0.00011005082742224603
0.017664338280389522
0.01123880506825645
-0.05844819742926105
-0.01804639466079087
-0.0754573108710204
-0.017476534336800482
-0.01222394455427898
-0.016064548847086527
0.016426996766234745
0.12181083983901758
0.11922221426143371
0.006399830945222226
-0.038430922157418536
-0.04946396883402464
-0.0634293798457048
-0.11014973117197853
-0.006337885163023926
0.045928400437977766
0.05636338397988233
0.041001801493901244
0.016376426992205578
-0.004831167167294127
-0.015848290172881585
-0.015726799716096675
-0.007829591896108427
0.002295367298269901
0.009036612820635396
0.008498304691989846
-0.00022166276496262053
-0.014398071527713463
-0.0279231841908452
-0.0327154733034163
-0.02143535929929184
0.008765053701714515
0.052352282339492795
0.09285881195555812
0.10332166541581791
0.05078634584697824
-0.09549942407619992
-0.15453592743296296
-0.3265590494400647
-0.1924449191560582
0.478950281143747
-0.08181027772030632
0.5439389966554913
0.7603661983976332
-0.4328572115563156
-1.2215252334750275
-0.16055140725614805
-0.5750961666208981
-0.3876755115036704
1.2340481830865344
1.42861375908999
1.0186282624003422
0.13714898142427942
-0.8946528209849758
-1.6613153540806442
-1.3598198367803673
-0.7616350090436689
0.14626153531616695
1.048555818653033
1.5539195978814047
1.8657304704285538
1.3202392312270417
-1.7830849174632788
-1.2703320024448
-0.9446868087318726
-1.0573892543360983
-1.2433015136755043
1.661826269633676
1.1368975949138702
0.8617494772980298
0.218639862986677
0.041255911056017905
-0.17917173855488885
-0.4423110055899984
-0.7658657834034317
-0.5181509212826814
0.022918820577053762
0.27514730427855316
0.32590712627070073
0.2888140134118408
0.26068203168129056
0.09273998465629292
-0.017134358973630207
-0.11220482465151592
-0.2518635061168633
-0.2841724301197455
-0.2260824514727012
-0.058001888318314855
0.26630607469757533
0.39959730973404756
0.179882264290152
0.017019689117151644
-0.10805605379285503
-0.23273872831571327
-0.19672113531952115
-0.027755956264660635
0.06565872280630831
0.0934105029919262
0.07699019869121741
0.040726964944503466
0.004564564752804038
-0.019725179595477347
-0.02876747411490207
-0.025331845321160503
-0.015112846091295953
-0.0038417406119091034
0.004526688867297625
0.008400360143450634
0.008185551978865982
0.0054365160751136486
0.0019595883547051207
-0.0008384397397119464
-0.002251201038777602
-0.002262132411870728
-0.0013378500683617824
-0.0001506499543014269
0.0006772838120488385
0.0007599860669513836
4.979613522184954e-05
-0.001145432958474093
-0.0022326430259217156
-0.002497139311969446
-0.0013546192264453105
0.001344769409379538
0.005043179826080776
0.008355167224667623
0.009225299795767514
0.005422148433099963
-0.00471331143165611
-0.02153337054898804
-0.043783436390337736
-0.06914203059242804
0.10431311098271821
0.07624971051621172
0.04295062214768973
-0.0020259259492769383
-0.06525155994902061
-0.15006486174132944
-0.05440248240718667
0.028598452708980267
0.10718409108450695
0.18657414248507287
0.06635424475970694
-0.05827060216512425
-0.19153416518110783
-0.13109846981948928
-0.0646540424709755
0.028324860249835673
0.16985471440276323
0.17467821454103447
0.043615260233057215
-0.037786953120317664
-0.09473385951595782
-0.15499979255097865
-0.04074088495554902
0.03651441754256454
0.07643060422893541
0.08686231793647141
-0.12063734206857445
0.06516343747565963
0.05272110206668148
0.047121958352094345
-0.14887705855990033
0.06710297621185918
-0.10125214243607875
-0.04869363973969205
0.029918893861475
0.13657475084221768
0.0672226237872872
0.010844144809410296
-0.04850598037790501
-0.12726519015251697
-0.037458997350270834
0.016501533997481905
0.03811743300119898
0.03647456017642298
0.022645546587129754
0.0063662440340620415
-0.0059896331398730605
-0.011873029516579588
-0.01179984634589707
-0.007993720692902533
-0.003036067114625379
0.0010802615856985015
0.0033588324878842317
0.0037456829402432697
0.002802482721868126
0.001309036307122111
-5.657948997735691e-05
-0.0008915958393685275
-0.0010979789220152485
-0.0008126069683538172
-0.0002948188374314284
0.00018304033829637335
0.000417111599384651
0.0003191652150992078
-6.717930025225131e-05
-0.0005771975225503802
-0.0009631164672644896
-0.0009622806945757928
-0.00039316965615886077
0.0007371955859146267
0.0021501531815551855
0.0032869521065936854
0.003422961877023197
0.001923134939989371
-0.001400656934204106
-0.0059438380535387254
-0.010150536207103598
-0.011730137880768076
-0.00836431569517391
0.001150579592875313
0.015620550291154096
0.030554420492874153
0.038269941816329936
0.02947082585082132
-0.003716408437999102
-0.06398265229560231
-0.14580062055130116
-0.03480749179548233
0.0893377247655915
0.04704412520909661
0.05181813536764371
0.10491381348224621
-0.006288579538815595
-0.10553132796964543
-0.02154731276676129
0.019369516015422365
-0.0001153499662048966
-0.08433988881883384
-0.023881249656359134
0.0018057264738464659
0.018929555234348524
0.05250090186198848
0.12011992098379096
0.028467151434027744
-0.026265446205980997
-0.05422889621935896
-0.06580176464787525
-0.06608952676517486
-0.052387150076374685
-0.01578235824960235
0.05357147118877796
0.15957365308666308
0.0947010221211191
0.03873143699372033
-0.03711527221638687
-0.1617818792515487
-0.15494494984482363
-0.020398293799651312
0.055142070990740116
0.09770036737786923
0.13844722538382284
0.006114074652501581
-0.07811066997841298
-0.10261230307669988
-0.06541274040049024
0.026182603727209496
0.15574932325387011
0.09857681020713623
0.024732283508928622
-0.09485907231444188
-0.0803978885274702
-0.1360377303198178
-0.046714970060654885
0.019087514416935347
0.10094467742287706
0.03495274847655186
0.0427422490522885
0.12457306970540506
0.05881818072950849
0.008343097652635054
-0.06776203181587563
-0.2005917286763914
-0.2006420503262878
-0.0540879037549953
0.07196187851372333
0.21691249399054788
0.21175922199841377
0.06787272305670528
-0.026078925424952742
-0.09828949950814278
-0.18205648679825057
-0.10327244642258446
-0.07211072629588378
0.11839483171393796
0.08728105676170439
0.057022157047440306
0.04514671700973262
0.05908638670919364
-0.10456838574016002
-0.0570692351116545
-0.01262170410438061
0.016346376514629623
0.022409854829596183
0.004488738064365803
-0.03245366833243217
-0.07900759781799917
0.07609639068036571
0.042903092287920164
0.027540371912568386
0.030971467818291153
0.0498066812801205
-0.12114053428143688
-0.08584587733487627
-0.04541788281375244
0.0007938580120958949
0.05122721866733499
0.09680602603073886
0.11690738001795928
0.07909934071296036
-0.05619391082845956
-0.12710431351602128
-0.16088639247129807
-0.1675899560739574
0.06024095679181058
0.14164030761389904
0.2980249136516647
0.14553196270114155
-0.1071292110752784
-0.45463820109683034
-0.287916717325704
1.411613696126994
-1.5264578286489796
-0.06458345330493663
0.8361052521241962
0.80785925681881
-1.7287665850648397
0.836627306901879
0.512824768338116
1.520053928968826
-3.2968568617229494
-0.8640045330654988
0.9050706377134853
0.6664432052814593
-0.8109996513622221
3.7126203022399977
1.1525576967139795
-1.033025453564441
-2.3234291589733473
-2.2063253746866573
-1.298030192798702
0.04193665386373341
1.5964957584962012
2.3156912325838723
1.9464616891028619
-0.06876237980701742
-0.590812498663407
-1.2884440921692584
-1.2919575745247238
-1.0514130146532952
0.3557307368427685
0.44828814807254497
0.7046890593577443
0.49276155701352636
0.19671120170536036
-0.03602689573421562
-0.11872664374548027
-0.2228305625062449
-0.15883539157480356
-0.15225615546593635
-0.024042721536647587
0.019465269120089407
-0.013560049303753149
0.09214607899893303
0.14888252128351334
0.15828496582943494
0.1098976841450315
-0.012503686987691172
-0.2187051010818365
-0.29901773393495173
-0.2169600059786622
-0.11278040509396559
0.2813990465641047
0.4196447901953971
0.32238017238839306
-0.03242336523068383
-0.10269519954289925
-0.3629618709849264
-0.28048234151850265
-0.09643212344032169
0.18137279497088557
0.17341694367497715
0.11546256126021005
0.04410734191779388
-0.013740375566848758
-0.04518002243986983
-0.050060484175822165
-0.036426026859724195
-0.015204846687855319
0.004009609785656201
0.015273958273068414
0.016801031483911315
0.010258361562783133
-0.00046146683343190433
-0.010535329684935311
-0.015409798662852098
-0.011952686600720826
0.000395678631124575
0.01860956832008293
0.03559685990035936
0.04078240134306466
0.022135397192953307
-0.030493675974340134
-0.12160307148392878
-0.04730032041313169
0.005005902860673832
0.05401216318806816
0.11994505381797207
0.019916354618805785
-0.03495191083535379
-0.03987240462542385
0.005200594804955928
-0.10229502799106532
0.033798521572954404
0.008213543221329223
0.012874417680811455
0.03525764919884767
0.05777324275835115
0.05921828400172447
0.01866047605204582
-0.07895291842489532
-0.23733907682827893
-0.046121884525504975
0.11727635124971741
0.08111631900122145
0.0705244491666906
0.09982548080488814
-0.03122893881194207
-0.1364944408657747
-0.038845314236229
0.03589696260497087
0.06465556705180094
0.03160197388226571
-0.0685467922659146
-0.02849211990260733
-0.02812081023366015
-0.03680242668569815
-0.01848901543349962
0.0609911093399096
0.0259519597994864
0.08424637876401339
0.024056069449834638
0.0153490531304314
0.01604580281923035
-0.018401498271906108
-0.12438489401475651
-0.12137633848040373
-0.0076624515483063975
0.03803324143590979
0.049614724818934086
0.06376930841621804
0.11046519244276688
0.006634145794528961
-0.045479501358023124
-0.05557113559323682
-0.039838473428217364
-0.015114502077559853
0.005604216938221676
0.015389832123406869
0.01347151342398737
0.003815007110453707
-0.007072404166592133
-0.01254959914274393
-0.008112307395722936
0.006738757238275264
0.027375318631547407
0.044137497487316324
0.04410674624581471
0.014672539825508264
-0.05170246119556653
-0.1529896865853645
-0.07539768821348822
0.004855829811657138
0.11558385502893194
0.08023504053150322
0.11016744566202658
0.0005658813092505284
-0.06857393286208985
-0.1270804234955199
-0.00709842266912061
0.0640755918980294
0.06928094213486168
0.004586229777220185
-0.11963425982541513
-0.07983122751957525
-0.04322795324912286
0.025233132150210606
0.15412887527449629
0.1576365953665387
0.03157771822537578
-0.04462561978086711
-0.10055140120807131
-0.16482839349716652
-0.05662512319210451
0.018224879533366527
0.06548004642171186
0.09663884818692424
0.12205127333059337
-0.05392610246878966
-0.034013263762408444
-0.025517031812921195
-0.03590663414457693
-0.06850685657563625
0.08014159069139744
0.020623424768939563
-0.03111161913085377
-0.05703099933884468
-0.0412827911101039
0.02509319075620463
0.13995886774950003
0.08794756595413282
0.0420608702955002
-0.030378282919510564
-0.15868299021680887
-0.15972400912199
-0.03242763495013937
0.04174803269306043
0.09246726791061376
0.150925573953874
0.04084027926851885
-0.026776030152085937
-0.05382017045067804
-0.05122205606871452
-0.03326410260030707
-0.012459228071469205
0.003484300880575337
0.012206229499480218
0.015255705935712346
0.015671365991993997
0.015654864041191697
0.015186815658721192
0.012040797107023566
0.003190100202279621
-0.012858020808655822
-0.03365600753557278
-0.051412947803228075
-0.053587854366903435
-0.02597224900888102
0.042166677994887485
0.15243452986838482
0.09352589641632743
0.04157515730214301
-0.03445840172997473
-0.16368107807424
-0.16371510948505175
-0.03459824091161136
0.0412438288923732
0.09294162441456327
0.1516473457359164
0.04139828847277091
-0.026338622592947943
-0.05311602839790049
-0.04981536462199567
-0.031036075674133797
-0.009893914916139387
0.005245026178989956
0.011645816427007738
0.011112727787481572
0.007777023739620713
0.005676785677863776
0.006863825569814163
0.010508473135362543
0.013208069649931594
0.010451849698802649
-0.0010732065341382314
-0.020943601818769322
-0.04309701258585625
-0.05553271058758278
-0.04234563188599052
0.011847286791024245
0.11604938248763688
0.06754092245658329
0.04936190296887147
0.03226752047701265
-0.018752243333415786
-0.1351046228176258
-0.1354108559320325
-0.01977933548051301
0.03030533388730035
0.04642826375484342
0.06409847762940067
0.11323304926997144
0.011314569200866969
-0.03897532124194408
-0.047575397077181156
-0.03175808939197797
-0.009866910201587826
0.004039055305159984
0.0035264103604274993
-0.009223187154989945
-0.02463188578313675
-0.028777436080621426
-0.0077102858618569425
0.04786011759919592
0.13883133106490636
0.05643950892722725
-0.01553856503236992
-0.09547986456464921
-0.19757371910991864
-0.12747192141551733
0.11771875776626696
0.14503162117114693
0.1594289010123582
0.15971235109863588
-0.060584081039054535
-0.30745392964323215
-0.17919077273213593
-0.06246110290135362
0.065053563697263
0.2259104431350577
0.23220423960146105
0.07848059263087134
-0.05781104907421129
-0.20818896467223288
-0.20104472386356517
-0.05110048580015934
0.04517340990362779
0.10697078602596595
0.16154479314166584
0.03550220996139851
-0.0515457807044269
-0.08954505952535217
-0.07754041437318994
-0.02205926778968655
0.06423513645553947
0.16356534463394878
0.054862080048908725
-0.08245724451771762
-0.06287756078012237
-0.08919202069240192
-0.1496813272808748
-0.020218953054170576
0.12844951520214196
0.12039854743057544
0.1651015242759381
0.052928411596471665
-0.04222410126344102
-0.1539383610624313
-0.1114217000243779
-0.12949367091963415
-0.004238997007279043
0.08433772832654783
0.16424437375548098
0.06164657514512549
-0.006883047761065585
-0.0375900208972309
-0.03803631030003803
-0.022403162204217158
-0.005736750021533055
0.0010597537540334224
-0.005606046579089058
-0.021148188620862922
-0.03428143831625548
-0.030592083904024372
0.002439220261219267
0.0701635817496717
0.16701814622313668
0.07623464697837849
-0.02588075306248496
-0.16184459597581888
-0.14399444301021372
-0.16867307981805443
-0.0168431961268895
0.13835828543646128
0.3200432271737122
0.13723800802956646
-0.019167693386916814
-0.17214819322165867
-0.148104356459386
-0.1653841736905737
-0.027040416851016418
0.07933575784407199
0.17538620997927828
0.08283987368468983
0.01575507257509465
-0.022823394876792098
-0.039169710433659605
-0.043677266024651454
-0.0447408182178564
-0.04421686359264643
-0.03611025019057226
-0.00892735225015682
0.04914961719047309
0.14421742125796647
0.07225027171845597
0.018471288283644097
-0.038832095287926124
-0.12141464954580133
-0.24409931787108213
-0.010996439845169109
0.1833001629176751
0.1484642524673849
0.0924142183386195
0.018161533951834504
-0.07472993337607435
-0.18521341679608413
-0.10559925031239538
-0.01963369862787492
0.09441025247130394
0.056515966235416756
0.07664545527163923
0.14913972751380636
0.052597679076023085
-0.04401677005364417
-0.1708005796746136
-0.14577487906739967
-0.1678534160323334
-0.017304905969119506
0.13595090196051265
0.31946474230608174
0.1464649903501375
0.010615033689900941
-0.11025521251271446
-0.24341443158102424
-0.20881587284660702
-0.010861258210350177
0.1622515735627553
0.13216566884849307
0.12078365585966072
-0.0579341512289099
-0.0018297662912004338
-0.11972776717344104
-0.027563491156413638
0.05640648389087097
0.11588279554524618
-0.06013140469129114
-0.07494537312032322
-0.12316355840881556
0.008171406183556149
0.13597063292111206
0.07601899247299498
0.038485514029228854
0.025926406266644258
-0.16571388619626645
-0.14427720238069552
0.08128461375306499
0.10213052091071069
0.10962943756569617
0.09589945073958085
-0.14397782310697366
-0.20855018763811722
-0.08760841929921145
0.03676103329569219
0.18505352403762293
0.17315915903633902
0.006648618556672554
-0.12066572884301853
-0.023531002010899926
-0.11945123476199888
-0.023203968993651427
0.0562085051703244
0.1157249881354872
-0.04348975682448443
-0.01815360685109347
-0.004390436689164024
0.0014852830088183148
0.002631345958478721
0.001524214988646756
-0.00010226635715437435
-0.0012309127147756636
-0.0014564682679333457
-0.0008342378581017591
0.00028033881182941347
0.0013794022782243718
0.0019387868830877356
0.0015562718531053352
9.739633743296427e-05
