0
1.155441361181995e-08
1.9836298016961264e-08
2.314474668197127e-08
1.6962558751740052e-08
-1.1722290357673814e-09
-2.9260117787226925e-08
-5.9235965515789226e-08
-7.742295079684782e-08
-6.801557025911584e-08
-1.963332954884454e-08
6.650232650070579e-08
1.6985540834031376e-07
2.4948513619201515e-07
2.523787396922126e-07
1.325701726155276e-07
-1.2211683359054868e-07
-4.644554455632181e-07
-7.766105821896335e-07
-8.872270033471069e-07
-6.248115778819541e-07
9.783176998863001e-08
1.1917015995647945e-06
2.333190006007434e-06
2.9873897067681345e-06
2.5490615191008847e-06
6.000845922451819e-07
-2.7758766286812384e-06
-6.743352023388348e-06
-9.690429523528666e-06
-9.572464041605998e-06
-4.668544405247231e-06
5.382505132535758e-06
1.8614899078792002e-05
3.0354027004307943e-05
3.394790380661422e-05
2.2897663364552726e-05
-5.850804090171848e-06
-4.840229002150518e-05
-9.179831334055326e-05
-0.0001151427367840579
-9.529260599091926e-05
-1.6959509500246346e-05
0.0001151965889907158
0.00026728449200240216
0.00037591606706777767
0.00036232235176835445
0.00016224249777474584
-0.00023398855544148043
-0.0007449878090732406
-0.0011855764179501027
-0.0012977658123898392
-0.0008355682836021292
0.00030696612411190575
0.001962569752976488
0.003615199598241753
0.004452946140971562
0.003598081555165623
0.0005037855541603774
-0.004581502616180731
-0.010273009727126985
-0.014075174919990706
-0.012982691679311091
-0.004713064585493301
0.010635057282824678
0.029004892163731647
0.041605838334993275
0.03562943313795789
-0.003233466691643231
-0.08685922778145205
-0.02046866320348006
0.00039288563647148613
-0.009537941266247235
-0.02749713238994175
-0.02744266309105227
0.013695219354124823
0.10975422593609326
0.060924067220433156
0.0529486968001771
0.060862430513105935
-0.14340075152569445
-0.18191058588099288
-0.06355459322995594
0.018310096124388775
0.0824634138296818
0.1523688730300722
0.04801954837965988
-0.01965520612831417
-0.05018704803140935
-0.05122069266423354
-0.03427966801237553
-0.010719387492528999
0.010788171269423942
0.024952076529104417
0.029307385812916788
0.023340763001802975
0.008087519346279675
-0.013514905704246178
-0.035855669353618766
-0.05027050093343604
-0.045948348289912816
-0.012600748740662438
0.05549602503873378
0.15548764354765326
0.07397614534129243
-0.011236601805760346
-0.12552801309447045
-0.08977012328092367
-0.11367641364991823
0.0070108693738215825
0.0884368418835568
0.152857146968458
0.021912328766363762
-0.08829189273354618
0.031082958215461486
-0.017274358576411276
-0.034221529609418225
-0.021562455534529974
0.019424192112434097
-0.1122900929683088
-0.019531824379419905
0.08995601175947252
0.2008761884050272
0.09033575913829725
-0.06798024496389235
-0.09570564350686947
-0.2005135480476005
-0.1698498144253259
0.02883657130409192
0.24058950589274927
0.11075105485561401
0.0727634253634433
-0.059736936119058025
-0.09468085791598925
-0.05807174141982363
0.012430664159049922
0.07473769379875485
0.08938129582782582
0.026243371633903567
-0.12934264481193
-0.1724215190699251
-0.07830332429876685
-0.008170734140037965
0.07995615816172402
0.2179364859954248
0.2167740067659056
0.06310178618578415
-0.07494544887168511
-0.23425050444993992
-0.2409806011579446
-0.0992633267021161
0.010864252808414415
0.12546087855522317
0.2822574676728403
0.1060366081682177
-0.00023630977565214156
-0.05545976724167988
-0.09245668753254714
-0.14590091156117305
-0.04094750463790674
0.013603839992733036
0.02597385888264853
0.01656032904633029
0.00979444594707621
0.025426818349515202
0.07176788457620918
0.14284871485875367
0.020597978291937002
-0.11824540312695174
-0.09255547741465962
-0.10811818066219481
-0.15352369948285804
-0.002883572198788807
0.17506832774234557
0.20476750826305234
0.09349988902627616
0.027518114512390335
-0.023484357140755144
-0.09515234396482898
-0.21492518426253662
-0.19163796985273848
-0.012671754902044354
0.14987568486032
0.1263131444108189
0.13502493972201132
0.1725879069776303
0.012394277908073887
-0.1875701672835148
-0.07072957093345594
-0.06702199354477746
-0.18270487012538103
-0.19873679629593355
0.12136215290694094
0.21677760694772355
0.31359351269632385
0.2150973299022947
0.10359761777777188
-0.24569647005156467
-0.44417849252538755
-0.47244341720818456
-0.07567966609950377
0.2235573074354101
0.4988260283024719
0.39029850997295623
0.0850744450122902
-0.08409782534145296
-0.22110640885644786
-0.23673779959897892
-0.2176727745767793
-0.004136555056863998
0.01804430739368146
0.11047909278303691
-0.03591263104206485
0.07567432875716068
0.1252279245190737
0.15897502412933598
-0.01837179189753222
-0.040955860271502664
0.02990690066924304
-0.07719500191723344
-0.2260960505676991
-0.05949397493620272
0.007085623490060573
-0.01723216877177817
0.09205468266088648
0.162836644442198
0.21654949530998543
0.06444855475509503
-0.08858488115554355
-0.4348746811742494
-0.1545970101413226
0.5880649836481853
-0.9599393492704281
0.24659877344399253
0.8344412820064273
0.3980389951008134
-0.9044791350477391
0.6578717338926227
-0.39179229001417537
-0.5167272760920204
-0.15133375825797837
0.30227483462305904
0.26564514385701976
0.16853222629214937
0.034390665141931065
-0.12734748223205442
-0.12083849483159487
0.04230108142184477
-0.04905276232087696
0.001099381312549832
-0.00046547909355016597
-0.035967042257452314
-0.07956184083844678
0.09732926218589898
0.11964000737759944
0.003009238012763415
-0.04949328868519507
-0.04757712883176717
-0.011393748869072655
0.03223582960448782
0.05415396243829219
0.02741199763212442
-0.06816636112887217
-0.04198474290317693
-0.09032039639547723
0.0032989825475285236
0.06468193735966192
0.12344086139272552
0.007167051250384417
-0.06292890482855298
-0.07418646663835791
-0.022943543059539846
0.08583657186832927
0.03936924911343435
0.018639922508510508
0.0012984665214466726
-0.03423067545292621
-0.10437517023834939
-0.0172174525747856
0.028341880406210485
0.040801932242252294
0.0324970458034675
0.015704377276704557
-0.00026435962752580566
-0.01033808850630294
-0.013410935564780218
-0.011076673216112354
-0.006067277158182205
-0.0009521141249511432
0.002614314956969164
0.0040744516651036325
0.0037377377956683655
0.0023640749982757783
0.0007599859732580531
-0.0004910419426818404
-0.001129251159646064
-0.001181087742615013
-0.0008460031321948119
-0.00037074184081163685
4.5027009759927236e-05
0.0002937552512122803
0.00035973954983927896
0.0002901968513948165
0.0001572061417772302
2.5769266421472256e-05
-6.419448800488123e-05
-0.00010125871772301198
-9.542190488377444e-05
-6.649709152016366e-05
-3.328961872467061e-05
-6.919095776076591e-06
1.0654500336553449e-05
2.3737660789193213e-05
3.76555687348076e-05
5.359185251031918e-05
6.574968599466964e-05
6.233148096438432e-05
3.0648526562430095e-05
-3.484866986285129e-05
-0.00012441916674071871
-0.00020872793282220047
-0.0002424322043954546
-0.00017804469207407224
1.1157991884827916e-05
0.00030543366461551136
0.0006211744613808416
0.0008151332139831235
0.0007206239457549126
0.00021629711439773427
-0.0006875744968885004
-0.0017776854243656054
-0.002624971701010486
-0.002670856082008056
-0.0014273416893687734
0.0012416553678109123
0.00484933203945831
0.008165083373312931
0.0093905351311062
0.006718362178499538
-0.0007791743372783605
-0.012178750082315712
-0.024083654431011323
-0.03086428587077633
-0.02615405745713525
-0.0056141108879264184
0.02961635872254459
0.07000893510479307
0.09689127642683217
0.08527332066200716
0.01067489203738492
-0.14135394219425182
-0.1662213816025529
-0.2360687540869494
-0.10389650236345402
0.08321761894928892
0.3652374401302774
0.3517599059639147
0.2142522770471902
-0.10685294567387069
-0.2811827659196562
-0.3610964978923635
-0.35906052298589075
-0.039363225580727454
0.2720061518039988
0.2630338702818884
0.20636499426143146
0.13580509154967058
0.03631595081696161
-0.1503853425705721
-0.10790953949244489
-0.12165019454953119
-0.05702412897486703
-0.14531756437491833
0.019926061214364982
0.07619211040811051
0.07788874234696883
0.07950150895916176
0.12093647455595274
0.01881496417217837
-0.0346302079226703
-0.0657712746889185
-0.10951433488621888
0.0016700212076956622
0.046716667993018636
0.021363159553927976
-0.06029038878686057
0.03234143240118364
-0.05851594816651888
-0.08636498014000207
-0.009590451752212835
0.19904506763735658
0.1448952636008921
0.008576217747791237
-0.05060053386217362
-0.08555969301852251
-0.14970853019554464
-0.08639325155054853
0.07741111531315872
0.13229988808942358
0.08388587424883334
-0.051082759925862906
-0.0481266391582302
-0.07773153786285222
-0.10830828228487338
0.08964840561423223
0.13841889391477832
0.04853888043977849
0.01703915784787532
0.029729237534414404
-0.13296813858130987
-0.08878287359196688
-0.04780812677189774
-0.01041196755088109
0.030508836291846378
0.0841904908268901
0.1561643419605179
0.04469912783295067
-0.058784897363258856
-0.16565061188221294
-0.08461291380437018
-0.01795279999673455
0.038641704283847174
0.09275550906714936
0.15050345156916564
0.013051593675129052
-0.12382113721592186
-0.06721419185993632
-0.023393215016537298
0.004980385102225699
0.01943996342857789
0.024248552084013275
0.023943138539056656
0.021181930673556545
0.015873096849862208
0.005974892384178752
-0.01029669203646839
-0.031688696873033405
-0.051759316672574066
-0.05857461630392945
-0.037043048725128834
0.026228378618009012
0.1368641360187364
0.0877529273146031
0.057689206787005794
0.01510168199916567
-0.073649059317343
-0.23403556715973445
-0.07503956686403762
0.013834710635903047
0.058882174246196906
0.09335624334997915
0.1470712061711247
0.038454630008779564
-0.02824434128998698
-0.06017218792775787
-0.06933352714481855
-0.06537840824311353
-0.05069638957469491
-0.01960863644350574
0.03825985832726786
0.1319957152000599
0.0634324505116921
0.02387346769346679
-0.004937730250292064
-0.045841554818163585
-0.1191876861796265
-0.036395688527060245
0.0034047026436553733
0.012430518120038163
0.009345342241877138
0.011976896217522183
0.029777106282912476
0.05812482212823598
0.07618862511213759
0.0493647360208343
-0.06379299318098833
-0.10162479142294806
-0.08906513669424768
-0.0299611664567716
0.09594034436334177
0.13097214264000281
-0.06647586829381677
-0.23068556724876493
-0.09939660033126119
-0.026233975077717884
0.20696311856096156
0.5820776081640968
0.4464692532664334
-0.2720014669564524
-0.8394911139545056
-0.6905659147445392
-0.21589027961729254
0.42880332071889216
1.0965052740104275
0.8206164721028738
-0.19810312313055192
-0.7811060095561604
-0.7450570301048546
-0.6762053648532927
0.2763913249275502
0.78264684566218
0.49663995541780404
0.022364478952519393
-0.10430907477333896
-0.21074730985428847
0.13740952886351362
0.17317924047413222
-0.23191478031146043
-0.33352916681755407
-0.2936484491304636
-0.17966454048079875
0.014217571595758345
0.5272423055708892
0.384148427714756
-0.04822365695374317
-0.2893946053951787
0.04564065421901978
0.25549097840517715
0.1759800460165541
0.014239311774973647
-0.21180869178519918
-0.43620971947052617
-0.5196499101846895
-0.04444412225262116
0.26748004240833645
0.5193727903113609
0.4000644760399443
0.15446034674462675
-0.22627113477385793
-0.19393846974284515
-0.21909898390590501
-0.16417182421602533
-0.06346711287753742
0.08470264296013756
0.11376552525904969
0.07628059181874144
0.028381324085297897
0.016108664618607372
0.06664912532919343
-0.0144903448957508
-0.04091290068561641
-0.039004083153978325
-0.040075611818876325
-0.07317261139031202
0.03994749860734817
0.08724493933926408
0.06686014472430557
-0.013320165037083302
-0.13638695156926842
-0.07782735806494967
-0.008646332285385173
0.09933241974366662
0.06692882092277017
0.10200488109700122
-0.0029569370714088
-0.0690562067821645
-0.1256823711646578
-0.0037461276668545296
0.07044562630255216
0.07954614433387429
0.017804996372645033
-0.1076011469473547
-0.07670750516921707
-0.05923561345636918
-0.020126017595472816
0.0723641805495703
0.23813876032517822
0.07949181535923547
-0.019183523226526937
-0.08557682711790446
-0.1497207472720744
-0.23448138274031646
0.049629050660276064
0.10337538034124935
0.1327113391703559
0.1414661076644366
0.12706222314867027
-0.11827447335339022
-0.2014298605215781
-0.12084900456848408
-0.0619318630268605
0.0015977195033241363
0.10034206207732485
0.2589041594654122
0.08714544137197953
-0.023044598140858057
-0.09413101355382483
-0.15442412200287206
-0.22886635010785164
0.0667015709095329
0.1258062289731911
0.14732598548315784
0.13072093225915912
0.07415392812004737
-0.2229740439848449
-0.15461912804093092
-0.10357619418975454
-0.04160542412483979
0.06431306621382143
0.24137439440381808
0.10024702839396399
0.028969333389157265
-0.005644079902951302
-0.04924071984401408
-0.14680287925672772
-0.12961926201956
-0.0065864303143707125
0.03764011294932232
0.03760542671045808
0.037279998137101894
0.07878450817695662
-0.007298260009881428
-0.007881163458280783
0.07132534121153258
0.008986817744200926
-0.025241540664013396
-0.06238796061478593
-0.12637040610695224
-0.029010434311621803
0.03068734446797834
0.06309075744511186
0.08205614367553475
0.0991761966019366
-0.07964256531662664
-0.05443258049667235
-0.02897801796359681
-0.007823721245119533
0.006020681353669918
0.011996854803886419
0.011668407206900804
0.007710111314116948
0.002814497136497849
-0.0010794697237002863
-0.003087368095233158
-0.003269011403360816
-0.0022754868827457183
-0.0009370537312796009
7.16231414952628e-05
0.0004212964727714009
0.00016523029612608095
-0.0003477566838740577
-0.0006412558438562555
-0.00031469775884857617
0.0007647627001208744
0.0023338736863866695
0.003724134728327538
0.004018127033701958
0.002382202696410228
-0.0014794971864426937
-0.00688952532379113
-0.011992717761337235
-0.014011616447112941
-0.010107302928239775
0.0012082980859154534
0.018446216155870082
0.035911628915260216
0.043604183262185486
0.02880034554113524
-0.020675100052787353
-0.11228332120872896
-0.04521072603631957
-0.0090292561577484
0.014541646297555796
0.047188577164834156
0.10845438265514917
0.011092310500496869
-0.0411722780114596
-0.053135764636367405
-0.03571289438937001
-0.0030046431740982696
0.03014220858645912
0.04988232387060096
0.044884222597048676
0.0081363242307616
-0.06098762395053937
-0.1552895249770537
-0.060337488207244466
0.04194394672618479
0.1672058232976589
0.1224389144423322
0.10267552076809268
-0.10728858114489415
-0.1265300838982831
-0.16985879339356005
-0.04176968767371021
0.06477281852073276
0.16456677150706356
0.07377486905405356
0.004233054217471251
-0.0391419356617111
-0.05748723401027347
-0.05509025724704388
-0.03651648548600708
-0.005327029045067775
0.03523047849710486
0.08040342010291932
0.12259241836300407
-0.047996162393258726
-0.04019928498043034
-0.05726513407455054
-0.09295299660111996
-0.1307403151079246
0.05250575156859399
0.07888707218017449
0.1603659193605485
0.09190948033379437
0.05024199052688469
-0.00042318574457599544
-0.09708529379481255
-0.26494930873882894
-0.1076696709535161
-0.004933993739903603
0.08129750901171154
0.19416182565830883
0.16778615776259906
0.01701837755473883
-0.0656566445151554
-0.10591128273281698
-0.13881815393828842
0.0006122245131280229
0.08462759820927973
0.09668756225876315
0.03293389921143018
-0.09761673084079385
-0.07377703746318041
-0.0644983142854254
-0.03372538853921407
0.05222579058722005
0.2163777053036844
0.06469652497324475
-0.0156851668417979
-0.05252431470797817
-0.08008581263070554
-0.12942769916534735
-0.020796271393537232
0.03956809656113983
0.057865022659197796
0.04787509326261366
0.025161455036111977
0.0024282559258093105
-0.012856742352138335
-0.01855619621933858
-0.016396222947844905
-0.009914409992093984
-0.002649824888817072
0.0029601529895176286
0.005896716288913543
0.006289556736947119
0.004880284916075153
0.0025175094809997294
-0.00013223408658628128
-0.002617909876395071
-0.004565167005855216
-0.005517386563237896
-0.0049088303241152575
-0.0022567271400895294
0.0024535226009511422
0.008343027866526274
0.013423748023884359
0.014858820626383691
0.009861968567387542
-0.002831640240955254
-0.021303366484516965
-0.03926466901532796
-0.04611889641848953
-0.028819783495121157
0.024538230420921715
0.1203323205683607
0.05589917287071899
0.018653809767359083
-0.011264784463205125
-0.05542716601866757
-0.13062543091295065
-0.04404707049678924
0.007839816006614103
0.03611504989739812
0.05314556368582641
0.06568444143700941
0.07001800849365018
0.0510963815481433
-0.013847297897729609
-0.1483851684960253
-0.1693130266351998
-0.08144765207347031
0.12328437926794666
0.2629909829797913
0.3620412293734068
-0.3504553725810901
-0.23922487677766555
-0.26147199940748644
-0.1703556264643813
0.07417344455778146
0.8898521970404266
0.2593571362040161
-0.27161675328419976
-0.38243882615756863
-0.3565832781266847
-0.2613184950980972
0.2638012312407496
0.6079594045842164
0.3845202723149489
-0.17219480347168617
-0.6060257149200566
-0.6384202984889004
-0.17686726496691677
0.062109298442068306
0.7192171706848763
0.9618371093860832
0.6747870576505295
-0.11491192993196463
-0.5808025317395716
-1.225718453159234
-1.225810136353894
-0.41739597608522927
0.4614394768728301
1.4862234625028266
1.8510006463024784
0.002110536219697786
-0.5720825334449334
-0.09404139364904099
-2.016178240797362
-1.1419541509581104
1.420949752910355
1.0645145545492813
-0.3476246177784469
0.6825032520144135
-0.14093438646391296
-0.9209012026842421
-0.37161045479999266
0.1770041505053573
0.5688084141490586
0.20752764938665075
0.24794198006075188
0.0001913424440400384
-0.25106278556841755
-0.418189484642705
-0.1828225828347468
0.021599334267397522
0.01192802400591904
0.24324150762819738
0.18871082803645314
0.11914434304010896
-0.11166808924831167
-0.07333542617870674
-0.15821589371242342
0.022993642131833015
0.04643506248073852
0.07978578244200785
0.08694854879945856
0.03376866084768508
-0.10499162989094993
-0.1387229942389765
-0.0565852883392411
-0.028124718551345018
-0.00986481411776288
0.04337467270894811
0.16562102525430644
0.16949704256770684
0.04229544495265884
-0.049814910174245566
-0.15057578732804197
-0.09926671124289156
-0.11820113553399636
-0.0062298756204456265
0.06003016326384766
0.11831439572358768
0.009250744868814527
-0.03506016502991604
0.00042278879890357665
0.10963281992595478
0.06646059537365723
0.030879287253763026
-0.0408612117731964
-0.1843258956264495
-0.2167980049070968
0.06750413463021458
0.09515285959761377
0.10530132755900758
0.13900810821341134
0.029995236192240916
-0.2008368315957813
-0.1472414430584709
-0.01758327307368054
0.16550988044524495
0.16607017199641727
0.13834315510619435
0.03498493326916585
-0.1803413932327351
-0.3194426212768815
-0.1607951795655896
-0.05059200110337555
0.08471847391228217
0.31767962173710873
0.2980390710730173
0.03795430987003681
-0.0905391687903567
-0.1456014551655685
-0.197813716288243
-0.11140531771484355
0.06963108230016393
0.12775694632264023
0.0710284789319184
-0.07230265424819723
-0.06123446139832893
-0.05018026334229703
0.0026227210361824773
0.12715639512176447
0.1356604896388127
0.02064048429758726
-0.04195116592173859
-0.08499927511077052
-0.14052604581574799
-0.03138830324762677
0.03297675712716576
0.05596150512249337
0.04952141344730768
0.028508610009208128
0.005801326623025233
-0.010479640007806141
-0.01746823465813513
-0.016365437284513732
-0.010497264402518214
-0.00346444951339434
0.002093908471230138
0.00497378989109386
0.0052546576897739795
0.0038018605750302623
0.0017060482146989448
-0.00014214728880588374
-0.0012588238511992656
-0.0015700691065481166
-0.0012845969765371969
-0.0007227021696596888
-0.00017077362481721634
0.00020172362847996735
0.00035766609364905273
0.00035699404479600926
0.0002973018801991856
0.0002562222483983505
0.0002546840895938099
0.0002508464213879042
0.00016507955502549328
-7.235237550400667e-05
-0.0004668734322557291
-0.0009199108238126923
-0.0012265753010405828
-0.0011272096337798727
-0.00041376234467234267
0.0009321086696652251
0.0026190677758938853
0.004012675956169518
0.004253483062191297
0.0025549186375227024
-0.0013623645047881477
-0.006835117121062489
-0.012036147381624231
-0.014203562928187759
-0.010477365727616404
0.0006985974485728433
0.017937538749791166
0.03564195193732287
0.04384624318494977
0.029741859521129826
-0.019079425306715053
-0.11042917004250724
-0.04385432512422581
-0.009123132165352215
0.012206843158775573
0.04247119177106732
0.1023113074528536
0.00574559534897442
-0.04260213070951116
-0.04766710162029633
-0.02210567753383075
0.016501815503773404
0.04868131345024534
0.056227069477379814
0.025704692193391363
-0.047831801915755444
-0.15785786509221883
-0.085782175728437
-0.004217283151840404
0.1157793021753614
0.09542862159985
0.14034571952603475
0.03741972832443908
-0.04186897755584089
-0.13258624930176108
-0.06507491153441472
-0.055341648808260854
-0.10044033137650704
0.01971319523915577
0.13493706182502477
0.07455113625093969
0.05801158537263171
0.08964136776478618
-0.0410166764087361
-0.15390180787905236
-0.07068885361066073
-0.0077766173485043204
0.027566553804843907
0.03720953433115205
0.029276302188156692
0.01410600025477732
0.0006297667092524024
-0.005912610880984137
-0.004679831161420106
0.0014148616168726713
0.007282818201845998
0.0077421352316393195
-0.00031022297744473905
-0.01608621750423629
-0.033987996244994156
-0.04413632957508344
-0.03469894535497223
0.004160134997989805
0.075703286598024
0.17321272708628857
0.07982215160850192
-0.027156579723863435
-0.16810803993447979
-0.15216767208263923
-0.17165064879660477
-0.0031773938420845463
0.18400946604249083
0.21552374656196774
0.100405378973341
0.025865268026147584
-0.03938870474586658
-0.13452483682181682
-0.0928258975992859
-0.12996373859637722
-0.03851245482032119
0.009459851422558787
0.052744612868113855
0.12776200710364236
0.25650854902797615
0.040121231483668224
-0.13955697123929456
-0.11125328146812456
-0.10220384597406758
-0.12773192681069187
0.013720914848415715
0.1389494216635053
0.07333382928248307
0.042477919853106505
0.06541084714846931
-0.048833240918328885
-0.10141804215078726
-0.1023829398728576
-0.0699446345319743
-0.03170455408162466
0.17286430257492924
0.2913616950407961
0.2625569841268329
0.028104664394213833
-0.24951729713594856
-0.5693913977669898
-0.6849596476903068
-0.3161464686739869
0.41764158099592286
0.9537095735938886
1.2518996961942614
0.7926605281456837
-0.18023526045625532
-1.3803830969801614
-1.7927738216524434
-1.4223625998998286
-0.310396335335693
0.9750274006093737
2.6022549978663156
2.746872700218637
-0.8745800775573976
-0.9786491195875362
-1.0090889494703634
-1.5976107738017948
-1.6471693478472116
1.5226537949005812
1.1593711105682456
0.4114174985732376
-0.15189657357717248
-0.0027358454108809805
1.3164502874578152
-1.4016667571270376
-0.19902547420365116
0.08782008813601558
-0.13879890764766592
-1.2223688594593185
1.341034163247887
0.2780755679011435
-0.09413866602734164
-0.09625958456508354
-0.10329024014882249
0.05163888391486074
0.08394977663017225
0.07217827248205066
0.0785626385948543
0.3735089237983697
-0.9398698032032634
-0.3070933666420816
0.283938361030486
0.293415427600229
-0.39294573317960424
0.7083791927265647
0.054897719673283246
-0.13512055856270397
-0.08271598780130036
-0.03713225450437119
-0.0585951489609583
-0.0005946072387702762
-0.09600017537263143
-0.1495906140422925
0.062083657175090956
0.18433107186909928
0.07399041401033576
-0.011420284965420814
-0.022324023681297992
-0.12257742840667518
-0.09262946958724061
0.06842543150703832
0.14158626791169512
0.08858180792688376
0.056184487403496734
-0.014865851261801217
-0.17743131780508456
-0.06518205430289398
-0.08344070918165532
-0.006841069937352019
0.015117241683744663
0.0459056305040967
-0.05375739580503533
0.15867045084239376
0.09628507915302642
0.13879118699016652
0.037586306738830524
-0.07078349168294937
-0.24625036343746193
-0.12752363049889318
-0.1209381868984037
0.0003030126219112383
0.08629763940705365
0.19357315189393529
0.16707130860498148
0.026975646398082854
-0.035755109094357675
-0.054647110069026214
-0.07634870153670079
-0.14685174986217886
0.10061445524294191
0.053303492832617
-0.07867764449108636
-0.06508038723944726
-0.06259515143042832
-0.025317911291087656
0.0831840306795341
0.27924614045801904
0.15375509409429636
0.07514747151625434
-0.19894780856506777
-0.3050737811312252
-0.25899835442383706
-0.049203014278610624
0.15788253363363788
0.20296836431756035
0.31590839888705635
0.1025620762280319
-0.057952195688493954
-0.2049458199466626
-0.18103789010063834
-0.21709241424554193
0.07664683223572852
0.11049956072743614
0.10782686569487103
0.09436876554669507
0.08920207115613037
-0.09960894900109511
-0.07418988519340998
-0.04258158205784476
-0.013665255133450958
0.006534522322338055
0.01624667975601608
0.017314596401189025
0.013425547098276034
0.008197907570882434
0.0038519364605900425
0.0007966702337404523
-0.0019040184827044172
-0.005492007306725122
-0.010356586655758735
-0.015244827318947522
-0.017248958276062612
-0.012781872632487187
0.0005604186793291923
0.0217372691290136
0.04444830544640715
0.056774663407954805
0.04307933398708698
-0.011708067285048977
-0.11634033960830864
-0.06796615970569853
-0.04962460042288733
-0.03218051166048248
0.019195774119202588
0.13571337191032237
0.13584000635447566
0.019640507926894608
-0.031280930371103716
-0.0482105035062802
-0.06622796173688715
-0.11482212643361626
-0.011250805475501868
0.04160562151105496
0.05292135240000361
0.0386891229803135
0.01579189713258695
-0.0027272069933430023
-0.01021449506028005
-0.006705760984489715
0.0025225395503635424
0.009462607629445063
0.00629224473543623
-0.011890328155377208
-0.04511282721044106
-0.08796816098933037
0.06913877426859978
0.037093645474175804
0.024456439200044578
0.03453240488819474
0.06432944069704107
-0.0941925360604351
-0.05115688330950565
-0.015391198224740178
0.007982407304248916
0.018225826804091256
0.018068322160028644
0.01194153605728693
0.004212146461745352
-0.002010952108472243
-0.005303143352518115
-0.005707741079359311
-0.0041633059396746245
-0.0018735914986201716
0.00016828553043554293
0.001412842651046037
0.001762444285467795
0.0014353906833610621
0.0007814442469756249
0.00012421617430798332
-0.00033031011191770487
-0.0005149094592671604
-0.0004711710142842132
-0.0002965935364259406
-9.366182765110233e-05
6.393679150684378e-05
0.00014371228541770493
0.000149372790855079
0.00010637443451660366
4.599663029223547e-05
-6.550016044190774e-06
-3.77559801343206e-05
-4.5727958323620056e-05
-3.651299275099492e-05
-1.9296633662688692e-05
-2.3859823435303855e-06
9.058061080462015e-06
1.3474622370040002e-05
1.2067424206316878e-05
7.414105640908777e-06
2.1578623788883815e-06
-1.8408453853899196e-06
-3.796963468988962e-06
-3.850688735207681e-06
-2.683943422650967e-06
-1.108779826473829e-06
2.336299010917793e-07
1.0101698308985824e-06
1.1865171472835015e-06
9.281097514647538e-07
4.751941658414078e-07
4.043627083525432e-08
-2.472640101340058e-07
-3.5220298922799256e-07
-3.0877916744037183e-07
-1.850210949794426e-07
-4.9023331442146266e-08
5.231140760481985e-08
1.0011476468373362e-07
9.914044062209731e-08
6.760640442578798e-08
2.6569165114304685e-08
-7.684667459931114e-09
-2.6965161699932883e-08
-3.0759296820189546e-08
-2.3571504207493087e-08
-1.167635593152531e-08
-5.118900335287134e-10
6.708881157716529e-09
9.182704129596599e-09
7.881548071375583e-09
4.597549797443257e-09
1.08296428425498e-09
-1.4815858201917202e-09
-2.6453199020567735e-09
-2.559821543312574e-09
-1.7105459147352494e-09
-6.428244587851595e-10
2.3017351670056044e-10
7.077394824222757e-10
7.861830954462217e-10
5.876258047777048e-10
2.757144957322096e-10
-1.0658441194288396e-11
-1.9157391463099303e-10
-2.4934832691070885e-10
-2.1119108577207606e-10
-1.2423256158351706e-10
-3.3511445756504604e-11
3.130126297216696e-11
5.951047110206741e-11
5.576287790902876e-11
3.296357142673389e-11
5.218908874090473e-12
-1.700338286302031e-11
-2.8801982189588598e-11
-3.032600445602572e-11
-2.4873674441000498e-11
-1.670731048569808e-11
-9.370151368298701e-12
-4.84557461740652e-12
-3.5115056215301996e-12
-4.612191198913688e-12
-6.9102187672652366e-12
-9.249267783114243e-12
-1.0884897853878308e-11
-1.1565416531414897e-11
-1.1429396195914337e-11
-1.0819134541326695e-11
-1.0099097068360269e-11
-9.534126122293592e-12
-9.243444053088301e-12
-9.216957238206133e-12
-9.365896270271e-12
-9.579391073374647e-12
-9.767159722842178e-12
-9.880099409807583e-12
-9.910474450586943e-12
-9.879135928714757e-12
-9.818520987635185e-12
-9.758282996355065e-12
-9.717067249277073e-12
-9.700739729288911e-12
-9.705251290898572e-12
-9.72154172851086e-12
-9.740205346299935e-12
-9.75455077787483e-12
-9.76169065612228e-12
-9.762044906135635e-12
-9.757995161792503e-12
-9.752421652372445e-12
-9.747621959269862e-12
-9.744808555809427e-12
-9.744129245412174e-12
-9.745012084694204e-12
-9.746608064999843e-12
-9.74815761015926e-12
-9.74919458651994e-12
-9.749583885188511e-12
-9.74944197985772e-12
-9.74900821083075e-12
-9.74852502850486e-12
-9.748161248971576e-12
-9.747986455901827e-12
-9.747985746811152e-12
-9.74809540851971e-12
-9.74824071081257e-12
-9.748363255345639e-12
-9.748433187667856e-12
-9.748448023531591e-12
-9.748423371530114e-12
-9.748381421143756e-12
-9.748341606592642e-12
-9.748315558654161e-12
-9.748306343793386e-12
-9.748310653301179e-12
-9.748322176387783e-12
-9.748334670594886e-12
-9.748343883256947e-12
-9.748348146816477e-12
-9.748347949400851e-12
-9.74834499091239e-12
-9.74834120791777e-12
-9.748338082859788e-12
-9.748336348576173e-12
-9.748336035083072e-12
-9.748336718334343e-12
-9.748337819209372e-12
-9.748338841050396e-12
-9.748339494247595e-12
-9.74833971050609e-12
-9.748339582861635e-12
-9.74833927741922e-12
-9.748338954721829e-12
-9.748338721731777e-12
-9.748338618155247e-12
-9.74833862876146e-12
-9.748338708308239e-12
-9.748338806671684e-12
-9.748338886268947e-12
-9.748338929171674e-12
-9.748338935478186e-12
-9.748338916662322e-12
-9.748338887817821e-12
-9.748338861622259e-12
-9.748338845271223e-12
-9.74833884024787e-12
-9.748338843958389e-12
-9.748338852038134e-12
-9.748338860362988e-12
-9.748338866247032e-12
-9.748338868751887e-12
-9.748338868337519e-12
-9.748338866205258e-12
-9.748338863650911e-12
-9.748338861626003e-12
-9.748338860567513e-12
-9.748338860450573e-12
-9.748338860965855e-12
-9.748338861720491e-12
-9.74833886239126e-12
-9.7483388627998e-12
-9.748338862915026e-12
-9.748338862808728e-12
-9.748338862595412e-12
-9.748338862380898e-12
-9.748338862232516e-12
-9.748338862172248e-12
-9.748338862186527e-12
-9.748338862243521e-12
-9.748338862309772e-12
-9.74833886236122e-12
-9.748338862387258e-12
-9.748338862389102e-12
-9.748338862375059e-12
-9.748338862355346e-12
-9.74833886233819e-12
-9.748338862328002e-12
-9.7483388623254e-12
-9.748338862328409e-12
-9.748338862334031e-12
-9.748338862339552e-12
-9.748338862343289e-12
-9.74833886234473e-12
-9.748338862344271e-12
-9.74833886234275e-12
-9.748338862341035e-12
-9.74833886233973e-12
-9.748338862339091e-12
-9.748338862339074e-12
-9.748338862339455e-12
-9.748338862339969e-12
-9.748338862340406e-12
-9.74833886234066e-12
-9.748338862340718e-12
-9.748338862340634e-12
-9.748338862340486e-12
-9.748338862340343e-12
-9.74833886234025e-12
-9.748338862340216e-12
-9.74833886234023e-12
-9.74833886234027e-12
-9.748338862340314e-12
-9.748338862340348e-12
-9.748338862340363e-12
-9.748338862340363e-12
-9.748338862340353e-12
-9.748338862340339e-12
-9.748338862340327e-12
-9.748338862340322e-12
-9.748338862340321e-12
-9.748338862340322e-12
-9.748338862340327e-12
-9.74833886234033e-12
-9.748338862340332e-12
-9.748338862340334e-12
-9.748338862340334e-12
-9.748338862340332e-12
-9.74833886234033e-12
-9.74833886234033e-12
-9.748338862340329e-12
-9.748338862340329e-12
-9.74833886234033e-12
-9.74833886234033e-12
-9.74833886234033e-12
-9.74833886234033e-12
-9.74833886234033e-12
-9.74833886234033e-12
-9.74833886234033e-12
-9.74833886234033e-12
-9.74833886234033e-12
-9.74833886234033e-12
-9.74833886234033e-12
-9.74833886234033e-12
-9.74833886234033e-12
-9.74833886234033e-12
-9.74833886234033e-12
-9.74833886234033e-12
-9.74833886234033e-12
-9.74833886234033e-12
-9.74833886234033e-12
-9.74833886234033e-12
-9.74833886234033e-12
-9.74833886234033e-12
-9.74833886234033e-12
-9.74833886234033e-12
