0
-2.1107752951089734e-17
-2.109008666646261e-17
-2.1038582058018117e-17
-2.0958980735983415e-17
-2.0874203498448286e-17
-2.082302587188685e-17
-2.0850171391405806e-17
-2.098772342529283e-17
-2.1231977154030102e-17
-2.1524492800314048e-17
-2.17491259645237e-17
-2.1755772178372665e-17
-2.1414629682449245e-17
-2.0691952451846152e-17
-1.972243458598201e-17
-1.8840598437937557e-17
-1.8531922333254266e-17
-1.928120741096124e-17
-2.133326560928706e-17
-2.443297465089836e-17
-2.7660829698409685e-17
-2.9500464088576976e-17
-2.823950572358748e-17
-2.269969803422149e-17
-1.3127583783991028e-17
-1.9000019366590943e-18
6.4107725356248e-18
6.016031089092078e-18
-7.942641668169121e-18
-3.645908016985955e-17
-7.392963535843106e-17
-1.0708537251734738e-16
-1.170820779580183e-16
-8.555097080491895e-17
-3.927133372257362e-18
1.1663907316434193e-16
2.393337537456814e-16
3.049261362581229e-16
2.4794713960642407e-16
2.5332838020801687e-17
-3.4934819445419126e-16
-7.797104696075312e-16
-1.0859826297344287e-15
-1.045202349394763e-15
-4.760269105096033e-16
6.477404471608556e-16
2.0941887561143883e-15
3.3377756034202374e-15
3.6478913450968e-15
2.3298896540451913e-15
-9.117037179629585e-16
-5.595883927262334e-15
-1.0251522576192237e-14
-1.2567668555532975e-14
-1.0044968295917746e-14
-1.118038735551321e-15
1.3530977567661694e-14
3.000405135425698e-14
4.124168715015382e-14
3.8666960025064533e-14
1.553161950110126e-14
-2.8696828658341316e-14
-8.446488187543414e-14
-1.3098695808865132e-13
-1.399694673744085e-13
-8.519653509193346e-14
4.334436061032832e-14
2.2512310494133368e-13
4.0145667319511946e-13
4.82284077575567e-13
3.723373428224268e-13
1.5069026840418924e-14
-5.570055579706995e-13
-1.186637707927529e-12
-1.596941266776403e-12
-1.458405951183329e-12
-5.207414290617262e-13
1.2177932674819718e-12
3.3652660062601505e-12
5.100722878470729e-12
5.329751909031409e-12
3.06510595116104e-12
-2.024561900050473e-12
-9.070699603848767e-12
-1.573643612034449e-11
-1.851597675689162e-11
-1.3783844016114466e-11
4.878877502944002e-13
2.2802924522640095e-11
4.683258761012004e-11
6.17298375400472e-11
5.485229878045611e-11
1.695058717669104e-11
-5.130402536560818e-11
-1.3389216980423883e-10
-1.9843250956581093e-10
-2.026428681087588e-10
-1.0943091196381528e-10
9.181371656150187e-11
3.646194596190661e-10
6.16078897973656e-10
7.098781197673553e-10
5.082802599218786e-10
-6.082115528616619e-11
-9.302728930128245e-10
-1.8459257170833608e-09
-2.3833455487412907e-09
-2.058143818171601e-09
-5.298936521216527e-10
2.146541645444779e-09
5.318607571847818e-09
7.710730838325788e-09
7.69132602914597e-09
3.870230552257046e-09
-4.076068273138246e-09
-1.4625883523823002e-08
-2.4091233047580182e-08
-2.7177960279434655e-08
-1.8662518952772145e-08
3.9927824303128325e-09
3.783020600895043e-08
7.266449487201035e-08
9.19072796838181e-08
7.702556851847142e-08
1.5546428309072148e-08
-8.927867740312205e-08
-2.1094934257837605e-07
-2.9928170133676023e-07
-2.9139334966000536e-07
-1.353223302269838e-07
1.7802648968647347e-07
5.85517935191928e-07
9.409759945963272e-07
1.0390225819053855e-06
6.819289314721207e-07
-2.1850011219587585e-07
-1.5338851908488853e-06
-2.8568335907654467e-06
-3.539761896425001e-06
-2.8746229296474563e-06
-4.0674943447122865e-07
3.6940079393444064e-06
8.354496619128131e-06
1.1602827074859322e-05
1.1018501601174428e-05
4.664894192902377e-06
-7.675490252386672e-06
-2.3395993419655415e-05
-3.671118660807235e-05
-3.966297963537824e-05
-2.4781433857609024e-05
1.0950577230178546e-05
6.202592466095641e-05
0.0001121795009327352
0.00013615970745682208
0.00010695687889377357
8.093716360551794e-06
-0.00015214108359033675
-0.000330402727061917
-0.00044930388641999195
-0.00041579350595532415
-0.00015792291039674574
0.0003274469816078611
0.0009331573713708579
0.0014305375059980973
0.001511562776205993
0.0008945872309497657
-0.0005215548894440399
-0.0025029432407141544
-0.004401348104809679
-0.0052331567210082645
-0.0039692844777940136
-1.553715572606371e-05
0.006242982972469731
0.013064911531274426
0.017426607880860433
0.01577308717337387
0.005469411152735512
-0.01335620937129748
-0.0362609514677824
-0.05416976814630641
-0.05518577177368011
-0.028919361452985272
0.02723866750251539
0.10168194794443738
0.16475357113877415
0.17040701984672268
0.06501546405053285
-0.19770854623643766
-0.4400805614941838
-0.24879789037603292
0.02574342004747316
0.2575582554513721
0.7250801801395937
-0.1084165365787991
-0.40639388628841644
-0.16037397745460702
0.4156333829027076
-0.9076646754412954
0.6307292551383982
0.5861937033891141
-0.08627334553677962
-0.8233007072850893
0.35808271837114936
-0.13049171504670212
-0.04653164209020493
0.07717016218381041
0.11978618761892489
-0.043693425411348595
-0.15879564248336947
-0.005545429890234564
0.19195475711376356
0.1626481088450307
0.1950327088973736
0.15480249000505328
-0.08763705051552792
-0.42535776982090034
-0.4881404046977431
-0.23094239543319978
0.05590510476110937
0.3159383969322568
0.48477639520624605
0.45177125449215494
0.03847008514061357
-0.19948884785849863
-0.3497745845060616
-0.3103999764694923
-0.15929141667513605
0.06375098786284825
0.159262135443058
0.1574893408945169
0.10172621148632252
0.03263570792423088
-0.021806438665537005
-0.04941244614253556
-0.05126524024483642
-0.036247583572314244
-0.015289466315786607
0.0028391025256453944
0.013483919013918827
0.01604745100240454
0.012682243820243244
0.00660615669893895
0.0007048902811670561
-0.0032477590454818633
-0.004735814623596041
-0.004200721428588659
-0.0025524147942449474
-0.0007136918710285262
0.000672187043543986
0.0013393932642663314
0.00134380573229676
0.0009274512509351838
0.0003746926300719172
-9.196905948493762e-05
-0.0003585458834460071
-0.00041526597284130274
-0.0003213851964265087
-0.00016142132096896047
-9.590398668869702e-06
8.950812002932652e-05
0.00012393849690559732
0.00010625958564039835
6.080554731286837e-05
1.2009583487216488e-05
-2.3062610495594508e-05
-3.7308133893650096e-05
-3.239840769521055e-05
-1.5601418743327744e-05
3.7626109130326115e-06
1.7252644838451286e-05
1.9323752881402713e-05
8.533737235639029e-06
-1.1922116720480612e-05
-3.444282981318957e-05
-4.8373994216121485e-05
-4.284875893007675e-05
-1.1074478713989108e-05
4.480044252780833e-05
0.00011007422725359974
0.00015760058387927434
0.00015381350735000973
7.127600236478746e-05
-9.45114756122371e-05
-0.00030976829107948086
-0.0004969394617311121
-0.0005474890455857252
-0.00035732745515734096
0.00011941332147355725
0.0008140893385819128
0.0015110259336807332
0.0018686252098655779
0.0015148741386600537
0.00021342335630819407
-0.0019406277337588407
-0.004374579205328049
-0.006042840227963414
-0.005668798936525789
-0.0022447114439240706
0.004302043164301176
0.012498739150918418
0.019089818255559356
0.019478617347589183
0.008985435340425962
-0.01527294091202789
-0.05248716969170594
-0.09714247118559237
0.06029621511751288
0.030807472940537848
0.02309373809548302
0.040164478088732504
0.07767186900828833
-0.07521498845706581
-0.0326038463832002
-0.007457921729791844
-0.007504450500697091
-0.03280676852938076
-0.07571970515705638
0.0767550600884429
0.038903158494668494
0.021834261874860296
0.030163942350875207
0.06098089716885961
-0.09464121748944478
-0.04829814269389323
-0.010448473472014365
0.01245183079258895
0.019096820728545995
0.012825126770566079
5.2923918569962784e-05
-0.011720681879841977
-0.01593417977780283
-0.008822395704556124
0.009051669749201222
0.0319220170415964
0.04912880254469041
0.04713644251375107
0.013393903384369415
-0.05863391066419613
-0.16490052042451522
-0.0888997293392475
-0.004274488480805803
0.11793362615381542
0.09948675317217384
0.14630478815305845
0.044639399793167216
-0.036019979509818646
-0.13407861194429166
-0.0841785630272768
-0.10697644582743052
-0.0038701931993894855
0.04187154861596695
0.05856005318697067
0.07692580158545369
0.1217768684215498
0.00724520696353069
-0.06323870150161937
-0.09310511992341608
-0.08736649440040693
-0.048713778954557856
0.023188952066858733
0.1292200828373087
0.06686124906304544
0.027274920205261614
-0.004746157671059164
-0.047669093242452575
-0.11827488801575477
-0.02704974875876094
0.02416751555013396
0.041521069021986455
0.0360952163528803
0.020006022760658396
0.003142957013195977
-0.008558248193202028
-0.013215489727887343
-0.011944537990883953
-0.007337262002219704
-0.0020804948571634036
0.0019274003894265716
0.003881046340206039
0.003916834077740431
0.002722897595441687
0.0011204825856391402
-0.0002420345232528162
-0.0010284761426012324
-0.001205403428109462
-0.0009415580688695085
-0.0004810903742814487
-3.977736764217003e-05
0.00025182369684045934
0.00035778309573746903
0.000313249079090996
0.00018738485110155405
4.931083126207788e-05
-5.343194596222994e-05
-0.00010178027165901284
-0.00010063394463150505
-6.852712105743102e-05
-2.684167969766491e-05
7.905773690916595e-06
2.7427152364811137e-05
3.1225325989679844e-05
2.3888238566950167e-05
1.179157183587138e-05
4.552021676222185e-07
-6.862733338203938e-06
-9.350846133226685e-06
-7.999841947403105e-06
-4.634188487112008e-06
-1.0406038607867725e-06
1.5715295416787942e-06
2.733245267570303e-06
2.591959113196871e-06
1.6457518230727826e-06
4.7047917565562816e-07
-4.7542495997842215e-07
-9.414923293472612e-07
-8.880055525658065e-07
-4.3786781214242165e-07
1.878717009389025e-07
7.315884955231173e-07
9.55301525522552e-07
6.978780487107012e-07
-6.403925794394534e-08
-1.1626579338644546e-06
-2.2211942757734907e-06
-2.707902764889925e-06
-2.08792097144324e-06
-6.483270540977557e-08
3.148734844782678e-06
6.645979913512377e-06
8.868436317081674e-06
7.990332533927772e-06
2.6569559355433573e-06
-7.079128743874302e-06
-1.8969572381513867e-05
-2.8403904938382874e-05
-2.9309264039406567e-05
-1.6292528052701804e-05
1.2308926740075254e-05
5.1443511440289596e-05
8.793804347217765e-05
0.00010227542519024395
7.45302984867418e-05
-6.048858953657975e-06
-0.00013041678317829525
-0.00026269865519381274
-0.00034229736294336187
-0.0002994076800939553
-8.40738094440094e-05
0.000297668366516262
0.0007542631492592236
0.00110411146346545
0.0011127943479232146
0.0005779314218438773
-0.0005524920631279541
-0.0020672043719117926
-0.0034428903901300933
-0.003920807811310673
-0.002743669828313265
0.0004711349314483416
0.005327131554688478
0.01039487854325557
0.013321779483318466
0.011463175591631273
0.0030261567257373794
-0.01154246633986593
-0.028474660176584447
-0.040638190558507155
-0.039203013874706344
-0.017282423418122566
0.02492313758407398
0.07483763385186985
0.1041143745494942
0.06922066729915481
-0.08276895117542586
-0.003544430270756426
0.06984020199164143
-0.0720050409159914
-0.20161775740877239
-0.052577491055628124
-0.1268319326476612
-0.1118525153624689
0.09491436348984855
0.36000784637402267
0.2943186578088273
0.24786586951947712
0.12367094561516923
-0.19086235419146716
-0.583812866968692
-0.4836940158016072
-0.24365881408602819
-0.15351881328818762
0.3218784155428759
0.6899697023777651
0.5824300149773669
0.3307522522693005
0.17693918786910692
-0.48192724916830015
-0.8296097725326763
-0.5697909828178653
-0.2907089203477436
-0.06856637488905905
0.4916047813979051
0.792802127565194
0.5835529634666025
0.11768794995028872
-0.25172829101416394
-0.44630501708273235
-0.41771005509336784
-0.3027340292339696
0.007112366573968111
0.2750764898917153
0.31051820716006306
0.15093427272454288
0.04426892518331344
-0.16249986298858735
-0.22780899375025337
-0.11620501782865672
0.0007525727739381633
0.1416251469992729
0.3119065830139758
0.3044056174607208
-0.09351905477273152
-0.28627498963257786
-0.4553151670549611
-0.3519450124021871
-0.10481430081894694
0.35695401875121313
0.672355511686913
0.42221954699018477
0.12143436922879841
-0.1638407039808449
-0.3782073105395828
-0.6317987031148665
-0.3648284928584199
0.26460019361407217
-0.2351237366269048
0.27324310060744444
0.7095803832041703
0.537787869289491
-0.25177069202708713
0.06690998540398943
-0.413290145932696
-0.5923651052696212
-0.3296112300538406
0.17136854240349217
0.35562260301093906
0.29359277478115786
0.053124465237063524
0.07793677067226258
-0.021055612451608648
0.13896435423570827
-0.2731031470708825
-0.2850039582508578
-0.10775308733056513
-0.13154348495020646
0.06754497362302986
0.5135040245675359
0.4163430003108084
-0.03418438586602742
-0.2632131339603026
-0.49668989205534075
-0.3471090982606465
-0.008117004189761932
0.33815018551908355
0.5049634717990795
0.28581729678572043
0.049928344481447486
-0.24749580233172602
-0.44430019244348207
-0.34994493307311336
-0.13467551783393406
0.06431064816307014
0.3211770886598705
0.49295837403753123
0.1962973023109284
-0.0006378676820931255
-0.1675626260985737
-0.18705925224102882
-0.3248681354723067
-0.20645885664315144
-0.00796612184726999
0.13593167231314354
0.11061393391498217
0.1943431954070005
0.23434762584447907
0.03344918229217054
-0.049302612503396
-0.08511701388454107
-0.1540603818592625
-0.12267488980903599
-0.027098721468412447
-0.06592555750168977
-0.003986557004250983
0.01466131130797619
0.04842425421607361
0.13968504550479646
0.3015697987955202
0.11443216877748202
-0.06604749761666921
-0.2912350247480574
-0.19850309994098816
-0.1948304454101016
-0.05158914594630217
0.08730608534672228
0.2869559873834671
0.19969620851623276
0.047914338955978276
0.017170950961629607
-0.13892951362784664
-0.084877547717669
-0.08559217225326671
0.0097378820744961
-0.021438357931051668
0.029029901283187345
-0.0026030693854808486
-0.06005882395079188
-0.07901915867615904
-0.0011756252969380156
0.21205957140927947
0.16936649756395253
0.04622375776449407
-0.009463641157770007
-0.06360923786985448
-0.17791850765118056
-0.19326520283501566
-0.11991580040693733
0.06223769000737875
0.19390751011257681
0.12112665678424653
0.08030891845447184
0.08879811856362482
-0.05663879683982631
-0.17418532751360302
-0.08752528740462785
-0.016742265724280135
0.027238438095185738
0.04361210776116683
0.03905298187949983
0.023483232066788755
0.0061679328453470295
-0.006709115459797034
-0.01272063693468853
-0.012512069937506556
-0.008443722077849297
-0.003213589483403725
0.0011115721544239724
0.003509297252620988
0.003936079098837343
0.0029806149001784603
0.0014474129276985535
2.623153467491375e-05
-0.0008811298629637052
-0.001180517902726313
-0.0010018782387150177
-0.0005764712045430536
-0.00012756710697930842
0.00019623429536913837
0.0003399157218472034
0.00032482910532485285
0.0002139907305040347
7.713010305944878e-05
-3.35185039789212e-05
-9.307838836680077e-05
-0.00010174004519701453
-7.549545443203183e-05
-3.534805143646977e-05
1.0772144347483543e-06
2.378900933443343e-05
3.074163869595657e-05
2.5554821993787303e-05
1.4304284933497555e-05
2.725197410361512e-06
-5.451125616288966e-06
-8.924804786395928e-06
-8.339759431915732e-06
-5.369034642853499e-06
-1.815144548527208e-06
9.995468529085168e-07
2.4688316390698617e-06
2.6286713003166595e-06
1.9101366165981247e-06
8.598773971777967e-07
-7.27870941022449e-08
-6.402320203796096e-07
-7.996650059284959e-07
-6.512355820205474e-07
-3.5429874590678794e-07
-5.597025527534298e-08
1.502572610147593e-07
2.3396764327433467e-07
2.1411990753766228e-07
1.3497042929506355e-07
4.294651320780344e-08
-2.8650991140499105e-08
-6.520265874701133e-08
-6.84148750327911e-08
-4.969353789153522e-08
-2.2904133299585717e-08
9.52370108311585e-10
1.6129492289246544e-08
2.1868028034053342e-08
2.0512778736472074e-08
1.5243803528709916e-08
8.403762482305158e-09
9.219947797777334e-10
-7.1840296284606705e-09
-1.566929513622036e-08
-2.2960481356155894e-08
-2.578258256144199e-08
-1.9975527933451395e-08
-2.521073864883538e-09
2.5779594065381467e-08
5.809745806090585e-08
8.126579791527236e-08
7.860157151354448e-08
3.621264600449782e-08
-4.837594578261742e-08
-1.5824408056464537e-07
-2.5408535051715214e-07
-2.8057198465844225e-07
-1.8435154521255082e-07
5.8466778798993367e-08
4.1339486487802995e-07
7.706497938431031e-07
9.5554462756171e-07
7.769106554614176e-07
1.1175532568852529e-07
-9.945395817719042e-07
-2.2528434875514694e-06
-3.131282259795635e-06
-2.9764602477774823e-06
-1.264934268100613e-06
2.063391326609417e-06
6.306703784017488e-06
9.904911196033432e-06
1.0710312529015551e-05
6.7049586114264956e-06
-2.9295520172169092e-06
-1.6712493943660173e-05
-3.025925842434529e-05
-3.675666520408304e-05
-2.8911005024992932e-05
-2.2635996346422762e-06
4.0966340871628166e-05
8.909933526258544e-05
0.00012126046528603744
0.0001123296105973485
4.2857067571424896e-05
-8.80599906631718e-05
-0.000251567419660688
-0.0003860021559922332
-0.00040823777369659376
-0.00024219311420519278
0.00013958341674933638
0.000674157565288416
0.0011867589644698237
0.00141199371283288
0.001072028365036104
6.283373947042743e-06
-0.00168137852944819
-0.003520342451449084
-0.004692257304252601
-0.00423238138972844
-0.0014197706075870424
0.0037265353015166905
0.010028606276827029
0.015059711326434381
0.015619224176859292
0.008866688486095516
-0.006061167988606439
-0.026468612132801154
-0.04536007342971397
-0.05240884785822103
-0.03718479038804482
0.005567753604554679
0.06987914119280587
0.13402960228090408
0.1602871069564793
0.10096142321654297
-0.08921063405754848
-0.23730935807911907
-0.33875060904873044
-0.15245117260701538
-0.008657894114444151
0.5715240252979868
-0.1488040512918565
0.256388420373974
0.1663332472627227
0.11912689359312384
-0.3682659435722765
0.2288916641841425
-0.3275403217220379
-0.4180996710125304
-0.36186638996007225
-0.03292661061024022
0.5056834085281423
0.7608965359302378
0.37642064219612437
-0.07951917168348521
-0.5013668587339953
-0.6155906701563287
-0.3467436148836864
0.20611040258459637
0.5769409262368778
0.32833182453058296
0.04446610210095706
-0.2710148356058617
-0.39149833509160764
-0.26356426210227013
0.19049050731593148
0.2608076412238166
0.0314886178847309
-0.03821843549337325
0.473091492928896
-0.6547567696424428
0.12224200568349428
0.5256257564252493
0.27283625286549124
-1.1023050112690975
0.16841917547783372
-0.30318946535860813
-0.06622075202711064
0.3520893719763031
1.0237916347042342
0.20296541087482492
-0.6785753620777144
-0.8035883071674699
-0.5597215165012936
0.06021023772482873
0.8440059363679135
1.1405744086570635
0.4517497510630308
-0.3513997697796801
-1.1885324635053176
-0.9229941794467647
-0.33176177244424876
0.29052037264982
0.8934453929782877
1.0159343988688119
0.13933347895872714
-0.33229092629852447
-0.46020246591794806
-0.5378404180015006
-0.2540654308563931
0.3323353584772939
0.40097796123413704
-0.03587301433214509
-0.14585045556779372
-0.08979137138098126
-0.03324614544713753
0.24438295963272808
0.1439513536696954
-0.15445517034457237
-0.08669908026459247
0.105241213324766
-0.014178668957994123
0.1386750313349005
-0.02269991988245306
-0.2488449282753884
-0.45611704192598923
-0.33947198556078473
0.4034060316741387
0.8419762967616774
0.38777768789922473
-0.013631574789397409
-0.2682599125250262
-0.7020828265813248
-0.625981538945058
0.08810934909222282
0.6122640667132657
0.7521317117865398
-0.06795558898404178
-0.21377655789252117
-0.4411181206852554
-0.49265853938897025
-0.30095092450121136
0.5974815594869534
0.6404640085715021
0.4218236936109933
0.08828676740171787
-0.44335377803435927
-0.6546246054209988
-0.39335275372559986
-0.05600757098996661
0.20784432097360325
0.4718560582244717
0.40139889598001904
0.028091726214764613
-0.05983149944017292
-0.10920872244446259
-0.18083108932036113
-0.12454483942221503
-0.1596337546141859
-0.0668733984420163
-0.19467356002698907
0.12257284097477339
0.3397939391816885
0.47890498934819614
0.11787946377154312
-0.0031828770278086453
-0.3601366883152612
-0.41531854857191
-0.3927190938894629
-0.06845993910497757
0.21928607238677542
0.54542842942607
0.36931440895795065
0.11480077624388121
-0.23323507484014572
-0.3165071027881106
-0.3828952369319776
-0.06838373668532738
0.2111866202499156
0.25730278774289234
0.07930865439459286
0.08481097354433387
-0.12532609665146835
-0.15643757090852425
-0.01610030798939919
0.09013846164140692
-0.03875149638638257
0.0009848629867413407
0.016576837939072213
0.016711353339377517
0.009539094809632012
0.0012316055983105226
-0.004636322614237473
-0.006906559431954769
-0.00612528451889853
-0.0036527895347134858
-0.0008968524318456845
0.0011614310780108815
0.002122614129590006
0.0020806023453097473
0.0014112827484624696
0.0005505824338043134
-0.00016447473223364434
-0.0005651975090541312
-0.0006424154234408952
-0.0004909848810401652
-0.00024212828294935956
-9.219689963547006e-06
0.00014098657376246723
0.00019203995018907079
0.00016444604784508199
9.570007128825767e-05
2.235621202012371e-05
-3.102431318519556e-05
-5.5126792445469e-05
-5.3187656974496354e-05
-3.537544851170321e-05
-1.3073959334400002e-05
5.113915364076121e-06
1.5027497547934204e-05
1.661429008272354e-05
1.2437574977593435e-05
5.916445078685056e-06
-5.4657318473401076e-08
-3.815809284315591e-06
-5.005812820970629e-06
-4.1978474294139245e-06
-2.377578634340419e-06
-4.843256812138193e-07
8.647944387913102e-07
1.4489331318092087e-06
1.3668126341540408e-06
8.885678446759279e-07
3.0858827493449426e-07
-1.5511224577451357e-07
-4.0071771342342337e-07
-4.3157308119444287e-07
-3.164628022333606e-07
-1.4418496372373453e-07
1.128110125238816e-08
1.0805716575849283e-07
1.3724501053108166e-07
1.1331759285460035e-07
6.10732757077672e-08
4.64524495606161e-09
-3.8744087164625225e-08
-6.029821029373248e-08
-5.818164176279441e-08
-3.529327378529428e-08
2.122985970473438e-09
4.4653992713864116e-08
7.953511532610482e-08
9.166430428527892e-08
6.717426481680669e-08
-2.293306794756898e-10
-1.0178144613711881e-07
-2.0848384037998775e-07
-2.726509256264363e-07
-2.397172460911436e-07
-7.065076108841795e-08
2.2989968901192627e-07
5.903730470430409e-07
8.684359681806427e-07
8.797741692635686e-07
4.6437869691187466e-07
-4.2055530891242556e-07
-1.6114754596957564e-06
-2.699218384729666e-06
-3.0880066186069165e-06
-2.1806784671396504e-06
3.278527173397413e-07
4.130715586993071e-06
8.105092963450268e-06
1.0391940555751772e-05
8.88480769643132e-06
2.124320790535276e-06
-9.607029023038892e-06
-2.3413065673500388e-05
-3.3694145659818686e-05
-3.333758194082099e-05
-1.6344684583845796e-05
1.856637894954721e-05
6.459106511115734e-05
0.00010549827853801732
0.00011815789746217292
7.993532231334974e-05
-1.986615566660458e-05
-0.00016780470833553717
-0.0003189136510211156
-0.0004005640059119148
-0.000332201715650951
-6.0446976166323756e-05
0.00039882494474044136
0.0009281068713599039
0.001307174679459703
0.0012619910177790587
0.0005685123945765394
-0.0008078883274912782
-0.0025854137350067113
-0.004121025681754494
-0.004517570616496934
-0.0029181577147141743
0.0010487586127406383
0.0068057389859487805
0.012562314665465521
0.015497119683067623
0.012556090501437118
0.0018312990997329855
-0.015823119742146806
-0.03560155778775364
-0.048831486198515295
-0.045061890132261605
-0.016356954526138008
0.03691062242949348
0.10051746334837955
0.14358781686365343
0.12092044709238682
-0.018481840220884123
-0.11801553562474476
-0.19923739647194857
-0.2524740426642503
-0.23746117216465326
0.10387290732162915
0.22529561497232584
0.3526646962787676
0.4693822913176
0.3200010035332797
-0.16488911946980575
-0.4282529893029351
-0.6449817655882188
-0.6974896657965034
-0.3838228687443287
0.13695799395159472
0.872087996977297
0.9184456772018859
0.8111629649908942
0.5211890136739811
-0.09064563073063589
-1.376774351447715
-1.3952926609211755
-0.8309967513012521
-0.17585130343096703
0.4229132665184304
1.6660465726932463
1.3955094956277907
0.5196876939729949
-0.4023323783169714
-1.1171404174309496
-1.3995974008478658
-0.579487117424103
0.29643753612182094
0.4561876792563956
1.1602794665419471
0.6518249830360988
-0.07505085045987384
-0.6751553595517743
-0.224342108359853
-0.3800091324424488
-0.14873134175187036
-0.0738215261574819
0.15371749963473522
0.06572469850697096
0.17906047304718137
0.36138249854334586
0.4110754980900064
0.057785296147103184
-0.4163991612029717
-0.5424119512068466
-0.42877776436007325
0.26263738146394594
0.723932118664633
-0.2058933739249568
-0.05508723789726607
0.0656187193178562
-0.3517480981608048
-0.6281994245686168
0.6843466787798433
0.5857580508517115
0.4178325865155088
-0.33062378979590223
-0.8018191441543508
-0.13640208830890468
0.3591619052382403
0.43768909386326266
0.7276018266462763
-0.8579818747530312
-0.9215712143317645
-0.799270070909453
-0.2050131312046208
0.5001746121034593
2.4315864317054277
0.9273247605827335
-0.05325287229402239
-1.0693361022627137
-1.2949596908655225
-1.2109334560078753
-0.13329459484220277
0.3980956494466177
0.7732460978242427
0.832322030971313
0.5856231357579841
-0.03940175372797763
-0.4121600149116728
-0.5791715323715003
-0.6273967261516342
0.15058517052758766
0.4776693566617185
0.2983962057547337
-0.023112472592226173
0.09437087727808037
-0.5502986031260338
-0.13905869084135478
0.1638246148510207
0.2048670007099696
0.030924336849988056
0.2797804736961851
-0.024096757622879127
-0.2675258238504833
-0.24282635842382777
-0.14294583603453723
0.03860939320391641
0.3027212557145008
0.4384471986618256
0.2216766109560544
-0.17737155802567597
-0.5795400619807678
-0.5829009881068206
-0.35976485365241484
0.5299241339853757
0.9129573153551478
0.5782689077962719
-0.1314173709629923
-0.3041751132049521
-0.6250765790765827
-0.5395220961194085
-0.23089340287204344
0.37725550386197887
0.3957092700721251
0.3320593255451968
0.056300793572340725
0.18160471895916913
-0.13500582774251105
-0.17487066529265918
-0.2307068488766325
-0.18009774964378053
-0.06759018213214016
0.10048409190275075
0.14922050822670732
0.12099375233440593
0.06004385230223403
0.0008455976554519529
-0.03729006210873766
-0.049661564416547434
-0.0417441151192759
-0.02348392519534505
-0.00443900853764214
0.009102726973372275
0.014895151894467966
0.013949388642785037
0.009018159320927803
0.003093659163154613
-0.0016165589271324185
-0.0040918375686554865
-0.004382006532292777
-0.003199373808846782
-0.001453655046265678
0.00010403513549936512
0.001057082825296089
0.0013304127567906597
0.0010884603243780065
0.0005959358269204227
9.845778010320157e-05
-0.00024702222583114475
-0.00038859478190612635
-0.0003569999596910605
-0.0002256869897408585
-7.222506117209375e-05
4.739804323723706e-05
0.00010830844533413
0.0001130755872060098
8.083215880015151e-05
3.522500210494024e-05
-4.616449740419107e-06
-2.8386149036427536e-05
-3.457463589147825e-05
-2.7709082315555548e-05
-1.4724585464190466e-05
-1.9172915293291815e-06
6.784240129208136e-06
1.017453848922179e-05
9.147032533325228e-06
5.64461286167859e-06
1.6683625817004118e-06
-1.3678030056008414e-06
-2.862387096115347e-06
-2.9155035409279746e-06
-2.0399844304403547e-06
-8.498906421399816e-07
1.681453220912879e-07
7.598641934032805e-07
8.973227506718239e-07
7.044901207536183e-07
3.627995483596402e-07
3.346856755469939e-08
-1.853482678777882e-07
-2.6600587744730747e-07
-2.34093696917422e-07
-1.4090527053609226e-07
-3.800350112048836e-08
3.8956895735576884e-08
7.550497621791183e-08
7.50859979909643e-08
5.140717569711758e-08
2.039460508078557e-08
-5.587806535380159e-09
-2.0285466508183474e-08
-2.3259723205601716e-08
-1.7888679194488303e-08
-8.912067430226611e-09
-4.5320829168512367e-10
5.0403618619062495e-09
6.944644140426892e-09
5.984041230582365e-09
3.5102546750605457e-09
8.504075145083303e-10
-1.097759604795334e-09
-1.9881312365372185e-09
-1.93155417191871e-09
-1.293448095900139e-09
-4.863637133714383e-10
1.7597041904257184e-10
5.401828722806011e-10
6.021914940040473e-10
4.5364816724953187e-10
2.182000314231205e-10
1.1825518104325284e-12
-1.3650158248265587e-10
-1.8105502659600463e-10
-1.5278817638252676e-10
-8.725942184142072e-11
-1.8587142545949236e-11
3.066040845280698e-11
5.226054489593156e-11
4.963161925967779e-11
3.2491791818944713e-11
1.15149867842214e-11
-5.3485229967138005e-12
-1.4350921260845245e-11
-1.5572113214923947e-11
-1.1489035457956078e-11
-5.322947686792198e-12
2.383987745490291e-13
3.682933075623849e-12
4.7139850500659294e-12
3.8964249752653466e-12
2.1641123102490625e-12
3.931792194909757e-13
-8.499686606116618e-13
-1.3715213258070712e-12
-1.2738593571093203e-12
-8.148497471743515e-13
-2.703323047206797e-13
1.5849491181882494e-13
3.804012324036528e-13
4.021846562983139e-13
2.905499360695476e-13
1.293069174335845e-13
-1.3045533386891463e-14
-9.905608461282239e-14
-1.2259665902292811e-13
-9.926950757234798e-14
-5.356132528244142e-14
-7.944767047653318e-15
2.3389417305339184e-14
3.591579626791818e-14
3.263570449556544e-14
2.0377061315138622e-14
6.259896203081266e-15
-4.631137710136124e-15
-1.0084772669649527e-14
-1.0397372682935356e-14
-7.359563837839472e-15
-3.1490871790278743e-15
4.904484880858909e-16
2.6338281141547115e-15
3.1621716449012618e-15
2.503868273457255e-15
1.3000030606898378e-15
1.263354128488586e-16
-6.622457249794998e-16
-9.61268090484442e-16
-8.572848719537027e-16
-5.307289914213207e-16
-1.6517115908649833e-16
1.1107451772815691e-16
2.4466852087714456e-16
2.463432778260937e-16
1.64025378484116e-16
5.423087595620187e-17
-3.871242880056274e-17
-9.20112473635643e-17
-1.0360553819167715e-16
-8.519636254759293e-17
-5.3543277606067235e-17
-2.338049215498868e-17
-3.566198498730341e-18
3.521603657648452e-18
3.4670447106481924e-19
-8.33178988662796e-18
-1.7786447764143606e-17
-2.4784012294408517e-17
-2.804486045289854e-17
-2.792452804729416e-17
-2.5702314228983362e-17
-2.28431011312912e-17
-2.0472409037905764e-17
-1.9150065055451028e-17
-1.890339198233469e-17
-1.9414256542271337e-17
-2.0245144023342244e-17
-2.1019430631606345e-17
-2.1516461469969724e-17
-2.1683075006035085e-17
-2.1588666370887337e-17
-2.1358537889047003e-17
-2.1114294092411353e-17
-2.0937280398849165e-17
-2.085800315863688e-17
-2.0865288218070874e-17
-2.0925072936196756e-17
-2.099943383361462e-17
-2.1059830031361708e-17
-2.1092557155666214e-17
-2.1097571836454783e-17
-2.1083488074532635e-17
-2.1061711661184346e-17
-2.1041858246835413e-17
-2.1029412386669655e-17
-2.10255345082484e-17
-2.1028287145096378e-17
-2.1034376824190265e-17
-2.1040679062978315e-17
-2.104515059863876e-17
-2.1047069439185802e-17
-2.104677474735986e-17
-2.1045171360117542e-17
-2.1043239887324582e-17
-2.1041703104279333e-17
-2.104089526467811e-17
-2.104080056074789e-17
-2.104118661650863e-17
-2.104175648559853e-17
-2.1042264960877144e-17
-2.1042576034421864e-17
-2.1042665203611055e-17
-2.1042586160091488e-17
-2.1042425329639738e-17
-2.1042262900437097e-17
-2.1042150109187668e-17
-2.104210389696903e-17
-2.104211422202777e-17
-2.1042157100799976e-17
-2.1042207206880872e-17
-2.104224626161353e-17
-2.1042266145473293e-17
-2.104226769888631e-17
-2.1042257169521006e-17
-2.1042242278236278e-17
-2.1042229270476172e-17
-2.1042221510644666e-17
-2.104221949109344e-17
-2.1042221733387514e-17
-2.1042225973112283e-17
-2.1042230154635228e-17
-2.104223299542671e-17
-2.1042234102054555e-17
-2.1042233766335168e-17
-2.104223262267255e-17
-2.104223132441592e-17
-2.1042230333171e-17
-2.1042229845279612e-17
-2.1042229828016432e-17
-2.104223011392108e-17
-2.104223050249945e-17
-2.1042230834874873e-17
-2.104223102804543e-17
-2.1042231072900185e-17
-2.1042231009922933e-17
-2.1042230898354085e-17
-2.104223079082945e-17
-2.1042230719392653e-17
-2.1042230693065835e-17
-2.1042230703491224e-17
-2.1042230733920254e-17
-2.1042230767517825e-17
-2.1042230792643676e-17
-2.1042230804574267e-17
-2.1042230804435443e-17
-2.104223079670312e-17
-2.104223078657723e-17
-2.1042230778094348e-17
-2.1042230773296237e-17
-2.10422307723258e-17
-2.104223077407988e-17
-2.104223077701091e-17
-2.1042230779772665e-17
-2.1042230781566134e-17
-2.1042230782187676e-17
-2.1042230781873885e-17
-2.1042230781066122e-17
-2.1042230780197682e-17
-2.104223077956165e-17
-2.1042230779271008e-17
-2.104223077928953e-17
-2.10422307794979e-17
-2.104223077976142e-17
-2.1042230779977664e-17
-2.104223078009656e-17
-2.104223078011679e-17
-2.1042230780068278e-17
-2.10422307799914e-17
-2.1042230779920545e-17
-2.10422307798756e-17
-2.1042230779861057e-17
-2.104223077987029e-17
-2.1042230779891687e-17
-2.1042230779914108e-17
-2.1042230779930184e-17
-2.1042230779937238e-17
-2.1042230779936378e-17
-2.104223077993078e-17
-2.1042230779923932e-17
-2.1042230779918425e-17
-2.1042230779915486e-17
-2.1042230779915088e-17
-2.1042230779916422e-17
-2.1042230779918435e-17
-2.104223077992025e-17
-2.1042230779921374e-17
-2.104223077992171e-17
-2.1042230779921445e-17
-2.1042230779920878e-17
-2.1042230779920302e-17
-2.1042230779919895e-17
-2.1042230779919726e-17
-2.1042230779919757e-17
-2.1042230779919908e-17
-2.1042230779920083e-17
-2.1042230779920225e-17
-2.1042230779920296e-17
-2.1042230779920305e-17
-2.1042230779920268e-17
-2.1042230779920216e-17
-2.104223077992017e-17
-2.1042230779920142e-17
-2.1042230779920133e-17
-2.104223077992014e-17
-2.1042230779920154e-17
-2.104223077992017e-17
-2.104223077992018e-17
-2.1042230779920185e-17
-2.1042230779920182e-17
-2.104223077992018e-17
-2.1042230779920176e-17
-2.1042230779920173e-17
-2.104223077992017e-17
-2.104223077992017e-17
-2.104223077992017e-17
-2.1042230779920173e-17
-2.1042230779920173e-17
-2.1042230779920173e-17
-2.1042230779920173e-17
-2.1042230779920173e-17
-2.1042230779920173e-17
-2.1042230779920173e-17
-2.1042230779920173e-17
-2.1042230779920173e-17
