0
5.778722287579813e-11
7.521051277953477e-11
6.567351425577279e-11
1.8227649262124493e-11
-6.574836482245415e-11
-1.6607282823632054e-10
-2.427931394048364e-10
-2.443995305992767e-10
-1.2650189526627835e-10
1.221614756805021e-10
4.5494516694631724e-10
7.566732711033791e-10
8.606229810160748e-10
6.007692498202268e-10
-1.0598999827113057e-10
-1.1707485677461423e-09
-2.2765676747392497e-09
-2.9023120505559393e-09
-2.4609530571496488e-09
-5.506206868079741e-10
2.7398756685877576e-09
6.590008593823937e-09
9.427191893113932e-09
9.265261882401517e-09
4.4432423387868934e-09
-5.367346861565466e-09
-1.8227186635694615e-08
-2.9568590001752657e-08
-3.292095638143315e-08
-2.1995093026814415e-08
6.112059922124872e-09
4.752133144594958e-08
8.954642974443311e-08
1.118340552390465e-07
9.194421352139375e-08
1.5197876645896605e-08
-1.1358421533274332e-07
-2.6113903434591847e-07
-3.656451132982005e-07
-3.5061310356687454e-07
-1.5406744552743397e-07
2.3248667806891064e-07
7.288350586150573e-07
1.15409603659312e-06
1.2574318147133115e-06
8.010612456118896e-07
-3.149787435797839e-07
-1.923575620441884e-06
-3.5178784277655793e-06
-4.303888576566012e-06
-3.425087611306552e-06
-3.4825681790110845e-07
4.686089627382016e-06
1.0333136064125086e-05
1.4165544751004028e-05
1.3241363702640581e-05
5.255177361921871e-06
-9.956276079661764e-06
-2.9090273652372122e-05
-4.499398655039059e-05
-4.795480981924148e-05
-2.900115172995471e-05
1.5246066236410799e-05
7.766201351421297e-05
0.00013803229804675954
0.0001654172168160374
0.00012717380255544583
4.053799804666906e-06
-0.0001925363018588723
-0.000408364113121525
-0.0005482403711759857
-0.0004991549352177986
-0.00017561874336298965
0.00042225083118837495
0.001159141475868283
0.0017528434842672565
0.0018282204459763639
0.0010484141800895486
-0.0006965052733845763
-0.00310305910892396
-0.00536330501287558
-0.006269853232365834
-0.004580038497061822
0.00038743673521136543
0.008077609496672116
0.016223993263610306
0.020906580970815485
0.017397204200160898
0.0017931356470176144
-0.026957851583228713
-0.06545266917550312
-0.10566180627009407
0.06308051226054735
0.05008992153846771
0.05870341780947897
0.0831451542890426
0.10881487708075754
-0.08330649912190864
-0.10926540896101732
-0.1745815968977601
-0.0699995235915358
0.02703401219470508
0.14521959173368193
0.10932034224029202
0.13133503920411968
0.0065778747787731545
-0.08392011327603097
-0.16606908498762962
-0.0638257782419248
0.007591063016574411
0.044177231695564215
0.05134182538522715
0.03957541709508069
0.019845326321713076
0.0004216018722404853
-0.014201786591997632
-0.02260322997344357
-0.024859207401157234
-0.02114257346872011
-0.011264572288345558
0.00459459648289335
0.024320433083680666
0.042300212841119324
0.048887740949593285
0.03169466761707764
-0.021167101116137673
-0.11672134031499865
-0.053302617113957916
-0.01911038727382395
0.005782240957691049
0.044313564794676
0.11592658893795801
0.03103164411473216
-0.011554815867633681
-0.023380000270304686
-0.021978467775367043
-0.025042177013113405
-0.04512316092858546
-0.0865044573827349
0.054884096308909454
-0.011350139205850908
0.12544011503542635
0.07268438602800566
0.032372746906409226
-0.19840080234233887
-0.02492989287749007
-0.05223514647373717
0.11622118462824256
0.07827167830669014
0.03233156691275042
-0.02249535751226092
-0.08521744858041626
-0.15168837444725444
-0.014868000303052839
0.1325019536282911
0.09357689766982104
0.06370231666806303
0.02976500545930108
-0.02628560876216627
-0.1206622647421801
-0.06024740541490464
-0.037410297980363584
-0.029380315856769458
-0.0027905352375587125
0.07776698367017122
0.03965129378138749
0.09357145558914341
0.029155762637752134
0.01623056105068252
0.01173574949066046
-0.029416825961282075
-0.1424619914291309
-0.14333522128179377
-0.02468892318390093
0.041188152723546874
0.09352089507242517
0.17148005660269788
0.10404952668277478
-0.09539975937896097
-0.028867864617685618
-0.10944680979912932
-0.15620403152308288
0.00871896536195995
0.1593870359101735
0.06257499137230137
0.07395400707718232
-0.06353950368199981
-0.21804616950596756
-0.6642393853048012
0.523876667932078
1.28540574703353
1.596135851974339
-0.6930289614231909
-3.0116166222311316
-2.045683273503745
-0.5675827190010344
1.8658778285849105
2.1703788876245835
3.403892468292349
0.7132457068602736
-1.6081878145789792
-3.9688422195975526
-1.4961397054558467
0.30194908975746243
0.9825965888300193
1.1205018072153214
0.8047559765104385
0.3295034404814173
-0.08449692344160091
-0.32257441240110274
-0.36823478323793307
-0.2710212028883244
-0.10831956047972523
0.04563425386727749
0.1377997440903287
0.1422081479889307
0.05794190272647374
-0.09630403457450996
-0.08850827992894804
-0.08006863106155016
-0.03356208095027954
0.07864077754726019
0.2667090370983892
0.11968624807821278
0.008530924785925362
-0.10377217994607948
-0.24805233273912655
-0.23631581733995172
-0.056284804460878336
0.12397478400038017
0.1428192226664389
0.22857769175878578
0.18676738450452607
-0.0037262122091969926
-0.18405919436726545
-0.20139008728779664
-0.09330179159075315
-0.07673084156587373
0.05507666151304464
0.12773904567708622
0.1762260020908284
0.03503468734644142
-0.06849428774601547
-0.11664479538593694
-0.10090265940941791
-0.021003264598627024
0.11496422635076918
0.0896371251752619
0.07640308294852995
0.042288004582009764
-0.04567541104942568
-0.2119801959599132
-0.0650313785982933
0.0064575780636060565
0.03132616837896016
0.04867373945037639
0.09793265225508932
0.009516449864911049
-0.0013115510668591165
0.06400246779113467
-0.00975412976006615
-0.04534832977164722
-0.06565934398827007
-0.08742770191993003
-0.11834883592151621
0.04144858861896699
0.19431077791426446
0.13896978479070354
0.06687515339637666
-0.03669512403922669
-0.18699668788070106
-0.19260998081314631
-0.05076377830737471
0.051892700038592
0.13308774335980916
0.20634821750950777
0.07451848538338389
-0.07109463721283311
-0.045168194718658856
-0.058663217972469976
-0.10910932530539082
-0.17511263287385792
-0.017955392826066112
0.009200979740231437
0.14682647414413103
0.2140235602344147
0.19880132892720642
0.05820431800560422
-0.07044254890426473
-0.2502707277426972
-0.324290438302131
-0.10128776933368815
0.04626353528510958
0.1715163505984082
0.1341112877712302
0.17990140631378518
0.1266908709096553
-0.0396494039342759
-0.15833851212320232
-0.07946761415969046
-0.04784455029658539
-0.0902184925516983
-0.009375474188673667
0.013840788257665278
0.011716658924386135
0.016758209065691095
0.04819050453164867
0.10149014725119797
0.1441017446872186
0.11938783750665521
-0.04104796223142766
-0.19916648429575667
-0.19153988320196938
-0.2160007187334359
-0.029065704017102546
0.04424694732684067
0.29116855585681806
0.18912628250691113
0.18860427399839186
-0.0934361432837439
-0.06830354346864352
-0.16188444987534772
-0.19884174697541315
-0.19122548808112871
0.06434551024245898
0.18073183075412735
0.1694199722108944
0.23105115735405024
0.15315289734475385
-0.08236680668617348
-0.28416520707342524
-0.23537693828431738
-0.28490426133047125
-0.1527431780989517
0.04903157903216867
0.3845456137154604
0.4622094799370745
0.41538225790862904
0.10557516201262489
-0.24941924509236807
-0.4297200043665404
-0.5646851085731885
-0.29816110477846464
0.020287015123383496
0.31564799712662944
0.34697853892204616
0.26053371856172597
0.15152730731076128
0.044825217067548766
-0.10241314619169307
-0.17997710266581035
-0.09398021586553505
-0.13590424269058732
-0.15936322749441525
0.030580233482695028
0.07453672944447691
0.044820353487879834
0.025188199898107562
0.0898102063914008
0.0863312834176108
0.026471601224131603
0.08584819405255624
0.012731534713375577
-0.0565545520694651
-0.1796179943643536
-0.19240973428150288
-0.10077730692210263
0.11819493582883979
0.10579552288769169
0.1062497295107138
0.15182141980386482
0.053301691734089614
-0.2017401159887642
-0.04355011290451743
0.08959549865198038
-0.03775992885767225
-0.04888271384069907
0.05148278095194684
-0.12060337839712862
-0.1307058865941083
0.06680983748544583
0.1179724603125346
0.057327398120977986
0.09844987493300349
0.029891982176958248
0.017911643035386414
-0.18485899711858672
-0.027446757702294204
0.051356346128211515
0.031991040234845246
-0.0813253318940824
-0.06102693842606243
-0.06162307686855121
-0.029656316361364524
0.08328005192164119
0.10731373645863572
0.24468750753362098
0.0673803005004449
-0.07632783280636915
-0.24780058055783674
-0.10102494464816421
-0.06838910219501397
0.04634222478755764
0.06653693740467893
0.03438594350647901
-0.0008895560736879513
0.005119497096098137
0.08276784089485804
0.04342212476957963
0.07966668280602023
-0.029552154967427576
-0.11037499523896178
-0.18489666208601246
-0.06478333156171384
0.0499669507604217
0.1670028580026038
0.09471297343618339
0.036034973811740305
-0.014170409583403269
-0.06747063717740583
-0.13741688723323076
-0.034903497697502554
0.03441772146708874
0.06989689374963634
0.07375827404560686
0.04896613142937429
-0.0013357736137431207
-0.07248518453843003
-0.15617702180016865
-0.03945830424863539
0.0936688537597536
0.05805805091687753
0.06235748250225976
0.10553947595881247
-0.023164128687483947
-0.1407209646409537
-0.06467076594564614
-0.007856722528654395
0.024429009582148428
0.034227436937207825
0.02840566930465193
0.015342300965109676
0.002144335899377684
-0.006875984965478685
-0.010396404147362336
-0.009336747886198645
-0.005719983792123497
-0.0016245995147989994
0.0014876146577710294
0.003001280723139366
0.0030277354875005115
0.002102533277157549
0.0008619867123371813
-0.00019257710813184743
-0.0008015577477537432
-0.0009390077445774851
-0.0007346006572445307
-0.0003758953232702912
-2.8840256220289687e-05
0.00020525232811209354
0.00029630038397440283
0.0002672760267350973
0.000166630720535587
4.410073722338704e-05
-6.324220113280076e-05
-0.00013408722647247323
-0.00015899283813772716
-0.00013508405016427792
-6.39254664140658e-05
4.5729922755864735e-05
0.0001721824662644218
0.0002767689588057193
0.0003072974732661937
0.00021284351925356115
-3.082383425586099e-05
-0.0003923991951042874
-0.0007661170320459989
-0.0009787481890740286
-0.0008346251542112917
-0.0001986699197347371
0.0009016482089169053
0.0021950355096592286
0.0031581852232382677
0.0031273989288039808
0.0015446969686881387
-0.0017047923535330237
-0.005977635010011487
-0.009747891275149644
-0.010847500248358063
-0.007167885626255932
0.0022479338136177306
0.016019970290815273
0.02965674464352185
0.03576830423288291
0.025668612874497912
-0.007704150519536568
-0.0663117419314409
-0.14438914691848517
-0.028231856498190752
0.10074966357919898
0.060351841005932085
0.06141180536655534
0.10378909225463165
-0.023713062067884167
-0.1394182287756399
-0.06252201458498698
-0.007118287338807629
0.021277182684256744
0.025872356690556573
0.016013593913718795
0.0032072363493736294
-0.002929042003534551
0.0021490303158846194
0.016130991979102147
0.029756842762730273
0.028506813325873286
-0.004098373281808771
-0.08220291847522955
-0.0134198448996398
0.003988329140027393
-0.018391781754085356
-0.06117246291261802
0.09876996815329844
0.08331983670990575
-0.09138488529636199
-0.0178270455849712
0.10218356673141145
0.058916053736715705
-0.16215544696110037
0.023755850706979643
0.004687843278959235
-0.02548853626710182
-0.06650543654823818
0.08691479495083744
0.042392292972082316
0.006990520823738196
-0.014887675783552032
-0.02229551133185665
-0.017405619529409794
-0.004607510370588437
0.010468876290047792
0.021855715068604405
0.02424506416998389
0.014328889923937133
-0.007495737694798439
-0.03546679651591122
-0.05767706718085136
-0.057146936511296785
-0.01535949911490907
0.08202178235351545
0.03865434850152152
0.04244330650239541
0.06411296399903217
0.060808719231499365
-0.01525124592068372
-0.004597724427715048
-0.12774530949742585
-0.1756800546248609
-0.1073358775872955
-0.056316634231222976
0.05365147059593652
0.28834584049676487
0.28405012919273603
0.036543868420849675
-0.09783965437192822
-0.18954458688696463
-0.11627442485560625
-0.1432560993321681
0.09125169629625926
0.1828212791462875
0.1607810893834139
-0.11671503380820304
-0.17127834429853794
-0.3174294302727744
-0.28226247675389826
-0.03182809045950342
0.4002877575881774
0.6924768494883887
0.8363935695140592
0.5711249069325495
-0.14885740817001616
-1.866866379376124
-1.7479934087411857
-0.3479065970035849
1.7524351987829667
-1.1488216869028578
1.9993574702781833
1.4857327967792735
-0.030952591266405198
-1.7237812259568575
1.06140371949731
-0.8983857797360514
-0.6022683265906291
-0.34565726063611074
-0.2783127865159694
0.39489834206489366
0.5781363065566173
0.4306297315447279
0.11412042085886516
-0.24398168281433547
-0.16694385267591352
-0.22833830542696612
-0.042581067587717784
0.1471751227982871
0.28115861581341023
0.0957937349511592
-0.2613976832040345
-0.015439067406285374
0.050461766777159904
0.0024166782503946896
-0.8478335047370843
0.03965758981191473
0.20266308539755118
0.7396223762870687
0.07737520460377174
0.5568345457347396
0.04457140989653399
-0.43131821896638234
-1.0326229612052389
-0.2671705064348366
0.2343427419014711
0.31409242836823303
0.2606438536193558
0.17334313722417238
0.13123415102644562
-0.024742432229077967
-0.09401053486439735
-0.10615608498777489
-0.10431334308950614
-0.12864893541287342
-0.0048941130225106586
0.05980602837763602
0.07428179926553165
0.05657734854746858
0.026332594828069787
-0.001058282712676585
-0.017264862968138422
-0.020923734637387847
-0.01558532800465328
-0.006905469451531636
-7.57150684062499e-05
0.0019182924337542498
-0.0009933652623316399
-0.006236558614685573
-0.00967257391169739
-0.0072465949767588165
0.0031217646985602495
0.019875172087140968
0.03699607868944434
0.04465815145345582
0.03173272451487343
-0.0100705728709984
-0.08151319363469663
-0.172471562939908
-0.06200273127788326
0.07697222578325459
0.0691209949343775
0.1271868024368814
0.24550276757770054
-0.0001956140882169652
-0.24583661822853142
-0.1273523973266908
-0.06902561082485342
-0.07657069147886535
0.06266665681192242
0.17322936272704956
0.08206922922584987
0.010060477519967324
-0.03261200452642521
-0.04646759011519038
-0.03938341889980583
-0.02200522645717281
-0.003803461958522089
0.009183361079218428
0.01479044797019647
0.013862216755374197
0.008833248627540619
0.0024143096734167667
-0.003238604664920944
-0.006808895819169167
-0.0077255013935053065
-0.005950260040072213
-0.0018608031817427375
0.0036953950663255373
0.009265534656199913
0.012785679700887724
0.011935219034615889
0.004970817641845978
-0.00806824978769265
-0.024166692632706065
-0.03674136988216059
-0.03623986293283654
-0.01220463701483682
0.043545929572610935
0.1337122922269409
0.05383295972070048
-0.006632762772245549
-0.060450976787814824
-0.11764016975715448
-0.18216798548259505
-0.05291313749560495
0.07025431666382993
0.17717707070099692
0.23933231479666237
0.20823316468438474
0.023812128274183962
-0.16775281052036609
-0.3921077763015101
-0.22934572827825142
-0.20972790107411188
-0.027003358250209025
0.23275397951794458
0.45539252847659156
0.26845532523354565
0.22832200199762775
0.23137767429758965
-0.2522426542196437
-0.5321210190915728
-0.6538086949945675
-0.37415134430072855
-0.16614013065126043
0.7474970028023689
1.7449769246222457
-0.8397706624404945
-0.3419459150885564
0.033761104492803624
-0.3709127069273714
-1.0482803638736742
1.4896896067194285
0.5197644896148982
-0.28461134343199884
-0.4400831465686795
-0.43561522006446934
-0.11785178698032188
0.11216718118904667
0.2886533354133441
0.26204677909501456
0.08003815441566246
-0.02381194187712616
-0.030770849378920336
-0.12879671312978846
-0.10062061999455454
-0.1138880972242264
-0.11796770862605806
-0.04951021182545299
0.15428260417658574
0.1387144363619483
0.31694182815894845
0.06346254427227824
-0.08098644440713663
-0.19414965291903027
-0.15176253274147428
-0.20899063239774585
0.01014882504249421
0.11278753842701873
0.12817360061185007
0.09416954860617201
0.04461161603893824
0.0014475956293995285
-0.026945576833837158
-0.04223371729645766
-0.04982635552298908
-0.052647816565235865
-0.04733459785620274
-0.02414179779177804
0.029523689327431598
0.12337202320836495
0.0586619700574101
0.025236980229601105
0.002654280376822131
-0.03473936296926409
-0.11050927251053262
-0.0392018904714651
-0.022232409014190775
-0.047986806848897175
0.10401173938085422
0.05645801185998869
0.027524549927041633
0.026281037756042756
0.05156659510847451
-0.10573335164179301
-0.05824725161138757
-0.017400999331101764
0.00984698412440041
0.021979168310699317
0.021856226434998936
0.014574935925791257
0.005295991082257527
-0.002244752594498453
-0.006297560378410176
-0.006873365244034145
-0.005073869620880942
-0.002338910991572049
0.00012972862381654612
0.0016562995255904312
0.002108403340807796
0.0017383154733965145
0.0009626735489892159
0.00017192913083309233
-0.0003819574808176993
-0.000613321417544887
-0.0005684854654183053
-0.0003628683849846388
-0.00011963046028190244
7.15692088749118e-05
0.00017022545584293364
0.00017956509743080325
0.0001294799649803543
5.741320354655833e-05
-6.089469420024477e-06
-4.43713418237706e-05
-5.4757680394299635e-05
-4.425467468986002e-05
-2.3809266808003742e-05
-3.4483145799415382e-06
1.0510133211068738e-05
1.606486576054445e-05
1.4570132096012393e-05
9.081021572391382e-06
2.7761565709720317e-06
-2.078851731682656e-06
-4.5025649878167355e-06
-4.632128318430159e-06
-3.269692774761933e-06
-1.3880535112682307e-06
2.3536328006880205e-07
1.1891700514952067e-06
1.4218671386245167e-06
1.1257288440113796e-06
5.873188516477195e-07
6.350379666062144e-08
-2.8773744138236453e-07
-4.2025775737802254e-07
-3.730602357916812e-07
-2.268640044705343e-07
-6.361396446477842e-08
5.9521034974948136e-08
1.1887491486082351e-07
1.193596765256697e-07
8.243897393484758e-08
3.3358424607122296e-08
-8.112791715540973e-09
-3.183251987467021e-08
-3.691143225484896e-08
-2.8593954153641073e-08
-1.4375829145722394e-08
-8.487556197744381e-10
8.01348556048162e-09
1.1126669296297225e-08
9.57552743408801e-09
5.493744827582329e-09
1.0403092182863441e-09
-2.250212978704402e-09
-3.6909587411345907e-09
-3.3433646924865892e-09
-1.7594247825792779e-09
2.9138388131306206e-10
2.033817500722577e-09
2.8302476397153875e-09
2.290036373768773e-09
3.781984364551245e-10
-2.480889857331842e-09
-5.360699746324391e-09
-6.941202209359205e-09
-5.847080985027666e-09
-1.2183154146871983e-09
6.61300244701815e-09
1.560777399571659e-08
2.2022503534232473e-08
2.124122260223768e-08
9.519942859212523e-09
-1.3678809984007027e-08
-4.356684637229234e-08
-6.929737389821166e-08
-7.578760035151625e-08
-4.868571878520243e-08
1.8137745726336345e-08
1.1479967528916644e-07
2.1098098476965953e-07
2.590052162087716e-07
2.072574271636967e-07
2.3333047337407673e-08
-2.7884340591978513e-07
-6.189900523594081e-07
-8.515158452747869e-07
-7.993624399583684e-07
-3.2299660378182304e-07
5.890449118761797e-07
1.7401704469063323e-06
2.7018558659251707e-06
2.890208198803363e-06
1.7635377991399122e-06
-8.861910228535625e-07
-4.637173136966776e-06
-8.28005679474984e-06
-9.956817933688215e-06
-7.6999190402798e-06
-3.383826567068099e-07
1.1462781671788994e-05
2.4464643451661925e-05
3.2956573781802705e-05
3.013590011569299e-05
1.0826534823108437e-05
-2.502603217182338e-05
-6.935515113750379e-05
-0.00010523464923722956
-0.00011007806216261033
-6.34843513980958e-05
4.143939211913952e-05
0.00018684006258202704
0.0003245528215349734
0.00038224259344975454
0.0002850212519031895
-9.130181938086877e-06
-0.0004695774609756492
-0.0009659594852205172
-0.0012745396090056232
-0.0011342409645947527
-0.0003535654898193917
0.0010548030705884864
0.002762050634896611
0.004102370525925563
0.004206491234659817
0.002313565622941227
-0.0017886945086679215
-0.007338439659956204
-0.012408228036291042
-0.014181728206333098
-0.009842677606256916
0.001988505361436376
0.01962588489490254
0.03712646989766681
0.04427592365724688
0.028292039276808883
-0.022785689090585523
-0.11587619195722271
-0.049371013393644456
-0.012037724416805095
0.014828212098990105
0.052527079167769004
0.11912422428257192
0.02489821221370822
-0.029255388274771317
-0.050122370350519564
-0.048278595895881626
-0.03392833140955437
-0.014226610150370595
0.007054966068154137
0.02776533697192557
0.04463285662049095
0.05104953676297614
0.03669041847344655
-0.01044671198631434
-0.100043441741007
-0.03493822884711355
-0.007914361199644913
-0.0011977274170403077
0.010965384485473267
0.05731475748084721
-0.036585264736290216
-0.05437232660232507
0.006294744149132163
0.13105927821400226
0.08936628270751416
0.03909566321351473
-0.06457428022308971
-0.05762793676566082
-0.15617574052745176
-0.14969103873040024
-0.0013509852822208585
0.1439878578227018
0.14646688780214273
0.056847307560210454
0.10544885270915703
-0.10309047621610837
-0.18946824837915158
-0.1961760315521554
0.016450856690826583
0.17356975386003598
0.39054043098690294
0.3831122530007231
0.0862054580418797
-0.32043227989263817
-1.1883539895881692
-0.5918608350163551
0.053692921164716904
0.9457983317297487
0.6346998888103063
0.9730996089446436
0.0977685315518589
-0.5479705566894442
-1.1598958797993062
-0.5093865371671515
0.10408476436400245
0.26897610215966467
0.24612369313565757
0.33375870849533434
0.22935800134874035
0.0014215465661272311
-0.12255949725413044
-0.1527301132636625
-0.12374917163131326
-0.07910281494483164
-0.05856408234812333
0.10857771231535875
0.2050499093857974
0.02444831840626472
-0.029867654979260118
-0.14469563306003946
-0.09673677914117347
-0.05431306475781821
0.01747050803081994
0.14863428417949417
0.1558703835820647
0.03717176902821668
-0.027911178509529587
-0.07212962328400192
-0.13071157793538396
-0.031410660862083835
0.012292769683695477
0.0030838694598255695
-0.04309805437953248
0.09671950066864853
0.04517384842063694
0.01826548576029416
0.021844584073916855
0.05164077848936832
-0.10357041058524612
-0.05705981734292399
-0.019395619502760024
0.004463064851307284
0.015445796344910567
0.01835432045607783
0.018647117312872143
0.019321029924655616
0.018943582898478407
0.011416220199637887
-0.012506985915599957
-0.06244938424027998
0.05474040906913996
-0.0624076674664945
-0.008611112644423397
0.02803830346917555
0.06459227463352604
-0.079148204786108
0.016543748570587914
-0.03164913434628446
-0.013067749722280645
0.07422812505160135
0.021686889385517806
0.010230227907570706
0.012515371274544676
-0.0025960396145659204
-0.06418728785091905
0.006624921609213359
0.0012488424273552506
-0.07429039045403864
-0.0002953741659657994
0.05268003724618654
-0.0823710236421658
0.023888355153648663
0.19060002997057487
0.02260016947154913
-0.08991527301139343
0.03227131133250379
-0.03618368938219423
-0.11822020256758357
-0.029098606533133772
0.025712800623925038
0.04926141575794242
0.04953135536185726
0.0354247718101746
0.014036408343134861
-0.009910207518260225
-0.03269711589622351
-0.04941944504647572
-0.052423354155870204
-0.03156630728360742
0.023326106065227566
0.11854248497693481
0.05277832775082456
0.015526226336879223
-0.011319347086307788
-0.04895443448835916
-0.1158993795206919
-0.02318489255587982
0.027748141462678698
0.04391078156431299
0.0372480228473223
0.020400763321651562
0.0033253169143347937
-0.008357264623334533
-0.01324177967432227
-0.01280235653256872
-0.00962117280096076
-0.005881714061060179
-0.0025603648950523793
0.0005664112415327105
0.004257452454616345
0.0088303061610004
0.013299968580442675
0.01502934039593195
0.010138881513339274
-0.00533636248930567
-0.03387663233903973
-0.07509570029260955
0.07482304385004242
0.022572186780662407
-0.02373039356509505
-0.056339599120343094
0.13047926720899708
-0.060701175392609816
-0.030940460292532158
0.015320657579451762
0.07108551098403225
-0.07200827293039365
-0.022326233982755243
0.013052226717559647
0.029293349128744674
0.024376569725695102
-0.0005724211280476454
-0.04108883478973019
-0.08954263498960721
0.06389236538752262
0.029299079425908675
0.014547819280347228
0.02321237237678479
0.053710401914783164
-0.10006268603419148
-0.04703875106597485
0.0029103115496468407
0.04031877589799689
0.056866616124305436
0.046117419478391375
0.004928723263704943
-0.06445854385638271
-0.15262570436947434
-0.04303821415964703
0.08488466694126758
0.04996605118175865
0.06265935086517196
0.120361918505987
0.0068579392164344576
-0.1034700092325049
-0.03790092408308427
-0.01673047217694526
-0.04664585230545931
-0.11829725144457033
-0.008947289393060137
0.11039857663837958
0.06546974970082656
0.0699717337758756
0.12075043117002329
-0.0012175150817143304
-0.12417830533150406
-0.07559575599349125
-0.07243310340727108
-0.11530615620074636
0.011389510205186713
0.13354842969896313
0.07798730442417413
0.06326830571714909
0.09411339867509734
-0.03879991974862585
-0.15410408761251093
-0.07242257975338821
-0.009605887920508212
0.027037036891171134
0.03878688018583728
0.03278213552972409
0.018240279048391345
0.003204091130351208
-0.007309340429872928
-0.011639115585266854
-0.010703916855916559
-0.006739581060218994
-0.002106537455193312
0.0014957253458117228
0.0033163354404074177
0.0034381759385245653
0.0024450525178255026
0.0010550404630264901
-0.0001531791283034703
-0.0008698427010548171
-0.0010520868875760218
-0.0008393733061073715
-0.00044307947594989265
-5.419143631860286e-05
0.000208754979129277
0.0003100267428280073
0.0002774259706493376
0.00017028717353995972
4.93952692566074e-05
-4.250089345511814e-05
-8.739444719937162e-05
-8.854854677393812e-05
-6.166707757030469e-05
-2.542873535700976e-05
5.430021991389142e-06
2.3262355095378908e-05
2.7291783191482903e-05
2.133109494763458e-05
1.0907963234797621e-05
9.114654975388936e-07
-5.697923768922013e-06
-8.103183357726856e-06
-7.098306264286066e-06
-4.24904964045592e-06
-1.1212530364817077e-06
1.2074603115900927e-06
2.304410809561659e-06
2.2799201898424325e-06
1.5534870729051988e-06
6.094279809059554e-07
-1.7794993754327212e-07
-6.206651936938817e-07
-7.072491673078703e-07
-5.414959838987428e-07
-2.677653386679065e-07
-1.1069322103403812e-08
1.5480389578212336e-07
2.1148652943622332e-07
1.8140496186039978e-07
1.0580451402772521e-07
2.4976641861539962e-08
-3.3954643966638404e-08
-6.065484064808125e-08
-5.86353783928e-08
-3.907359335913508e-08
-1.4511960887221125e-08
5.5543290788312035e-09
1.651906332011701e-08
1.830580795399093e-08
1.3728130230185912e-08
6.550871600023065e-09
-3.3191443841055666e-11
-4.188838785965386e-09
-5.51209707126955e-09
-4.63056742985726e-09
-2.6288662367310257e-09
-5.425702474428761e-10
9.466921488169392e-10
1.5937984441873102e-09
1.5062557500109732e-09
9.81170173302216e-10
3.4296924133710885e-10
-1.6779692728891118e-10
-4.386603321253441e-10
-4.732658725082044e-10
-3.475910117676897e-10
-1.596891324501896e-10
8.993623935528752e-12
1.1291613409283527e-10
1.434566498680291e-10
1.1804222370909302e-10
6.514779777349601e-11
1.135953346935971e-11
-2.6221752053589805e-11
-4.182945542112006e-11
-3.8666743186668376e-11
-2.461347472988164e-11
-8.05149439987148e-12
4.9333997395661496e-12
1.1605913364317442e-11
1.2203679985046155e-11
8.771319726426564e-12
3.859238831378106e-12
-4.574073093765617e-13
-3.051259036706457e-12
-3.7462031524766875e-12
-3.022933557792405e-12
-1.6278389351354324e-12
-2.426804410750331e-13
7.042635300422475e-13
1.0786510262379816e-12
9.740163130790446e-13
5.98913422723235e-13
1.6964141901114351e-13
-1.600475861154118e-13
-3.2392117153234065e-13
-3.317769683347723e-13
-2.384646212184028e-13
-1.1023642126518303e-13
9.958838712053858e-17
6.470894898761793e-14
8.023844760229371e-14
5.987072206086226e-14
2.3140603630378025e-14
-1.2489253047132837e-14
-3.631263847239027e-14
-4.523687574339696e-14
-4.1951040478070897e-14
-3.196402542636302e-14
-2.0851118550168573e-14
-1.2491102450302504e-14
-8.479812184412545e-15
-8.470951492814009e-15
-1.0997346247026818e-14
-1.4340101512724455e-14
-1.715704387199452e-14
-1.8762889936470094e-14
-1.910168486283245e-14
-1.8533122530962116e-14
-1.756773221779441e-14
-1.6652286630695883e-14
-1.6053902160929937e-14
-1.5842726013755216e-14
-1.5942401671764427e-14
-1.6207683927604053e-14
-1.64950301667719e-14
-1.6706735299050306e-14
-1.6804564339139075e-14
-1.679983398227104e-14
-1.6731685361616595e-14
-1.6644660013596913e-14
-1.6572827338545673e-14
-1.65330069069552e-14
-1.652585888414795e-14
-1.654161289663479e-14
-1.656694541464052e-14
-1.6590439303066742e-14
-1.6605443828967428e-14
-1.6610398014149725e-14
-1.6607448118289576e-14
-1.660041685607641e-14
-1.6592995680929113e-14
-1.6587641903369803e-14
-1.6585265692090583e-14
-1.658551446544765e-14
-1.6587346594572684e-14
-1.6589609269987285e-14
-1.659143880916103e-14
-1.6592423789517317e-14
-1.6592567242890696e-14
-1.6592133497096638e-14
-1.6591469787937398e-14
-1.6590867533384947e-14
-1.6590491961790094e-14
-1.659037693404474e-14
-1.6590462631068555e-14
-1.659064861193504e-14
-1.6590840052728052e-14
-1.6590975252133788e-14
-1.6591032706828382e-14
-1.6591023053597356e-14
-1.6590973948700735e-14
-1.659091519335702e-14
-1.6590868653207384e-14
-1.6590844354483917e-14
-1.6590841705731837e-14
-1.65908535817046e-14
-1.6590870944804715e-14
-1.6590886365568187e-14
-1.6590895748754767e-14
-1.6590898385816676e-14
-1.6590895932041023e-14
-1.6590891022244435e-14
-1.6590886089427225e-14
-1.6590882680221488e-14
-1.6590881298140646e-14
-1.6590881629668223e-14
-1.659088294208362e-14
-1.6590884465900377e-14
-1.6590885648314272e-14
-1.6590886246002686e-14
-1.6590886287338202e-14
-1.6590885963758193e-14
-1.6590885510182427e-14
-1.6590885115789733e-14
-1.659088488182611e-14
-1.659088482232797e-14
-1.6590884891773945e-14
-1.659088502115284e-14
-1.6590885148110005e-14
-1.659088523394638e-14
-1.6590885266998077e-14
-1.6590885256344504e-14
-1.6590885221358965e-14
-1.6590885181887025e-14
-1.659088515188472e-14
-1.6590885137229694e-14
-1.65908851368553e-14
-1.6590885145633562e-14
-1.6590885157465778e-14
-1.6590885167540763e-14
-1.6590885173362247e-14
-1.6590885174677085e-14
-1.6590885172730398e-14
-1.6590885169327043e-14
-1.6590885166063248e-14
-1.6590885163905493e-14
-1.6590885163120418e-14
-1.6590885163448692e-14
-1.6590885164379065e-14
-1.6590885165400296e-14
-1.6590885166160565e-14
-1.6590885166518648e-14
-1.6590885166510592e-14
-1.6590885166273375e-14
-1.6590885165965133e-14
-1.6590885165708065e-14
-1.659088516556354e-14
-1.659088516553529e-14
-1.659088516558942e-14
-1.6590885165678798e-14
-1.6590885165762607e-14
-1.659088516581676e-14
-1.659088516583526e-14
-1.6590885165825435e-14
-1.6590885165800747e-14
-1.6590885165774358e-14
-1.659088516575512e-14
-1.6590885165746404e-14
-1.6590885165747063e-14
-1.659088516575345e-14
-1.659088516576147e-14
-1.6590885165768022e-14
-1.65908851657716e-14
-1.6590885165772184e-14
-1.6590885165770688e-14
-1.6590885165768347e-14
-1.6590885165766195e-14
-1.659088516576484e-14
-1.659088516576441e-14
-1.6590885165764696e-14
-1.659088516576535e-14
-1.659088516576603e-14
-1.6590885165766517e-14
-1.6590885165766728e-14
-1.65908851657667e-14
-1.659088516576653e-14
-1.6590885165766318e-14
-1.6590885165766154e-14
-1.6590885165766065e-14
-1.6590885165766053e-14
-1.6590885165766094e-14
-1.6590885165766154e-14
-1.659088516576621e-14
-1.6590885165766245e-14
-1.6590885165766255e-14
-1.6590885165766245e-14
-1.659088516576623e-14
-1.659088516576621e-14
-1.6590885165766198e-14
-1.6590885165766195e-14
-1.6590885165766195e-14
-1.6590885165766198e-14
-1.6590885165766204e-14
-1.659088516576621e-14
-1.659088516576621e-14
-1.659088516576621e-14
-1.659088516576621e-14
-1.6590885165766207e-14
-1.6590885165766207e-14
-1.6590885165766207e-14
-1.6590885165766207e-14
-1.6590885165766207e-14
-1.6590885165766207e-14
-1.6590885165766207e-14
-1.6590885165766207e-14
-1.6590885165766207e-14
-1.6590885165766207e-14
-1.6590885165766207e-14
-1.6590885165766207e-14
-1.6590885165766207e-14
-1.6590885165766207e-14
-1.6590885165766207e-14
-1.6590885165766207e-14
-1.6590885165766207e-14
-1.6590885165766207e-14
-1.6590885165766207e-14
-1.6590885165766207e-14
-1.6590885165766207e-14
-1.6590885165766207e-14
-1.6590885165766207e-14
-1.6590885165766207e-14
-1.6590885165766207e-14
-1.6590885165766207e-14
-1.6590885165766207e-14
-1.6590885165766207e-14
-1.6590885165766207e-14
-1.6590885165766207e-14
-1.6590885165766207e-14
-1.6590885165766207e-14
-1.6590885165766207e-14
-1.6590885165766207e-14
-1.6590885165766207e-14
-1.6590885165766207e-14
-1.6590885165766207e-14
-1.6590885165766207e-14
-1.6590885165766207e-14
-1.6590885165766207e-14
-1.6590885165766207e-14
-1.6590885165766207e-14
-1.6590885165766207e-14
-1.6590885165766207e-14
-1.6590885165766207e-14
-1.6590885165766207e-14
-1.6590885165766207e-14
-1.6590885165766207e-14
-1.6590885165766207e-14
-1.6590885165766207e-14
-1.6590885165766207e-14
-1.6590885165766207e-14
-1.6590885165766207e-14
-1.6590885165766207e-14
-1.6590885165766207e-14
-1.6590885165766207e-14
-1.6590885165766207e-14
-1.6590885165766207e-14
-1.6590885165766207e-14
-1.6590885165766207e-14
-1.6590885165766207e-14
-1.6590885165766207e-14
