0
-2.1924489458215737e-05
0.02711495713432877
0.04246057760276578
0.036027545629031925
0.0017595470930003429
-0.060204878432580156
-0.14202423908295164
-0.0286523267431952
0.09889430668659563
0.05805860739549535
0.059010226231063626
0.10109141975258575
-0.026938589580342925
-0.14290388426163156
-0.06517487131371144
-0.007148985047838305
0.025675792131600303
0.035419676117183004
0.029184854133658282
0.015610423296765562
0.0019987849097392466
-0.007244550558154054
-0.010797787676238617
-0.009640413876476819
-0.005873936314061805
-0.0016428303992976024
0.001553696050587887
0.003092689765466496
0.003099277141867399
0.002132117876985108
0.0008493322827026733
-0.0002336936595232354
-0.0008528739293901263
-0.0009856280195543908
-0.0007692900951711532
-0.0003995638274935992
-4.804277654710117e-05
0.00018246086289599333
0.00026471103225930405
0.00022773999821396678
0.0001270411171623539
1.7430386930465767e-05
-6.389920776773821e-05
-0.00010253107139472317
-0.0001028532838931822
-7.952619891774034e-05
-4.876158399826625e-05
-2.2318482100616612e-05
-5.2757286766433634e-06
2.9084495837369483e-06
5.456970727745013e-06
5.109933067912615e-06
2.112278429875753e-06
-5.877751066433308e-06
-2.1942857929309156e-05
-4.6855487037414967e-05
-7.615215722169471e-05
-9.894508903494494e-05
-9.985996149364942e-05
-6.462687738137109e-05
1.1619648512205866e-05
0.00011604781386912435
0.00021399976597080792
0.00025344040112491314
0.00018067765052315657
-3.3948278969810944e-05
-0.0003673506034250503
-0.0007243812167591795
-0.000942881750587533
-0.0008347184022467751
-0.0002634109784248641
0.0007587278999831821
0.001990579281585305
0.0029488241140568816
0.003006602518937505
0.0016208335115394537
-0.0013490342921579097
-0.005335081138627087
-0.008927196822521735
-0.010080967487439743
-0.006771404950634208
0.0019529871401769007
0.014767976010288243
0.027166382037859524
0.03135805973068256
0.017332737502394488
-0.024978825237879174
-0.1030891835179887
-0.019971467858776286
0.026272976800810442
0.04079258056598823
0.029083248188956475
-0.005917094720104667
-0.06553986916484647
0.04480877450053613
0.11807428210245513
0.1503844236453298
0.14803228306073063
-0.06507193476635079
-0.4437139197240202
-0.728178559704972
-0.6682474699762108
-0.06591347953398002
0.772656097816507
1.798740886903051
2.4272544369236964
1.6124365869087294
-2.8073763024653995
-5.535380403141747
-0.8838108157272567
3.2465314544446273
-4.553622328955768
3.5677176131858497
5.4562404527441
0.3331411141222477
-4.30471534155855
3.7583434090593366
-1.5829049586629929
-1.5334349667783986
-1.378091333350523
-0.9170039031297946
-0.1923571281874508
1.0857702699517127
1.2375511716746257
0.6788445828917825
0.1992298983761892
-0.11655635311828244
-0.3148028109989233
-0.35625403337174005
-0.2759402613680867
-0.1389352560627174
-0.005968107377673121
0.08499356023380238
0.12202239049710618
0.11250969064093727
0.07281511888975972
0.01944786396425329
-0.03557127396379914
-0.08514610745517198
-0.12515491256296488
0.04753334291917533
0.03549273506367418
0.03953873673164527
0.05708063077652507
0.0815518479866082
-0.09621623748339272
-0.08500789359513168
-0.09001908165649028
0.08892673319838501
0.05694115310147931
0.02193008713159731
-0.007949563392237069
-0.026162825768369168
-0.02872649641580552
-0.014543359797173253
0.014446957927169653
0.053255891049957586
0.09434414685643784
-0.07094711932997876
-0.05012966072832447
-0.04739926641590795
-0.06299884892976178
-0.09519751125314492
0.05521289178008728
0.17960098922577752
0.25842584595461093
0.06369588855022904
-0.03151471722632948
-0.23846906429864606
-0.3387080508366953
-0.2777469297034757
0.028109288320528905
0.2715209148711793
0.326270279618314
0.22178304228872442
0.129822938306656
-0.031222518171239146
-0.17549582487961599
-0.21902298872012926
-0.249031363435271
-0.10251528327473973
0.04018386618152137
0.2461117316604508
0.20869449124192582
0.02115467980767493
-0.6503972739594002
-0.39156188151010773
0.1396465095375235
0.8007076284988167
1.3716332888010547
1.3939791325125273
0.04666571933687135
-1.956678499214284
-4.2890361425451715
-5.403290189368036
1.967175903253418
10.021036366480308
5.504501448365104
1.0487444972263544
-4.903646194177124
-6.629884420088036
-9.663534194831708
-0.30078962718288593
7.044265565875371
10.297563294120824
3.1707108374474946
-1.4211578934487776
-4.483950548810634
-5.465270227656237
-1.5159296315041249
0.7620334442671789
1.60427362293096
1.2188019926032994
1.0308056597062394
0.5131050708659043
0.05715924462863186
-0.29167161492971594
-0.4379128089446217
-0.39857798321192894
-0.2494388184380385
-0.07594477651176007
0.058931934918290706
0.12698166379700151
0.13115626401498565
0.09332424017044053
0.0405205839260202
-0.00540010674830716
-0.032702445018952614
-0.03973732701996834
-0.0317708100928861
-0.016815321925449662
-0.0021285450911361766
0.0077745993773103836
0.011532758970910596
0.010220600427663502
0.006135489849985726
0.0016404108261697256
-0.0016057494390215882
-0.002938482730627974
-0.002581759977554084
-0.0013106989371558693
-4.7895572937576384e-05
0.0004869437083435709
8.619122747950459e-06
-0.0012470867312526072
-0.002589384358350565
-0.0030880879196521823
-0.0019174252055618702
0.001232499435644775
0.005793329956103365
0.010172380597178711
0.011997443446364353
0.008853756291433021
-0.0005564084620112982
-0.015144349265890826
-0.03060628133283347
-0.03969651551502478
-0.03411807380196245
-0.008069562610614927
0.037273535263825264
0.08989173183868303
0.1257323991076312
0.11202881593320771
0.01567487270492704
-0.18502878308277365
-0.2893921697256113
-0.2695945920219535
-0.07653853721317966
0.1433296788461312
0.4254289078418959
0.568389604361659
0.32969166982314624
-0.15876310594002618
-0.5585015799865769
-0.688502866280039
-0.502785705697907
-0.09548995656663856
0.4633890916969312
0.47179114885727536
0.33884566887800377
0.5495577392502932
1.0668891258802973
-0.6244624847809677
-0.8427754372122972
-1.2261830140402425
-2.8713504050380063
0.4850409917737388
8.245376593650107
1.321631137069041
-6.467443942333107
-1.5716405363748904
-2.1049324436074754
-4.523666037612721
3.391031889268009
10.096523275450366
3.5060983814684414
-1.2272524804027491
-5.117482670783245
-5.007075640515773
-2.6242257338735606
0.827610327263936
2.2842554111545517
2.267406643843321
1.4513409815914424
0.44622735234879574
-0.33756385500630726
-0.726242790383333
-0.7405152001477942
-0.5132350151637545
-0.20499037101716766
0.05670104817845089
0.20515419204465393
0.2332190021296435
0.17423575876802128
0.07767864861952112
-0.011245517481663893
-0.06362533165607046
-0.07039342952552904
-0.03982555707167013
0.007999583690218075
0.04754221126392719
0.053897161493199765
0.008378030637705305
-0.09667386058378397
-0.05467389857313284
-0.04443199468595375
-0.033609615370653684
0.014150643353707575
0.13002403196856893
0.1314585632514555
0.017215636691067973
-0.03211780148065952
-0.048258146057572913
-0.06611817569560373
-0.11464317468567911
-0.010517526770543767
0.04363027453374548
0.05666820077210187
0.04370431400629366
0.020414525530189687
-0.0011672690482146418
-0.01452876911668955
-0.018383907370250578
-0.015000514203154125
-0.008114360087133388
-0.0011923694797736249
0.0035640970273450104
0.005448164435803119
0.004923456731396611
0.0030514439587014906
0.0009382105564834254
-0.0006357772736121045
-0.0013546332479622194
-0.0013131022301159164
-0.0008505818970920222
-0.00035699406550642935
-0.00011332512568921
-0.00020131377829118646
-0.0004925643642308685
-0.0007109808564018232
-0.0005513242982985191
0.0001738212550095068
0.001398747457848876
0.0027323284920955484
0.0035018249250002224
0.0029474070613925126
0.000556449778490887
-0.003542230569411795
-0.008277042885048165
-0.01162152146296289
-0.011042545642146863
-0.0044582715511140335
0.008458086717861114
0.025042640461189623
0.03906765544012791
0.04139917257628464
0.022107531990688788
-0.026430927001705632
-0.1067663287612215
-0.21592358567879216
-0.149102704422818
0.09215272246310399
0.28988445035524907
0.4033745365968337
0.3732511351365463
0.14005760136750242
-0.3253218411950671
-0.7903193312916237
-0.9454367132918085
-0.6215970702323744
-0.04706776882113155
0.6660014496386099
1.433694244262181
1.7507712474354797
1.3164391356770637
-0.04718762433641322
-0.7993792560964159
-1.2587184076476752
-3.03007843826602
-3.559020530619332
-2.8680070020206423
1.522435345968498
6.354668302801797
3.809150921791741
2.8507960286530856
3.0649559055847546
-0.5898298303521045
-5.793711897708066
-4.01098559109639
-7.175178019673918
-1.8888877584204617
0.7816598735063561
3.166527150737972
5.472880953130944
9.7161695555161
2.116138616970386
-2.9202173575471555
-5.447614911190104
-5.014845449104687
-3.4956281464928574
-0.3031419558074705
2.12364451743438
2.7849933891240135
2.2384628379815084
1.0950638632856382
-0.008231645888922563
-0.7144959676601451
-0.9384817858723156
-0.7842900768690867
-0.4387659988836833
-0.08072630684691373
0.17271193016444225
0.28026346762034227
0.2615259456892138
0.16845378490655677
0.05720616534181338
-0.030962945285498013
-0.07712578801894807
-0.08239059302204578
-0.06018453996141116
-0.02751801665196236
0.001657831987461369
0.01968077780543164
0.02522563179425019
0.021318678615298473
0.012695988385464842
0.003602862107568731
-0.003391864109436272
-0.0075177266204638675
-0.009183388328678217
-0.009100886564597755
-0.007608538777909658
-0.004483537762617747
0.0006969739234784049
0.007825819270594447
0.015533830381566329
0.020905990996248854
0.02002499467923323
0.009470368367344582
-0.011508997881756114
-0.0389049587728273
-0.0630604143347784
-0.07012207326320573
-0.04647135889925313
0.014320091944142622
0.1039326340309536
0.19440018982582863
0.23959942975303067
0.18570387807253882
-0.009953734449881117
-0.35683513961004165
-0.6158231314218746
-0.7024318919466047
-0.5173706340942245
-0.00372493874021479
0.9842043721110859
1.8293912131568955
1.9533139397942891
1.096778765042948
-0.7192892929399125
-1.991296167044409
-4.162577234702962
-5.972710943724874
0.010041459597120654
7.274913124785019
3.1602790008176243
2.097250036015036
3.2456110205457356
-1.2080284104219547
-5.715640820605117
-0.2999712171632959
1.510622437678914
-0.7752024623120234
-6.668786989223655
-2.193065123806502
1.5965207372747678
3.322168715644308
4.5502884159184145
8.578296003647079
0.2830883861151593
-5.114130752361156
-5.83207878996449
-3.4251605357773944
-1.5752607571313137
1.4975425548342196
2.586162140573981
2.2800932386417996
1.2929416873649027
0.23446157280307645
-0.5161515974070519
-0.8291968126208987
-0.7654272248074997
-0.4832536265477193
-0.151709823695669
0.10686190988661476
0.2380261697947316
0.24730216617515327
0.1763673773762101
0.07670979849328752
-0.010098216822176882
-0.0617754657847722
-0.07522547740487495
-0.06045416933099051
-0.03259737272842029
-0.005243459511234365
0.01332135938093714
0.020810365444947895
0.019436258685790023
0.013451976005776682
0.006846854049256762
0.0019073608327364903
-0.0011190854973004887
-0.003409275970320721
-0.006399363195447652
-0.010577309482923986
-0.014725449604510088
-0.01598643421770498
-0.010903963405155143
0.0027273538421922453
0.023738876617596813
0.04604879344110994
0.058677477453266534
0.04802124750461054
0.0023455387415305595
-0.08267173322530058
-0.19966630080223735
-0.12942768005472124
-0.04690173241814954
0.06694421864743558
0.21091186118715388
0.35316908000067115
0.2313098337514001
0.16698876653278527
-0.106155453273332
-0.40931684522860845
-0.6936704161353281
-0.6390208881610532
-0.48658596731751946
-0.10556078948347582
0.7220961964864576
1.628937943572747
1.8395301699460624
1.6308905788700239
0.2860587581910875
-0.8859129384145421
-4.730804484455194
-4.725136062816306
-4.035490938014204
1.001635973507372
7.631772875310934
6.411299310313993
3.9031697102529703
2.490563836392156
-1.654963412664086
-8.55509786694887
-6.368270977680569
-7.93741222713915
0.28137933765293865
7.275866218143117
5.850995870783623
5.159800169081039
6.639863517578386
-1.8918886889586033
-8.583167236104506
-5.66669738313107
-1.9669929844539955
1.0233205449640903
2.4182739959249315
2.400800931866708
1.5781736167002327
0.5427891574834806
-0.28683642451256
-0.7211015675729721
-0.7681911201947849
-0.5558423620845555
-0.2462472802975466
0.027695976249875347
0.19319923094032965
0.23818247065484247
0.19267487624926588
0.10392050482466175
0.015289111438423285
-0.04581717270908175
-0.07059442084282094
-0.06467530149415913
-0.04099964943444483
-0.013074338282020044
0.009376293801389358
0.021870933243503535
0.02437266553900156
0.019392293955478514
0.010121583997271151
-0.0006844134159413812
-0.010904192096361431
-0.018631531793837877
-0.02171529690241245
-0.017825530167707753
-0.005349176955899053
0.015024827137274169
0.03864934656642057
0.05613062481583943
0.054310303758172446
0.019391806609522517
-0.05840867766866437
-0.18047356213510335
-0.13819189639965168
-0.11629518822112926
0.09871014914252133
0.307920970499795
0.49286548496587346
0.017826094464932128
0.044439422625714396
-0.24494914935712098
-0.625295805318277
-0.8218255348539593
-0.3293554798382162
-0.06060015203126233
0.5876728368679908
1.4758037409369185
1.9025532911340175
1.4544368459014805
-0.0700203169845827
-2.4884044045665323
-4.877758821991645
-4.713019476837996
1.240734758798765
7.686620652259055
3.088018444388877
-0.9773466398283402
2.304891197871029
1.108014680022339
-9.362260820943208
0.6571928894275022
5.755296604617964
-5.518006503341661
-5.278398011044591
3.7128960002939055
1.5539384284123292
1.6665733548291173
7.126483435164406
1.158710358083968
-3.354793961711742
-4.591006134772531
-3.433886871954969
-0.7881178942848107
1.147011616720458
2.0262784045238678
1.7831548480630754
1.016765427844978
0.21863559249042364
-0.5182712650025811
-0.7053463980448289
-0.6043546344806797
-0.34970721127566995
-0.07822522610561244
0.11559935313335304
0.19502445907528804
0.17345235484553015
0.09440274427407597
0.009057492474098199
-0.041974948300194305
-0.03981548187261356
0.008778962453869235
0.07379260470623197
0.10958223246701557
0.06678897932502761
-0.09306752129948712
-0.18331432997513256
-0.18256021011731546
-0.23433957271299735
-0.05842570785496284
0.227731624794203
0.48364196991538866
0.32580311754147884
0.12180391404670812
-0.19796779296355205
-0.5152419830482563
-0.49612628038003304
-0.1729707562207185
0.256581578757296
0.4145737453021892
0.521217333350961
0.17951401305133285
-0.0249871018416575
-0.30871842880353273
-0.2672293342090003
-0.4585410366321458
-0.6060149746985901
-0.628230600702447
0.10685472864831744
1.1192688328074898
2.174030442111644
1.0905616462846663
0.82677365772827
-0.3672331847596707
-2.367081432115208
-4.834917048283028
-4.401699309699247
0.5793538166199981
6.924915522163275
2.056343670654545
4.1238988151848
6.151776164925125
-2.5429449243759827
-7.914002082899515
-7.688282123235338
-2.2059223537298576
-0.15124273239213518
4.393947084061388
3.078372623714882
8.577957897740433
1.450037427388088
-2.939160852806702
-4.01300011584669
-3.0144927809672537
-2.2232001217653985
-0.29156510428707605
1.2369604094602173
1.84250077682457
1.6432527215668227
0.7931849335438957
-0.07058061632707757
-0.49931516304679335
-0.6273092574284059
-0.5167462301902943
-0.2863913869995921
-0.05100169313718051
0.11444755661054704
0.18422076963548675
0.1719901778171176
0.11203560861625494
0.04074779713089876
-0.01579015016952972
-0.046357843350815164
-0.05259946071682818
-0.04338376504961323
-0.028611924347955592
-0.014777867608835912
-0.0033897788281672765
0.007805855767704988
0.021741264005412597
0.03853490327248254
0.053144840985764046
0.055418617356981136
0.03306407612114736
-0.023035795738015136
-0.11301843782039787
-0.22462070271726503
-0.1351204794233019
-0.020196624740263902
0.13173906353093157
0.3048046886592817
0.44804523460456647
0.2820574263649745
-0.0773118336252942
-0.2826689731645234
-0.5184411989145248
-0.6808079253127356
-0.7897201158707317
-0.24021123905083436
0.31388605725659124
1.067139238356091
1.7969447568967603
1.8640876209051047
1.105097759820034
-0.38772415156455164
-2.642641763736882
-4.821028158428035
-5.75850237154819
0.3010803289402306
7.786579897792255
4.59428773130026
2.9541709502441256
2.3089211457137613
-3.941613070928133
-8.090535228659416
-1.506919789713908
2.7022294426384823
3.665838253344414
1.5566775840232485
-6.320301892743483
-1.7185194931716405
0.09744398545915522
3.456939088615617
3.203014307865035
6.316493447081641
-1.0762439725878792
-3.8937603594776147
-5.955652848870619
-2.233448469866928
0.7752453525704867
2.0848143807126003
2.093866964529727
1.3733352049785679
0.46246925443983444
-0.2643754110132982
-0.640526642633919
-0.675559861062152
-0.48406617439981825
-0.2097755555427444
0.030576502736659954
0.17391460106826434
0.21079244032824
0.16859838101553332
0.08943640469917827
0.011547105503789339
-0.041238260312784866
-0.06167376556427808
-0.05529778680629172
-0.0340281306462188
-0.010097280693262649
0.007912850445256126
0.01646926092165824
0.016410155660248844
0.011134622009537909
0.004601535451363916
-0.00020103869524539054
-0.0020189224467921964
-0.0013350696030820083
0.00019645805552764674
0.0006255901543988293
-0.001372469285895044
-0.005774428549705226
-0.010908169826470322
-0.013756337394000482
-0.010945581505395843
-0.0003112804887724598
0.01734281590275938
0.03694216039514964
0.049081400472578134
0.041826434632611306
0.004432107326165326
-0.06788269243901209
-0.16992172104825917
-0.08554581280961379
0.008566417786411432
0.13456738568459464
0.10293947723462143
0.103793669725338
-0.0962901310366375
0.050117741352243415
0.08301393867823498
0.15212042557389674
0.03641723885020603
-0.038401726197488585
-0.39095171231294357
-0.691698518555561
-0.7943471059955048
-0.39298024663343556
0.7044057038021166
1.710113504763468
2.43424564942017
0.7394145387645091
0.08558153390483475
-0.8590694771920308
-3.004558581428555
-5.510071834192828
-2.620608521012038
0.49381737880931814
6.736439000890452
3.6404712095768197
3.446827447837457
2.038318314445656
-0.020555994167794973
-5.796383497817753
-2.1973226554290615
-2.6647260752804343
-6.908315912617508
-1.3761515934352768
4.149835500022219
6.348283680841608
5.138569487549474
6.657766692593074
-0.8226536832167856
-6.82676004266785
-7.573895176470762
-2.85369749775971
0.9307986995185394
2.6565835198783505
2.737803516191404
1.8563684990098697
0.6908499490849352
-0.26894390099718757
-0.7910320796903378
-0.8712557494414703
-0.6471278506237955
-0.30122334998962064
0.012974587943218256
0.20846463463585801
0.2674760445906392
0.22156040692109724
0.12359157565097834
0.023377230776689177
-0.04684526921421294
-0.07612978438749504
-0.07053121137635737
-0.045036141590060454
-0.015563926991434697
0.006529770277352819
0.01664032897827125
0.016242843935427017
0.010466547231127558
0.005123095448308087
0.004158666934553987
0.008144686216183849
0.01409490107404187
0.016631301057203625
0.010270762556612792
-0.007691537469953986
-0.034566159682910096
-0.0610643415376998
-0.07266717888128589
-0.05427870074261988
0.0021581272563222544
0.08886980891591116
0.17551503307616378
0.20843167024053644
0.11902324155543845
0.04185069555189465
-0.06099235544747742
-0.37684759150992775
-0.6312405936402944
-0.49852629233616774
-0.239609431495809
0.2378264811398123
0.9133656768384656
1.4088147836972817
1.1924473694125755
0.6504063197113997
-0.5795808621058927
-1.445953275912918
-2.750597776016608
-3.7112568792267253
-3.0661114844447135
3.480054420847712
8.335886548040794
3.9548504433157543
0.14954141071567173
-1.5443362255549276
-0.29603375337862825
-11.336522895241371
-2.4181630892341865
-0.3176242131391033
5.172360843829828
1.0348673239402992
6.361563308560351
0.7971963890279593
2.613072777244317
-2.5625522501505658
-5.220586560085318
-3.3806746846721722
-0.6738299729906528
0.8058042728448368
2.061350403131154
1.8185763915665651
1.1041252082468516
0.25760916509543896
-0.37529543796042064
-0.661607601710858
-0.6343995182369359
-0.41629946362397474
-0.14587824322504483
0.0724835113396895
0.18898843718215966
0.20404152562503064
0.1497524216658136
0.06834090187010233
-0.004690550681014863
-0.04916699639005518
-0.061020305703785034
-0.047896669352878625
-0.022829327825194166
0.0014476998829312951
0.01618001295683055
0.018045414827160274
0.00886407735667807
-0.005752870964773764
-0.01830074115251599
-0.021576429429880948
-0.01105477916867495
0.01279076915524716
0.04277837895904207
0.06477905752789304
0.05981334142538483
0.008823315326724377
-0.1005946087150143
-0.06744157671910544
-0.0732652194138804
-0.08326340723005077
-0.05365228063191663
0.055625070009561885
0.06591454004990627
0.1673167643173135
0.3138858249272474
0.23072257321571968
0.03395260852160729
-0.14046742907133491
-0.5088639291304037
-0.8266136018993518
-0.8027957172164367
-0.3488553714420562
0.3464576036099203
1.541025331720652
2.5013409604972305
2.34316561303566
0.772743924078865
-1.6893475366992041
-4.469629452648911
-6.394038622399521
-3.935902075666244
1.091263911666059
8.648263279436081
5.949933020451084
4.919592571968408
2.1865267362211194
-1.5278824259427233
-7.940075591113839
-5.871113270965408
-8.308725150669956
-1.6648900436660883
3.3082012372580603
7.849095535472097
7.2035721635794525
7.807650669289479
-0.3507601204281231
-5.732143032208274
-8.920508709745828
-4.802860850514368
0.10866681639047615
2.6689750138698503
3.20343305648026
2.4291628668821064
1.1377224295340276
-0.04680324488045418
-0.7819285623651215
-0.9997905698035986
-0.8222083607357326
-0.4506006953298266
-0.07295702268667903
0.1901420176108732
0.2983500212098077
0.2745349691424815
0.1742868968743737
0.056477282898513496
-0.03628740892637738
-0.08483425396041452
-0.09054551971756024
-0.06709795890072281
-0.031502714792680415
0.002351159341849909
0.02644255264730983
0.038163242544312685
0.03816443207085069
0.028181173287669843
0.01002400140279772
-0.013929683966310377
-0.03931258753576218
-0.0586264250924192
-0.06175464473371182
-0.03904720757296607
0.013134585238451884
0.08588450265570705
0.15291539979214894
0.17055711843111182
0.08484983327944022
0.04561297201461076
-0.17606233186561446
-0.3738313261094529
-0.504372977908897
-0.50532965118421
-0.33468413483865317
0.57638904176241
1.2766514780640434
1.4816038823698754
1.2201585681432774
0.5516809592154698
-0.8644750953041358
-2.797388767543709
-4.544776925387985
-3.577883409374479
0.4326196763828752
6.843195195092363
3.6273658177888737
3.0823460823254654
2.18199337184008
-0.577570443528279
-5.697598533946659
-1.702674310692894
-2.0481433092723322
-6.461120237774658
-0.9991970658109552
2.9802652717123492
4.442063320419262
5.061726927183166
7.7771552822604
-0.5506889303802883
-5.73224282077922
-6.192388991150004
-3.4462867732430253
-0.6989700195636911
1.9168720566479749
2.6619657358200493
2.1552566854019877
1.099811547598661
0.067112139982619
-0.6116301850471976
-0.8484887454428464
-0.7305533431842505
-0.4253991301368404
-0.09788041801120606
0.14084250914331786
0.24844317254829
0.23938065603128306
0.15947714154778736
0.05997470629247039
-0.020639061512397132
-0.06418699139157816
-0.07120767269401257
-0.05396244376189329
-0.028106851010545338
-0.006073455418830426
0.006322948176507176
0.009955996549686097
0.009974871080324334
0.012172460555095285
0.019427518454035318
0.029303584830499378
0.033532740434171156
0.019623326519197185
-0.02580570974737311
-0.11306717406315707
-0.046433687919451926
-0.023665925040072998
-0.03864008058473394
0.11381277089370265
0.23315547011890678
0.1113537525298455
-0.06401097628223876
-0.10229349575982463
-0.2016511822300332
-0.34577594474907397
-0.11041029623562756
0.11883525600843936
0.3210252434557701
0.21528786429039853
0.04754704531680318
-0.4027336805033589
0.40869310040990553
1.4472093693740482
1.3780326426094724
-0.7425551151063768
-3.588122270368131
-2.9369920261988898
-1.5453043156396695
1.66558289150924
2.5450900066737048
7.663555712978896
-0.4138222771362535
0.5465336298527096
-2.6816011201146015
-1.5998185368260107
-9.625426345113034
0.7084515612160726
1.5147933324423262
3.4910677048039336
2.1382765953291214
6.408194291771914
0.5054927923832785
-3.899335438537685
-4.679884695160917
-2.189567381024302
0.3593011620620655
2.2006186542342343
1.8023663940444143
0.5876297397135396
-0.15078200096261873
-0.9048718354478755
-0.569971246697666
-0.04268027814744552
0.18334321448294233
0.2140328665863264
0.1446849174465084
0.048924362820092486
-0.02749559639712454
-0.06587374701912434
-0.06797671407196054
-0.04680672916769229
-0.017934820467839847
0.006462636327418962
0.02018284478607282
0.02271882099179294
0.017299073477601117
0.00848761387038333
0.00025668224215901354
-0.005042421152566873
-0.006822652431388504
-0.0058024181449041
-0.0033106196444548227
-0.0006586754966441946
0.0012519617602148106
0.0020555513724791192
0.0018449514791244806
0.0009933606093835783
-3.3945829384008847e-05
-0.0008238763527886796
-0.001101939353993155
-0.0007731610865033923
6.454397067418186e-05
0.0011279098355824312
0.001987426553182066
0.0021585345263687964
0.0012571369903161423
-0.0007978894935591733
-0.0035958007748012333
-0.0061581372215722035
-0.007084981210192663
-0.004990411329419611
0.0008074545628593052
0.009520220236874271
0.01836222974600765
0.02263558392741457
0.01670343502598507
-0.0041586507592291655
-0.04147332161502419
-0.09168181221618396
0.05435889142202945
0.00990830403406389
-0.010943453007348718
0.0024508092432352297
0.05313548389709198
-0.06647402329968918
0.024330077016678955
0.09603327122024226
0.1133743283769281
0.042825032306758
-0.1379356333142866
-0.23116132637160752
-0.2146422381485997
-0.04515227515933819
0.1296727054157052
0.35461057694804754
0.4522189959198025
0.017462097341499914
-0.3750632272490434
-0.3543397113167069
-0.13484645722270056
-0.10611203900562914
0.16538078651997268
0.3234616378306341
0.20491717406547086
-0.17527358587941003
-0.23149360914088743
-0.00721389894005437
0.2312438335419313
0.20524479242753071
0.03822991549038853
-0.12679976011052566
-0.3098625196332863
-0.28239759293344757
-0.16751539300083043
0.1450566729595686
0.3720528863982681
0.20574604372017744
0.08909688196077864
0.004866765066962267
0.08148487334876447
-0.186914381862901
-0.11260974447906469
-0.1864412066968508
-0.05728105537942773
-0.12369017702898294
0.06096913867705341
0.17241184467556575
0.09357532675560273
0.09343478389230522
0.01200132447684444
0.054606869995286474
-0.004261344338101581
-0.009690942095109865
-0.21134213594394674
-0.049134851757449284
-0.14366762233882488
0.10625982026114816
0.11923299879598817
0.12255499805629923
-0.05697153911563659
0.00014884379824402994
-0.0971738938442263
0.04912170514932058
0.02791211470724787
0.02170115060975486
0.010246561601788839
-0.025321318952807585
-0.09860046431611409
-0.015290394444745344
0.0272657522985631
0.03821998083690301
0.02983072339896837
0.013877731184985614
-0.0009362282777734604
-0.010035689570389104
-0.012588765138210079
-0.010235149666140454
-0.005581385541945541
-0.0009796586824874437
0.002149272625969651
0.003438078463107208
0.0032972790279776985
0.002465092803290208
0.0015862610131269924
0.0009548713892167284
0.0004734347033232815
-0.00019337898419457018
-0.001346659571618736
-0.002972373936807103
-0.004571505477267319
-0.005203657515258262
-0.0037947750265433155
0.0003285946188702627
0.006828855794207648
0.013925882418930623
0.018445001802136093
0.016574469798295043
0.005340867177001751
-0.015544518661381004
-0.04221002438643463
-0.06652162991914842
-0.0782681412660909
-0.06991591639624148
0.1570066146295017
0.18636096469860375
0.18618966475886117
0.1148361881235196
-0.0652025869988986
-0.36925593668541246
-0.3753970069773429
-0.22035650299773213
-0.011480162057184768
0.3466246984984517
0.5191941152325391
0.3147854334241714
0.0765231148407991
-0.10401222033833163
-0.354306001027563
-0.3811854273512465
-0.23783156948768222
-0.10875272697484689
0.0827931841230159
0.24838446819924695
0.2987169953364494
0.3107833439537413
0.10834876654392347
-0.13920098555386812
-0.3014045498141469
-0.2620785506111966
-0.09500792851667014
0.15263007459526823
0.2665459613941583
0.06332993567686873
-0.21603946902911986
-0.11464949943741498
-0.16985544885879475
0.07423519968999152
0.2531165498923264
0.3708166042691512
-0.0036868779163946935
-0.12955184164909656
-0.27803366071474633
-0.11299267284933057
-0.07510847263325189
0.025037732211841496
0.0038044460759833277
0.09379085729428707
0.13037136596611637
0.14072733906063123
0.13957675927601637
0.1334095659027357
-0.2683428544926202
-0.4403536924634622
-0.3340680517028284
-0.08241920258452382
0.38200156837306587
0.5011606203317973
0.4694615939278439
0.026518785395496784
-0.33016679092244544
-0.5169281666694269
-0.2316177791154032
-0.13009371717474047
0.18067282319600977
0.3330615596156109
0.17962776101666422
-0.026649226043860143
-0.045846282209611046
-0.055969637096990286
-0.05082804144051891
-0.034285275256379415
-0.014064185940824245
0.0028897510890400187
0.012754612629062719
0.01512502473670121
0.01200628517246408
0.006358593140270143
0.000844559528603535
-0.002885714251372186
-0.004337274172314124
-0.003902152807259119
-0.0024132081243094707
-0.0007239333545789378
0.0005643244511606661
0.001196711460414206
0.0012167690289540132
0.0008431049784058352
0.0003368537772010123
-9.540307821234081e-05
-0.0003460308297305574
-0.00040356783992265873
-0.0003209780793887271
-0.0001754729416982465
-3.552816770816771e-05
5.7261410771826675e-05
9.128054593611036e-05
7.750555264314999e-05
3.778481996209787e-05
-5.966857008851187e-06
-3.862620661165956e-05
-5.408301808382318e-05
-5.383530673758496e-05
-4.3727987993752576e-05
-3.0533837943050166e-05
-1.9500804178430122e-05
-1.3275574120878474e-05
-1.2033613470975359e-05
-1.4332035892165074e-05
-1.815388975096949e-05
-2.1747926842032397e-05
-2.407710349858076e-05
-2.4879657517270252e-05
-2.446600145656041e-05
-2.3411790537184098e-05
-2.228100540376547e-05
-2.1454376273807896e-05
-2.1077962371688987e-05
-2.1103792509499192e-05
-2.1376083562966002e-05
-2.171941274214948e-05
-2.2000631753571974e-05
-2.215486003234902e-05
-2.2180644059375044e-05
-2.2117116312035187e-05
-2.2016887103213835e-05
-2.1924689465302598e-05
-2.1866323275726603e-05
-2.1847563614172297e-05
-2.185971427765356e-05
-2.188763421788043e-05
-2.191682584576634e-05
-2.193771942977072e-05
-2.1946847369987732e-05
-2.194568440753713e-05
-2.1938372632806412e-05
-2.192945026278337e-05
-2.1922291028043066e-05
-2.191847982870815e-05
-2.191797549037442e-05
-2.1919720797269315e-05
-2.1922345311272097e-05
-2.1924707743422897e-05
-2.1926167678996484e-05
-2.1926601323450495e-05
-2.1926250370570755e-05
-2.1925512407298027e-05
-2.192475968345942e-05
-2.192423234090784e-05
-2.192401204940353e-05
-2.1924054739539086e-05
-2.192425052157092e-05
-2.192448212201468e-05
-2.1924664161394124e-05
-2.192475806317718e-05
-2.192476689619593e-05
-2.1924719129308825e-05
-2.192465043540661e-05
-2.1924589932326028e-05
-2.1924553516864622e-05
