0
-0.0005259543156971609
0.0532686175921995
0.06822120524952814
0.01347931722345996
-0.12776694928289714
-0.15420747906717308
-0.04642439460000249
0.027940383825095987
0.10472105143123776
0.21253369645230294
0.16503083485015543
-0.04059760603367182
-0.21833477932151635
-0.18408848621381158
-0.14736629107530758
0.09189958335532426
0.14022240900690355
0.203586149536835
0.08109146791440501
-0.036979069422881594
-0.16565134856349992
-0.11842882868651676
-0.10097828745416473
0.0913856320098234
0.07141005127625473
0.05431631201238546
0.05178802250076069
0.06815462299718632
-0.0999862478968273
-0.06112272081659451
-0.02478765611258919
0.0019609764273546865
0.016285517263493303
0.019369721436381715
0.014932256046746823
0.007375612652157787
0.00030737575685655744
-0.004210999000883197
-0.00569649212030961
-0.004795711569970756
-0.002661908779529366
-0.0004103289229024898
0.001210894841370983
0.0019141996659283096
0.0017911344755338872
0.0011485082636465398
0.00034484216445326046
-0.0003234894948304651
-0.0006743462872974537
-0.0006449888700902646
-0.0002753317541859685
0.0003111303157475659
0.000923552494723566
0.0013264932835053058
0.001285055245829204
0.0006418915947950638
-0.0005833722941556168
-0.0021069257538414263
-0.00336035958054893
-0.0035927167913661446
-0.0021219409512049123
0.0012977165966454676
0.006105050894011857
0.010739878484547712
0.012830109146243739
0.009888005385339094
0.0004695955216266164
-0.01450507951727311
-0.030830075666401415
-0.0411812363042141
-0.036936114942923814
-0.011734669649755027
0.03391292454128743
0.08854324083059359
0.1283460823123058
0.12047732349070205
0.03187269344033408
-0.1578862667740387
-0.24369451852672364
-0.18775846860050624
-0.12337004023012549
0.028218543129255893
0.13032348249253714
0.19970597698300627
0.18125378226314998
0.13765799226685152
0.06043151235335596
0.3041865506467623
0.44113594326446637
0.12756867818322656
-0.8319483388320904
-1.8430924387046446
-0.9258462076715054
-0.17908108843164922
0.8999674909266367
2.873675280347717
2.0503899428236307
-0.5528889643262918
-0.9514531333619641
-1.2581065351927474
-2.125303267562019
-0.6239763122011278
0.39990783866634905
0.2836476282410071
0.8469407826989973
1.478648352882152
2.2609407989902786
1.5662960934013417
-2.6663971216199256
-2.808608431478357
-2.635507212922963
-1.9037684062970353
0.9516002618666372
5.425285866722741
2.9325037246656724
0.8791906671633124
-0.9233262920971644
-2.7004785481734164
-3.0788812713987457
-1.0671079887837143
0.4698173982159851
1.2126189637218074
1.2890259968682183
0.9284781973800654
0.3276347268092309
-0.23515224549638367
-0.4253830511364757
-0.42953319018372593
-0.3067821105931482
-0.13849345240731245
0.008715869997385477
0.10015030399792228
0.13243594373182174
0.1218609625066328
0.08951939827028917
0.049593494528002546
0.004201821911591003
-0.05486914088104278
-0.13970361157706984
-0.058529289527780054
-0.01008788993385389
0.01789139059896031
0.04605439883307857
0.09817461978550106
-0.0044930704081751925
-0.04743022989160248
-0.024844584653476783
0.06036625310039258
-0.001985132202525802
-0.027247997614127505
-0.03363312177004571
-0.04033962913815578
-0.06661827994544675
0.06822667584541932
0.1447574039888843
0.14484659607732986
0.05612725426449898
-0.12057089375646575
-0.16333371102546376
-0.2255686066599412
-0.24184283691511804
-0.1461078351586255
0.09918577266226487
0.27008348138397625
0.45593694027438325
0.6554877922194653
0.6047365408049749
0.038791964665592815
-0.8227126356183538
-0.9903389894288278
-1.4513269277196965
-0.576093861233354
0.00358261292508098
1.2584939693637802
1.6066433282602814
1.7903485490578381
0.4314918790607396
-0.11461193523258718
-1.4219037781829613
-2.4199393126642725
-1.4457488083410492
-0.1732417535180816
0.9594018634407521
2.044050441537415
1.768380019061587
0.10866157625752747
-0.9147242257723079
-1.2170699480611342
-1.1912421813041816
-0.04801869185799969
0.8202762594206566
0.8500710410844141
0.506269271952542
0.0915446364282445
-0.22370951155282745
-0.15488432906161423
-0.45683965033767066
-0.6999385252235657
-0.888525376958789
-0.7333744840096896
-0.17524702726667166
1.46204764789835
2.1290549387261595
1.967753861841521
0.3284234415923681
-1.1034063067166142
-2.1003274007281427
-2.070000161727566
-1.2871010000958345
0.5694917429777494
1.364760212878058
1.3726724665364742
0.7139816410544096
0.2207339644806625
-0.2397319096157696
-0.37583270590325174
-0.43355524380655186
-0.3343945364859845
-0.21375451987106944
0.02352988811572952
0.12383591794291307
0.08356529791710994
0.13353595113091604
0.11799057891606952
0.07598016007724213
0.030049626912354587
-0.01612621871647631
-0.07248431839855927
-0.15312273990040906
-0.06690279535788742
-0.011707164658583787
0.025900689582795223
0.06619909649743101
0.12942075040166567
0.029498277971992084
-0.029196629864845815
-0.051353239398709935
-0.04739262459728363
-0.02921609886284267
-0.0068526495737213115
0.013023772837099538
0.026776435623312552
0.03252008483184865
0.028966430136665496
0.015263293336218819
-0.007912145496683416
-0.036487845450564736
-0.06145524574256729
-0.06896768082837998
-0.04302355583102539
0.02931781494674932
0.15162209065183163
0.1132984293978418
0.08923531079213198
0.04554881198352745
-0.04929195491582026
-0.211488274404787
-0.23262796456095788
-0.2798549996186704
-0.10900755769528225
0.11037151064853783
0.36503181603788737
0.5746750836062859
0.5881746012728954
0.2081363713720665
-0.35687426667181404
-1.0252239647873784
-0.7825689695193868
-0.25344257519589464
0.08125675165135525
0.42241976143665116
0.7639345938212501
0.4030627282311583
0.0749366044254053
0.12687816982742153
-0.06445634444350008
-0.04132757788958065
-0.5938646891910465
-0.28763840206713986
-0.20618615998159082
0.08075229292039968
-0.07927742387163862
0.3592162793819054
-0.09176490712641895
-0.2847505433588361
0.9442369421766387
3.9780732957481053
-3.7547173404781726
-1.9403419938789772
-0.7575826175603588
-0.9098235075138347
-2.328665027864564
6.071725153028012
3.4474178961450406
0.5573370793329021
-1.374666015712783
-2.675285695663658
-2.7809954248413824
-1.4329618735956817
0.6204161269773247
1.591627044925101
1.5237442051395431
0.9235530614865001
0.21972233488998824
-0.31643048680367053
-0.5815380916328615
-0.6004827821997862
-0.2651691648080303
-0.07783295188833785
0.08560827697746316
0.18870194822785444
0.22946917130513925
0.026387392692800476
0.0037138400195211416
-0.01879664429917102
-0.030391567670962787
-0.029131074975329945
-0.019041638849535355
-0.0065155603505418795
0.0027475681792853775
0.005639978714906272
0.0022938515804240603
-0.0043267619715038836
-0.00961290945239711
-0.009008630742380164
6.46220278803915e-05
0.016441511872101147
0.034134242190386334
0.04253611159945634
0.028325938615320765
-0.02101700263577728
-0.11293484127158794
-0.04626266354861693
-0.010049861940186809
0.014429006756218589
0.04895757199713765
0.11262745049259701
0.01716526879595155
-0.035073303434873464
-0.05008214275235847
-0.03908886974547673
-0.014931050002445618
0.010734300765786478
0.028861834674091036
0.033380341726862044
0.02117896472443401
-0.0077229589170147986
-0.04977936747690934
-0.09781488820690185
0.05805830795512493
0.028181583222216214
0.020254220345717094
0.03658229686896452
0.07289894959439651
-0.08060208761982542
-0.0362681123174952
-0.0050615208520372905
0.006957224429722749
0.0007109123121270905
-0.01567587479861905
-0.028476278155272036
-0.021477720557768355
0.01992541057887037
0.10456443316184758
0.03247978725197406
-0.005811619116673927
-0.0273686323390545
-0.05291218141967264
-0.10250973137434051
0.0075010919775533496
0.06548061857520714
0.0637212373826771
-0.0026609373835449926
0.06439592312415086
0.06811275556294659
0.02083630406596364
-0.05191689914357692
-0.1103215653421462
-0.3059073397778322
-0.39770491949404774
-0.18029546340835984
0.07967270036809887
0.6087578654949098
0.9103290729473172
0.9848601309178778
0.39910981122236505
0.001445630588324209
-0.9397511154340826
-2.416276027637946
-2.0287522086132515
-0.6437580038262827
0.030738058084465263
1.1850082822680115
3.4360749710965477
3.639760623340265
6.270140212692452
-2.198224104742379
-10.35087888757002
-6.067073589567231
-1.2920083231793071
1.7400653108643687
5.243461395033443
9.713214872489186
2.836100257821137
-2.9823471506165906
-9.256877995958737
-3.9343329482758653
0.05991797562450017
2.523726433336982
3.5162259806850824
3.2121922267651177
1.781155154418885
-0.6367129786782054
-3.8566175721900753
-7.541897895978579
1.2442598319139517
2.7655825553927893
2.428606457072516
3.1697497937313206
5.119606705292412
-3.9845627990421555
-4.639200846672624
-2.3399597141609303
-0.17634499081312352
1.2661961342262666
1.4806855174579843
1.1296808099078368
0.5152859379305176
-0.1208694342249076
-0.4442970167822532
-0.42430745069902637
-0.29987937982489177
-0.13716728935899594
0.004664423422854763
0.09169319841585985
0.11798490043998885
0.09797863250486695
0.05493814768803522
0.010682632814156764
-0.020573757683034752
-0.03381438615283274
-0.03140821794935969
-0.019703363677545205
-0.005665849766926088
0.005425679677259669
0.010934969439790602
0.010717263560891036
0.006355286251590676
0.0002551939810526501
-0.005106476041278167
-0.007709113882076356
-0.006356113076786528
-0.0009758532042313141
0.007141454212418027
0.015304584039632706
0.01980705144330336
0.016928778316116364
0.004530839071220686
-0.016146966644970843
-0.03928650450437095
-0.05496129534648848
-0.052275958707694165
-0.025623089624858843
0.016504795350521777
0.04194641443202064
0.1873929278969247
0.15620233183885793
0.023888267369162712
-0.1485155713445653
-0.2959425419747509
-0.33049040596937734
0.07320816266961723
0.28747318859947835
0.539994921931823
0.7285266245345359
0.4473806171269475
-0.17700070662355202
-1.2570003957174507
-2.548960584001678
-3.322723962905548
0.49036325148979887
6.494747045768314
2.8426157468215623
1.3519874429523855
0.9948734611466862
-2.6513174895865563
-7.873205600322267
-2.53951956188387
0.8181438450076882
2.5181351340876525
3.085086423432276
2.9667467199453093
2.337265554597251
1.0680382536170463
-1.1261483319046797
-4.432747632650024
-8.698261555042002
-0.9228533167112644
3.8330450525758786
4.35528813142677
4.118184378599432
6.222988451982394
-2.249202547817105
-6.251480667184879
-4.639536142625653
-1.0413638640683247
1.1424752609322533
1.957032358502073
1.764653158047378
1.0531320947601939
0.26241682162984314
-0.32017027699796974
-0.5853930383096324
-0.5667471613471045
-0.37574845425163794
-0.13758493422413767
0.05366861460932924
0.15382156524648596
0.1650045131082649
0.118773044484401
0.055547022300601975
0.007652341520843997
-0.010298012103283946
-0.003097304317683454
0.009819043730077855
0.0031537605000305194
-0.044198823860566186
-0.1405812838852727
-0.07699627403713742
-0.028232429134580014
0.040204250856797054
0.16133804167821267
0.15581227174862003
0.024800049015058858
-0.05070126172043395
-0.10422346801940942
-0.17430712037622045
0.10539654301655495
0.11368242540174522
0.04601731549391644
-0.08434222153605714
-0.04826790760087338
-0.2065967340153619
-0.12116241256626673
0.02881300072859933
0.027352393741100312
0.20482656260534512
0.4311595638720493
0.5267457425259613
0.2954012618476448
-0.2233461348849676
-0.8949631293756867
-0.8445495974502258
-0.8486716217589112
-0.9799166929074279
-0.9020506285928978
2.010294862777218
7.976997819238389
1.201968217553713
-5.817735737210609
-0.888376351478967
-2.9127803857405237
-9.395839887281033
0.46043997334672093
13.481710586841332
4.17463941578323
0.673995691585468
-0.4872179169348423
-3.770446973490553
-8.69309322326807
-2.5204874116953055
1.880348222062833
4.388662541337699
5.051515000604221
3.9128025137497486
0.9668063293353591
-3.729322239531775
-9.852779390354252
-4.2600877840875135
1.5885669171409245
3.581913743882927
5.366989402970969
8.58245277610311
0.4844346092709161
-5.5505658261601765
-5.4880688768137444
-3.2093013258413707
-0.7675471598487423
1.560651615453205
2.21588601603795
1.955619146449495
1.0139448063764085
0.10787765453067998
-0.46407466568288863
-0.6288801955573629
-0.6793225025824998
-0.3865891914142414
-0.11930652544819932
0.010045132958758456
0.16514112259081415
0.17738897364698328
0.120153693773397
0.07766343548136799
0.11826481195582221
0.07790807321259972
-0.04412579317267133
-0.07857379646595934
-0.0724142408826318
-0.07300993554223943
-0.11498922847882302
-0.013213251067766576
0.036980158096509314
0.05331785352904994
0.05673047645557508
0.06164921703576001
0.06963778239534808
0.06830259023292075
0.03571921339608828
-0.051285497901055285
-0.20846420053406883
-0.239746450287275
-0.3414862953549429
-0.1172187403898612
0.4001112420456086
0.9274271590087837
0.7251116642310965
-0.1845465778839296
-0.7734082833181692
-0.7510074896434812
-0.7176869359137599
-0.3477834437645179
0.5892108307963588
0.7788262211284244
1.1061585044822393
0.8212183387249722
0.3420427623341453
-0.5071554057400877
-2.648241703233711
-3.932837857963104
-0.9950500640267558
5.6195006449868234
2.290462367323978
2.206240232960158
1.7712943209932284
-1.2364260952453743
-7.002303499153037
-2.2044922670303393
0.5565623736940312
1.564484511137971
1.437688431195357
0.8922406322118358
0.5036745997410664
0.5382057491349215
0.892932676322331
1.1547268754587046
0.7622133209606232
-0.7685526487552979
-3.617899820543001
-7.515867222209956
0.6518963435995134
4.45912024832911
3.226334384191973
3.300911740377372
5.463588626826661
-3.2571040791817536
-6.3724243954729
-3.2192577160778297
-0.27859696969072545
1.3696604938195767
1.8290898474497128
1.452773309747102
0.6716033870566326
0.05298132636509166
-0.37488084666766763
-0.5317046905971862
-0.44769795562298687
-0.20791921099187796
-0.10209475346144604
0.0066133455347737015
0.09093647561743338
0.15169414656866187
0.2015543557468074
0.24955914480147023
0.0933833166472563
-0.07790258033057361
-0.2728577579831981
-0.2850372437909114
-0.28684801257152115
-0.0359211383697467
0.10529795367011598
0.3425400635634742
0.42606882277553226
0.4423701602298516
0.22946142195363387
-0.18386282302659626
-0.7245130257362947
-0.8252124035423433
-0.39836330089384864
-0.047491284233283027
0.2833445849140789
0.6369389342710222
1.1723374167281118
1.7226925106884239
-1.8018046833178076
-0.9683780166375738
-0.3561871255486022
-0.7028762519213744
-1.487311091510578
2.0472055197729677
1.447044257988414
0.8127169299681626
0.60682567176381
0.5205248392472701
-0.6155833435542523
-2.9179412405363143
-3.1917314672830033
-2.380954525143758
0.6522562589194066
6.654382817868246
3.705460662743916
1.2564208243858854
-0.44235193889862445
-3.1223344225908263
-6.9703921321106765
-0.5161251246091446
3.1669732279269005
3.9145548692798933
2.017264355203098
-1.875286999944146
-6.855177137463124
0.5280629975080225
1.307896518567685
2.098626796035159
3.1024972533006716
5.4048787676963315
-3.383548446050858
-3.937377357954177
-2.946927828148872
-0.8726512792694524
0.7896313134283532
1.5039765793018773
1.382059771406022
0.8276968985745291
0.20010970148770388
-0.2668782742212872
-0.48264503890533517
-0.4701448407305858
-0.3142785946307618
-0.11187221736964388
0.061959284057463135
0.16685350959390016
0.1937390189292954
0.15304934074376528
0.06266079545866358
-0.059450946832653076
-0.19694663883388358
-0.13368224631130074
-0.05273655852536138
0.061665686213308216
0.2196691971833143
0.221644513895806
0.05799604581249641
-0.08531111030011032
-0.2173648572827101
-0.3343658739938844
-0.21959112999932703
-0.05547320339409827
0.15315666781115148
0.3517736106429285
0.416448918683957
0.5539930938759278
0.32991441278799116
-0.07665487337855661
-0.6032778597284446
-1.642295367547189
-1.6132608233176762
-0.3887655621340861
2.2284864280428676
4.807609957175445
-1.1813552919913473
0.22685395272818146
-1.6484737532391531
-4.855883968490338
-5.980049070417335
8.398351876550336
3.1636686005402006
1.7222485939520957
1.5504658421565187
0.286435313634608
-6.858866892691835
-2.8596150111593723
-0.31013613882811464
0.9896321974438549
1.4947247774985213
1.6851210554942335
1.8404433972200684
1.9066750940536403
1.5068800367499888
0.09913440566169872
-2.767246271045085
-7.190134669070367
-3.5587260168114487
3.012979654790866
2.854767038213277
2.9930529612054673
5.625922628289279
1.5485396154327624
-5.010104982487726
-3.7691476766418606
-1.298215359611716
0.24110340494956803
0.436319994603034
0.6332453806796329
0.8477054285964897
0.6328257778316332
0.3503302089228907
0.07822200801319167
-0.03184559270906074
-0.35090012067579157
-0.3371916455050259
-0.2878783585919553
-0.09509299408504863
-0.017605547383529613
0.12840376659174857
0.16261765390698918
0.12491497446509482
0.05838626240492341
-0.0033011422035817586
-0.041696616654053824
-0.05300432669992215
-0.04348956200212782
-0.023642132825873633
-0.0032997527483772343
0.01114510093552621
0.01738587810695112
0.01632429416964163
0.010559005914221663
0.002998647103062788
-0.003980021272543598
-0.008778531474172808
-0.01044705294996756
-0.008499479497576488
-0.0029253774868191963
0.005538463873353164
0.015041381211644615
0.022489478723138275
0.024003746649530623
0.01612419316401496
-0.002482689946759708
-0.029584387991984696
-0.05946754912511935
-0.08601194650944727
-0.10989993006378868
-0.15007171153144638
-0.05768350930387034
0.2717533525172866
0.6950569244038491
0.6350089444408629
0.11613621515749235
-0.38059190682997307
-1.259234879425576
-1.5708662266745184
-0.21990569945808566
0.7752869835954689
1.1808978072021181
1.2396232602969472
0.7972698982895546
-0.5065573065796899
-0.5782210761672835
-0.559229470663369
0.3018680348431998
0.3604627764547261
-0.3577252367966579
-2.9552527949804888
-2.7412523135540967
0.40866935005666716
6.23812229457112
2.1062987657043895
1.4785259197738687
0.16841718124212543
-3.075115471203282
-7.509646455639727
-1.1756125862557363
3.0099108674365214
4.829526223388042
4.276173056701023
1.4930239707008222
-3.20088341485448
-9.22438891075811
-3.6812113548946312
2.9611784356724096
4.03313619891837
3.9404494373601477
6.6994717159351005
-0.1421711183730109
-6.154366762155721
-5.305007739686701
-1.4087377542968327
0.9186015898191852
1.729845218415856
1.4577216133968047
1.1403106605736302
0.4417504017353041
-0.07582805004067396
-0.4083433888214776
-0.5021394589319571
-0.4072240641318873
-0.2189228400349831
-0.029137643876592807
0.10210580792741882
0.15411896868324695
0.13789757381563236
0.08158507014356177
0.016194928683882625
-0.034197649975587094
-0.056733398115886055
-0.04968474642562045
-0.0200413569504725
0.01953648558328695
0.05366834093651522
0.06731270726893071
0.049496950871724316
-0.002169291917337796
-0.07718590427536859
-0.1502860417276939
-0.18486116823913742
-0.14390692999333898
-0.008432481066647828
0.2002918159690401
0.4019761493930648
0.4514176815066474
0.3534429942108846
-0.09902382298808389
-0.47038035622975705
-0.6268225911111566
-0.7002206581608126
-0.4891142806544749
0.09577678389809029
-0.0507205554280661
0.6756631073625184
1.7120508518468651
1.9064471020122369
1.1750406663777757
-1.1614014478673023
-2.197598360766138
-3.4881397901623847
-3.194562588129647
-1.5891862712111884
2.687846678137266
8.294188048308389
3.703125003148221
0.302453051017049
-1.8649223578942162
-3.3641834543499627
-7.969678536364605
-2.164809079862162
1.5440896348916437
3.4821629964408842
4.115187822278493
3.76027785847187
2.4353175906466786
-0.08496845279738903
-4.0346816334779785
-9.35869460159523
-3.1064068967994594
0.9569463092474754
3.0932242559616063
6.581591582662838
7.930046969384824
-0.32008097263096824
-4.510455257410378
-4.743460268814854
-4.464809826768956
-0.5205899047049193
1.597498988561996
2.300975908773206
1.9121555547717095
1.0305988857669546
0.14540880685332955
-0.4609134391956324
-0.7155790825440328
-0.6945151300774839
-0.5372993571394158
-0.17288760321892663
0.12352802343531559
0.3387175287886062
0.30369070084639105
0.26513365163251845
0.060180586485406515
-0.0969647605028324
-0.21515863797079868
-0.1173451082923092
-0.028858620948955128
0.03171419737127246
0.05674600733953502
0.04927942523746094
0.02010175872521849
-0.015972629587150736
-0.0436267141517437
-0.05030750153533
-0.029593124352142983
0.015258720055158818
0.06829767916023272
0.0999664554898789
0.07017327027157896
0.13662684360137525
0.06808805555699506
-0.14017916393098084
-0.25404242210796923
-0.398279639480308
-0.4711381873467997
-0.17847580702681168
0.31706944911719925
0.7455609964951055
1.098725147697232
0.8397134504638989
0.36565341466052065
-0.48343896459691793
-1.8978125792498988
-2.398134045948648
-1.4086704234179692
0.47091163426290816
1.908048281933359
3.4481109870258573
1.9699858076419396
0.251556027864145
-0.5331235053905762
0.9794631257810907
-9.25164213095429
-4.156194438947697
0.791151319801977
6.330745079806317
0.07649957639834858
8.02474787128967
4.265545077485199
0.17883172800968497
-7.11425333472036
-5.789728539869946
-8.462874031848559
-1.8298981104803813
3.303944595302168
7.077951169608687
5.910831429872157
7.163986376988596
-0.4764224333967856
-5.442161055388334
-7.644994794128185
-3.3535982139292386
0.4132791594526676
2.2591004817818425
2.3464920197586463
1.5856659575339054
0.7873729252192149
0.06823436348116384
-0.4507477897834918
-0.6548522712675704
-0.5843341548853465
-0.3581749175287414
-0.10410719743765441
0.08688607159948712
0.1771867110350365
0.17598381889543793
0.11998659350649686
0.05176031661054285
0.002994250721491659
-0.013919113031430931
-0.005923436223338972
0.007066120889360619
0.002067888984154342
-0.03658265459991108
-0.10936321575097536
-0.19893277619018174
-0.07464859279107706
0.0956624079963111
0.12930061550163505
0.21293230291299853
0.2938329990954084
0.08305289195772088
-0.12846347554521914
-0.24492691246751241
-0.3404596869284751
-0.4435994387932671
-0.13895266461951522
0.4130186389854345
0.4451931278474098
0.5553026200157225
-0.10612419844649133
-0.02290152779569735
-0.07616016155617077
0.30778438800157476
-0.3891024816987536
-0.5371182365152324
-1.148243424209724
-0.30557782718337423
0.7655540833404414
3.397432198575183
-4.825223680389356
0.24914726500637205
5.289765511665147
-0.11753676436777706
-4.414870033615918
3.834397644756119
-0.7236516635003514
-6.119383693590959
-0.7995558435555908
2.7605178579879994
4.390905885705041
3.9658470828331414
1.4163195430398468
-3.156943534213105
-9.319974744212567
-4.803701878648684
1.2254254847621155
5.290194497887347
5.407477171489964
7.340352584159828
0.6598446197495965
-5.3126886389375985
-7.140820435617934
-3.2433595497056933
0.42687311417263396
2.2926582339017534
2.454534346012302
1.6708524523030286
0.7237378862336991
-0.14848356084265682
-0.7204057002991769
-0.7615228717686321
-0.5668025603670456
-0.27559820240022015
-0.008288184602265287
0.1660892597801424
0.23248132079663683
0.2129711367327005
0.14327610181986247
0.05316317415995182
-0.043476976004399384
-0.14827574644713762
-0.07088979188650008
-0.019055694173480856
0.009678807585104098
0.03220966438970476
0.07956945471252402
-0.00753203134712774
-0.1869285557660663
-0.22709031333934662
-0.12317418538538616
0.08448209005932963
0.2941947404731029
0.5372966555858593
0.5923107973730218
0.22478780915088126
0.05016893913325654
-0.7946762546284484
-1.3963394382861425
-1.6555268975033834
-0.9452925198183884
-0.03712200337735268
2.936539800828854
5.544624496998101
0.21583290443818312
-1.0613701419281112
-1.7098358333586472
-3.0816556426405777
-4.632234834984694
0.5528603094488868
0.8341840178913832
0.5246153288688541
1.5135199140433413
6.126981914334296
1.7352909402890662
-0.22196578218987198
-0.9908535957462582
-2.7122345707768245
-7.214273209898979
-1.7267787683765083
1.3874970323566862
2.6727382789620666
2.868481042732514
2.577462103356742
2.0402722695180047
1.0937257220195997
-0.6819191485125762
-3.6914381953506346
-8.042413231691595
-0.9760415771413281
4.9075965927373595
0.23352501767712427
2.33467180891227
6.762751199203691
-0.4640684408791166
-6.030880055696624
-0.5437004452425921
-0.2814754946689094
-0.5765956472627299
-0.28291657688488436
0.0552473678596546
0.7513683871400437
1.076214284353183
0.547254899766059
0.040924580306408206
-0.25402220106614526
-0.4418879646011864
-0.49774307957565167
-0.03592410337078801
0.1159149499117386
0.13068269776488592
0.18502101983761582
0.057236713120278976
-0.074687822624213
-0.03235922446525685
-0.03378932247144516
-0.08970842313279166
-0.0014220524951827243
0.03869181849795425
0.04423580747348657
0.03061335562908452
0.011177509471889838
-0.00512817203838819
-0.014269664058229584
-0.01613240386476804
-0.012805551293921164
-0.006920633153100274
-0.0005720974292712332
0.005012121735674455
0.009206705145688566
0.011488402948966237
0.011095154992686942
0.007128315061472754
-0.0008446960038300467
-0.011905749926527624
-0.02307926443235392
-0.02937441467535163
-0.025041513990848672
-0.006143396029400956
0.026033525243798657
0.06182705798348876
0.0818031767769603
0.05848672902323129
-0.03823912721898423
-0.032918184423017575
-0.13578778921262377
-0.13660497470552263
-0.0036925006347933646
0.11080819415810805
0.060813935393575255
0.09449313296384072
0.044376195040961665
-0.07812221135057454
-0.08312839319289435
0.0013980840525481234
0.13603924431312417
0.07789501292728977
-0.01044934170532055
-0.1519771465279636
-0.14849177927484866
-0.17900307983045385
-0.005345278438284264
0.21550294166387166
0.3162303915834004
0.10705424825578062
-0.028190822568725914
-0.12612838086750608
-0.2309967312333352
-0.18076435744381564
0.0019687218383147684
0.11125992527275241
0.1522431695681171
0.13268541089943056
0.05642220462985914
-0.078256493926519
-0.07512377084913537
-0.13389447608205918
-0.04502909237352606
0.011670212729702607
0.06372734741580932
-0.06091283783671586
0.058210093560825515
0.428162484948488
-0.35879365273444086
0.0789558588315716
0.12103758618080016
-0.04467917465427566
-0.6140697022860031
0.23542153920035933
-0.0610630008908926
0.13123731598113086
0.23111731771900804
0.22968021090850183
0.08804975716752018
-0.053302953394887095
-0.256124922344355
-0.36349930091607385
-0.1848169752575367
0.10712385501046252
0.165698777101601
0.25126068376416183
0.2111825412010677
0.06679494679595623
-0.1887977154386874
-0.1830073256668922
-0.1509907392202245
0.07634286832184871
0.07959466316952649
0.052591866745130014
3.336333185514609e-05
-0.06698005292671111
-0.13634737783135745
-0.0008492187462893272
0.1361699543250955
0.25709756420901814
0.13095879217464929
-0.07921103507618983
-0.20344469538010818
-0.2507236026644346
-0.1998589055494143
-0.00033326873407795186
0.21594545605313537
0.3158779007094766
0.14646854657024008
-0.0769986219827919
-0.17259654506712732
-0.18446688433224911
0.02925199937657578
0.20926852652859748
0.30686604128684913
-0.3056779335979106
-0.22667469662105472
-0.2213184002261872
-0.02627912518222153
0.03597848198232352
0.43608803698325965
0.2166576452653213
-0.021252253896415208
-0.11927570385791146
-0.1507340369003223
-0.0019686073545167773
0.047974776487844345
-0.05568993971444931
-0.13300840154824908
-0.16692940963142447
0.09053717286155144
0.10498677488164644
0.1425753129589715
0.0541113667457673
0.06473523342040473
-0.0284252854428904
-0.050898336258935056
-0.04027549911119542
-0.033976078044776856
-0.05896796726154767
-0.12622469046787127
-0.03139143740490393
0.03851947290829316
0.09446771663607682
0.1344727066111457
0.1368155828110282
0.06084178813312008
0.05652809478264402
-0.11913659742473658
-0.28385788680557955
-0.21644437082428156
-0.054026751517952123
-0.10311994627424483
0.13724536405913773
0.34686168693095115
0.35962278576539797
0.15199810521016374
0.0501057130030014
-0.2457916558168663
-0.4273816789514079
-0.34717835544217834
-0.20190379124913146
0.06313605100000258
0.3302673411914935
0.4754216857915291
0.13685419809090052
0.09801666055682157
-0.11007784670644019
-0.18922619983315603
-0.24513013513342152
-0.1593054581478243
0.029717089576589886
0.13151454252174008
-0.00457175866102687
-0.10783201886911913
-0.31006771239768127
0.029799378127864023
0.5060936433117897
0.8593822752563877
0.5901934225259046
-0.20325889154432825
-1.3711348331062099
-1.86218223953021
-0.7032088926465534
1.5777692893728936
5.293832881183089
-3.863582903279563
-1.064422308297632
0.6479488667829817
-0.6454454912340347
-3.5509165908222404
5.814026285728908
2.402593113366885
-1.545393746180182
-2.4377434101304396
-1.4312460038025434
-0.5447987903021434
0.17359120214697307
1.2136151471709298
1.3244569516581457
0.4303661034308016
-0.22477147963210878
-0.28723336155846957
-0.46270963847357693
-0.2643024600808202
-0.16155700242156365
-0.14738655483138316
-0.13097584906495488
0.04370454453435142
0.1607275710054211
0.38771305563620473
0.4370828147487988
0.1444672233148891
-0.12975768299282756
-0.27769241354530644
-0.4090925439312152
-0.21720520350097142
0.04380158128268362
0.1647554158307882
0.1726006112707412
0.11333448584249585
0.03435518623506219
-0.028345199147070222
-0.05611009790352352
-0.04748909303787255
-0.014279882100144543
0.02402015555291352
0.04590033421726498
0.03303210773076353
-0.025334268064115182
-0.12935389198643799
-0.06799745565292852
-0.02190251808772695
0.030286213253171684
0.10368727884000631
0.20012692916688007
0.1056760239489649
-0.005062995678979126
-0.1584451360435355
-0.16864592142890847
-0.22740967425280725
-0.10175687366207913
0.05817116244430649
0.3032527947762155
0.26750280806399906
0.15562714586475426
-0.05852588724484483
-0.22191291503012198
-0.18507661845175846
-0.18512043287749658
-0.03566954507704556
0.07284273409587003
0.16371595137466202
0.06004000341263903
0.1722744226612639
0.0922982895013212
-0.0038240307723440806
-0.14546581335516615
-0.1535684806612862
-0.2290627465117046
-0.1488554263398797
0.12813580901435767
0.2466220967325436
0.23785735094024646
0.10699848333841516
0.030323305077358077
-0.23657767513864947
-0.1431657175902804
-0.12718266020519114
-0.002874179323116319
0.04230923741050841
0.042550963291834
0.042774335066749505
0.08589137237295613
0.0018089025188313093
0.0007023576101904736
0.07166148227111348
-0.013502676542802145
-0.09253507666515264
-0.0030644703274597287
0.02674650480079939
-0.014805407412397137
-0.11975166414147834
-0.06180255898304275
-0.002342911111552461
0.09993395919063082
0.07815947569488801
0.14856797343798944
0.10705156051971045
-0.06754807444424527
-0.2045505642622661
-0.13054977026254802
-0.06114072044191331
0.0013047204588859493
