0
-2.005972330548124e-10
8.114247827834028e-10
1.968420784199676e-09
2.784349169881148e-09
2.6591391478726488e-09
1.108230626915817e-09
-1.9315796311609433e-09
-5.826421711005629e-09
-9.15313247977788e-09
-9.942486413337187e-09
-6.332714763576641e-09
2.450609177369317e-09
1.5081791271674808e-08
2.7569367856802736e-08
3.367587749206952e-08
2.6688150420162993e-08
2.4495667456702456e-09
-3.7107583739107146e-08
-8.138017773935154e-08
-1.1128685291033257e-07
-1.0375062287293286e-07
-4.075245823466239e-08
7.885280795909129e-08
2.2897800803951975e-07
3.533533866201034e-07
3.7573846577845334e-07
2.259031341718332e-07
-1.2227305409748906e-07
-6.123256244080153e-07
-1.0850970699581783e-06
-1.2975663916598933e-06
-9.939373645079165e-07
-2.4284504671624798e-08
1.52011022264837e-06
3.211738560144222e-06
4.302393759151401e-06
3.9057573363635e-06
1.354028858963092e-06
-3.3461350128118247e-06
-9.125425223925595e-06
-1.3762059122757686e-05
-1.4307784442656181e-05
-8.119166694888514e-06
5.66275235146522e-06
2.465337979546163e-05
4.2517086900428496e-05
4.979622239022417e-05
3.675990146734631e-05
-1.9590260856882218e-06
-6.218610109258507e-05
-0.00012672427472201406
-0.0001662702609446894
-0.0001468290064654676
-4.3744056292395685e-05
0.00014073044325775812
0.0003629200948686318
0.0005352108817447413
0.0005437210395182959
0.000289174796844101
-0.0002556976042796611
-0.0009909267971832383
-0.0016647100417411507
-0.0019093475057472384
-0.0013551074689550128
0.00018890931775715058
0.0025372327820202883
0.005001616679670271
0.0064395273777631155
0.005555359591897707
0.0014527567538186728
-0.005688660126595939
-0.014074784156703574
-0.020246227828675117
-0.019832584096296787
-0.009226878113338277
0.012072743988124503
0.039151863637159424
0.0604404605665101
0.058602496440889
0.014118974797639745
-0.08886836812007308
-0.056075384199054196
-0.07837921845759152
-0.13120439819736365
0.020907996493655618
0.21539244800210558
0.08123208993569796
0.03082103415340392
0.05717584041269821
-0.0626425270068435
-0.1595034929965138
-0.06278598636123335
0.007071851812618568
0.04193412872718357
0.04506968064329325
0.0273949863248686
0.0027661056361623923
-0.016210478367087118
-0.02118571037986651
-0.00986951930373875
0.013179590983426966
0.03672306945647255
0.04415050283792714
0.016127133030609628
-0.06559302361427406
-0.014012112767717196
-0.03375380242844087
-0.12034487857144367
-0.06270012924266768
0.15157293400726526
0.1299191064922595
0.07066415351903664
0.1638859678904618
-0.0014531693929782817
-0.225769042969855
-0.2870117239013335
-0.13462868500535527
-0.09405475112841455
0.11741189036637985
0.3674895323654313
0.2864693622107037
0.05396003893156059
0.00014035742427007895
-0.17883431915468018
-0.39712071899853413
-0.155830503955141
0.07233205397924836
0.04705989754025092
0.15505690618249093
0.4011339745128017
0.20236948986352876
-0.21068612638272707
-0.3867422575035666
-0.24645980261739459
-0.28318064601661724
-0.1770526186796023
0.3786275953110939
0.8474508526272826
0.6296092129684551
-0.13682815917297883
-0.3498805754365631
-0.7022109538145505
-0.8431232551827142
-0.5635626880136784
0.38556578143297743
0.8470673394730328
1.0035265918131602
0.7430420019891635
0.06600306980434155
-0.4624487018261591
-0.8297653691412001
-1.0932270892863813
-0.929966140922809
0.1576737178815817
0.5788477314599543
1.1523275813281957
0.8000374686138607
0.47091495908784853
-0.2829353337396084
-0.47622589781817964
-1.023758112783419
-0.263720064961181
0.10455867960127029
0.2554011286993036
0.24495018025977952
0.40291866140802
0.12008221339830887
-0.16048415159594312
-0.34732414932068606
-0.5046078038779871
-0.46324575033726645
0.5573185430619635
1.920684762134391
-1.250790280933813
-0.08578368856644243
0.2425953836154822
-0.4679078180871333
-1.6359100673171247
1.7063269175645204
0.7060050177662767
0.08216509626795708
-0.2712919785217896
-0.2675145317198136
-0.40031214033796564
-0.5228397370271499
-0.24308048218395098
0.25997266136322694
0.6058020591845809
0.9824664875833258
0.5347518344934483
-0.41862595996464874
-0.7416111718223783
-0.8288165156712303
-0.76998298603872
-0.15123047200090983
0.7015182206637252
0.8498059257213076
0.6665433082811465
0.18430779388506016
-0.11405098299922542
-0.060622169316148077
-0.3362694906572229
-0.5943617533414985
-0.39697710323084096
-0.18142487997950998
-0.2657234915055087
0.10977937176211654
0.7182766966992403
0.6809113803645399
0.6223437796351854
0.26407348212527243
-0.3408661600820479
-0.9440270968474098
-0.8329984002685319
-0.5858760827610603
-0.06818440168119652
0.52511174779767
0.9981873885295047
0.8812403746663319
0.18390901648928307
-0.20781832281967752
-0.4921569205029084
-0.686773011085743
-0.5637599658806711
-0.006599647131727635
0.1994409636935007
0.34555777787394026
0.3589218163962427
0.15999219999065675
0.03136744480075585
0.0051036433577244635
-0.13192479375103994
-0.22041109275018372
-0.10688472306924134
-0.025423542030711503
0.012357439093730563
0.017790660714575607
0.01789061617688082
0.043805761163719766
0.11888736294054386
0.049855115262191226
0.023484843917657424
0.009642244886426295
-0.030367717743015166
-0.13274930623436135
-0.12090077388213268
0.0009750256004558708
0.04853261301522615
0.05250232143039122
0.05058295286709579
0.0788694044393319
-0.034811803487039196
-0.07452944348370999
-0.037016052621472235
0.06950380510280547
0.027601875949056314
0.013773290189801758
0.0024077798472836977
-0.029691026687538695
-0.09911305470732346
-0.013171634226584412
0.030331971847700284
0.040854633872888284
0.03129784183729075
0.014081669401344893
-0.0016517650768300548
-0.011145268182909472
-0.013599816824553197
-0.01081559696621762
-0.005602901018507296
-0.0005038424098726393
0.002912677702207305
0.00418494838598874
0.003694870759416018
0.0022374323835093425
0.0006196812175164332
-0.00059637104993774
-0.0011796445989486568
-0.001180880128919267
-0.0008135143643712137
-0.00032747258258066
8.212004919629403e-05
0.0003156395420039808
0.0003649490556719807
0.00028233610568513735
0.00014201767402385792
8.945008431294152e-06
-7.804579046620744e-05
-0.00010875203655108771
-9.426952561528169e-05
-5.571022758572831e-05
-1.3940355625977694e-05
1.6836054460789088e-05
3.10595908486548e-05
3.037420622283738e-05
2.0469077655028583e-05
7.81892243785967e-06
-2.6234826256006356e-06
-8.412754054755855e-06
-9.452566796527016e-06
-7.162973309850456e-06
-3.4806888659214254e-06
-6.542456722519489e-08
2.115919697724624e-06
2.8363164400603064e-06
2.4076770524637345e-06
1.3856585762599762e-06
3.0687742088692456e-07
-4.7142835635541794e-07
-8.169162254670543e-07
-7.808115363996588e-07
-5.145167922580551e-07
-1.8560932433969744e-07
8.03539585590155e-08
2.2355592770376756e-07
2.44428058861024e-07
1.8138890689028945e-07
8.491303863237626e-08
-2.635928812073757e-09
-5.723654315173497e-08
-7.396364390413211e-08
-6.151081055244456e-08
-3.447782723512665e-08
-6.648957376797657e-09
1.3005842633434454e-08
2.135986561627466e-08
1.9958601814799974e-08
1.2821831279535856e-08
4.281365144588583e-09
-2.4843771526502536e-09
-6.017878872828402e-09
-6.404895365598804e-09
-4.680727147170214e-09
-2.1583924194567827e-09
8.303049761671949e-11
1.4490344873385318e-09
1.8368723136073895e-09
1.486410607132246e-09
7.786546625072649e-10
6.425030270900829e-11
-4.3515083346585385e-10
-6.482076086453195e-10
-6.193411986141634e-10
-4.497199828623639e-10
-2.418570707043357e-10
-6.504270967462433e-11
5.3696118182792906e-11
1.184098087995867e-10
1.43583444876015e-10
1.35624479279127e-10
8.5204377347454e-11
-2.6000716528332717e-11
-2.0672367067582189e-10
-4.3385184780139087e-10
-6.383253377752848e-10
-7.110805659619266e-10
-5.361364511341634e-10
-4.801366852870619e-11
7.026517903936684e-10
1.5040470551271395e-09
1.9931069546675203e-09
1.7471045889967179e-09
4.585278698773982e-10
-1.8452310669313885e-09
-4.6200577660813246e-09
-6.772918797284037e-09
-6.881945888349408e-09
-3.7065968459276958e-09
3.09535049236296e-09
1.227741637608059e-08
2.0696401884176683e-08
2.3760471156444593e-08
1.6851329847125167e-08
-2.4150392810978466e-09
-3.171654152255506e-08
-6.243770250387777e-08
-8.0262639174289e-08
-6.8921510914604e-08
-1.7074491133714453e-08
7.323819109991261e-08
1.798354911268654e-07
2.5963641319314614e-07
2.5776014258120456e-07
1.2772335209802068e-07
-1.40777783844782e-07
-4.957899615827588e-07
-8.125703239934256e-07
-9.128127307945995e-07
-6.214305298366532e-07
1.4528881312013726e-07
1.285392257796011e-06
2.45373947319918e-06
3.090940923110487e-06
2.5746784793910273e-06
4.898695842705877e-07
-3.046486443119412e-06
-7.134130993708279e-06
-1.0078582206172017e-05
-9.765214994614892e-06
-4.457522925597096e-06
6.1276280514958546e-06
1.9836884386525887e-05
3.172740574006947e-05
3.488368526008625e-05
2.268064438371678e-05
-7.78283139067277e-06
-5.209266863655414e-05
-9.644899588072392e-05
-0.00011901920890796842
-9.603513265931142e-05
-1.2383158511299049e-05
0.00012592371106985093
0.0002824459217286059
0.000390613743638457
0.000369043774015192
0.00015304552105636376
-0.0002638110624254328
-0.0007927105016028465
-0.0012380705368751817
-0.0013319308159456247
-0.0008239282901680689
0.00038526129742419505
0.002107623478670261
0.003794275417045952
0.004597539672917981
0.003616919991247313
0.00031459323585096056
-0.005006234720140626
-0.010860678320334714
-0.014630735549144935
-0.013213710518110587
-0.004317306204611022
0.011826372497270699
0.03086644654888667
0.04360926393073971
0.036869733747078595
-0.0038105808793354934
-0.09002454210922312
-0.02616527993649362
-0.006498498738042186
-0.014924543897021764
-0.02785668599464547
-0.019689844849981184
0.03043339813446603
0.13242416786077874
0.08177591679616551
0.0606456731248082
0.044026755692386815
-0.1905133297741903
-0.25312549778104754
-0.13655762228845214
-0.01905514732016991
0.12456114771616544
0.30764226307465714
0.31919865394240854
0.12095529137368775
-0.1427523273279048
-0.32473496171262944
-0.25215697157722067
-0.311043982822869
-0.04552131881292425
0.22668021909384364
0.3877517521115513
0.29248924097636303
0.15079638784841512
-0.07346517885207239
-0.24765653791077133
-0.24641321286182377
-0.32866444394599836
-0.12463543814064186
0.16291423566284446
0.34541295549881285
0.23077321750199858
0.21076705271843202
0.060432732691779074
-0.24924898399559742
-0.3303701030057834
-0.15775474621965532
-0.0583260709727069
-0.11558329710788665
0.21095599163613007
0.05653498133969493
0.3203131728743409
0.041384501152890434
-0.012032535900715118
0.06222913654336929
0.11909196016608888
-0.4058085776118788
-0.06566275052874172
0.02354939713917476
-0.2007144705740582
0.05653469633747626
0.24081958559027203
0.033643309285180646
0.1348340006234545
-0.15472815260828704
-0.3488272390721998
-0.19089447376993146
0.1311069913860172
0.3722180767205954
0.626764907184293
0.5412991378188037
-0.25162633756963954
-0.8836721034496303
-0.5999433549304516
-0.32727082878046754
-0.2771249149759015
0.21369715857132457
0.8160217651187176
0.5368804413066575
0.6684572381274081
1.5756462551162054
-2.4740735508015064
-1.253028085279039
-0.3162190904078593
0.027930681884661447
0.5088836373523611
1.260606263808641
1.3917953963707659
1.787054718008451
-2.8506349747037296
-3.1326133862274603
0.8689901889993545
0.022157341352687328
-1.3304959314120932
2.916833864159365
2.7195662979841146
-0.9853139478987762
-0.4709953758124659
0.6627611356641634
-2.383723125770607
-2.288174357525177
1.4674115724320491
0.6000302352780706
-0.8352925740878878
1.8586790981601788
0.9276935750241261
-0.29530267476600985
-0.40409225849136576
-0.4893006486010942
-0.2831590649167545
-0.30214217152293626
0.3945317210755891
-0.17785872377732348
0.0633952838580673
-0.3583970028702299
-0.3197685054173885
0.05631143843539368
0.9582322382859462
1.062351604120336
0.5431775644129746
-0.47602031847301973
-0.841279624173277
-1.280668018531721
-1.145445053714513
-0.006295084021804224
0.8890884201461111
1.3157028934413821
0.9645820566873958
0.1677796826531646
-0.5219510903267561
-0.2967706404587372
-0.6241094161178892
-0.5694937610904705
-0.13614990472885333
0.36522347309937325
1.1160779301499115
-1.231858346618041
-0.18834087403930735
0.5424033294913468
0.8335730210096537
-0.48077396789227717
0.9955601689822416
-0.35899419572893243
-0.9528300486334781
-1.155079572349726
-0.4918083143982097
0.5261359495550882
1.3509929879356055
1.3461250059070453
0.5647553139911581
-0.2208095238363997
-1.2430803753668282
-1.2440878419639536
-1.000780716300048
-0.3051066185059554
0.38850532773717933
1.2625256793022517
1.0180558352461833
0.9813727840259524
0.06805929844435886
-0.5844701807831071
-0.7301893325427412
-0.70554955179876
-0.9354032749744242
-0.08222454642972161
0.5501618264345429
0.5663656034034344
0.40495366245632974
0.2661743579924341
0.06256088671470687
0.001836566450818194
-0.1996784104203255
-0.2828054142422755
-0.20348500141153195
-0.09535070244293377
-0.045289285901630665
0.11514676965322458
0.20471160209090514
0.0791879607357593
0.015700793614043203
-0.1013554101633417
-0.1915379094904959
0.012487747259666039
0.15690045750090226
0.060234660654763995
0.11040459724158369
0.06732840688122282
-0.12830151428283285
-0.1418683460454497
-0.030858039066279576
-0.03392066566514872
0.03448488795505497
-0.016611052274748954
0.039826337483356476
0.040738940527409735
0.024569403831474594
0.024474461389466504
0.06437200217693916
-0.04188240000135744
-0.0888586366225626
-0.07689126779408277
-0.010013972619166929
0.10457590559363687
0.05585950772294079
0.028494399130705513
0.0038315014747597057
-0.03715142101152011
-0.109854087809214
-0.022616269811763137
0.024672415093611073
0.03936874671700608
0.03292488056123918
0.01717607678517933
0.0014088958029250158
-0.009059009016273618
-0.012780041679797361
-0.011052563974578152
-0.006434547325693474
-0.0014524339379997806
0.002185867700995139
0.0038250866080844588
0.0036793903120159585
0.0024446724809797033
0.000903216421037494
-0.000352977856823362
-0.0010375487581429999
-0.0011471889886380774
-0.0008589212003093408
-0.0004087689045848544
3.4652826887785423e-06
0.0002631827491223377
0.0003454261124859832
0.00028973945115857985
0.00016414978723244594
3.3495237324232014e-05
-5.9620905783954794e-05
-9.994823882669827e-05
-9.429860910466513e-05
-6.131914817499976e-05
-2.1330851699469625e-05
1.062283064737677e-05
2.752871363663963e-05
2.9641570814249268e-05
2.1735452673701184e-05
9.955261040239184e-06
-6.028488818549072e-07
-7.095416117065304e-06
-8.991010779691302e-06
-7.386828585086938e-06
-4.068426702166758e-06
-7.001334521149595e-07
1.649408735309931e-06
2.621700775730369e-06
2.419367918857146e-06
1.536896851368246e-06
4.992528225879693e-07
-3.130114273734656e-07
-7.293845503173781e-07
-7.654262973026644e-07
-5.495788971026662e-07
-2.416581568040251e-07
2.8503458460517537e-08
1.9053016328417694e-07
2.3361167618213655e-07
1.8799804258132933e-07
1.0048704007926326e-07
1.3754105256299214e-08
-4.54409749990331e-08
-6.875324674396243e-08
-6.20917094720007e-08
-3.854182264516778e-08
-1.1649496498954738e-08
8.971973476671317e-09
1.9195288849569612e-08
1.9651368849458022e-08
1.3785127441845274e-08
5.747808825177012e-09
-1.15688109422604e-09
-5.191709735606447e-09
-6.152379354699535e-09
-4.868318436129358e-09
-2.5644670078548535e-09
-3.340822871937469e-10
1.1538541391041563e-09
1.7075709840667946e-09
1.4972789023158254e-09
8.694038131260279e-10
1.740012394255647e-10
-3.458048120310385e-10
-5.907585832809177e-10
-5.842994597350438e-10
-4.210553285257539e-10
-2.1186523448323317e-10
-4.3307226196243707e-11
4.136338083971794e-11
4.1895535626759965e-11
-1.1820669527278923e-11
-7.751499068556731e-11
-1.1728403794886364e-10
-1.0991468373820094e-10
-5.73196364848863e-11
1.5461403797307792e-11
6.698962375950738e-11
5.275257670383595e-11
-5.642637212305104e-11
-2.549429694967501e-10
-4.889489554923222e-10
-6.576952113832723e-10
-6.371617766853473e-10
-3.274806429072959e-10
2.8483947124870967e-10
1.0713436563747092e-09
1.7435113060190756e-09
1.902543874607061e-09
1.1719496460676596e-09
-6.04210248437542e-10
-3.156815213694657e-09
-5.6779146895759185e-09
-6.9063427132275105e-09
-5.486239179572994e-09
-5.802293127892185e-10
7.417058898776502e-09
1.6358484202505175e-08
2.2385400749372497e-08
2.0835888642631568e-08
8.075982403618879e-09
-1.611281414598738e-08
-4.644343620561345e-08
-7.153324746486286e-08
-7.597556731255711e-08
-4.5596688465395206e-08
2.4843409041777436e-08
1.2388329960162497e-07
2.193144857396431e-07
2.620121017751364e-07
2.0032577165882194e-07
4.067982211613865e-09
-3.081512447338537e-07
-6.497721156351999e-07
-8.695031782842953e-07
-7.883082832104245e-07
-2.715350223200893e-07
6.789643787092939e-07
1.8465143509262358e-06
2.7817075762542525e-06
2.888796491073067e-06
1.6343482717607286e-06
-1.15370021139536e-06
-4.991496327508053e-06
-8.597009334545682e-06
-1.005855142782069e-05
-7.411420184955867e-06
4.246313893583843e-07
1.2599664336649522e-05
2.5632080431573868e-05
3.3596922761534164e-05
2.9627604559831232e-05
8.753340720202295e-06
-2.8550774679932473e-05
-7.343695009494152e-05
-0.00010818529403492725
-0.00010978690585441247
-5.8213281083109716e-05
5.198315133836641e-05
0.00020052074456929596
0.00033644906490241217
0.0003854559352557829
0.00027292824842860725
-3.945416942335541e-05
-0.0005137700529830773
-0.0010102915498401762
-0.0012972445215238125
-0.0011115764919468311
-0.000270367904230972
0.0011926663999064307
0.0029183649851842477
0.004210805405997595
0.004185807439756303
0.0020989957764259203
-0.0022039685052823365
-0.007866290311154149
-0.012853895047586432
-0.014277878454064013
-0.009338956704510262
0.0031923960867764967
0.021343977454843725
0.038812604608356276
0.045084846197333224
0.02732394171179362
-0.02607116514370391
-0.12118250168112003
-0.05522368212131101
-0.015830821996753078
0.01618729874645076
0.061326871209459004
0.13513878446076977
0.04379492707906209
-0.0166374664403157
-0.05691167798394658
-0.08882049966647222
-0.11956283147417904
0.05122196017200709
0.030527209961544063
0.027720567151047565
0.04888546451363661
0.0920789522129026
-0.05473575340736845
-0.012429795498893323
-0.006667223574804606
-0.06246200603206221
0.001091679094701565
-0.025276683200160726
0.0610170500075161
0.07474888314244285
0.042060647090908815
-0.20126235269587586
-0.012903405612221391
-0.14955060403198994
0.024625937418678766
0.12774860937521465
0.3515195615263823
0.0583485949681738
-0.012452325045819095
-0.12952599385066407
-0.1495925220693697
-0.29973166219687725
-0.16862917141063874
0.08929301151989835
0.13765234493512551
0.23537574393385982
0.21589420184460667
0.2762708079615826
-0.019304684621405527
-0.3227352749433529
-0.47856657711804085
-0.10360912338907018
0.021878886893516976
0.14834575856945312
0.3399621614973798
0.25432339248259755
-0.07327712199452786
-0.23683169262453224
-0.2588369274702866
-0.18621178496844634
0.1128743108275896
0.3506735991243874
0.42380252463321516
0.22505563484970517
-0.13397019503182925
-0.4929391257284811
-0.6158586329442333
-0.38042020144847805
0.006873305248490781
0.3697909575866978
0.7068065319530494
0.5393281194352646
0.08183015582201524
-0.1561283060120053
-0.33814263594021093
-0.45208915775371217
-0.26131561347029836
-0.07071461517088969
0.0847326462851928
0.2299845277687498
0.2262600141173937
0.14410242930533604
0.04225543467020427
-0.04271845788858099
-0.09600108106710158
-0.1169256256622868
-0.10952466802238205
-0.07600072117763493
-0.015815280704380867
0.06971427886703248
0.1700508362796097
0.2596440611824664
0.09787339786228108
-0.16337800047562134
-0.3663822188260828
-0.13371220699968767
-0.05989274426612088
0.08814608370038234
0.3632244315816991
0.42793497269438974
-0.05163026425243344
-0.4060245612119813
-0.35977290258536926
-0.43348595966641174
-0.15771276846582113
0.3006762128817582
0.707623638813187
0.7415240209338877
0.7990124422159104
-0.5652784070132166
-0.7716754906827721
-0.9427338009508548
-0.8536002316980178
-0.5286587395775029
0.9093357873688925
1.1528036320002497
1.0171052434276073
0.5772973096288454
-0.44365174642703353
-0.8348035932517943
-1.0258772674212326
-0.41497238963786803
0.6789503858123852
-0.1717194911083378
0.4793166219453071
0.5201810850832964
0.049537555538560575
-0.8441922112854523
0.5087734111288753
-0.04034411942860877
-0.2556876038345498
-0.11421328263810718
-0.005562204475179944
0.26565162361136896
0.2772243377059902
-0.010143499234810859
-0.24686390012709916
-0.08386467566096588
-0.1613152786900063
-0.10117438379153028
0.2941398532983776
0.23798152329073033
-0.04609423619826652
-0.1286821785951321
-0.17715857533712343
-0.15872343932273933
-0.046465577348325626
0.17107885511689333
0.27978764108601417
0.2346444297004803
0.16451321397644111
-0.011097658466231196
-0.3568058732324996
-0.4963894013898018
-0.3991532263300067
-0.1862320183981359
0.24190406589248328
0.7652069186103592
1.0072621214913813
-0.08071123595430547
-0.20534154229292062
-0.49002761726413757
-0.8240885884771866
-0.8240555140150594
0.37608100121630106
0.5018902965679254
0.6940951482540924
1.2636545960445384
-0.9339528387461982
-0.49700287035790586
-0.25504390201241633
-0.2416727289024496
-0.6775401820449076
1.230247382338964
0.4765026942139276
-0.15536414975685928
-0.2987904053357924
-0.39931168428655317
-0.10484590780727028
0.14177756358843077
0.30467832212198814
0.15318883059417926
0.06115403283122831
-0.18958908653088777
-0.2023096274783333
-0.1591523264210297
-0.020274091674132536
0.06929937948679728
0.16650725220564047
0.11527899713503303
0.13522850153306828
0.018114402459619306
-0.06679399550058224
-0.16058514628906825
-0.10029296988701385
-0.10722587187609484
0.018360343317091105
0.09533300156036557
0.15433879014903729
0.028524500598779458
-0.0543175306892676
-0.07639264843426073
-0.03142893819042154
0.07582987246961138
0.03127920896608227
0.01407143896341051
0.0003077580080842581
-0.03247214451727293
-0.10094063220172193
-0.013061123215427212
0.03242134137278694
0.04399557641342173
0.03383826423019877
0.014151698955930797
-0.005414419009332184
-0.018792065409338917
-0.02325538785989783
-0.01860678419021763
-0.006468634886734925
0.009983684408444765
0.025984191145485454
0.03534339056613443
0.03141644909907001
0.009181110132938219
-0.0318778173567528
-0.08510288514343997
-0.13571294707279433
0.037137430461645145
0.055078165027774316
0.13345139382072288
0.07515279642772642
0.06810977996534663
-0.1123004153685051
-0.09675306811639656
-0.11402554416618303
0.015369726030878654
0.08207873852457466
0.08737749271774707
0.04076715474457198
-0.04257257388061873
-0.14374068629951053
-0.041997879480128404
0.08248814636390762
0.04485625984842997
0.05180699282035469
0.09964994230694003
-0.024581876051344966
-0.13901106837483515
-0.0613004696422483
-0.003799282960643461
0.028759259278847597
0.03860114346264889
0.03225232260390462
0.01742005733536147
0.000690601087123024
-0.013409326035736593
-0.022184966742543173
-0.024048900722782464
-0.01805312028502986
-0.0041607652695347325
0.01575427233982041
0.03671875207413846
0.05016748823411998
0.04500811330831483
0.01060998004028551
-0.05881829449308109
-0.1600099171647751
-0.07871057192796294
0.008255053041888076
0.1268041905637332
0.09728115246401114
0.12735853416073847
0.00924753543323037
-0.07752880759910265
-0.15902569763871
-0.058509241901059876
0.009806599817729349
0.04290622399541353
0.047064978616279125
0.03354268739893059
0.013986173287264585
-0.0028789122079660194
-0.012628162660256051
-0.014795304802293328
-0.011493256252684408
-0.005776293481435805
-0.0003295781672042258
0.003236133366125323
0.004492243770871387
0.0038908191716630364
0.0022991406881321588
0.0005759623458762996
-0.0006936766281083911
-0.0012806815688002308
-0.0012527962139498355
-0.0008445548917758378
-0.00032293765498900653
0.00010777788840253011
0.0003466805829421451
0.00038972844965998887
0.00029543327249245926
0.00014364250747071273
2.8058960884031096e-06
-8.718235914391177e-05
-0.00011693589536529168
-9.929852963282437e-05
-5.717483330335133e-05
-1.2692926954395836e-05
1.94104918153562e-05
3.3670853496198956e-05
3.2194427315106595e-05
2.1221074983553755e-05
7.66041622063543e-06
-3.3087247728407656e-06
-9.217550869695345e-06
-1.0081858911451352e-05
-7.484668341368905e-06
-3.507085656802222e-06
1.0349702586309905e-07
2.355690722017534e-06
3.04564025686479e-06
2.531497275069444e-06
1.415556024192831e-06
2.6702199430232813e-07
-5.431679780810187e-07
-8.852462057590572e-07
-8.228638031753085e-07
-5.228744143910871e-07
-1.6623112282647341e-07
1.129422421398942e-07
2.518753182474122e-07
2.5337675882565204e-07
1.628226834065607e-07
4.108714959611245e-08
-5.7547528475897986e-08
-9.878985903623682e-08
-7.346418372036498e-08
3.400003604525773e-09
9.75657322968112e-08
1.64026861252063e-07
1.5915728508825197e-07
5.6301342206560544e-08
-1.3771172949599333e-07
-3.708008977443908e-07
-5.466232862527478e-07
-5.457389044225172e-07
-2.692370957574498e-07
3.0262446935211986e-07
1.0562517714297443e-06
1.724022499885093e-06
1.926765304679864e-06
1.2954112697327464e-06
-3.4186756762204447e-07
-2.761004184869141e-06
-5.222960349091838e-06
-6.539091779405957e-06
-5.3958632740943974e-06
-9.295159906196304e-07
6.587358841498228e-06
1.5220694001700744e-05
2.136375703095173e-05
2.054373094646395e-05
9.123252343635234e-06
-1.342215659908235e-05
-4.243884163882245e-05
-6.738290673236527e-05
-7.359760186507176e-05
-4.7149296942850956e-05
1.7885857138603057e-05
0.00011185303496216676
0.00020523375493525564
0.00025166245177271016
0.00020099589190402403
2.182961564348842e-05
-0.0002721511210604126
-0.0006027443643964241
-0.0008283160000684785
-0.000776755218275546
-0.00031253540775741015
0.0005754157777382758
0.0016963373376835396
0.002635087522453325
0.002827530748907633
0.0017537376395812133
-0.0007777273721010047
-0.004341923259774378
-0.00774711638849859
-0.009179383932399927
-0.006750778174573809
0.0005667966581760707
0.011823332639221527
0.02316916432083119
0.02759358295807354
0.01567708042614564
-0.022632430343042853
-0.09569902329610734
-0.00818958888198789
0.03984093421649349
0.05260231481298812
0.03755840111233283
0.0046503788131210646
-0.033781872062236845
-0.06276036406507074
-0.06514704097664525
-0.02387702116048082
0.07376650836510379
0.03072914601015487
0.03549316559525157
0.060245047860803765
0.06344409747052757
-0.0028103585087443156
0.01839786646591935
-0.09858627929207804
-0.1513783054564053
-0.10466789794493131
-0.09387785914989821
-0.038005299803281274
0.14072593057660068
0.29566948680171207
0.23990331639952148
0.1418517358366521
-0.06501863310969612
-0.26120728613466465
-0.5166907563299512
-0.27289189062059444
0.061247372046487246
0.2978454620648213
0.4497676091324528
0.5128241698111677
0.06116279989620633
-0.33991566559441777
-0.5087277067648217
-0.42191043639471404
-0.20279293888995584
0.06829136207815299
0.32302089289593067
0.4637605124281233
0.326922396397277
0.06468021448949048
-0.0478141872670493
0.018720111368679494
-0.3062895284389348
-0.3456176852863792
-0.3385388736960702
-0.027423931195347282
-0.07077106272919932
0.12080847937979926
0.33580613225394074
0.5141615225296862
0.31447283482428506
-0.09470150619769922
-0.21821783712796838
-0.3999121990308999
-0.38359625493807553
-0.2829010842452441
0.2318927153270039
0.5302049912087197
0.40836797825414123
0.07825738064661468
-0.23554724959907547
-0.4905894963428687
-0.42076963928761496
-0.13918440782503846
0.24573934257112345
0.6043819937232726
0.561110219785267
0.08295693591246912
-0.3111268610354965
-0.5231969576100928
-0.44283390168342107
-0.12118507204320757
0.2383544906644827
0.47270706042991517
0.44271725161494985
0.018099898957656603
-0.32990246266792517
-0.5293769846178249
-0.5095180533626003
-0.011189455534121782
0.591960428109868
1.269236122830165
-0.6810791466383118
0.17595717002804806
0.04327778336678965
-0.26164649395409767
-1.059349439532919
0.6254798421576399
-0.12594663087667682
-0.343193901447953
-0.20571401575719658
0.304927261998486
0.7524118080677691
0.8076159473939097
0.23869383562441776
-0.4653535161698083
-0.8457472571759602
-0.8199315262860624
-0.6463141646545523
0.07660423354838793
0.977684237655022
1.2655511468078287
0.8937112647037049
-0.038362482898336346
-0.8425552804661005
-1.1746542280896055
-1.1743810699696953
-0.44528086757839525
0.30893269694438014
1.199401041713985
1.0482814296236072
0.9053071260722176
0.01688571536333037
-0.3402585342623204
-0.7727602762631235
-0.6611408775383001
-0.6622496312184696
-0.2518131523221376
0.27982866547988555
0.3830581126528794
0.37337786729595807
0.34907637056318247
0.3243890808569374
-0.007410242072428414
-0.07664626816043026
-0.21060553433971838
-0.18903769332430512
-0.1955528185555597
-0.17713760951277305
-0.019814992803995686
0.05686011492460904
0.08883494184897735
0.14609966050917614
0.10814724176992759
0.043003132737664825
-0.0058577874907450094
-0.02332722602241572
-0.018405846259781068
-0.014653171557545468
-0.03866115467054481
-0.10966809607488835
-0.032793587127605835
0.0026445957215439184
0.019668684000478408
0.04645960271497653
0.10793456682521922
0.018780816277942064
-0.020033661696827344
-0.020549106159268568
-0.003548178791901473
0.007736852141221975
-0.0058159837531982185
-0.0540013359995229
-0.13477412905492792
-0.035390429806929365
0.06275358904438161
0.17700528780499533
0.11688060000481686
0.08110877970252005
-0.1401022571311516
-0.15862737902486365
-0.18117070716139858
-0.005040314778329508
0.1809856328979166
0.19164603148698964
0.039263333194513465
-0.06985548064894889
-0.13554535509714144
-0.16188255796960052
0.04413365612063521
0.0716495027484811
0.10331134850154175
0.11330050752656115
0.06874151219984416
-0.06421951544808806
-0.110692078710933
-0.07681197331331167
-0.14303937734917363
-0.06425642057770292
0.022201455684223464
0.1821988686935823
0.06815584523746292
0.10519239676408014
0.0843715591332509
-0.03493299632842132
-0.11435074569478436
-0.02070135259548641
-0.0094706655855454
-0.11183999795008538
-0.12839806338347612
-0.031078486469328787
0.027034697710372292
0.09658198940808661
0.2159938613277579
0.20005767535835275
0.03721049918369929
-0.10321867991286145
-0.25657784836181424
-0.24724777941417836
-0.0784605376310217
0.0681741583771863
0.2236810252777189
0.2178075048086767
0.06664166174294155
-0.033081873852605685
-0.10139984153987171
-0.16647965735807616
-0.05431328621491004
0.019032912133223022
0.05034867460600107
0.04755750698282513
0.025158181588898335
-0.0009975710785944036
-0.018037183619066234
-0.018861816846630623
-0.003404055939463242
0.021458216406605144
0.043277838324031086
0.04681261952234921
0.01817899512557656
-0.05018873065868347
-0.15515988298500716
-0.08106066235732134
-0.0019956748253639007
0.11147664942873799
0.08316211742499223
0.12285286494891413
0.02204301034884555
-0.04450792109360945
-0.11187465215404867
-0.01514772419312236
0.02014937081554801
-0.015223456293814287
-0.11186632750638716
-0.04417882480358551
0.0228652498385916
0.12412377901152802
0.08452037401220833
0.11226247280289846
-0.002559073411789902
-0.08352870717195035
-0.1594523671280607
-0.055259872302209155
0.014377761456239035
0.046892911935973905
0.049440819294249164
0.034159303900915775
0.013297666213438704
-0.004178488706277037
-0.01390918841165215
-0.015665192901696545
-0.011831794940879055
-0.005673093882240166
2.092629733561109e-05
0.0036338097246354645
0.004795756059816193
0.004040104447024994
0.0023042883192999934
0.0004883028445249304
-0.0008127244790450204
-0.0013824679008280108
-0.0013119209088833714
-0.000858249290519905
-0.00030361624959082244
0.00014196479129606574
0.0003796131344337879
0.00041159813200292606
0.00030348353873191683
0.0001404384269391836
-6.52012537352999e-06
-9.747388083565898e-05
-0.00012462918136579268
-0.00010294887373030294
-5.712881250179931e-05
-1.0322449749900266e-05
2.2512561512394806e-05
3.626855494787404e-05
3.366303635452623e-05
2.15174147848044e-05
7.122709270585092e-06
-4.206446013921744e-06
-1.0063190665400536e-05
-1.0631046398013075e-05
-7.675344295026505e-06
-3.4118134621183034e-06
3.497525367661076e-07
2.6207506719434086e-06
3.24044920205316e-06
2.622064552129712e-06
1.4131234123640017e-06
2.0749672281951056e-07
-6.20077596715403e-07
-9.503697679819723e-07
-8.630033984709982e-07
-5.386030994520859e-07
-1.6538560016107989e-07
1.2231388885152583e-07
2.661438865970616e-07
2.740382765147152e-07
1.9342076337642235e-07
