0
-9.687041456901632e-12
5.033988274592066e-11
1.2035962759341506e-10
1.7166531258350607e-10
1.6811032829617428e-10
7.96038037851454e-11
-9.954511821715622e-11
-3.336601975268129e-10
-5.392692609792682e-10
-5.984985899287412e-10
-3.9719554232538365e-10
1.166550890086485e-10
8.712305285571746e-10
1.6343862047409896e-09
2.0350051422536824e-09
1.6652273704250043e-09
2.601240754530473e-10
-2.088778914058963e-09
-4.7717094229115585e-09
-6.660349675451795e-09
-6.362912193505685e-09
-2.7571123864998927e-09
4.3003210476178044e-09
1.33347897217508e-08
2.1041473163144506e-08
2.285168774702848e-08
1.445083301099216e-08
-5.947815815681544e-09
-3.525531944622184e-08
-6.419937432092726e-08
-7.83048587577905e-08
-6.200756333316155e-08
-5.692380431689083e-09
8.61151500751975e-08
1.8877144036255345e-07
2.5798253124115066e-07
2.4022728863068e-07
9.377786851791702e-08
-1.8389083983339038e-07
-5.321023112137568e-07
-8.201967082202128e-07
-8.713019786067908e-07
-5.226766672869758e-07
2.8588625235414086e-07
1.4228740830541992e-06
2.518586218706639e-06
3.0090777844350666e-06
2.3013366901497777e-06
4.865942683105246e-08
-3.535521904365503e-06
-7.457702793732943e-06
-9.981145461951567e-06
-9.050379623615849e-06
-3.119173851627477e-06
7.791875243053925e-06
2.119605826840889e-05
3.193464175971796e-05
3.316826272848323e-05
1.87720048575453e-05
-1.3231441561731014e-05
-5.728992596978381e-05
-9.868771318593342e-05
-0.00011547885844022092
-8.510598016210973e-05
4.837847190117081e-06
0.0001446029011580728
0.00029422689669232475
0.00038569222563181497
0.0003401611601298304
0.00010054688345526018
-0.0003277296487702799
-0.0008431305722707824
-0.0012422493300252991
-0.0012609147556915234
-0.0006690797509119958
0.0005960710767770719
0.0023022463454255952
0.0038655222319318294
0.004434525428898717
0.003155620062568302
-0.00040643876324275043
-0.005809502961112255
-0.011441112508904333
-0.01463396546987498
-0.012373762877376022
-0.002602819723077571
0.014160466383759172
0.03347016268935436
0.04663805596111546
0.04212950112746435
0.008859697938847636
-0.059258582200834964
-0.15909355773724995
-0.07648588861482686
0.011533209007664066
0.13048514804022793
0.10020345480783091
0.1279789038604741
0.006118396580946024
-0.08497545746009691
-0.16962657064363054
-0.06886756801728132
0.004985737597113743
0.04927917090473356
0.06790548966644702
0.06632197343414958
0.0473507537146671
0.009616474117802651
-0.05101455778251253
-0.1381414711841131
-0.051734584967264574
0.012875670466035638
0.06330009313475277
0.10676206695677765
0.14735740838099678
-0.014057293029277962
-0.17684359052458398
-0.1360516032114239
-0.07939884714970845
0.011667813945132341
0.1564530438010082
0.16730066158622137
0.0434026023836203
-0.03076421691448476
-0.08154895222219438
-0.13854626482422677
-0.026533122309973595
0.040165358248310475
0.0595646114006146
0.04064323915658061
0.000155271833518279
-0.041060902729741784
-0.06176198254357193
-0.044107925243678826
0.022274435472486975
0.13654001431615503
0.08461156195018327
0.04056025418181327
-0.0278744198826925
-0.15068631115175263
-0.1467154566556679
-0.017828599679528545
0.0515734918135196
0.08974514447174492
0.1297141061812891
0.0014842862083260782
-0.07325067358704458
-0.08319361626548603
-0.027205700460678217
0.08691904401326328
0.04399071606845261
0.023524451372510278
0.0029286920081669447
-0.03828631572404177
-0.11426930671149267
-0.03009302674530969
0.018207851220220245
0.040609952941634
0.04819023532055484
0.04829762460516918
0.0417569091488057
0.02325010752050094
-0.015202701239571985
-0.07899836587137132
-0.16619579175849888
-0.06566526357203642
0.04040309104010932
0.17016435664874038
0.13463984196756634
0.1327674024055
-0.04835964337172591
-0.2280851542884865
-0.22454453718392076
-0.049067027177557246
0.09434717980417934
0.20476457373629325
0.2788942335113149
0.10927980940594942
-0.11106930449853573
-0.37896205813609074
-0.2716442339508954
-0.14448208264064116
0.06029570839499035
0.39547305624687706
0.48859704936858356
0.12912696639568627
-0.1302420465856641
-0.35801742966804273
-0.42111598545769063
-0.16519418195835706
0.1937725300903516
0.26484997980814695
0.26922874245412465
0.02699899743552517
-0.0499136391520895
-0.1566929678235925
-0.08898794571008013
-0.03542539005105673
0.026428254757877405
-0.07159569255823453
-0.09566862882719804
-0.021458742077997518
0.1532467766312482
0.1989898451726609
0.25302974583396765
0.22958243771980125
0.04254131204973621
-0.3638639083183698
-0.5864084495409039
-0.5491299894330341
-0.3153265186386056
0.071968558843958
0.7302747767473569
1.0790898940608473
0.8075702110558953
0.288017837042258
-0.3609658722533284
-1.1782485830619096
-1.4639417733729865
-0.7207236180033803
-0.05907617936850861
0.7306741647788364
1.2627560150036854
1.4373434209616898
0.3603758425726739
-0.4726721477955396
-0.9291785006836584
-0.7515483492949048
-0.4637245263748265
0.09820194714906083
0.4167383965064134
0.28709216990358777
-0.012873256111466893
-0.16222493686612016
-0.03510561749377911
0.26901924732464144
0.40702720836077677
0.1886876876700398
-0.2112425840120578
-0.4294923931603607
-0.48864822688951026
-0.18063840891951155
0.1331541951340896
0.5055768382174226
0.37959237600617385
0.1683365413634508
-0.15141644524404363
-0.23034586046602656
-0.32761560521050453
-0.09100749153159052
0.0558120810247487
0.11541746536867341
0.10974066937342364
0.06887327446461361
0.0205262507188662
-0.016621919572071132
-0.03480825193714388
-0.03527278906854861
-0.02441020278078313
-0.009815920053878243
0.002547338361900601
0.00961467755041961
0.011109052156511492
0.00860068288648225
0.004336160816813945
0.00028744850417460933
-0.0023634787700951886
-0.0033038389818155697
-0.0028687725686921016
-0.0016990900402946317
-0.00042928669186102504
0.0005079507538556155
0.0009425380103612933
0.0009235847219208278
0.0006235815860800871
0.00023930301184213972
-7.846840473133353e-05
-0.0002550672123775666
-0.00028727189093142235
-0.00021807029663317503
-0.00010628377218064489
-2.4100013777872515e-06
6.406655103044686e-05
8.615132500852555e-05
7.326108254829286e-05
4.226027994046123e-05
9.46705111118411e-06
-1.4234559605695592e-05
-2.4792789885720815e-05
-2.374237060969279e-05
-1.5674256255383317e-05
-5.681616838685947e-06
2.4127857836329795e-06
6.782060311434035e-06
7.431851198259778e-06
5.525559282004763e-06
2.5963648955867135e-06
-6.666232251693535e-08
-1.7308756870971219e-06
-2.2441567821893705e-06
-1.8691443963373556e-06
-1.0490128962963686e-06
-2.0297548175210925e-07
3.9563722915004153e-07
6.510318065610002e-07
6.096205472155705e-07
3.9332247898774113e-07
1.3381522549459837e-07
-7.210965284964707e-08
-1.7991701902640056e-07
-1.920243819144334e-07
-1.398048891496395e-07
-6.317034633069567e-08
5.0108383180389e-09
4.657778133637078e-08
5.8341187727368794e-08
4.7582006979519426e-08
2.593721900348352e-08
4.170261372550703e-09
-1.0869038667901091e-08
-1.6950959060044095e-08
-1.5473566828974338e-08
-9.701168970570268e-09
-3.0605953352357957e-09
1.9986188626619865e-09
4.432590693311219e-09
4.443053040833748e-09
2.9839983630605854e-09
1.195809133564559e-09
-4.503104596058363e-11
-3.695578093291779e-10
5.612513073220811e-11
6.789631145320215e-10
8.206519092488037e-10
-1.687651161369857e-11
-1.8786334439152615e-09
-4.201244686061815e-09
-5.860069428906365e-09
-5.477472773121258e-09
-1.982743943385064e-09
4.695811192623086e-09
1.305141840472451e-08
1.986373735689706e-08
2.0819575612082492e-08
1.2017158480975554e-08
-7.872959349764412e-09
-3.5468864963203325e-08
-6.162102092841528e-08
-7.258322538294364e-08
-5.4124245571748044e-08
1.7393755027128479e-09
8.918465922166281e-08
1.834415852193217e-07
2.4200591038666987e-07
2.152945527470513e-07
6.697292441049397e-08
-2.0044928049479978e-07
-5.243094311512372e-07
-7.777596277524519e-07
-7.950252846182743e-07
-4.3050796762006247e-07
3.577501808042374e-07
1.427232878034776e-06
2.4141101508092003e-06
2.784083382277765e-06
1.9967523826850425e-06
-2.316069401554205e-07
-3.639235396578492e-06
-7.231274937617371e-06
-9.34453979221087e-06
-8.07924692107951e-06
-2.097935544459836e-06
8.389018715994936e-06
2.0828669458483208e-05
3.022393925766379e-05
3.0177624081629957e-05
1.5232378603708122e-05
-1.5894279350514733e-05
-5.725472163391366e-05
-9.440574632185433e-05
-0.00010659540303822796
-7.332824360766288e-05
1.5385054039364352e-05
0.00014800628596488375
0.0002846600137255465
0.00036033594895039725
0.00030233645647705326
6.16391337431168e-05
-0.0003492041228615717
-0.0008265127104393639
-0.00117367057195173
-0.0011440513373899973
-0.0005334615657582491
0.0006947564210341637
0.002294730800895318
0.0036958265396595056
0.004096370646257166
0.0027262251007687055
-0.0007531275449625476
-0.005828673476868799
-0.010892956578567098
-0.013404413456090279
-0.010614747028374207
-0.0008521629781824451
0.014914542342613796
0.03177711360578747
0.040547019862614525
0.028946772241811324
-0.01555364032673834
-0.10186175865890168
-0.031621136071984225
0.0027592306676912474
0.017540138461446263
0.034725366808572466
0.07782559518192637
-0.03238815047834979
-0.08127127813700495
-0.0626920836315534
0.019312431035697637
0.14968900795820272
0.10323848362650373
0.04849156107698009
-0.04499210262634185
-0.1974343689161118
-0.21118375604775463
-0.06847416702156252
0.0632357421560099
0.21953264748453374
0.22543375539513716
0.08574455911189423
-0.016285091980175845
-0.11139365707843425
-0.23122994744743525
-0.1955421560832885
-0.005102342365465725
0.15697184186092966
0.1167730092223396
0.09837547941355262
0.11487180199296564
-0.03494618881540939
-0.16377779088548228
-0.0890794822740203
-0.025951023997190015
0.017313817260705494
0.03981060925054403
0.04552454833146414
0.03965699174037966
0.025716534651505776
0.004564690318186817
-0.0244567758016377
-0.061166678206551556
-0.1023759757850949
0.05873798222742075
0.031128343089163017
0.022790361909903366
0.03748021746321671
0.07272932250373261
-0.0799682165927446
-0.0328571850950328
0.0015921854457297806
0.014173345640431722
0.001410218788860872
-0.03350501157233382
-0.08145392218523602
0.07026486699875185
0.034438175581594774
0.02025377892954919
0.030685889565527022
0.06192834086786517
-0.09491600124341387
-0.05058432057941787
-0.014172012173324278
0.009233284154313097
0.019108038016291146
0.018442765402284
0.011878163744259379
0.0038915765950494705
-0.0023942997334423137
-0.0056066951487187735
-0.005866168321861563
-0.004180521270691871
-0.0017960987399314012
0.0002815333567946604
0.0015133971056590881
0.0018236099478041597
0.0014525596844079153
0.0007654207694052087
9.218693255253416e-05
-0.00036247931362912915
-0.000537136031690247
-0.00048017566748961697
-0.00029442426820387
-8.509880289197197e-05
7.38752360199994e-05
0.00015142195746205007
0.00015326816185953155
0.00010664167240687695
4.38848747343199e-05
-9.508552243614847e-06
-4.032775275097739e-05
-4.725305140536673e-05
-3.690022743462782e-05
-1.884313051690759e-05
-1.5419131506347534e-06
9.886048402555586e-06
1.4034216037697727e-05
1.2282646378931144e-05
7.344258219381318e-06
1.9293790531590425e-06
-2.098446214025437e-06
-3.992572189259043e-06
-3.945905641990599e-06
-2.6857298234002784e-06
-1.0507068271019504e-06
3.11513841499107e-07
1.0761037402670868e-06
1.223846134676433e-06
9.350051470160639e-07
4.600001484610982e-07
1.567635033189006e-08
-2.699579237554374e-07
-3.6516413445826974e-07
-3.0935168764207557e-07
-1.7513764121482437e-07
-3.3972482960978754e-08
6.549586329266971e-08
1.0450270653558163e-07
8.997978749941544e-08
4.446102374975961e-08
-5.013932756666576e-09
-3.5897929395714406e-08
-3.586938867840575e-08
-5.374155898515226e-09
4.263382083906593e-08
8.566811169377233e-08
9.763240055942874e-08
5.764255726101867e-08
-3.945953328387601e-08
-1.7390970882809602e-07
-2.97789520328728e-07
-3.4270734893928875e-07
-2.4121325422387814e-07
4.020880763151166e-08
4.657201814561902e-07
9.080780906493689e-07
1.1585066998286897e-06
9.822040021396442e-07
2.1873691924967133e-07
-1.0959736824723551e-06
-2.633574748349239e-06
-3.765457425175243e-06
-3.698274634003358e-06
-1.7692450759668685e-06
2.151504755718448e-06
7.287683685253988e-06
1.18134778503529e-05
1.3144179478706806e-05
8.76948205322757e-06
-2.466229942429984e-06
-1.900808797118842e-05
-3.578377323661956e-05
-4.466162153461314e-05
-3.668232877059107e-05
-5.993895225033044e-06
4.546077523482444e-05
0.00010437686811005567
0.00014604952452720974
0.0001399316043821678
6.129638539780769e-05
-9.31988654916105e-05
-0.000291454066275379
-0.00046117346477839003
-0.0005021610200567679
-0.00031949674087053805
0.0001266422796205961
0.0007694192301090977
0.0014064528131701316
0.0017210379252176463
0.0013721365009837394
0.00014874671841005855
-0.0018500477691171914
-0.0040832761014609545
-0.0055778791310888125
-0.00515852362053653
-0.0019142798515668512
0.004185399879053652
0.011732917766604397
0.01767508396820539
0.017734614878645763
0.007578452881859153
-0.015458136016136883
-0.0506581412904341
-0.09304547405780735
0.06593595489233411
0.03607345002094024
0.02513457142381997
0.036073450020933415
0.06593595489231721
-0.09304547405783777
-0.050658141290477
-0.015458136016182749
0.007578452881829246
0.01773461487865605
0.017675083968275673
0.011732917766736734
0.0041853998792203365
-0.0019142798514272443
-0.00515852362050841
-0.005577879131251137
-0.00408327610184484
-0.0018500477696625729
0.00014874671787789518
0.001372136500734626
0.0017210379255387122
0.0014064528142342524
0.0007694192318233071
0.0001266422815175454
-0.0003194967396195819
-0.0005021610204432605
-0.0004611734675623279
-0.00029145407147638776
-9.319887194952151e-05
6.129638013600471e-05
0.00013993160360384105
0.0001460495312182909
0.00010437688330854692
4.5460796388606315e-05
-5.993875084291297e-06
-3.668232015661615e-05
-4.466163538302547e-05
-3.578381576053554e-05
-1.900815485819215e-05
-2.4663023704649473e-06
8.769436561847138e-06
1.3144198977842798e-05
1.1813590452982313e-05
7.2878879388762575e-06
2.1517531974545376e-06
-1.769049234641124e-06
-3.698258438218384e-06
-3.7657331283532065e-06
-2.6341759060784583e-06
-1.0967929370315197e-06
2.179767214764518e-07
9.819117790427162e-07
1.1590980913538033e-06
9.097745254459444e-07
4.683270264936864e-07
4.29697918563003e-08
-2.395693276636209e-07
-3.436390123028992e-07
-3.0233258492756544e-07
-1.8192143774229028e-07
-4.9004918829900556e-08
5.037747551229838e-08
9.755154806164395e-08
9.698128338323556e-08
6.637912158007192e-08
2.63171442139497e-08
-7.238042819410332e-09
-2.6212686063735583e-08
-3.004476386751223e-08
-2.3100511615950252e-08
-1.1503018811863069e-08
-5.777267201282806e-10
6.5152069436934225e-09
8.971133612731656e-09
7.726848107213491e-09
4.5290884677818045e-09
1.0925992032846381e-09
-1.4226853071669426e-09
-2.569615253907807e-09
-2.491770838211496e-09
-1.6622858040559316e-09
-6.159637184454192e-10
2.3957475574702817e-10
7.041971360258541e-10
7.721588704973697e-10
5.641010381681311e-10
2.4525037857768237e-10
-4.0335102533848353e-11
-2.0597387197924573e-10
-2.2974388342504875e-10
-1.4199464292510235e-10
-3.743447891365012e-12
1.1593004530884219e-10
1.5949712793343984e-10
9.661615646291805e-11
-6.461625011003318e-11
-2.7279102403512107e-10
-4.388166623755062e-10
-4.566236344507911e-10
-2.403880485950492e-10
2.2744219989603063e-10
8.525361790579807e-10
1.4125812011078096e-09
1.5927147536508911e-09
1.085693537389064e-09
-2.540618148557616e-10
-2.246444699547716e-09
-4.286306300997994e-09
-5.395209360318866e-09
-4.4866761575563926e-09
-8.384030904858414e-10
5.340898201956906e-09
1.24743062057622e-08
1.7599804070137603e-08
1.7026021358412757e-08
7.727931683177037e-09
-1.0775747629853637e-08
-3.470902123740715e-08
-5.542849759847886e-08
-6.085782563791284e-08
-3.9446512678239576e-08
1.3832601716630709e-08
9.121956378730587e-08
1.68569539623017e-07
2.0774154805273702e-07
1.6727123511813777e-07
2.0876271402889416e-08
-2.207791259520557e-07
-4.938948041381622e-07
-6.821348273050731e-07
-6.434665760884382e-07
-2.652418902571801e-07
4.6323219056302736e-07
1.3862457830459222e-06
2.1618374988621187e-06
2.322213184738958e-06
1.4312462814287755e-06
-6.822101018814129e-07
-3.6861764248608997e-06
-6.617122180395687e-06
-7.988239742234539e-06
-6.218444307770673e-06
-3.5684018316964253e-07
9.082879169657013e-06
1.952549616831028e-05
2.6406811955997223e-05
2.4268502304858395e-05
8.929103451523263e-06
-1.97141553375754e-05
-5.526730558369299e-05
-8.421980209802208e-05
-8.847210381672232e-05
-5.159190560597446e-05
3.2119919489143125e-05
0.00014859065284065178
0.00025943453798221076
0.0003067574526355954
0.0002303641807896213
-3.912913727708602e-06
-0.00037226925543047354
-0.0007710107247508009
-0.0010212829226817714
-0.0009135781655443127
-0.0002931650667563089
0.0008319255756320811
0.0022005143892739744
0.003280294853377863
0.0033732199379609
0.0018640032387003864
-0.0014276118845427356
-0.005904280595236457
-0.010033131822263891
-0.011558940061626364
-0.008202184663325946
0.001213244871271778
0.015494762200109029
0.03019600401222132
0.03772539187524289
0.028905286937835346
-0.004032733075365448
-0.06374699956266955
-0.14480771459706837
-0.03310674699890271
0.09131927303855636
0.04849343996907465
0.05171286264702141
0.10240432555502944
-0.011360931954345921
-0.11215625945631993
-0.027367186573077518
0.01767632091793262
0.005520983385445244
-0.06994444172164263
-0.002811514449348279
0.02293607388866275
0.029626441119558304
0.04137907709309416
0.08018386001149914
-0.03646610971207637
-0.09629062907933048
-0.09214827834030134
-0.02246052086891947
0.10715999051091886
0.08174071243077403
0.07610991726595548
0.05734161627591517
-0.008804596491489678
-0.14871436888976022
-0.17205421882405222
-0.06690439651588534
-0.001563345919303398
0.06679393720138754
0.1792984311798656
0.16298298507358255
0.023337252654435592
-0.05561093460932883
-0.10419761254469932
-0.15625098562762704
-0.03880600649530801
0.03410526366497474
0.06230584798553816
0.05600295648186046
0.03035417159381637
0.00039977713193071866
-0.022278355885599753
-0.03097855220094583
-0.02397986743689622
-0.004107972153854765
0.021769279964105805
0.04339219600260847
0.04838217043583779
0.024592740178966947
-0.03653949587174723
-0.13657799196561793
-0.06822832308619692
-0.016587489945581978
0.03608323240640042
0.10343204354406649
0.1888108010973302
0.08298193710859654
-0.0323451068556571
-0.17578723929270038
-0.15574283863873292
-0.1628177787592894
0.03085104989951129
0.06432373692395138
0.1751093109607508
0.18591116790834672
0.09616703328198305
-0.11829218732909186
-0.09753477777778288
-0.08506092032077289
-0.11541021822046466
-0.006057707511240672
0.04431168503767282
0.05154473892860152
0.03804433141418276
0.024078046829303937
0.02100988216994587
0.02811100037429279
0.03350963258471616
0.018864042767718324
-0.033523484114274506
-0.13320109916836081
-0.07618122778790473
-0.043925836224966916
-0.007705778033567647
0.06263483585719679
0.18840779719864995
0.17423511800202537
0.006069263534006225
-0.14363085452292543
-0.10534979487100285
-0.10082901843835343
-0.13498033604588758
0.005486870591908116
0.14645578273175403
0.11638224638256937
0.13614089941369234
0.012817390478662634
-0.060490547406102955
-0.09962285186980355
-0.1220735598430778
-0.1411931469971921
0.03548698951427966
0.20354421230014924
0.15687712340909316
0.08451025397143282
-0.0281769843403969
-0.1936902836541833
-0.21504133790448504
-0.0811200424049452
0.0318884349248737
0.15288072615310505
0.3053209356259969
0.0989726150642509
-0.071969206521973
-0.2235924524869862
-0.1729919936870928
-0.13023784619933065
0.10417086205656027
0.13543896569629027
0.16683031418356534
-0.007308022791817028
-0.004086897394969756
-0.04879081645787226
0.03312759657385965
0.026176773959735736
-0.06595370467891368
-0.21504856103367978
-0.16953008419276822
-0.0636616922790822
0.16612922504287178
0.36213180504490244
0.3303917362347744
0.0366620339065212
-0.18385636870677086
-0.4061859637010617
-0.2929188986011055
-0.0785423333976018
0.23366039175643166
0.26289238429512835
0.23644708422554683
-0.022689494441265473
-0.10121730863725775
-0.19359883340283207
-0.09641975834714095
-0.003730609125751629
0.09353346189119593
0.0037466753283080644
-0.07167136218250991
0.05583117157794894
0.15908570476481526
0.1976922941267223
0.12726485379948274
-0.08515548590679665
-0.4433230057263498
-0.3085095714767765
-0.19820615172457068
-0.000926787176000367
0.39533780221360815
0.6702875919682222
0.2467873358611466
-0.11506840267222401
-0.3027645969168007
-0.4218183978325508
-0.36448438875509426
0.011172058429413293
0.28573304524412646
0.2683431075709916
0.1798860274007108
0.038344818383417134
-0.14808373361727709
-0.17970927527655675
-0.059448509225053806
0.013057232957153329
0.04420249018554709
0.045517207162416126
0.03049440033780324
0.011105044112044415
-0.0045453547820297185
-0.012875990599782911
-0.014051353273253303
-0.010429647829568017
-0.004950596727408446
3.375938936256958e-05
0.0032837255339817793
0.004617395795072867
0.004503225906114913
0.0035682486059987733
0.002239377121291179
0.0006323024610425078
-0.0013127076618817957
-0.003546516952856496
-0.005637308335973908
-0.006676861564748964
-0.005489811925313842
-0.001165636766258497
0.0062101653467985865
0.014894299463454327
0.0212484481839751
0.020240693856385408
0.0067817465143368925
-0.022392421607260696
-0.0670218947221539
-0.12280753150390776
0.01714102447813169
0.15902493454443678
0.10469013960459472
0.04984267226366217
-0.014146130999000948
-0.09501727996985575
-0.1932823763581558
-0.09814362518819252
0.011624562782510147
0.16141439740965433
0.1715149698794582
0.048922492472499454
-0.016096891519120197
-0.04729981434960012
-0.07498324686763858
-0.12690885607833602
-0.021056294877004833
0.03751437421596861
0.05529000620154378
0.04577533279814531
0.024035443243904754
0.002311738073353711
-0.012222597118040074
-0.017538946090051324
-0.01534145174790094
-0.009090774069333405
-0.0022482214510304004
0.0028150962838228363
0.005159714168840705
0.00504421289136932
0.003403064507693181
0.0013056361502501593
-0.0004277977889625993
-0.0013909869912746655
-0.0015666978609179183
-0.001189416145174079
-0.0005798816551123297
-1.3441543633802485e-05
0.0003491205075706877
0.0004696402324100869
0.0003994394288242682
0.0002304588569693594
5.167233153778077e-05
-7.756686441445509e-05
-0.00013515464435118036
-0.00012944810559697298
-8.547211292133764e-05
-3.0994355097765186e-05
1.3140721369357485e-05
3.696912893489378e-05
4.05184028022432e-05
3.0129518321760606e-05
1.416093152869463e-05
-3.587435773488946e-07
-9.434037277728735e-06
-1.2234557451532595e-05
-1.0191516392034384e-05
-5.720841640084596e-06
-1.1081788646397248e-06
2.1559846888483362e-06
3.5490615399539064e-06
3.3238461061778964e-06
2.1449146552062495e-06
7.301552991962897e-07
-3.926738981653646e-07
-9.806893764623425e-07
-1.0469925313977768e-06
-7.625582999948031e-07
-3.449188980235179e-07
2.6790893290666887e-08
2.5360727671524836e-07
3.181500870852881e-07
2.6004708642660795e-07
1.4257666493976608e-07
2.416919548434235e-08
-5.8100948238086954e-08
-9.224785511856513e-08
-8.5820707700047e-08
-5.619116890983911e-08
-2.1266175316984756e-08
6.550282095348228e-09
2.232675769389718e-08
2.724652655318409e-08
2.548328494509418e-08
2.0976480236238468e-08
1.537219318428721e-08
7.74209943814353e-09
-4.006221437873163e-09
-2.071913193032909e-08
-3.9690931933210035e-08
-5.369588206691559e-08
-5.234658189505475e-08
-2.608566077873229e-08
2.7953934081625034e-08
1.0021754801286552e-07
1.6607570637777937e-07
1.8928682167883047e-07
1.3331251146170813e-07
-2.0637825556461626e-08
-2.5389109981359666e-07
-4.976971228284724e-07
-6.380477594575455e-07
-5.456433052384851e-07
-1.3080176067013177e-07
5.892964958008241e-07
1.437020385648279e-06
2.06869242533869e-06
2.047592505794641e-06
1.0051953677218573e-06
-1.1376137877881778e-06
-3.963556347349826e-06
-6.476477188416247e-06
-7.2562725952659125e-06
-4.912675721723516e-06
1.2122708281025963e-06
1.0294902929862448e-05
1.957587189382973e-05
2.459647264729258e-05
2.0409619990725416e-05
3.734396269247561e-06
-2.445995415818535e-05
-5.6964763142049396e-05
-8.02629632600833e-05
-7.752899972819727e-05
-3.5000523789776475e-05
4.9461083139708456e-05
0.00015856959045394337
0.00025285739974660213
0.00027724998007973625
0.0001791471036274744
-6.422091085551721e-05
-0.0004172594335382614
-0.0007696745896053852
-0.0009474625712190684
-0.0007616556994381614
-9.26943613507174e-05
0.0010105195017488665
0.0022572540768801704
0.0031184446317666726
0.002950105952058913
0.0012456183619488114
-0.002032556252550324
-0.006159390307903297
-0.009560177999178321
-0.010096185093217493
-0.005807226841663224
0.003971610019701269
0.017417655376993715
0.02943451544236769
0.03179281144757797
0.014512802805265236
-0.031669604776711956
-0.11252207508894621
-0.02840937499739854
0.025718861975905297
0.05830744371880819
0.07815686333332938
0.0920321061207316
-0.09577734657796091
-0.08187251607214438
-0.0614117199215413
-0.026859357757927853
0.031018745978671904
0.12019695596379827
0.04404148970205375
-0.0005030413845995024
-0.022029510023854684
-0.03129907408544388
-0.03677631085186453
-0.040901922413276094
-0.038626581613738775
-0.018922175084541817
0.03105632532038899
0.12051615546350537
0.05031678523962054
0.010971599603970006
-0.015653053745044502
-0.051476720859004635
-0.11603352295313163
-0.021329819927048667
0.03047024693227974
0.046031206939642286
0.037400978043055165
0.017804582595121826
-0.0017800699701945952
-0.014456156548335658
-0.017660421961234227
-0.012363916908831473
-0.0018642305895969786
0.009387365164917099
0.01679950957897959
0.016612501118621954
0.0069827395862957185
-0.010852149552484586
-0.03167507766650074
-0.04626990255297391
-0.04289908173315312
-0.010501790856328175
0.056946777805519065
0.15638460612224095
0.07391559398265822
-0.01306750160914181
-0.12986217923404447
-0.09650843212656804
-0.12114459073237997
0.002462114509427347
0.0922185600767787
0.17126704097098797
0.06089427538059468
-0.024129564092676102
-0.07635485424737004
-0.09343182206673976
-0.07519088323368743
-0.022317571270546656
0.06244866624684208
0.1715256232417646
0.09038541746553533
-0.001586197563097769
-0.12650622628993158
-0.10117144607141403
-0.1310779673723467
-0.008272901238331869
0.08574810202218497
0.17337175335668215
0.07355263720082919
-0.002831171848980083
-0.05320529059061367
-0.07973345789575698
-0.0844086045580156
-0.06568472673385282
-0.018574303652601074
0.06166914729651898
0.174069831080838
0.10765348739155065
0.04123131552637909
-0.05160565923389492
-0.1937507125040749
-0.19579837636586242
-0.05144654576143799
0.06036327768224709
0.16724666780666209
0.29291788540637803
0.04950305598274865
-0.1638426193969347
-0.15598550138094028
-0.1359515654987461
-0.10684421451102645
0.13530098422742745
0.197737970246942
0.08513880579005834
-0.004679193484661006
-0.08117824680049279
-0.15803753165991075
-0.048949380027614425
0.03517774891758346
0.08651446991030175
0.09897476332291097
0.06726940546329652
-0.011977306449171944
-0.1369265973240919
-0.09671388583418147
-0.06973986086779974
-0.026113671646467728
0.06556614867810992
0.22914581729220346
0.07309413973172708
-0.012685327031464919
-0.053878965800254364
-0.08377279073332757
-0.1334429254757415
-0.02377801439643472
0.03814775605015226
0.05784456316967424
0.048716596286542194
0.026271587883065745
0.0033797792693001562
-0.012242897508305236
-0.01825123124380825
-0.01627482381455177
-0.009875723306800496
-0.002695765194034897
0.0027200806933210635
0.005317223820084286
0.005312365762254974
0.0036576101429960806
0.0014721741743051499
-0.00036893589057063485
-0.0014186854050721616
-0.0016405772014036891
-0.001269448819792064
-0.0006387060250007153
-4.024191912374675e-05
0.00035125913341695726
0.000489676816195942
0.00042457941570922465
0.0002506430462154147
6.166340250643122e-05
-7.818835457739936e-05
-0.00014327753507452782
-0.00014017530909658302
-9.376885465108173e-05
-3.301763591659852e-05
1.904407344297078e-05
4.959557222377357e-05
5.56123579590788e-05
4.0960088003027494e-05
1.3183518132168301e-05
-1.870436654054312e-05
-4.5284784325224046e-05
-5.740381025906946e-05
-4.750199847287354e-05
-1.2223265118827463e-05
4.40783415757259e-05
0.00010649235685342533
0.00014971862138102258
0.00014343961187120272
6.360857967270693e-05
-9.23643094537253e-05
-0.00029181470501605275
-0.0004621778933172701
-0.0005032595930837828
-0.0003203123198358515
0.00012626008018232682
0.0007694304261878702
0.0014067094346322181
0.0017213698157602336
0.0013724125253048909
0.00014890132262183425
-0.0018500182016331593
-0.004083334869456513
-0.005577975467017603
-0.00515861368716817
-0.0019143378663109582
0.004185380235250763
0.011732928527020499
0.017675110611179694
0.017734643263175708
0.007578473517322632
-0.015458126718469196
-0.05065814206587819
-0.09304548096509684
0.06593594625905624
0.036073442987637566
0.02513456759604582
0.03607344941501853
0.06593595651393731
-0.09304547153243208
-0.05065813898069659
-0.015458134563084919
0.007578453339758031
0.017734614564108964
0.017675083263036896
0.011732917034203526
0.004185399357839329
-0.001914280076624219
-0.0051585235880761355
-0.005577878945920045
-0.004083275877559665
-0.0018500475906674408
0.00014874681240103883
0.0013721365123343537
0.0017210378810524898
0.0014064527481322097
0.000769419172656394
0.00012664224518850776
-0.00031949675016989415
-0.000502161011392524
-0.0004611734489315094
-0.00029145405259345923
-9.319885879526529e-05
6.12963855636717e-05
0.0001399316024501247
0.00014604952626007294
0.00010437687748922687
4.5460791839102936e-05
-5.993877411649059e-06
-3.6682320352229795e-05
-4.4661634168904074e-05
-3.57838140331856e-05
-1.900815334493529e-05
-2.466301464693626e-06
8.76943680080384e-06
1.3144198720617964e-05
1.1813589962524815e-05
7.2878874544519655e-06
2.1517528684969547e-06
-1.7690493624738023e-06
-3.6982583994969235e-06
-3.765732997785146e-06
-2.634175760270996e-06
-1.0967928292451736e-06
2.1797677042334122e-07
9.819117765236157e-07
1.1590980610509388e-06
9.097744937299949e-07
4.6832701148295264e-07
4.296979757409615e-08
-2.3956931136190643e-07
-3.4363900460820037e-07
-3.023326052313396e-07
-1.8192149534944445e-07
-4.9005004335032403e-08
5.037739351453098e-08
9.755151754093371e-08
9.698135310166485e-08
6.637931694082513e-08
2.631744152212803e-08
-7.237732363602369e-09
-2.6212509530544083e-08
-3.004488731816863e-08
-2.3101049010201223e-08
-1.1503945632669186e-08
-5.788118917101318e-10
6.514406808139087e-09
8.971178721142232e-09
7.728207099676425e-09
4.531854296129924e-09
1.096225311647566e-09
-1.4194867427143965e-09
-2.5686688469512807e-09
-2.494850314370537e-09
-1.670210325800697e-09
-6.276401385055514e-10
2.2772311353200025e-10
6.979093195705053e-10
7.777630825401397e-10
5.85737938108089e-10
2.815627721839957e-10
1.2754682846874759e-12
-1.764963686115875e-10
-2.3396892525900156e-10
-1.9740205975135448e-10
-1.1273527986222089e-10
-2.4035067503339413e-11
3.955827821350868e-11
6.743551738500988e-11
6.402096021639665e-11
4.1871615129724805e-11
1.4774770501991795e-11
-7.003065626267768e-12
-1.8624477101518696e-11
-2.019567386080833e-11
-1.4917770894140583e-11
-6.951960838049259e-12
2.3065070030326836e-13
4.67798171042706e-12
6.007804018458269e-12
4.950385310832995e-12
2.7121965759954696e-12
4.248128520769642e-13
-1.180434191954221e-12
-1.8535101558605758e-12
-1.7268831596232595e-12
-1.1337385866668655e-12
-4.303677665769976e-13
1.2341861542730171e-13
4.0987248156728795e-13
4.378511137960407e-13
2.9355799140422147e-13
8.525610207899373e-14
-9.859280511191416e-14
-2.0964060985449162e-13
-2.3999681099272295e-13
-2.098304708594904e-13
-1.5077580095404912e-13
-9.185710796501212e-14
-5.1396795619674156e-14
-3.523236830782969e-14
-3.94813683632604e-14
-5.532178982900958e-14
-7.355710812691532e-14
-8.762153582485412e-14
-9.466123398015455e-14
-9.506095681818957e-14
-9.113466597049377e-14
-8.569545551044205e-14
-8.099504589219376e-14
-7.822781115783891e-14
-7.754666513891633e-14
-7.839786697961824e-14
-7.995321843313129e-14
-8.14691146325337e-14
-8.248735108084423e-14
-8.287318694981814e-14
-8.273856503006181e-14
-8.231660780618658e-14
-8.184441935294109e-14
-8.148768798765546e-14
-8.131524868797626e-14
-8.131318907448424e-14
-8.141957753768546e-14
-8.156141068496678e-14
-8.168144388636281e-14
-8.175025401982848e-14
-8.176519658634155e-14
-8.174139558235173e-14
-8.17005017750167e-14
-8.166154441420558e-14
-8.163596021137262e-14
-8.16268155276899e-14
-8.163092430981233e-14
-8.164213785141713e-14
-8.165435018328689e-14
-8.166338637369028e-14
-8.16675951828236e-14
-8.16674371071196e-14
-8.16645652259853e-14
-8.166087174025907e-14
-8.16578101159759e-14
-8.165610298706653e-14
-8.165578522604361e-14
-8.165644565794361e-14
-8.165751909102828e-14
-8.165851912227874e-14
-8.165916087415361e-14
-8.16593758141604e-14
-8.165925366991938e-14
-8.165895632706585e-14
-8.165864084840742e-14
-8.165841226900708e-14
-8.165830995131557e-14
-8.165831942985361e-14
-8.16583966906644e-14
-8.165849274782832e-14
-8.165857074443937e-14
-8.16586129910872e-14
-8.165861944268801e-14
-8.165860123296897e-14
-8.165857309771938e-14
-8.165854745730213e-14
-8.165853139396908e-14
-8.165852640314179e-14
-8.165852997741476e-14
-8.165853785657667e-14
