0
3.559373551427254e-06
3.559373551427256e-06
3.559373551427258e-06
3.5593735514272583e-06
3.559373551427257e-06
3.559373551427253e-06
3.5593735514272473e-06
3.5593735514272414e-06
3.5593735514272375e-06
3.5593735514272397e-06
3.55937355142725e-06
3.559373551427268e-06
3.5593735514272896e-06
3.559373551427306e-06
3.559373551427306e-06
3.5593735514272807e-06
3.5593735514272274e-06
3.5593735514271554e-06
3.55937355142709e-06
3.559373551427068e-06
3.559373551427124e-06
3.5593735514272765e-06
3.5593735514275065e-06
3.559373551427745e-06
3.55937355142788e-06
3.5593735514277843e-06
3.5593735514273722e-06
3.559373551426662e-06
3.5593735514258315e-06
3.5593735514252195e-06
3.559373551425255e-06
3.5593735514262956e-06
3.559373551428413e-06
3.5593735514311877e-06
3.559373551433634e-06
3.559373551434356e-06
3.559373551431997e-06
3.5593735514259314e-06
3.5593735514169965e-06
3.5593735514079303e-06
3.559373551403125e-06
3.5593735514074216e-06
3.5593735514239858e-06
3.5593735514517744e-06
3.5593735514836084e-06
3.559373551506147e-06
3.559373551502888e-06
3.5593735514604633e-06
3.559373551377047e-06
3.5593735512699562e-06
3.559373551178226e-06
3.559373551155978e-06
3.559373551254506e-06
3.559373551495356e-06
3.559373551842441e-06
3.559373552186372e-06
3.5593735523558245e-06
3.5593735521660154e-06
3.5593735515019594e-06
3.5593735504156485e-06
3.559373549197347e-06
3.5593735483708445e-06
3.5593735485708692e-06
3.559373550294673e-06
3.5593735535771833e-06
3.5593735577054394e-06
3.5593735611358568e-06
3.559373561772816e-06
3.5593735576810016e-06
3.5593735481322095e-06
3.559373534664861e-06
3.559373521641462e-06
3.5593735157378673e-06
3.5593735239960323e-06
3.559373550566104e-06
3.55937359298266e-06
3.5593736395398276e-06
3.559373669696715e-06
3.5593736590722197e-06
3.559373589231511e-06
3.559373460222454e-06
3.559373301279952e-06
3.5593731733595042e-06
3.559373157508833e-06
3.5593733265882133e-06
3.5593737046113376e-06
3.5593742265588546e-06
3.559374718743567e-06
3.5593749213325063e-06
3.5593745663957376e-06
3.559373505247455e-06
3.559371850934076e-06
3.559370074440378e-06
3.559368980338018e-06
3.5593695039019272e-06
3.5593723260537844e-06
3.559377390156727e-06
3.559383501825204e-06
3.5593882571556303e-06
3.559388525372709e-06
3.5593815698344457e-06
3.5593666254670456e-06
3.5593464201667005e-06
3.5593278578700118e-06
3.559321040069829e-06
3.559336143573781e-06
3.55937844890057e-06
3.559442895984987e-06
3.5595105758760827e-06
3.559550011094862e-06
3.559525373153996e-06
3.5594116140379345e-06
3.5592130676474947e-06
3.5589783681484586e-06
3.5588021954034072e-06
3.5588053413365714e-06
3.5590903376928064e-06
3.5596803277261638e-06
3.560461581236198e-06
3.561160097315648e-06
3.561383610971748e-06
3.5607462644178923e-06
3.5590624838576466e-06
3.556554684714353e-06
3.553980470791889e-06
3.552569913053486e-06
3.553693582518445e-06
3.558268658140513e-06
3.566043761274e-06
3.5750445726625115e-06
3.5815467652957454e-06
3.5808956627963533e-06
3.5692601462888877e-06
3.545998718832041e-06
3.5158270023908805e-06
3.489603230105139e-06
3.482542470392573e-06
3.5092472024883167e-06
3.5761553792623797e-06
3.6736287409935704e-06
3.771371595683656e-06
3.8213708815827215e-06
3.7712741801346356e-06
3.587671257453233e-06
3.2835538756566346e-06
2.9388463692456316e-06
2.6998671965799463e-06
2.745757708699545e-06
3.219249407213636e-06
4.135189818739345e-06
5.298997535805114e-06
6.280996481872653e-06
6.491711982429292e-06
5.379622710037083e-06
2.724989879626148e-06
-1.0592745409570813e-06
-4.763888342882097e-06
-6.516917647862306e-06
-4.321676791407198e-06
3.0316781763742905e-06
1.4913209216086224e-05
2.8095775733649196e-05
3.6837933484091525e-05
3.425404631687532e-05
1.5043532283103305e-05
-2.0976896330601904e-05
-6.581267291823016e-05
-0.0001024845821110527
-0.00010818150494536489
-6.211724110028072e-05
4.3050135911331834e-05
0.00018979617302297805
0.0003299324902991269
0.00039055545374175186
0.0002956272128255236
1.627177709513325e-06
-0.00046212812683090295
-0.0009656553017914046
-0.0012839236254461996
-0.0011525577699664374
-0.0003752189637720802
0.0010403015867660834
0.0027677531193534264
0.004138947858845811
0.004275592341702107
0.0024017682509276848
-0.0017120168154278078
-0.0073160101165786395
-0.0124808331900187
-0.014366993612126731
-0.01011293867603598
0.001718856581334181
0.0194918406390725
0.0372745402395564
0.044798611840458795
0.02915089531184597
-0.02181714685928518
-0.11521002554618476
-0.04950953295170552
-0.01337832478713787
0.012249863293456209
0.049264837842335416
0.11639137709959703
0.024353826778283356
-0.02606222916968429
-0.04257397142354674
-0.03752344026449426
-0.02332378176049489
-0.008942727677324706
0.0015595941902191845
0.008286769984044868
0.01308623174942296
0.01634500014027216
0.01394395407416861
-0.004871446940632271
-0.05826115893204982
0.0289534889197771
0.02761817338419222
0.10836685706116486
0.047807672798619485
0.03657869773894963
-0.11209938322414895
-0.15625226843041037
-0.22520959112713884
-0.22922084882485189
0.12056664471655269
0.08514819806379587
0.47152610101884485
0.41775843202643104
0.3983545881706623
-0.14646970186237326
-0.363122304189355
-0.9330792418164034
-0.6367949654720944
-0.149436060129039
0.32633518620163193
0.8005285724764125
1.0313148358540185
0.6813951279243109
-0.2875976120903846
-1.1825886321012156
-0.9262598035945357
-0.6108529191248567
0.11990398734892013
1.0563369194742043
1.9904342347606185
-0.5102285480405317
-0.7040365932160826
-0.8522392425008947
-0.7885005674057872
-0.7027826762276146
1.6496010280695839
1.52100095059894
0.1468684720319435
-0.6575374829035832
-0.8764349968571813
-1.065154369265625
-0.7385099318728516
0.408044365740277
1.2478147463357532
1.3657820054405598
0.8268664188744551
-0.20660116564668085
-1.0063462841835664
-1.1816966901282546
-0.9934578302685474
-0.5142033928049076
0.34687755162388634
0.9616745232782443
0.8722574306165327
0.8900360440711931
0.23830471608309153
-0.44569808211024486
-0.45445385379728953
-0.5218144863364365
-0.9318825651718705
0.14965468390203326
1.9082304309541855
-1.523208131412991
-0.49684332841868456
0.09561531427549465
0.15245476320569792
-0.7154186802979143
2.3478907772328026
0.807036527491837
-0.05072513281778687
-0.6464319063216164
-1.0005483269777518
-0.6171817937755493
-0.3982367201947392
-0.41388476811507113
0.06263338446465913
0.2664999274573201
0.4239599758320173
0.8386670285353548
1.414410826687883
1.0386625304550108
-1.1655668235561882
-1.3353664716459492
-1.1484589549571993
-1.1342277711117443
-0.649245105822299
1.4756892118155176
2.4404879649192828
0.1766493260977797
0.8879777950204509
-1.3463013606854697
-0.9143141730656826
-1.3917497095849893
0.7239494635266945
-0.35828770831059664
1.2646856408129077
0.15238359464710524
-0.12252700828021515
-0.20765554395384256
0.01066312462959443
-0.19874118868812266
0.18916953038608628
-0.03999779123199461
0.06600014464975276
-0.16653572338070508
-0.02868472144836995
0.1804481388062791
0.3638072920402028
-0.16269412813896764
-0.4593945756974889
-0.15556749684794682
-0.05016257643827375
-0.12309193474949036
0.24548563781768795
0.6556116617281398
0.47795986058715656
0.06247306522591792
-0.4336983992935687
-0.6078074576417041
-0.5792130827131652
-0.3803411974999796
0.01954108022032948
0.4609869801277256
0.727398091435068
0.8876511731213393
0.2700520498234743
-0.32120169945520904
-0.5517442273963318
-0.6841286425436034
-0.7120474707628243
-0.12346813301190138
0.4979521141751544
0.6391419093066697
0.4091490929378957
0.09638774458934615
-0.05414924158196366
-0.24035777701568442
-0.28554882748464594
-0.21527545444050689
-0.03913844400572461
0.056164458293262255
0.10204288561013436
0.13566400219089483
0.18641393382041785
0.06700702819410932
-0.02746823353195944
-0.11278559317377684
-0.2045222051996606
-0.10778682832254309
-0.012235629992942176
0.10565728219776106
0.07435461843255846
0.11671663998260305
0.04141700111807736
0.039352197336546296
-0.1141042111267805
-0.05233056977637135
-0.00885512365832909
-0.009746253448027526
-0.06895579175303851
0.012642606180049866
0.04486136743322125
0.0436172277131319
0.025797799287177313
0.005143503280751226
-0.009912455082700068
-0.016354351037901012
-0.01522357010171573
-0.009646504295317508
-0.0030210552876813027
0.0021724413808893637
0.004817340260365214
0.005009375543643981
0.0035800682809271453
0.0015652672908512439
-0.00019449625486877659
-0.0012454771158838598
-0.0015208355140878395
-0.0012197726315610216
-0.0006479136286459047
-8.302102172027673e-05
0.0003013413746958683
0.0004516450219764982
0.00040699937787936935
0.00025293447791779026
7.768362314188722e-05
-5.632120067109452e-05
-0.0001224401682754136
-0.00012498672339242897
-8.651412954753796e-05
-3.408375091826887e-05
1.082915178520936e-05
3.698045622756228e-05
4.310590719745891e-05
3.4650134470629925e-05
1.960496763567272e-05
5.0818923319078235e-06
-4.5821766238346675e-06
-8.15826430738504e-06
-6.767136374068544e-06
-2.666847901903027e-06
1.8690574127529726e-06
5.266184036210782e-06
6.883450969964451e-06
6.87022680289495e-06
5.829451311721186e-06
4.463044440591432e-06
3.3166782854289814e-06
2.6670064713467595e-06
2.5341965875644876e-06
2.7698387953720405e-06
3.165135730173941e-06
3.538188808800013e-06
3.7808399369766268e-06
3.865315918199317e-06
3.823366579742807e-06
3.71450387149314e-06
3.5972485855850723e-06
3.5112461182580598e-06
3.471836253483633e-06
3.4741963616408164e-06
3.5022501035972614e-06
3.5378134823828684e-06
3.5670390943465966e-06
3.583141367286895e-06
3.5859188541181813e-06
3.5793988942209693e-06
3.5690287211835215e-06
3.559455509270314e-06
3.5533713091594664e-06
3.551391916885777e-06
3.552627625561824e-06
3.5555136436430748e-06
3.5585457330803797e-06
3.5607264231645047e-06
3.561689037377175e-06
3.561579459198326e-06
3.560821917714872e-06
3.559884906368196e-06
3.559120495142348e-06
3.5587000839306604e-06
3.55863049354146e-06
3.5588145373439854e-06
3.5591191988222046e-06
3.559426024773206e-06
3.559654368968027e-06
3.5597619413471354e-06
3.5597347310875907e-06
3.559578762638951e-06
3.55932071390804e-06
3.5590161051553103e-06
3.55875611540127e-06
3.558660462634049e-06
3.558846547209811e-06
3.559374711865732e-06
3.5601839543270977e-06
3.5610468437652435e-06
3.561579681271839e-06
3.561336844738008e-06
3.5599924798676228e-06
3.5575705520255354e-06
3.5546372643283454e-06
3.552338348835283e-06
3.5521721637681458e-06
3.555456735441626e-06
3.562575718119418e-06
3.5722467215181375e-06
3.58118581383171e-06
3.584563707171145e-06
3.577488456201671e-06
3.5573798248140598e-06
3.5265827059474352e-06
3.4940703379689324e-06
3.474869561905728e-06
3.4861691178328717e-06
3.540103597876848e-06
3.634839709957073e-06
3.7473723330952114e-06
3.8325730386114606e-06
3.832589125009318e-06
3.6979689158216287e-06
3.416908670498875e-06
3.042921721911568e-06
2.706378183591003e-06
2.594866219091957e-06
2.8939562676002995e-06
3.6945773569511276e-06
4.8932727890839e-06
6.130358006929088e-06
6.818457190597941e-06
6.29981383842935e-06
4.129594186824916e-06
4.186964624152037e-07
-3.89833772996447e-06
-7.045814595679884e-06
-6.7937519790525445e-06
-1.293172574316521e-06
9.79153914311504e-06
2.423883776239489e-05
3.6880580839975834e-05
4.04386898484581e-05
2.7887250901881722e-05
-3.93861948447756e-06
-5.054199956810854e-05
-9.75331839199322e-05
-0.00012197913460452351
-9.874653474275892e-05
-1.1610939704818046e-05
0.00013357633067444176
0.0002989579948999321
0.00041474966527925227
0.00039509834011483504
0.00017106409874094501
-0.00026558998466581356
-0.0008231059474723549
-0.0012969093065786856
-0.001404935120364405
-0.0008816273051523582
0.00038167994610466206
0.0021922997597465816
0.0039765410438667255
0.004841840832452372
0.0038324883327639087
0.0003654081080309674
-0.005264246176508037
-0.011516754386979638
-0.01564361212339909
-0.014345078121667944
-0.005095001657012106
0.01211503609980118
0.03319531856917857
0.049357488431521795
0.048266034333664526
0.01725822835917902
-0.05191187520251897
-0.15836960895978539
-0.08968104942727731
-0.023592441702630515
0.06567877317703003
0.1984680584675649
0.18162469901074205
0.005132301795669953
-0.1548177429936482
-0.12760984640363945
-0.13866178579198965
-0.0027748465163904266
0.07724158564081297
0.10713707377044511
0.09568163676044679
0.05029914109345367
-0.02399901724149877
-0.12235861292090588
-0.03645055641849036
-0.15231127586637386
-0.05195884681477126
0.08068447766908113
0.2513514496013423
0.048105222297033345
0.03904010875890621
-0.02279382190927466
0.012096635833434276
-0.09553235508884511
-0.16013045387525937
-0.16380434212384642
-0.05821491746507604
-0.17683931418608273
0.14501602336391567
0.5487343559725311
0.6381203552960798
-0.21981562783876982
-0.276610476166874
-0.37266856221195743
-0.5089421965212001
-0.43354333489027475
0.34904433134913004
0.5483445332355544
0.4493711552183275
0.2808189794074779
-0.19790939307992858
-0.28771894941433374
-0.32513944499585673
-0.25323990430463034
0.001564147128590072
0.34200131639547177
0.30348457299987386
-0.1454045462320603
0.20028112184886093
0.18996005112513256
-0.0718643162330978
-0.818769853256086
-0.22800502185754576
-0.44639761846796955
-0.0388283887347464
0.34839737614676514
1.3273914117431729
1.1358101505816542
0.45217461383479624
-0.7341326636147503
-1.2136618564668349
-1.2434093639636388
-0.870098155013467
-0.11969979674663025
0.7418245276920364
1.29837594070899
1.0639156158996381
0.5946695228041219
-0.3394853147384375
-0.7213364774107424
-0.8100126345963853
-0.45375841203373646
-0.22149900946704162
0.4298413045284803
0.3512784238319743
0.2719931694732841
-0.0409485847304428
-0.22121608808897644
-0.13424577922120526
0.10039103973969168
0.09509801380804513
0.1899807612443354
0.2606153858983382
0.13952144154918403
-0.1501791371511734
-0.35504232337815
-0.3556995097218795
-0.3466679221567669
-0.2395599026222035
0.3095671661241517
0.6567485758471812
0.5252937133116053
0.17548913144174663
-0.20126590755305587
-0.46462988071752825
-0.4944635375998003
-0.3618064244974059
0.08676881149605248
0.6286389881485168
0.4551908010022953
0.3642926356327082
-0.03533360991520115
-0.3069749211431713
-0.7653813020744726
-0.6685740624545459
-0.6366751079776957
0.09696424744104018
0.8122201924031368
1.4314270209505782
1.884572203738637
-0.062137378179847186
-0.9080329655188617
-1.4732877589749545
-1.3549543549624963
-1.436324654768366
0.7143493891701538
0.7506481532820548
0.5868696616532931
0.21534778703814036
0.7510428320009404
0.5416274358191393
0.9653080525523293
0.9213422619804423
-0.0007337485446141922
-2.1081704823557086
-2.0024902488882144
-1.849345348664618
-0.7695302810107745
0.4352508370740661
2.25413559300753
2.4071786281110814
2.4396099010959245
0.6398299373329577
-1.292876380183686
-2.259689843454369
-2.1250348584658356
-1.7171724690715207
-0.3325029460753074
1.6351054839792805
2.1676098368630723
1.459426233778563
0.18237070981305956
-0.9798815996617642
-1.1233776310738774
-0.8666164193119128
0.3211473361256534
1.5817336825798387
-0.48665914323113524
0.003804792079807122
-0.14490400055802796
-1.0057595022022054
-1.339392821253375
1.362811426013748
0.809999903060644
0.4360275121210627
0.14149315831448403
-0.1275663543453425
0.04022376576136846
-0.22603238768111397
-0.2106044664157787
-0.14335118844025355
-0.3486634457668692
-0.4224532828370704
-0.24247370866408985
0.19033177116135255
0.4902646027109888
0.8231767476375786
0.6612307536519668
-0.02836315047984564
-0.5573200719031184
-0.6644527334287493
-0.659994604932064
-0.38886033675279175
0.17351773034540416
0.6938177866327536
0.6365414665662639
0.42396715932304097
0.018256743755220156
-0.2674082106590106
-0.5349621951241459
-0.46042511138402115
-0.2630887662168411
0.1032725315308316
0.3352824571266013
0.34872856349314374
0.24436143874827124
0.08317504345537477
-0.12192200604512443
-0.19838318059043603
-0.19630768621123035
-0.16901770303444688
0.04125335296583446
0.20962848822514032
0.12808399729209716
0.001941507332410276
0.04692188755016637
-0.11190491643955347
-0.2404987969569207
-0.09812475045047839
0.15652059550769085
0.15570246012782127
0.11259097822112218
0.014908070365539173
0.02520316845262225
-0.11201185363827301
-0.05859011110898435
-0.07017755323037375
0.013783208376439789
-0.024745698279204136
0.017425473622728505
-0.04006680100676489
0.031078699847625693
0.0590631236341947
0.0644118696145462
0.055575889595516764
0.028974895743947668
-0.026524053367710628
-0.12218630154736809
-0.06168420294405014
-0.03595289325363349
-0.02264589535051735
0.00944938141942542
0.09242725705778218
0.050317708094293916
0.09212355275098737
0.009152170346634188
-0.02247092878374153
-0.034951703533039315
-0.05990777883072996
-0.12028267879605747
-0.025673362172041275
0.027537627772889976
0.051568191562048026
0.06009335467505522
0.06139281409277571
0.05439554128331193
0.029114770804601505
-0.02861147373251218
-0.12974962380645247
-0.07487333422718292
-0.05012368581186416
-0.028305666783558704
0.024784947451570095
0.14073286242599298
0.13888777823747642
0.02026264609036734
-0.03278563950158446
-0.05106067131450835
-0.06938968967384615
-0.11718277850082026
-0.011792698422586219
0.04356287261175029
0.05739607245352409
0.044717348673740456
0.02129875141125987
-0.0006366078064928513
-0.014386250414124299
-0.018531116632031875
-0.01528224174560079
-0.008383866469838451
-0.0013509683623285907
0.0035540004379057736
0.005569125596302821
0.005118777498818708
0.0032440357318197616
0.0010500907854878643
-0.0006630403139181166
-0.001538635866999466
-0.0016120902382549015
-0.0011559510680045377
-0.0005076565330504164
5.98691704254562e-05
0.0003999968590404703
0.0004919093359135332
0.0004006552117565815
0.00022455890619203946
5.109430497675248e-05
-6.778815360844669e-05
-0.00011972938440445227
-0.00012100127486786958
-9.889959321434325e-05
-7.54034610448033e-05
-5.7571576215058586e-05
-3.697787358614771e-05
2.5643495659490113e-06
7.226358493411611e-05
0.00016564370845139739
0.00025166295242024905
0.0002787232023224221
0.00019196822208758009
-3.843171660003514e-05
-0.0003863086526835582
-0.0007495733092443261
-0.0009571422804710277
-0.0008143005194996973
-0.00018594376332074086
0.0009016450257158789
0.0021799845467133983
0.0031304992219385137
0.003095654637902503
0.001523363779731393
-0.0016984854757075758
-0.005930064730810922
-0.00965751999639825
-0.010732548862224174
-0.00706889688184212
0.0022749577542976874
0.015922027877009748
0.029411580674868366
0.035413176598304355
0.025316487512779207
-0.007876278107279781
-0.06611284778577368
-0.1437001256474923
-0.027105938284049814
0.10201309566141609
0.061211814073515364
0.06121186583070076
0.1020132025972843
-0.027105900540955477
-0.1437003003750966
-0.06611331822340197
-0.00787699137079084
0.025315761445097278
0.03541281844341708
0.029412008238004994
0.015923503969553866
0.00227736904263129
-0.007066199678466821
-0.010730737489625695
-0.009658010096394483
-0.005933956885461069
-0.0017058389263221163
0.0015141642925884755
0.003088073519646545
0.0031292146343171886
0.0021892864136307433
0.0009230950647803972
-0.0001558651983521177
-0.0007854089461539031
-0.0009443657173093723
-0.00076856257610043
-0.00044614369884168236
-0.00013333289349192937
8.841668564089836e-05
0.00021253259106481962
0.0002771382247182444
0.0003234340869437435
0.00036140217174126214
0.00035678674013897826
0.000245517728679764
-2.7690437474023903e-05
-0.00045954888152239533
-0.0009481648590202091
-0.001286948054216623
-0.0012116977074204795
-0.0005047279435889849
0.0008650359525581179
0.0026155534696420263
0.004109073419852172
0.004462417430827627
0.002843550471654331
-0.001084480448952082
-0.0067063516163769045
-0.01220312333833613
-0.014753692394144079
-0.01136096760610156
-0.0002760270919969003
0.017300035173373782
0.03585256371939878
0.04529536173613506
0.03243726818181979
-0.01573766846987111
-0.10770420520635501
-0.04343203827662615
-0.012522078414699092
0.004487301338975247
0.03179536552203677
0.09231913836744365
0.0018658125417496823
-0.034846852484974704
-0.02548484848635042
0.011240873987972163
0.049036096626487856
0.05911670750833595
0.016494935399930778
-0.09334438684975645
-0.06892910464803098
-0.09057297822057368
-0.1233019795332984
0.0745503806737743
0.13865701803639366
0.0855170529368305
0.10331206199670956
0.15055079647879996
-0.03604180862314423
-0.12596002474969983
-0.1760549448657602
-0.21433395428209248
-0.03187145887588012
0.014429069107253634
0.1894158948449793
0.16231385371180632
0.19066049833096724
-0.08920732947433394
-0.06297487923641787
-0.13199518112571604
-0.10374790716004285
0.016592865018992695
0.030765339435638174
0.14778622381235615
-0.01860090132406371
-0.053665026121856765
-0.14565986733444825
0.10993629283983936
-0.09431628919639537
0.017489807139905035
0.2015808142826696
0.19536885304128895
-0.07594293335836765
-0.08689697919191704
-0.09597363998173634
-0.1310929072174202
-0.18139340681248528
0.001449119682341499
0.09211580249685944
0.17380792142005855
0.11913731749854206
0.17562774384741803
-0.04011993936301863
-0.1388889438044488
-0.1486943419082337
-0.10290711988219092
-0.03142593229235596
0.04248638214153991
0.10006452545686867
0.1223504243978705
0.08657411278511196
-0.03360224282602218
-0.06323178506374251
-0.018160459537318444
-0.09707956847210512
-0.07682956923240267
-0.11332830063468824
0.05116557960785319
0.07582476061480593
0.2074148771842482
0.06924859400691849
0.05671996921067181
-0.05905848232742484
-0.12098569940239523
-0.1729315343189681
-0.048556780579785755
0.03452501226040849
0.07426223401832238
0.07899478374297277
0.06075017817848935
0.030069136358973514
-0.005896458164003203
-0.042040203497813275
-0.07224160875035907
-0.08688647856505523
-0.07308109324253062
-0.018562392046094466
0.08146443499340172
0.21720112405662115
0.16062825623276433
0.06871667316986284
-0.10553335672638717
-0.19677142496589256
-0.21129356263449636
-0.11786074396848722
-0.049961725983234624
0.07979664671642413
0.15686860008531162
0.2403748836224623
0.14483180466974085
0.03392378500990331
0.028424251565088987
-0.17415712938876673
-0.2743008004283477
-0.14728255726730854
-0.028692620009085748
0.08815960153356975
0.24423594096592002
0.10083605842154592
-0.07473477035985596
-0.020104990929166948
-0.08445936081742836
-0.03207878492861903
-0.04454539739338822
0.0774633127039918
0.11315840555674161
0.022691953835961967
-0.04844675186309941
0.03859556319194227
0.026623844245401637
-0.1265398815864685
-0.039028572486990834
-0.10034822536857543
-0.07289359382886618
0.10029362021818
0.08331573508764516
0.13416273684344934
0.09426984373477583
-0.016349055878711584
-0.1979144755790166
-0.06556746123191612
-0.04311603312276266
0.04153793600624742
0.15857967919813842
0.07724046534393805
-0.03268450723782617
-0.19792739964741893
-0.03826663903673798
0.03578931691021882
0.023047177182145166
0.12991666117790987
0.1687024640763994
-0.04244634213221542
-0.27780544586572087
-0.10252788551892762
-0.07435394021477174
0.049421166494469274
0.10062383972473776
0.28842266491831997
0.19233574587889785
-0.03589667709075216
-0.260926846438971
-0.146482702399458
-0.1384496832164636
-0.05434718444383781
0.1178948504599083
0.21294922765811908
0.07687394437464773
-0.04377965736708091
-0.10965555832233403
-0.09279004379380738
0.02125842617647221
0.03197728128104641
0.12308569480750486
0.06348800723854953
0.01130555068457597
-0.07876950542616581
-0.046212396080991196
-0.11618354886751482
-0.09467985057834516
0.030901830167997055
0.08593848883055258
0.09968195515153673
0.09672105608713638
0.09203680282948865
-0.1087370239934225
-0.10457093719365446
-0.09253638722118933
-0.06295300148163317
0.001373520896947066
0.12146628899038125
0.11579334847445155
-0.005961221571121235
-0.046488172033004774
-0.02080060262278552
0.046902677075795464
-0.07191278757095147
-0.004948511188361092
0.025339711832579243
0.004706371051267162
-0.07169085392110126
9.201779094697764e-05
0.030553478536458636
0.033424385416528965
0.02215360729587383
0.007204995955347065
-0.00517155758809444
-0.012637428717778638
-0.015413542220800243
-0.014628468168471314
-0.01107683405479271
-0.004834088242134278
0.004201059741110544
0.015135757936839047
0.024848826109644697
0.027335415653460454
0.014104214460967646
-0.024309133341009873
-0.09618152751544817
-0.006647790999579266
0.04328530823922417
0.05662752246271552
0.03982794883614654
0.0026202518883551135
-0.04132470056169602
-0.07346145391312914
-0.07033540576751658
-0.005563944255713947
0.14593797321335908
0.0024930286705576745
-0.02924602569095854
0.0429835965807621
-0.002712903821095502
0.0006799029928887477
0.014325644447023686
-4.195977610262659e-05
-0.07373905603655298
-0.026149910070687957
-0.06236822020800387
0.025872253515175008
0.0562690886875748
0.05032398266287592
0.027866208407797792
0.003354691312604322
-0.015278879374159239
-0.02552435149991768
-0.027950596751393258
-0.023883230153027412
-0.014103631026084274
0.0010038126832230823
0.02010809718326631
0.03921904430159091
0.05072438610588315
0.04416641001561027
0.00914832689752411
-0.060214896774637594
-0.16092872783097217
-0.07903954657002944
0.00840287104978969
0.12720862232180696
0.09772289247228022
0.1276872088471563
0.00940326999040675
-0.07752996151620062
-0.15912465626536818
-0.05863811979633966
0.00970008737832106
0.0428481860745358
0.04705682007105854
0.033569743538806214
0.014028184354110637
-0.0028394286992012006
-0.012601480422964415
-0.014783932669874262
-0.011494007593726792
-0.005783371590833474
-0.00033734240152429967
0.003231466010284409
0.00449210126069204
0.003894694075697479
0.0023054592032493502
0.00058296668575441
-0.0006873125411128047
-0.001275597149251965
-0.0012489970125522476
-0.00084164365788307
-0.0003203861419392118
0.00011041609411320374
0.00034966091416766703
0.0003931058488656938
0.00029911869132275714
0.0001474835544049175
6.657615543641868e-06
-8.341502175760518e-05
-0.00011328678381325051
-9.575220436709219e-05
-5.3689480620776176e-05
-9.223072275395255e-06
2.2898475212523595e-05
3.719262507082072e-05
3.574940112884627e-05
2.4798557955637597e-05
1.1246622197870373e-05
2.7470946941954223e-07
-5.643403008290297e-06
-6.518362956177379e-06
-3.929490172948354e-06
4.380768236307435e-08
3.654109928420956e-06
5.908946971659859e-06
6.603013232086435e-06
6.093091818089162e-06
4.980367132763775e-06
3.833201215472058e-06
3.0219584247538504e-06
2.6762333060419775e-06
2.7328651382677815e-06
3.0264245807025716e-06
3.3783580338746825e-06
3.6574852115562656e-06
3.8035061008703558e-06
3.819772460981635e-06
3.748865833081546e-06
3.6449119589407038e-06
3.552463264960902e-06
3.496122193043985e-06
3.4801963904528225e-06
3.494808966550188e-06
3.5241877878106448e-06
3.5537487226319445e-06
3.5742070362698576e-06
3.5825263441051116e-06
3.5805706578181087e-06
3.5727234154034126e-06
3.563595328143305e-06
3.556503176185816e-06
3.5529107624503786e-06
3.5526529855731778e-06
3.554585551140882e-06
3.557301405554492e-06
3.55966598798564e-06
3.5610709393531507e-06
3.5614305577492583e-06
3.5610165853846146e-06
3.560242216380146e-06
3.559481319668581e-06
3.55896630506384e-06
3.5587675883954495e-06
3.558831086365573e-06
3.5590407428613537e-06
3.5592774151905954e-06
3.5594571252864883e-06
3.5595443603370344e-06
3.5595454610485507e-06
3.559491465584646e-06
3.5594195821481874e-06
3.5593594789561337e-06
3.559326782824029e-06
3.5593230725659394e-06
3.559339969689335e-06
3.559364664223521e-06
3.559384894848114e-06
3.5593924062552775e-06
3.5593847230432282e-06
3.559365459549431e-06
3.5593433627683367e-06
3.5593300990158298e-06
3.559336749291423e-06
3.559369293439275e-06
3.5594240512558178e-06
3.5594848580681403e-06
3.5595242109041983e-06
3.559510191403513e-06
3.559419297218778e-06
3.5592524974670937e-06
3.5590486275314056e-06
3.5588870516073786e-06
3.5588720502070127e-06
3.5590959708477266e-06
3.559586912207665e-06
3.56025769386386e-06
3.5608819766719334e-06
3.5611250552658964e-06
3.5606458919963e-06
3.5592614771580753e-06
3.5571287090798405e-06
3.5548643404279535e-06
3.553507934516643e-06
3.554254963589522e-06
3.5579581613886672e-06
3.5645083548613566e-06
3.572329954571628e-06
3.5783062851248204e-06
3.578421046743978e-06
3.5692154499105986e-06
3.54981636378323e-06
3.5238674048410044e-06
3.5003549538428913e-06
3.4922806069562576e-06
3.512584304991917e-06
3.567731505824563e-06
3.650768897677238e-06
3.7369624503705705e-06
3.7856663223388526e-06
3.7511181733922336e-06
3.6020219164377698e-06
3.345367668547238e-06
3.045209391523761e-06
2.8242195406557184e-06
2.837257803740729e-06
3.213735854400353e-06
3.9790700730460395e-06
4.981793793306064e-06
5.865534468815109e-06
6.125706920432377e-06
5.2721550237643194e-06
3.079084769244395e-06
-1.5021631255452e-07
-3.425749512572327e-06
-5.160106110970774e-06
-3.6040163622797106e-06
2.385527350698636e-06
1.2430082163238039e-05
2.3933161768109605e-05
3.207241235077861e-05
3.0884196143331846e-05
1.5540146968936133e-05
-1.4614373793156198e-05
-5.331509876980692e-05
-8.645005897918635e-05
-9.445919066315617e-05
-5.881169596375775e-05
2.8264125161533484e-05
0.0001537057340743651
0.00027796062382685134
0.0003391023205326269
0.0002703613929573722
3.0218317713855636e-05
-0.0003624806223477201
-0.0008027737983555694
-0.0011013251265501731
-0.0010287484577177041
-0.00040537741799758983
0.0007814025092659317
0.002274122205307579
0.0035156344811942725
0.003750256743098287
0.0022818023908305826
-0.001147502507422849
-0.0059738292695076375
-0.010611113790092804
-0.012639337660066582
-0.009518473390782585
0.00021031212214702696
0.015528698368903417
0.03189456314961284
0.041210217945047006
0.03332679013691398
-0.0008816098986640363
-0.06560883758670985
-0.15688492022949674
-0.061838495566565295
0.03838730554794696
0.16257037877171232
0.12260686807847154
0.11926538633822586
-0.05716779516467742
-0.22150350020623177
-0.18631237281475652
0.043438457430573035
0.07106051849174334
0.10424519311080088
0.14925995760775237
0.006633491353944685
-0.12955608629721585
-0.06893882456286143
-0.020620004460570086
0.010205494906751824
0.02344088198171459
0.02312482231530373
0.015273214070502196
0.005643240343871242
-0.0018002001887646678
-0.005429482017649856
-0.005634042531416527
-0.003981058726500282
-0.002244002749651156
-0.0016084274599062309
-0.002241324339440454
-0.0032926559504352104
-0.0033024601603485254
-0.000906652819041363
0.0043433523759836236
0.01130515120539386
0.017011188692281656
0.017129416523362282
0.007200209854576788
-0.015573720404605121
-0.05057038433936072
-0.09285533650171907
0.06613263427418267
0.03621396151548448
0.02519674422987032
0.03606771775366158
0.06589017605084249
-0.0931010662300022
-0.050701239180537074
-0.015478462043778103
0.0075802373234438005
0.017750971185541073
0.01769632799092761
0.011750981198733279
0.004195884800826271
-0.0019117285995598015
-0.005161072638938757
-0.005581027421157794
-0.004082578591419995
-0.0018427136692233815
0.00016264302919331435
0.0013891193953349547
0.001734697762634166
0.0014091742442122448
0.0007553333135959425
9.522658732767952e-05
-0.00036039750443907584
-0.000535600228014322
-0.0004642937635241957
-0.00024332134349122728
1.3841930931199658e-05
0.00021024304975105008
0.0002832773162302377
0.0002115371998153182
1.6251561627014007e-05
-0.00024024676900741813
-0.0004613804645578685
-0.000534033899067622
-0.0003614697039613446
9.064165728832961e-05
0.000747460643639165
0.0013999095228224125
0.0017276959448979511
0.0013890566324453717
0.00017352683947652537
-0.0018199050970110317
-0.004052147519693372
-0.005553516950669169
-0.005151707173539306
-0.001935636619241644
0.004131179636778272
0.011653684139853005
0.01759546345889419
0.017694167490607527
0.0076210557600100565
-0.015303478566755437
-0.05040045406389758
-0.09274969484364005
0.06614832771645798
0.03605130732397267
0.024754470231592596
0.03531656036416262
0.06495813601398456
-0.09388901447690631
-0.05087211774981766
-0.014569858037445321
0.009773229959906584
0.02091566845666618
0.020851995586100253
0.013345744031623438
0.002545466837825442
-0.007863048179600552
-0.014947164702019535
-0.016554271150134917
-0.011453853886105007
0.0001804780158649047
0.01603717697017656
0.03109976999247964
0.03784703754372006
0.02771153737610291
-0.0061695611524265484
-0.06559183728655504
-0.1446777206900065
-0.029605636487780508
0.0984206697862928
0.05753751032657559
0.058999033846474556
0.10298372775159116
-0.021739748384590307
-0.1341171484644425
-0.05462225551371386
0.0009536571539885003
0.02558668551506732
0.022071745571979228
0.0013891808058195062
