0
-0.000261308279144049
-0.08584853457862128
0.01720257887668524
-0.09793432253263465
-0.03066550019175003
0.027076538889436563
0.08820668555166268
-0.033667562866613494
0.07172714904638952
0.008833060083963184
-0.02407671588189094
-0.03332001049664861
-0.027212582959196707
-0.013597140152656478
0.0016314703158993625
0.014725374952852189
0.02333549907850118
0.025503901272166143
0.019086309887428633
0.0019654314580869582
-0.027118875973326472
-0.06783391355147853
-0.11859882377947352
0.0212827471903134
0.1479688488486768
0.04952054451752483
0.10492487814081804
0.08777391773787988
-0.025068660474942887
-0.24186790583826132
-0.14558019712851858
-0.08931508154883845
-0.0009786010287857584
0.002807608632859982
0.1969521254811777
0.22816485723436686
0.101551658093466
-0.021961458079775335
-0.016404895955312977
-0.17271536166112728
-0.1775840082100434
-0.0955277059687288
0.04109377036705274
0.03247981237540765
0.10386596903871197
0.09390569086275756
0.04320137705658469
-0.013897157604660544
-0.05304483516987972
-0.05989318837864355
-0.028092400321350748
0.0429144484453122
-0.05069559879996681
0.08346618220718842
0.03438807374700618
-0.01142343251573214
-0.06813201385935908
0.05187206009744894
-0.05968168064980574
-0.005453413234515017
0.01771053407447431
0.017697758405503937
0.005132188536035811
-0.009010754520504566
-0.01572538737954653
-0.009973231932340577
0.007815295701882628
0.031005683871691656
0.047230679158128265
0.040516294610042296
-0.004842578093280371
-0.09928484217011926
-0.04329267233294641
-0.024804380071776967
-0.020092595351138172
0.0016448977540735451
0.07100623223620553
0.010369235116776454
0.027415758920591265
0.11217236947667962
0.03873248596247405
-0.028355536090838077
-0.1244759047265263
-0.07485873834007835
-0.08728363982102634
0.04992944834761321
-0.036043611471947366
0.08886971601826854
0.055162959056199244
0.08059661656320939
-0.0349602599805862
0.09074283207875183
0.027935784097257978
-0.05581071646789183
-0.18520216765955486
-0.16924263267184064
0.0012734727730272155
0.1495955109320543
0.10380112555965174
0.08642969358634053
0.10722687515403619
-0.03839009533119853
-0.16520675882413935
-0.09089492673850913
-0.029080675244316005
0.014287950533810233
0.040306533289965266
0.05331007972031535
0.056183083133338724
0.04710563234786655
0.019206039286709678
-0.0367301739161431
-0.12769536055393885
-0.05413722717433869
-0.007968611147179512
0.026043385533207668
0.06607946624897414
0.1281791903204905
0.022563813349925972
-0.04709758512422255
-0.08151677712078123
-0.08229805604773822
-0.049362574411014506
0.019124879163236606
0.12427112470957412
0.06291212406768423
0.025213473625292013
-0.004940981661782583
-0.04658991342907512
-0.11669632837938537
-0.025626506858173324
0.025055155177528366
0.04178337340384738
0.03585962506579891
0.019511416841620922
0.002644520614430975
-0.008854012301038348
-0.013186367970606998
-0.011569508616855309
-0.006703475270656207
-0.0013794328230048681
0.00242570466222781
0.003889905233621027
0.0032358022388999695
0.0013648644435577065
-0.0005814015180966746
-0.0016127986457839883
-0.0011790196871592695
0.0006625078003846103
0.0032139354708391344
0.005267617930648316
0.005430290177735281
0.002635152131008877
-0.0032462602947574038
-0.010889942761410544
-0.017388112933362346
-0.01878596745268854
-0.011427992883662799
0.0060457100098711605
0.030610266788290614
0.05357975922143558
0.06114401942132596
0.03736690605675585
-0.030569868567002313
-0.14628420797273467
-0.09968852929607662
-0.06661516351643001
-0.013954802433407881
0.09052665691531873
0.2668645156638539
0.11454870242108418
0.011047542671133632
-0.08149968686908789
-0.2036731340317124
-0.18520858009024804
-0.03588581696932636
0.05577329907306474
0.11613768216234463
0.17577741935280145
0.059215009452441895
-0.020971411742559745
-0.0642433232925486
-0.07768121300626678
-0.07006913302368357
-0.047674036690959654
-0.013764805212804102
0.027864337409552305
0.06683355170077683
0.08021094123117235
0.029543239928279234
0.06310641432496952
0.12419107742275275
-0.03554410805326868
-0.2404949270191293
-0.07774665182643424
-0.09089359209786305
-0.18477002546583882
-0.04193129815047813
0.2519050040103392
0.17959618001064406
0.16959906789542706
0.18589807661567706
0.13525753019430037
-0.10869939688495132
-0.2702386467842134
-0.2346728883472566
-0.22082173109805792
-0.1715616600381407
0.033745979880522824
0.147384907140186
0.10990965105899884
0.20645116290236595
0.23418143750320686
0.09002071008942288
0.1834093627554245
0.2737255181572803
-0.07360125788350398
-0.42358744016490024
-0.616514589753822
-0.5383409826111609
-0.5303034495201246
-0.041561610678118484
0.4851049432826574
1.118233297303564
1.5651634903294558
2.351468829863244
-2.934941858183808
-2.1505635800090994
-1.096233304594409
-0.2593053047708874
-1.0253937809293103
4.251252570167726
3.362579747611008
-1.400236669003631
-2.42508913026052
-1.5016054178051133
-1.1362651094500595
-0.7096837328006586
2.704021869780042
2.0742321015451033
0.3487969085696897
-0.7757993673966986
-1.6393585365685726
-1.1792662018568087
-0.5031441608774947
0.7025915678226086
1.1288754238923804
1.3889650868097063
0.5851112830523614
-0.48019256923736586
-1.2481397531861327
-0.9252487917099254
-0.4158988341173877
0.10741838560490667
0.58765401172764
0.631592872767908
0.24545918849111692
-0.019930109728178387
-0.30065620432068807
-0.02478503896787388
0.3045445049524895
0.3411314978225118
-0.2640689053223434
-0.4223461136676987
-0.5764814978211382
-0.49082600830887346
-0.06882399444908101
0.8051123128378953
0.8137205873708214
0.5661103509814539
0.1866566873783803
-0.45981245634484125
-0.7158310170220173
-0.6735637724135826
-0.5357383218961668
-0.011768250831166359
0.44902196659150373
0.8005643972459919
0.7430036646061436
0.4890730566089974
-0.23228742317684273
-0.7372227734469844
-0.9305739491286343
-0.45670471606219865
0.12154698802025708
0.3082773571302345
0.6325904983477607
0.3982289632055229
0.04502659194171598
0.1356825428763433
1.1706515357063052
-2.3767058333936806
-1.0207774334774988
0.3613262195532001
1.1297951858602289
0.8630316636998329
0.7391478928437586
-0.06279193874494528
-0.9375928156973911
-1.6197198932649304
-1.966005455632854
2.02387736646378
1.349273381631644
1.1379764636695808
1.5999681765939149
-2.3697880744389845
-1.3429546744430034
-0.6929177638470746
-0.14888769035711114
-0.18866189692049745
3.936628471500322
-0.6277940176928681
-0.5485575592842002
-0.6804180127364862
-1.2252290799525005
-1.5016737025644737
1.8520854647205625
1.040485226117377
0.2553906833230797
-0.17046871436281213
-0.38415839654440836
-0.2061764908665723
-0.10746772290599817
0.017717879148779807
0.07480998320545897
0.18470107635086894
-0.10742679196710149
-0.22929808438947974
-0.18463482548130752
0.03765522376660289
0.24954689397657132
0.249474830125815
0.21365111927699662
0.09836697156171063
-0.14558266026231811
-0.35067513659633914
-0.31122500887392146
-0.17222269234397886
-0.03467277432918093
0.22259183892532808
0.31123251371294514
0.30261379910498715
0.20864130275351034
-0.019191922965645626
-0.2726712722432407
-0.25835404416358915
-0.2682505984228223
-0.15984342471616392
0.0487303006512061
0.3688022573663396
0.22269403622841286
0.025310979264716503
-0.0269639753650626
0.042845734962444156
-0.20000669823165548
-0.19021434654404334
0.04847571338542444
0.1097439228597853
0.005772164199851166
-0.03588491149418059
0.022383431340004853
0.022379128897148964
0.004704688732486819
0.0044981597551445865
0.048684369826171574
-0.04520085417753154
-0.06894136386336845
-0.02292965411292687
0.08465503967621486
0.038752406301975184
0.018949171936713083
0.0022148612329137224
-0.03319906639495348
-0.10360459145246015
-0.016865191038990514
0.02831471359553106
0.04054682836657982
0.032187605281364454
0.015471885678137093
-0.000358065583682174
-0.010295620513216858
-0.013275697482747357
-0.010904902693449372
-0.0059061502277275345
-0.0008285178635801188
0.0026947871672081698
0.004121736199167734
0.003768997691275396
0.00239622541839871
0.000804826151158899
-0.00042881134014098875
-0.0010517651815316474
-0.0010956857132187884
-0.0007628646727356923
-0.0003000601640266813
9.622729810517368e-05
0.00032484028311740676
0.00037890205079278515
0.0003147624275688338
0.00021036983417302858
0.00012903008948971222
9.800919262736728e-05
0.0001049081244553321
0.00010976433347063548
6.762790174444201e-05
-4.559949509273326e-05
-0.00021243812585131333
-0.00036677151579763356
-0.0004073148285796063
-0.00023379962463485098
0.00019997335863490787
0.0008322060854925384
0.001463138473675576
0.0017763390561667636
0.0014294715657348818
0.000209644756890196
-0.001785733378728567
-0.004016710304739291
-0.005510510549440776
-0.005091528097439392
-0.0018482887064769768
0.00425030685411395
0.01179704744238674
0.01773890292057005
0.017798547419616707
0.007642751838535295
-0.015393434549323185
-0.05059319131602121
-0.09298054245724462
0.06600059415270977
0.03613762869802491
0.02519832219819575
0.03613705363552957
0.06599990632585165
-0.09298060351779754
-0.05059194055964179
-0.015390637211719682
0.007646549170464304
0.01780191022363018
0.01773977367320475
0.011793445817463038
0.004241367222822294
-0.0018612518049695315
-0.005104423688909608
-0.005516898846866509
-0.004009629965438632
-0.0017608372436636825
0.0002504303789479315
0.001475260400527624
0.0018074561710819386
0.0014557209975310354
0.0007675356448559991
7.6687410983141e-05
-0.00038896377041861625
-0.0005363888181302474
-0.00039099860880457466
-5.9021724959117886e-05
0.0003129599930938574
0.0005736864956070935
0.0005995185607092328
0.0003274958748019678
-0.00021140089816307136
-0.0008687813521965865
-0.001383805575656308
-0.0014364257377040988
-0.0007574622624078747
0.0007204921769385067
0.0027193881450462212
0.004554160087597199
0.005232887821800533
0.0037653863414360187
-0.0003490206338742279
-0.00659016217114639
-0.01307975288491165
-0.01672113065356864
-0.014033401762548638
-0.0026910380586613377
0.01654424254867885
0.03815953309396871
0.05136431942374281
0.04146221449589681
-0.006659060208490063
-0.10360088036729966
-0.050690747878384956
-0.03738672776007651
-0.04236054790379112
-0.03849179941168848
0.19955434798193455
0.08775446959326806
0.028141357432436648
0.009289916767834952
0.011965039020656869
-0.18216396457596218
-0.1822440749850741
0.016060106559656943
0.028844038718147457
0.07678497176103798
0.17556229938556642
0.1280237574731904
-0.07856463485803429
-0.0691453704805157
-0.07302541341081767
-0.11497010680054036
-0.008689384200651344
0.04526083213548348
0.05715941768412046
0.04303374962092204
0.01910813748387119
-0.0023272405186457326
-0.014759098737334941
-0.017150043453389708
-0.012258449035351927
-0.004491530413707136
0.0019924834518555224
0.004553143853288883
0.002626309598731006
-0.0023398464627420474
-0.007443674799247261
-0.00927909819086051
-0.005171608750617893
0.0054774396871604845
0.020060653033917165
0.032303405919885515
0.032921904807502886
0.011595064014248268
-0.04008338106583316
-0.12565117144937724
-0.04219553215100193
0.018778532730140775
0.06806567448830035
0.11454219417047794
0.16235692795048878
0.011448410747052842
-0.1384938570362134
-0.282977951534649
-0.21066906821529616
-0.10798609066697634
0.22925866286217977
0.381547075578489
0.4968064153032693
0.2952349416253081
-0.10885847900327976
-0.7734304089605235
-0.8969555641360248
-0.40539087459002043
0.030972945664673564
0.7530384875882882
1.858012490564985
-0.04084193129463732
-0.4199077015146389
-0.6131208482244361
-0.5573957403251559
-1.1403006091584267
0.8292414119969047
0.6198500143422928
0.5535565655760221
-0.22607993126142412
-0.38097520008984875
-0.39720262497959546
-0.19940704750050972
0.03450469276202663
0.6594343670941776
0.7577452682251453
0.5529433751718257
-0.3520186459139536
-0.7178122247376734
-1.012006188359598
-0.9776782660622619
-0.4470385301396262
0.7969820652405579
1.3300003611700717
1.602267838901586
1.7005304307165656
-1.4210456599132337
-1.4475135904911227
-1.3846484863733892
-1.2674507922977156
-1.1379659271147706
1.8950030847332162
1.737555686170902
1.1833352145998872
0.631425331002427
0.08433807849085173
-0.572411018772795
-1.2392869106392013
-1.26913680353927
-1.1813699577169052
-0.6591793581733815
0.1621965725912255
1.3398456473218603
1.7503056919989897
2.1614320318229696
2.001896386014333
-1.7494142450379633
-2.176121819738464
-2.0023667906751683
-1.817192132102264
-1.4104425764467547
2.3578057397458156
2.183582459830922
1.5084701494183996
0.7481681592362582
0.012889726409328
-1.0690948116173036
-1.4523416627310097
-1.1486628113807262
-0.3235734725339955
0.15600674565927708
1.5214284403259197
1.071762183718567
0.5448319012275799
-0.4866845977455502
-1.1911893645631626
-1.8438982760956841
0.7915236565369177
3.248019333939106
-3.2926653008457603
-0.6683099609378407
0.7871953510569771
0.5695646123232044
0.34925178545820607
2.9618231644787576
2.4668863596830586
-3.1211329232281098
-3.6613653626265057
-3.9380630276154074
1.5948369411637824
0.7430944842736912
4.205011799465166
4.386609269005391
-2.7167578278960556
-2.129607980542559
-2.0152449221386
-0.5659452472467031
-1.3258963833316815
3.8263617382589157
1.2507376793509242
-0.08843398157756956
-1.0311253704767112
-1.599926280882939
-0.7689819078484739
0.5489772159585052
1.0847673884358868
0.7732432033406849
0.11430872681918335
-0.24653150760262438
-0.5133864987361126
-0.9207903729116921
-0.3160833674812976
0.6451890026084599
0.8910434582335879
0.5234104560613064
0.22152437656221605
-0.7350068100572563
-0.8305459177036152
-0.6829163858505157
-0.23632560230828098
0.4143929960419835
0.7763342851586957
1.1092705202979427
0.9995833650072937
-0.626472719933055
-1.6524206944802782
-0.30563041806522306
-0.30635511430138845
-0.25557342061115074
0.5319575284352817
0.9606075124539771
-0.12606651236203603
-0.6166102365948353
-0.579647294080531
0.9187878795200008
2.8337855933646896
-1.5981875615813548
-0.357339521109319
0.08746109760350194
-0.8988706915620013
-3.237275729350868
2.2761937802681835
0.7034903162949672
-0.3643153791201247
-0.5654913275681501
0.6794240761894824
0.849225302931398
1.2614449402888788
1.8868067174927752
-2.7575427122384046
-0.6546761498111279
1.085295451025434
-3.430005711995938
-1.7971461958472985
4.078836331921985
1.310697491221855
-1.477038191247957
1.7557989087124801
-0.5966926613487975
-1.6145706767971375
-1.0639297310401596
-0.4125077276535789
1.5425064570399953
2.046428707032919
2.3869371206703724
-1.853039829186806
-1.6899247832545996
-1.8161884559889259
-1.5127996062161448
-1.240443813329169
3.483229837726397
3.955330963255559
-1.2306340633536892
-0.4394334344462074
-0.7683998950352252
-0.9662557125710151
-1.9419650739403933
1.8966132523716452
0.0557427627238487
-0.07515830782794054
-0.28052805431800376
-0.18240138896023766
0.5041852361038269
1.1368545405842538
0.944739052412794
-0.33220307107108177
-1.168920924006099
-0.968169611542936
-0.792913910551166
-0.5463347786106292
0.5904252543206658
1.275940898022973
1.113021681707058
0.37662384842889685
-0.2088499843589361
-0.4380527735205972
-0.7555152801407085
-0.7774560778405604
-0.23278467565092859
0.25934556079186755
0.37382502420375185
0.4381005906404651
0.38423439553128846
0.11218513374740967
-0.12586827023220387
-0.32022134170554595
-0.28532266855975924
-0.23967327188386836
0.0067717151820832966
0.2540334910298507
0.30504936349221123
0.15684175980480822
-0.003410551353786686
-0.19446321861345
-0.23134816814939407
-0.11545576648950345
-0.029944252140082714
0.05680680739986754
0.1809953683690993
0.17082976098172892
0.03684213939993856
-0.031184865291449433
-0.059943169111803654
-0.08321476883825542
-0.1312811676196589
-0.022954502352940588
0.03741534982671305
0.057745467050928055
0.052547236538468746
0.036437157311949644
0.01925195885208108
0.004137246599106072
-0.011291880660282031
-0.03166848935796034
-0.06003421186917445
-0.09510065810972969
0.06920669028710201
0.041733030152333865
0.03057091568870557
0.03969835388772013
0.0673066560380398
-0.09350754340082089
-0.05211541913445044
-0.017070566676503945
0.006390718368736901
0.017206037301674533
0.017748493500781105
0.01218444779547563
0.004755511522743411
-0.0014267714852369056
-0.004855151820025947
-0.005465468716700205
-0.00410660297662282
-0.0019318505833334403
7.5581032863517e-05
0.0013473765353032054
0.001754758180886902
0.0014868088406935036
0.000874400454344964
0.00023467115833679543
-0.0002230059275732056
-0.0004228472133478562
-0.00039729257258852205
-0.00023716993895377022
-4.192299348122796e-05
0.00011459493729157336
0.00019779981511618141
0.00020878239824156448
0.0001708791654538621
0.00011418346875185541
6.357197839489711e-05
3.2704082182509594e-05
2.3720724031704007e-05
3.0721854095749826e-05
4.463674641731177e-05
5.751324781155774e-05
6.508293476481964e-05
6.730700256073943e-05
6.723595691599965e-05
6.886353710661135e-05
7.477543919184796e-05
8.436982782048355e-05
9.330480545327965e-05
9.459213286138393e-05
8.135752756225338e-05
5.0708801023416105e-05
7.480324362952638e-06
-3.391648368069114e-05
-5.137408653530053e-05
-2.1803330408873026e-05
6.789255016015125e-05
0.00020852698269126886
0.0003602791563864893
0.0004546339829956563
0.00041158450262926676
0.00017245044625665025
-0.0002588037709475774
-0.0007811722049149115
-0.001190083391839236
-0.001218122725152298
-0.000630334711716727
0.0006412067164632761
0.0023671222089623567
0.003961496865343946
0.004564207309713286
0.0033065050005923677
-0.0002645713383552749
-0.005719973149196922
-0.01144658898834106
-0.014755056258858855
-0.012586053091389833
-0.0028227698268664366
0.014068670913949194
0.03365802638117846
0.04720722370720939
0.043052733642470566
0.009919487858348466
-0.058473282975370716
-0.15909719980932546
-0.077703064320607
0.009028604525958134
0.12720874180235575
0.09734630625690376
0.12720881084146024
0.009028655131592712
-0.07770316596530046
-0.15909756249302565
-0.05847391049282228
0.009918754685627515
0.04305221924892432
0.04720733855776044
0.0336591032404313
0.014070750375097696
-0.002820128836379128
-0.012583831984567796
-0.014754602158574787
-0.011449159263965517
-0.005726061498378649
-0.00027322079497058433
0.003298071662552188
0.004560274109787686
0.003966616709759768
0.002384028394126007
0.0006684094749823356
-0.0006002650751398934
-0.001198341687886183
-0.0011963119708615316
-0.0008254381711813499
-0.0003413703298541859
7.004286972040185e-05
0.0003282881852481408
0.0004425918413574941
0.00046678357233425927
0.0004498970574352096
0.00040345244540234733
0.00029723716654896136
8.430998382905191e-05
-0.000254918505814568
-0.000668387919902212
-0.0010110620315153414
-0.0010671829473677468
-0.0006252149504267083
0.00040573047756348705
0.001874421844194407
0.0033190193817278406
0.004015592177885413
0.003186366700161538
0.0003564589636553846
-0.00423150744687675
-0.009316337001281948
-0.012646168393038525
-0.011515637938557746
-0.0038509823045453735
0.010356405579301026
0.027738020803419618
0.041012782431212536
0.03983814175050273
0.013273554637137273
-0.04663394913604912
-0.14147006347957336
-0.06512475460323743
-0.00604049903356754
0.04678067406690898
0.09571069701025815
0.12753381712354062
0.1109995948483608
0.0010906771870937313
-0.05011501923513024
-0.07874585649686634
-0.09533208751619561
-0.27719829444991084
-0.1712737320226738
-0.10882507098031415
0.1705333058081917
0.49293485226494216
0.6332768269329494
0.31761009653904393
-0.15041337587430262
-0.44454452792719096
-0.9684236975313764
-0.8269586500806879
-0.2343045039442571
0.4367547367663448
0.7769051654914644
1.2615328702925217
0.803262271557224
-0.04087721017439345
-0.4038503411594081
-0.8032760440772623
-1.431244023504925
-0.6775187152141993
0.28649684272631315
0.25664494354458045
0.6941094815002065
0.8044642317000223
0.23243549764605687
-0.0010601141681756627
-0.10739696317116328
0.11352926898829539
1.1568960531583177
-1.681766874174515
-0.8015476989158287
0.18470401365489575
-0.11304755739826518
-1.4783191815862744
1.849034227947122
0.8823463207807599
0.19596349344259145
-0.7447475427303633
-0.21885870092098908
-0.05230677898744502
0.604342807867358
1.5157321938426105
-1.9856154687067293
-0.7416932206059045
-0.12068408799558385
0.20747918256340725
1.0670009778840703
-0.047649322372864795
0.1998300703817677
-0.03427014758568165
-0.3873727974755215
-2.5027145256017382
2.3520911713252737
0.8589086408782188
0.025433963597848046
-0.4208072371158603
-0.013001188056593845
0.09424337103759627
-0.4305225213040773
-0.8614828641942825
-0.604117364490026
0.3885315573123111
2.3778081316882616
-1.4035802124322225
0.42027451346090405
0.5671038974574021
-0.07882146360004705
-2.0261219539932838
1.4655682526807405
0.014993312985953237
-0.47218850526869616
-0.8178201576025637
-0.40729447137835195
0.7572534870199541
0.9982587339905814
1.1184017038599066
0.1913080206834318
-0.6034530583221324
-1.1111635792957264
-0.9254452230395847
-0.7358829653104143
0.2793618984570512
1.01565060444445
1.1789199402906883
0.6284858462584857
-0.2482755900327177
-0.7204498425706304
-0.6685383738447069
-0.5334953402244508
-0.08297420563873305
0.3931383402140649
0.6602708546403052
0.3026502299798339
-0.11223964598668741
-0.4588899015952422
-0.4681289660995931
-0.135637356940978
0.07150495215653156
1.012905506817629
1.0870735048353046
0.6681781525332718
-1.4311233539452881
-1.085901437536961
-1.2043211356116224
-0.9241717639838689
-0.4768478850069434
1.8926312957119829
2.3890944767564397
2.96923680409383
-1.470982247772703
-1.6106064481303433
-1.5516189835144685
-1.663398591894729
-2.0860275466019633
2.6748404077878845
3.271174602736694
-1.002516010453526
-0.5109173948411969
-0.3346071217452421
0.12109506510252686
0.3514245055822848
-0.0028822522764986947
0.09880424146965665
0.15173239859376794
-1.2507003275799895
-2.1982855752567523
2.119195301780656
0.9608763423491458
0.1669695792633651
0.1006666447367474
0.019947078575927313
-0.31625664860818736
-0.21668130544890712
-0.21629273152532935
-0.23940599832663978
-0.17749097600971467
-0.08536784356149876
0.4072779264498928
1.877679261613202
-2.1045214767017386
-0.1818620671155426
0.5947826919711231
0.3729695835377995
-1.0942341441492613
1.9612305501622875
-0.0628407179942151
-0.9199674439578881
-1.299945485307834
-1.0320797626455391
0.6810787593905901
1.4016994474020814
0.9879557086916534
0.5506149450383212
0.0598845638148371
-0.39326349793243454
-1.1001003161721499
-0.8352247591483446
-0.7912431924839187
-0.17126206249756148
0.356702854697005
0.9610807907436656
1.1373011125194779
1.024947460453403
-0.020938041353344934
-0.7975572564170824
-1.1778860023783082
-1.0231333422078215
-0.3184316836378669
0.6481979442298562
1.0657154938640927
0.7594442094360436
0.1564340025758072
-0.32548698176133417
-0.6641904344818085
-0.8094955724287942
-0.46894206494268187
0.2829861885670657
0.5717817135301261
0.8797182885700517
0.6136972098781776
0.10195181598142371
-0.5752777402914612
-0.7319918113471278
-0.8220378210677295
-0.4079146056036651
0.23293021780318018
0.6661332312115261
0.8399289490927897
0.43084193890205325
0.01674163377364237
-0.31395927498869425
-0.32312370650964634
-0.5706048731357145
-0.3685676484448945
0.04266569245264678
0.29190565692681886
0.2525096527640508
0.2079294715504622
0.22079840168226436
0.11530674187601107
-0.12363483758737548
-0.33729154562946045
-0.17346127628382899
-0.06902574808253638
-0.041137300043097874
0.11113999893551149
0.19754939544130445
0.22530113188480835
-0.008636014039467156
-0.11827860128879224
-0.12273528064159342
-0.037074335361198536
-0.06433799932912514
0.008053025473229114
0.006408066638947585
-0.035720895499772316
0.11357666995516334
0.07609073444119734
0.05815509684803825
0.05038357634943206
0.03286117206615674
-0.21574515333880936
-0.1083216726181969
-0.04243366672855242
0.0008071289081304062
0.05168324895404974
0.14266678393778615
0.09861230608583268
-0.07017721575774975
0.0300234360471364
-0.020735961781898328
-0.049842447871423
-0.08483514912876781
0.05276867402076193
-0.048922730656164114
0.008385161285720772
0.031146859887762272
0.03041936045895334
0.018037717624563153
0.0036235486246941192
-0.006949629889340502
-0.011606305541170052
-0.011071318567586568
-0.0074539529955873875
-0.002975602944807151
0.0008199719615501252
0.003293167569581613
0.004495932234603263
0.004752613184798581
0.004277019641004183
0.0030028863516990472
0.000694992989026438
-0.0027148059097205682
-0.00672937093677587
-0.01005129302357418
-0.010727961948509626
-0.006794694520645312
0.00265325625461155
0.016267246865409313
0.02964725282046926
0.03552509048568555
0.02533425190061168
-0.007904566984434189
-0.06614240363893173
-0.14370223363221318
-0.02707101544391935
0.10207953819813016
0.06129644610326914
0.061300594158900386
0.10209588317613606
-0.027033715789357253
-0.14363805638300509
-0.06605749590939164
-0.0078233722832428
0.02537040366339135
0.035469951964541356
0.02947145965052151
0.0159841629871006
0.0023380911515654855
-0.0070058559035721234
-0.010670198624381878
-0.009595918222471406
-0.005868893934433075
-0.0016373252567118404
0.0015847697981621256
0.0031572305131029894
0.0031918271811684613
0.002240471557732951
0.0009608311268727108
-0.00012802660951470693
-0.0007568606180519634
-0.0008986147543027126
-0.000687990625767464
-0.0003200764495357819
3.264659700457376e-05
0.0002657791025165836
0.0003505522752508439
0.0003150227173910923
0.0002144545514846192
0.00010409504160952671
2.1953768626554383e-05
-1.671867386001008e-05
-1.582752072253235e-05
9.819212027670034e-06
4.3132463618228924e-05
7.090869514955354e-05
8.652009680977776e-05
8.956630039093858e-05
8.371212715401467e-05
7.405181683160465e-05
6.4995543932483e-05
5.9145443592113796e-05
5.7148222209780086e-05
5.821165088807494e-05
6.088006748318068e-05
6.373194220801283e-05
6.581061114917278e-05
6.675186111994849e-05
6.667991639069188e-05
6.598931827331368e-05
6.512262016452827e-05
6.441475519268764e-05
6.402812032500806e-05
6.396530272261672e-05
6.412696495763454e-05
6.438025391165666e-05
6.461253677820044e-05
6.475909669541092e-05
6.48057154160019e-05
6.477456068577159e-05
6.470391054491305e-05
6.46303005109912e-05
6.457777080878722e-05
6.455495909799097e-05
6.455806393424086e-05
6.457659877559034e-05
6.459911736942994e-05
6.461713560359812e-05
6.462668913193056e-05
6.46279092606573e-05
6.462347716197957e-05
6.46168505291079e-05
6.461089953570126e-05
6.460722753917461e-05
6.460613724518584e-05
6.460701595290973e-05
6.460886550074315e-05
6.461075761906944e-05
6.461209875152667e-05
6.461269036012632e-05
6.461264025907342e-05
6.461220793101886e-05
6.461165874900129e-05
6.461117345246084e-05
6.461082563916342e-05
6.461061281115197e-05
6.461051130183943e-05
6.46105229801628e-05
6.461068974442619e-05
6.461106694589504e-05
6.461166502274538e-05
6.461238536036021e-05
6.46129867108742e-05
6.461311718836738e-05
6.461242998873617e-05
6.46107684644116e-05
6.4608364381563e-05
6.46059561683461e-05
6.460472159715508e-05
6.460595124088945e-05
6.461047485321078e-05
6.461798162738426e-05
6.462650887197463e-05
6.463244930114456e-05
6.463137424079714e-05
6.461974018900612e-05
6.459714991348917e-05
6.456837524728718e-05
6.454400619550892e-05
6.453860912003535e-05
6.456585598712027e-05
6.46312671406386e-05
6.472475904608861e-05
6.481655649187757e-05
6.48604366447092e-05
6.480696183945585e-05
6.462597746699753e-05
6.433266529237536e-05
6.400637630007172e-05
6.378877089539981e-05
6.385017235715805e-05
6.432226517927653e-05
6.52107713453795e-05
6.631951786250757e-05
6.72299283203159e-05
6.737821523636902e-05
6.624893993588183e-05
6.365709340318062e-05
6.003106376632122e-05
5.655755344475901e-05
5.503689942786468e-05
5.735200654206678e-05
6.458834223413556e-05
7.603614103165332e-05
8.849818166686401e-05
9.642164101228862e-05
9.326736456194853e-05
7.415998653231959e-05
3.9256315836065815e-05
-3.4111124547564427e-06
-3.732130832693373e-05
-4.0679730483844415e-05
5.9018509854797185e-06
0.00010845368491989586
0.00024892264590335516
0.0003800900601204507
0.0004319127472169022
0.00033279258699610525
4.395751892838643e-05
-0.00040237913151041336
-0.0008776927226391215
-0.001164582463236517
-0.0010123137849143557
-0.00024100762261937831
0.0011286544738568541
0.0027693572955004055
0.004030763157862661
0.004073029233369963
0.002171554323435882
-0.001857745951629668
-0.007252298642687559
-0.012127589661060492
-0.013754623924134015
-0.009419957000941346
0.0022091111867930217
0.01957717536150831
0.03722078872003792
0.04596865515488444
0.0348881522357799
-0.005084084976176442
-0.07677074763394877
-0.1734377380294668
-0.07861526568632317
0.02967795408018168
0.1710040952506056
0.1538421045263875
0.17034761564395845
-0.0022282196789932757
-0.19309869484500855
-0.22560425374864124
-0.1063413063043299
-0.02075658151521595
0.06267575958758802
0.18143068000358248
0.16567333850214008
0.028039533035515492
-0.03991141808313468
-0.06394645764432344
-0.07835418866219154
-0.11582158689668065
0.000494409854083131
0.060677832478436826
0.06747847607599493
0.0329091540216871
-0.026067757783624725
-0.09143462752574767
0.052798464715240016
0.01820824052310046
0.010294135692757184
0.027904625191823115
0.06415338977396061
-0.09118006980970764
-0.04839507430908395
-0.014885214849089973
0.006456077180284593
0.01693953610911612
0.020260116675876447
0.020111190912484676
0.018280853471825793
0.013968542637240799
0.004548631164539826
-0.01254833537871965
-0.03764684597611855
-0.06742115365341628
-0.09528828473284805
0.085976611979156
0.08006832901462435
0.08325036199546972
0.08302453131880841
0.06092576497332287
-0.20079636449950286
-0.11089876380270017
-0.06281656126151873
-0.03346937321650728
0.011578622298209988
0.1079724966725946
0.08082450953653925
0.13552095772343176
0.054536861942038606
0.0018045776266068505
-0.06639469072945105
-0.18746546087396898
-0.18028535317076083
-0.03923216779439975
0.06325722548254616
0.16662791189631665
0.10864966172659972
0.11353663863903311
-0.01418224396955059
-0.08864232386671393
-0.13596760629886928
0.01472499223358565
-0.06082614939970379
0.0225058199378186
0.060090237145312406
0.05575605323039523
0.018982348041232534
-0.037629235577813544
-0.10015887492092294
0.045163785472840126
0.010231570166209047
0.002944044289288703
0.025226917720886706
0.07200512834802424
-0.06824084009495164
-0.011210191665210548
0.026755057022543133
0.032700190778649496
0.0007572152608482253
-0.0653044885360442
-0.15163067104926004
-0.036885681723615844
0.10184556515815972
0.0811071512117013
0.10386854517633638
0.15634983802282826
0.011040821744683658
-0.164302679125651
-0.19460456400390275
-0.08703558449673653
-0.026607605007355623
0.02017654950612178
0.09488596941855171
0.23385091670633712
0.05685995533645959
-0.03825054464814019
-0.07376762195827642
-0.08458989597107067
-0.10843469602993942
0.02277509789239377
0.0882834215629261
0.08044719232272234
0.004345832722247651
-0.12380856451194015
-0.07921869381035963
-0.032554790416558975
0.044191727191946785
0.1710353411893967
0.15481558503227358
-0.011982535926623905
-0.1473534618848284
-0.07225314092564322
-0.202802669877275
0.054287727409279125
0.10136992511942251
0.1455050370135553
-0.007073364612362487
0.0452703595858217
-0.1009614083445068
-0.05217927881231973
-0.01445058983149465
0.009014359351970442
0.018689519828963903
0.01796768953890398
0.011547192536246864
0.0038112791061843823
-0.002236295965092898
-0.005301478995330184
-0.005526170250289058
-0.0038944211591904086
-0.0016076562208947424
0.00037228838116018867
0.0015351860067415709
0.0018150668797309295
0.0014470389270533806
0.0007829988688599653
