0
8.398492129190834e-05
6.675976899793812e-05
9.554840493219728e-06
-7.816077828723942e-05
-0.00016190413909796648
-0.00018149523641743047
-6.152083216694334e-05
0.00026482791218208717
0.0008192714589599104
0.0015315010730418833
0.002179924121634061
0.0023036875790486302
0.0010403657813747222
-0.003199968949649679
-0.013361093035490056
-0.034824068816728344
-0.07702581167533784
0.04460447670776095
0.1071930716004552
0.08092543568855161
0.13315909677912804
0.0369175860553062
-0.2174367092188993
-0.21088905873166658
-0.0897648161348671
-0.16925883138629033
0.0522851378534451
0.2713351815004491
0.35599476912778316
0.1296755876484203
-0.03237283031314497
-0.19255971507674113
-0.2309140857510183
-0.22337501007605054
-0.02604293954399232
0.13043016659306664
0.23690671215575454
0.09659479999958416
-0.0840834615559062
-0.10112574834528378
0.0454647087138828
-0.047299210511276904
0.016499093208615645
0.03339636412830325
0.0017710356213166817
-0.07745855265451881
-0.0007107536992586276
0.037736322258792324
0.044738132814232105
0.02731666197422264
-0.007684435094019125
-0.05319162892199983
-0.10127955648039987
0.056787770879584684
0.02932166897008197
0.02209545449073955
0.036390393549679954
0.06831275277748451
-0.09008712787081988
-0.04824444420265871
-0.014137087861002689
0.00779813129645984
0.01718956754962989
0.016816242904051593
0.010943268314313095
0.0036856602347859744
-0.002074836498448573
-0.0050544571701049085
-0.005338857579665678
-0.003833410043275349
-0.0016712371627696928
0.00022684397916509634
0.0013621631795799798
0.001658457963655897
0.0013301104932605097
0.0007081845981559547
9.407166587547579e-05
-0.00032376388350138937
-0.00048717858644720455
-0.00043867273675184506
-0.00027120229543625403
-8.067490158372801e-05
6.503558111058312e-05
0.00013695656261610063
0.00013976401994950511
9.796688786355633e-05
4.098103106635098e-05
-7.845207137338356e-06
-3.6283050416218514e-05
-4.29526270555707e-05
-3.376879969641038e-05
-1.741765274283895e-05
-1.6301712551023196e-06
8.877713467631452e-06
1.2768362324725207e-05
1.1258824258329914e-05
6.8030922673513985e-06
1.8726040334021486e-06
-1.8208236102212394e-06
-3.5798063383162143e-06
-3.5662963259014245e-06
-2.435483315066922e-06
-9.503431408794885e-07
2.958668511777525e-07
1.0022777170291484e-06
1.1468558803369137e-06
8.908789343135617e-07
4.613263307022393e-07
5.5963749281526144e-08
-2.0761940174127543e-07
-2.992676629211271e-07
-2.535900026282304e-07
-1.3540561988203405e-07
-8.424507237304919e-09
8.427357232116366e-08
1.2620604069380744e-07
1.2299130225023903e-07
9.258170282738195e-08
5.513920263861961e-08
2.5783243584483367e-08
1.1401904297061113e-08
1.1089007446438188e-08
1.8890127930833963e-08
2.7372564646258706e-08
3.0822766342241607e-08
2.7322224854704157e-08
1.9352019014240516e-08
1.2863260676379804e-08
1.4981974353710847e-08
3.079138759080301e-08
5.999974411783912e-08
9.468338546825819e-08
1.1948484484357867e-07
1.1536644056010337e-07
6.705924852760182e-08
-2.7272836832794875e-08
-1.4752356859259197e-07
-2.4904034849977094e-07
-2.705557546469513e-07
-1.5482521546437647e-07
1.2082065081997458e-07
5.132829837815893e-07
8.968271165392948e-07
1.0771403700697374e-06
8.473224502368586e-07
8.255226425310773e-08
-1.1507667238951077e-06
-2.516757499547415e-06
-3.419203400709953e-06
-3.144277494945416e-06
-1.1440687926691703e-06
2.597097753190231e-06
7.246018076865349e-06
1.1038521373241865e-05
1.1608532831531324e-05
6.8047592881332994e-06
-4.124455762332613e-06
-1.9348345324755345e-05
-3.3857133299068355e-05
-4.008597217960782e-05
-3.0160459445603266e-05
4.0149986429777986e-07
4.8510252815075835e-05
0.0001006295560621117
0.0001333800808379946
0.00011934299573389628
3.822339746052793e-05
-0.00010901198253517407
-0.000288251617971083
-0.00042974915989702286
-0.0004416537306574892
-0.00024209578682877602
0.00019537614264372686
0.0007979033740300479
0.001373843481611761
0.001641858712262771
0.0013225699731246427
0.000283200195027695
-0.0013083904018745599
-0.002899172644875549
-0.0036374192152146306
-0.0027273744931743346
-0.00011076970248312017
0.0025325665346771263
0.0005454306731948418
-0.015050611759127362
-0.058831188551967104
0.04808854188916463
0.0779439577408426
-0.002174244614658666
-0.026406565570443463
0.1765037243139187
-0.008000039018675593
-0.1709228734127964
-0.07245075222251553
-0.04015399016249627
-0.17560575979596577
-0.17056616720982248
0.06884353574845377
0.19470804154430366
0.39429165638036545
0.3804262713262458
0.2024398043923893
-0.12090030293597048
-0.35297186122016216
-0.5892935733198859
-0.6230626457503642
-0.140319871877167
0.25032654544028804
0.36076794479888996
0.5571203482696507
0.7063076442245424
0.35410525911962115
-0.2571036905992745
-0.5364389458966599
-0.6765351800598836
-0.5934100689125198
-0.29471439497718
0.3145844945314095
0.7948457859020661
0.7205052602287023
0.4365984176128619
-0.3615840560691455
-0.8238197235867437
-0.7267608755236564
-0.2594423684232561
0.37553278994985745
0.7459917561950754
1.172632297756113
0.12725763834687193
-0.5432385150277915
-1.1724679859114915
-0.6291533441471198
-0.4938264838804247
0.5290368830075329
0.9678266056500004
0.9296937541383719
0.2609451444796627
-0.2605881184999592
-0.7003697738866599
-0.7245381283586902
-0.562747840023678
0.004765201625595951
0.43002566054248964
0.759277677496603
0.5935106726829174
0.2678680836786939
-0.13834840052951133
-0.36320577311910546
-0.710131114698922
-0.8037964870929777
-0.17304210592057348
0.3303891755759173
0.6831564746934785
0.6301096240391836
0.4355967785592974
-0.13615702239185767
-0.4065109912367232
-0.5418145316346679
-0.10280501816426908
0.19998744092053838
0.3349554260605343
-0.040429486095665386
-0.5869837244277771
-0.7079028378676825
-0.18908494502027928
0.5489659519205066
1.8011566900553229
2.5505627435473386
-2.5189484846354655
-1.972165269194376
-1.3608862294763557
-0.5885521392120592
1.4777033495209875
2.36013778190941
3.7288747997259675
-1.9922901218558722
-2.3596776419317806
-3.8133807975742777
1.1914150826973866
-1.0219448045496033
3.3614487555110113
1.9191748360927774
0.07871457820390386
-1.1346781762836444
-1.0795009845116073
-0.631632900094234
-0.10535261285219728
1.0120891182184175
0.7045255189934987
-0.1450961916325756
-0.5364629538503878
-0.9455772978010413
-0.9406340485836795
-0.029371458409228262
1.0648018337459737
1.1176845872144048
1.341849400248392
1.5763965056529874
-2.6600619252523896
-1.670082702074872
-0.27165517603366535
-0.3293247897060859
0.653609579476742
0.4860080421974105
0.6080539367618132
0.009979333297243143
0.5756263072301645
-0.3358267091145607
0.7309462831473854
-0.42189148086210315
-0.7814217837840454
-1.0679676759991144
-1.3073766572681849
1.757446533952761
1.2223230648326662
0.5686667712359296
0.030000429126741935
-0.40541693425024705
-0.5601269780004423
-0.6217423283280007
-0.511121904834307
-0.4830902075048471
0.03510899456760187
0.5781761953561806
1.5740741888870138
2.102883156336279
-1.2921305431634493
-0.9364258009542147
-0.7206750661219369
-1.2015369884893587
-1.545460646565472
2.064384708932686
1.1644885506512999
0.31923617780645525
-0.16375945661994834
-0.28719589982814486
-0.3816003928302674
-0.09578413190699393
0.2274997087861671
0.18227704633245218
0.13313712700239194
0.05101831611218375
-0.25149562287736116
-0.4910720982328925
-0.2984519501841046
-0.023391115444492513
0.2396918801404993
0.41233169294287075
0.39155385925132125
0.2217060688531194
-0.11284621195680129
-0.273751878212734
-0.3409082651658535
-0.18259394360941783
-0.03428365391148342
0.10805251474625527
0.08062804373571779
0.135721160668014
0.12384024604240977
0.08039623028909382
0.020537645968080838
-0.05741060122386569
-0.16242177608001362
-0.09956784128263751
-0.06180119814329987
-0.027894976709692095
0.032857086574440184
0.15122067096660907
0.14768093387182812
0.025265653783147258
-0.03172990295412515
-0.052827623086734325
-0.07239089151419068
-0.1200297383756345
-0.013655496630799086
0.04290233128854415
0.05770089492569012
0.04553665757234749
0.02218686725369975
1.689572445650169e-05
-0.014086143573787884
-0.018549308827932823
-0.01549719757046722
-0.008657257211101554
-0.0015770053003862077
0.0034274627462425136
0.005543939399827515
0.005164309480497482
0.0033186143061494223
0.0011181148449469715
-0.0006220468624215566
-0.0015289083873567908
-0.0016259597624464573
-0.0011804170713324688
-0.0005304869705439172
4.61207512871168e-05
0.0003965534119969474
0.0004946177814477169
0.0004024300863979247
0.00021861505833526665
3.414542804897107e-05
-9.32143037911728e-05
-0.0001447234622953941
-0.00013217663519958945
-8.301118973002712e-05
-2.6006564936612564e-05
1.8182739015196274e-05
4.048371760566437e-05
4.1980599283040206e-05
2.9846481361374448e-05
1.2870589919509774e-05
-1.8756364352765686e-06
-1.0612382631850831e-05
-1.2821021452506836e-05
-1.0208265216615889e-05
-5.357281861549239e-06
-6.013294810240085e-07
2.61083846199307e-06
3.841010241294304e-06
3.4270822686304884e-06
2.094157584863078e-06
5.892759170924289e-07
-5.556059900069304e-07
-1.1069928470200236e-06
-1.0920194414332654e-06
-6.976676768735832e-07
-1.6247264232436836e-07
3.03963365757444e-07
5.626999756264594e-07
5.559596043798905e-07
3.015404905805629e-07
-1.1667468676246423e-07
-5.592358113652892e-07
-8.49337948500723e-07
-8.093870474402413e-07
-3.214612610995354e-07
5.968019546394991e-07
1.7276567718486726e-06
2.6409274559753887e-06
2.774663952441465e-06
1.627175432102476e-06
-9.667843423219112e-07
-4.561939814031837e-06
-7.967240195379318e-06
-9.397855622653759e-06
-7.0075537558671454e-06
2.391495530245374e-07
1.1587203614108687e-05
2.3823992732356506e-05
3.14356251789504e-05
2.798779426499097e-05
8.761806344348046e-06
-2.5924585886962743e-05
-6.795059777137726e-05
-0.0001008652787134605
-0.00010315958826917745
-5.5930458460623985e-05
4.629078394220321e-05
0.00018504528315045344
0.0003131545233154752
0.0003612997771984991
0.00025933100194815454
-2.9646683347284845e-05
-0.00047179014390172347
-0.0009381376524327577
-0.0012129453199281172
-0.0010496104110103294
-0.00027421918414231964
0.0010867108432375322
0.002703277044786584
0.003929263999024239
0.003938020219517332
0.002026711200747382
-0.00196319960331545
-0.007249332748712309
-0.011946336522201501
-0.013358193600232092
-0.008853297974853597
0.0027525617511137317
0.019657360111866813
0.03598437059803149
0.041840750752731366
0.025010137961999544
-0.025795824972811025
-0.11698878228599628
-0.0469658590434243
-0.005310723951927369
0.024984481074865096
0.06297060074827508
0.1247144596079222
0.019924633617695673
-0.04842187894008083
-0.08162429765686413
-0.08162348066334087
-0.04841374487584586
0.01995364705862145
0.12477652221872082
0.06306483311261242
0.025087937373567935
-0.005243965046997596
-0.046993431510456284
-0.11715620273442995
-0.026105333511575044
0.0246266307880857
0.04152895388131001
0.03594036358029896
0.020059530235303023
0.0036628511558835027
-0.007587840959129656
-0.01215485147304927
-0.011434407906843767
-0.008082890071404683
-0.004512967103784678
-0.0019793706411607953
-0.00039584167148750207
0.0012129299135403202
0.003882281136389678
0.00784267359950238
0.011971260211511313
0.013848945561197715
0.010562399996235804
0.00014973825435858634
-0.016715895429124453
-0.035498563767774334
-0.04786110146681049
-0.04369258515019754
-0.015227220263380317
0.037527474259509794
0.10186208967987503
0.15045370136574743
0.1448458453890853
0.045296792071538056
-0.1746454669753732
-0.3135626641171963
-0.334351663254115
-0.16931918328476273
0.05971353001476445
0.4106213903087758
0.4899612847085543
0.434865078300436
0.1181191954755155
-0.22132666032374315
-0.530444263772786
-0.4929476952357704
-0.49722848582441154
-0.23480294224469875
0.06796252793977352
0.5947916272854842
1.081522356527826
2.17951647332955
-1.9417411098379156
-0.9523778607453354
-0.5006119916021718
-0.3636017660985326
-1.4360260785411627
2.2371996552046016
0.7983021976909208
-0.0886045195261151
-0.4783832484699649
0.25329370601164863
1.646519862838037
-1.5785702040312557
-0.6464196146758177
-0.26108206692683295
-0.5740552499225003
-1.3992738047756166
1.926026642512436
1.0532686140798817
0.5383513431592943
0.3926269021490057
-0.5138715748227793
-0.6014679103097326
-0.5041949508913569
-0.39585447643306976
-0.542201479121269
0.5094640598763855
0.7059593395032462
0.442543264953073
-0.4871832520754981
-0.5334933389331978
-0.42070124927979186
0.2345751853782943
1.1199781267464957
3.6479893178675638
-2.5905786536464395
-1.7458007060150238
-1.6299346786429967
-1.2841326514647895
-2.021492553564007
5.259158228945853
4.9360449433764275
-1.8271186954205492
-1.4754708928829996
-1.1602869400014173
-1.7911578290235868
-2.713168151831378
3.140825252878048
1.2124883150424497
-0.37867361870093
-0.748344610035169
-0.1413667475508456
1.212952648065941
3.0947564018993616
-1.6566287410944587
-1.0418136295295064
-0.9753427988796651
-1.378362433561422
-2.332566805198732
2.68416575524114
1.6931252941205626
0.6825685753535231
-0.1013009948238724
-0.4046588111930031
0.05003182930324173
2.231473182478094
-3.5079799615321394
-1.3457518934091455
0.06050358926750681
0.5649589677127619
-1.1283481357414376
4.648486452131581
1.2612087492843105
-1.0355206571859463
-2.040830387023704
-1.9123292088209058
-1.2845814573122087
0.5540056892463849
1.614359883732544
1.7162521398553297
1.0015475901054498
-0.10664503728537773
-1.2831961732273791
-1.0345813319941841
-0.8232601528871228
-0.21947063889001311
0.09967614595903257
1.1072550388539026
0.9619546073123432
0.3510672939292822
-0.3364093316258307
-0.20017701355645
-0.5932571557202253
-1.0814446913584026
-0.61758120165406
0.45957857730549945
1.6084005830108279
3.271010247774812
-1.911366166345568
-1.4450717763244283
-0.9118590421524074
-1.1181728933956028
-2.3036373709478593
2.3785500012378176
2.130954604134519
1.78060990960822
2.103395715490454
-3.961904895667555
-1.217318413413439
0.5295271612099808
1.7871020545244398
-4.947585454478334
2.421951861742057
1.7463691610247785
-0.4528252529944847
-2.6780296998462894
3.063278655408976
1.2085952051809814
-0.16584700853131817
0.6980266914161023
-2.87843511523688
-1.522356066170721
-0.35395299679067455
0.4100602777518828
0.5988875392879601
5.011151410686756
-0.4321053108274841
-1.4705235772664353
-1.6258955133517419
-1.9029077905467673
-2.125582774190159
2.0516647187519808
2.0585904001565303
1.2877629954815646
0.3918762502250936
-0.35946086930928994
-0.8551921988863913
-1.073075978589927
-0.8019354805872182
-0.1889722310235888
0.6721818024354383
0.9184319167833881
1.0806182428974416
-0.34229991057179127
-0.6842072034285935
-0.8904883442272091
-0.08910194899671149
1.2306158015744455
-0.7749403668700456
0.09262154558942834
0.4659008867955951
0.204962847372179
-1.0061358089081966
1.3400487179665774
-0.426202166514495
-1.1569012247535684
-1.1015531668711254
0.46428302743064687
3.402386300275326
-1.1153169483874024
0.5968093935289137
-0.018711983311178886
-1.292738209103872
-3.0630421982123246
1.9568932138570334
-0.2439814909148496
0.5576498628576816
1.333796857894981
1.5374655097447993
-1.5208915934588902
-0.4464196624613001
0.10278996308965586
-0.9132060006371605
-1.462715800030607
1.7788310274140662
1.018602339060908
-0.28161449602593974
-0.43349526893933615
-0.3405709847276851
-0.10856460791857915
0.14572487177768467
0.28355475647566114
0.13362445491374586
0.08678271790843997
-0.10024848097413293
-0.09226806729633118
-0.15787755884464494
0.04794753593522857
-0.10374592710804771
-0.011201302013192568
-0.04534568270776073
0.0402554603156857
0.0958080175186529
0.16186964891373118
0.059930619758385435
-0.01036147057656441
-0.06693692056835875
-0.1360680570224454
-0.041800699699825826
0.0022987416803730743
-0.0032047584214425604
-0.04495229027060832
0.09806700894052775
0.04764149952573562
0.020024757312505543
0.022073183807098423
0.05076591620148118
-0.10415138113118469
-0.05567855833097704
-0.0150310889086545
0.011337074107047231
0.022438696279707338
0.021515177597157424
0.013830950140543058
0.004527728617942422
-0.0027893820135580084
-0.0065310644173106015
-0.006837239576505032
-0.004878386393721116
-0.0021035190420868673
0.0003170038711880109
0.001754759128135403
0.0021199846191270566
0.0016913307082736093
0.0008932965129903569
0.00011002913109698644
-0.0004198134541812978
-0.000624148810922146
-0.0005588242615801471
-0.00034324564491873284
-9.981335631147287e-05
8.533999432590252e-05
0.0001758865997978664
0.00017833985266750506
0.00012428968626001548
5.134274675758208e-05
-1.081373239912277e-05
-4.6760475335852215e-05
-5.491409845590731e-05
-4.293939562810657e-05
-2.19627288034688e-05
-1.8312293179454445e-06
1.148798314297933e-05
1.6343524836944167e-05
1.4329689612563988e-05
8.597296093433811e-06
2.2995310472260462e-06
-2.3921642423688526e-06
-4.604647628210811e-06
-4.558529198907941e-06
-3.09768677017956e-06
-1.1972213556693811e-06
3.887972438005035e-07
1.2812923460493963e-06
1.4566656918024025e-06
1.1236025377347112e-06
5.726895459319778e-07
5.572323136758074e-08
-2.7856052318694585e-07
-3.9301596191576974e-07
-3.3268771901608027e-07
-1.8057934192292221e-07
-1.782968747957192e-08
1.0090360990779951e-07
1.5476243423977126e-07
1.5077908483135558e-07
1.1144019071140968e-07
6.199858770831265e-08
2.1582259142007543e-08
-5.215156349265242e-10
-4.148435428463359e-09
5.042402850547064e-09
1.9473073829248966e-08
3.2716583398217105e-08
4.10806601046402e-08
4.375646409153337e-08
4.2011659633163176e-08
3.802942500283355e-08
3.388528905010326e-08
3.093147288900476e-08
2.963392924579253e-08
2.9750666184967917e-08
3.0674276866986485e-08
3.1773265576115624e-08
3.262362674493823e-08
3.309074802263133e-08
3.327835218170059e-08
3.339536372370688e-08
3.3603505710323165e-08
3.390366322100958e-08
3.410337398616561e-08
3.38845386292746e-08
3.296087797898606e-08
3.1280888918360624e-08
2.9200249119009486e-08
2.752961238904913e-08
2.7374866766797413e-08
2.973976270771871e-08
3.495600101590164e-08
4.212361907266641e-08
4.8841698825134695e-08
5.152697599185749e-08
4.650085840397114e-08
3.1752562386606714e-08
8.900819166292072e-09
-1.549714335566421e-08
-3.0312327967865144e-08
-2.267716576552981e-08
1.668034913210035e-08
8.677918824526192e-08
1.7091734254242515e-07
2.3577830750764642e-07
2.3820714314836685e-07
1.4076810243575542e-07
-6.648634329001943e-08
-3.451580207336207e-07
-5.993651035057001e-07
-6.896293282951721e-07
-4.763089270154318e-07
1.116780921418838e-07
1.0020291402301619e-06
1.9314642445705596e-06
2.4646261314534736e-06
2.108753387488485e-06
5.232032903646096e-07
-2.2243787301702354e-06
-5.454412883099759e-06
-7.855108768965902e-06
-7.76198516896459e-06
-3.7734441997224866e-06
4.405910206919744e-06
1.5177622686143713e-05
2.4737886035944647e-05
2.767207500176057e-05
1.8688207090770864e-05
-4.703883654594397e-06
-3.933908821845377e-05
-7.46743634912145e-05
-9.370219667525471e-05
-7.758013775077875e-05
-1.3851853507395926e-05
9.370706871041888e-05
0.00021752757949581352
0.0003060220496811323
0.0002950646599908039
0.00013231381909476397
-0.0001901554155533602
-0.0006061653671758651
-0.0009650310860928304
-0.001056744728620884
-0.000680971733642082
0.0002487567288304181
0.0015966477718565456
0.0029431441357252097
0.0036280086586859177
0.002937660061365892
0.0004282832670374438
-0.003695941844124439
-0.008305108056515565
-0.011365055428541798
-0.010429476378918855
-0.003650978752110848
0.00885150459172227
0.023673755196564374
0.033429745909739565
0.027223565197345544
-0.007474262399506878
-0.08186272239130521
-0.0026381364629235906
0.030282143743351222
0.02431644107319391
-0.0072451238091337895
-0.04872084015846569
-0.08757054093070919
-0.12202685357514907
0.02969265388789837
0.1204585379375175
0.2691440226351655
0.1638678578974455
0.0770503713291076
0.09250071453945544
-0.05988866385195211
-0.570722238582564
-0.5305098674291187
-0.5326546745836446
-0.10500059983517977
0.8355847602933203
3.3226341860367574
-2.704232619646344
-0.6126722730667189
0.3374311025939211
0.02174874361811834
-1.9226829762505384
3.5224825759713894
0.7773585324615632
-1.3064502302822625
-1.6074662952198777
-1.5045860929875472
-0.48164148513563226
0.820436668254658
2.3187057217349096
3.4107709045193078
-1.650470040575888
-0.9082161310286769
-0.9970653482784163
-2.2320775458203954
-2.7472960818739622
2.6827801306170023
1.9445097809021494
1.253356617043172
0.8504355984183974
0.17461917856951367
-0.6779752551897618
-1.6316927728454655
-0.8931458295362498
-0.04679394736831039
-0.6191587743374543
-0.12223169950790132
0.6370868640774741
0.8116235921627812
0.5710296225785343
0.398476243185897
0.6535978583219324
0.41182873272335746
-0.42775080732597953
-0.7902775178831789
-0.2647828294825189
-1.1758385715750852
-1.3214588413639337
-0.7964856986441686
0.5016166069578416
2.114025832077657
4.460922685538841
-2.0614629653300525
-0.4906685356418293
-0.2192160972603549
-1.669582752210125
-3.5798558908299163
3.0544331391935295
0.7655333597060467
-0.25821199082941776
0.13564830037472936
0.7877666008647026
0.3902745782150292
0.29830389208366914
-0.01296230734667687
-0.4601372847819192
-1.2574090493469754
-1.2463367905975566
0.12492492849322344
0.3630458293319248
0.8432604478717126
0.9051856623657515
0.7664343652828751
-0.1184013685088517
0.15641303611184282
-0.7930376618642865
-1.1612613936442
-0.48509631090428457
-0.011054229772355494
-0.30792063003686565
0.884440622799234
2.7939659401917964
-1.828362973513429
-0.31654498256148605
2.1415941772265383
-3.040050860974505
-2.1889706954919155
5.2632644087278075
-2.2113559802369314
-2.4558546797709138
2.7368572485669502
0.7817627731832041
-2.538771642067293
2.69666414191871
-0.2604186085408157
-1.0178107709293835
-1.019209195602162
0.480621830570842
2.231863760076723
-2.4062283990033806
-0.2703407875918829
0.5948980095333182
0.31897141608897156
-1.2128621540253257
3.4337616865794094
0.46070121494248256
-1.7134666349463588
-1.7843438336710404
-1.1021139093222099
-0.055669509829478
0.482474147276007
1.6631652725807928
1.156171069554198
0.8765768644297831
-0.6300701185589253
-1.1426033988421507
-0.8835681646152854
-0.6401503186963498
-0.5184443161647121
0.455945693869176
1.5004026714027867
1.2269046442246858
0.21236930291556605
-0.9945435312374503
-0.8343017540385709
-0.6883744243468897
-0.6508438909512065
0.06170137289181624
0.8623644524675236
1.126801130664464
0.7349897628532575
0.04683861534878652
-0.6786745983024491
-0.8309142769757799
-0.7858846939276873
-0.2616284752157749
0.29358938167934884
0.8815162935997201
0.7184405340439008
0.20534107857580813
-0.2809031919573463
-0.5730823162077601
-0.4867041839361971
-0.19687896044406356
0.168062708431885
0.1126087912778569
0.3456862261195151
0.14920839922122725
0.15494781037956598
0.1371284995134617
0.02229900454294877
-0.2877312008050016
-0.48851426948800347
-0.45152762207761704
-0.21676229724996984
0.599387670212153
1.9887273921746131
-0.8580130119680668
-0.34387992755161984
-0.24346698193452498
-0.6801052212044454
-1.720881236848228
1.3991769607119369
0.8270731518301708
0.6349154028214067
0.582705107841841
0.12135851340808794
-0.16030134020033715
-0.6594255806818575
-1.4817213738135597
-0.9938710040990908
-0.02840285951248565
0.8558268582943928
1.078247752471871
1.544335670946396
0.9961989004680332
-0.37038057462027973
-1.4265437487658772
-1.4004875761169056
-1.1839586655533134
-0.6961327631684715
0.6784108754822191
1.5929052840608553
1.6240293204330918
1.1897894420612607
-0.26376885774791514
-1.0002872430957241
-1.481431080923366
-1.2528390771290994
-0.6745478011584752
0.4771045418398579
0.9389357414752957
1.2513174406325724
0.6519434685443544
0.21033864997634055
-0.17838971461719078
-0.5453238262325414
-0.9680077783753636
-0.48974587729667624
-0.06433695235691163
0.2602624140948916
0.3217265417101932
0.40119540803676346
0.37827196232974875
0.09919423200436982
-0.23375922121200243
-0.25279203539676515
-0.2032530288437933
-0.12117057240242866
-0.01821303260652647
0.12226195174197542
0.1393675839128599
0.08347509183196845
0.0046153853600578625
-0.056056495903058286
-0.07067150634199389
-0.025719859590695133
0.078850700353783
0.03165986107536752
0.0129509396432325
-0.0011897463489329533
-0.03378409959213704
-0.10211469559076654
-0.014452830329396902
0.030599206012790856
0.042053755294710005
0.03273201414948253
0.015227121307331112
-0.001041659791615044
-0.011062294522414045
-0.013875649668080995
-0.011232361293546905
-0.005978964747394014
-0.0007369988715528996
0.002842558575755417
0.004239795768434547
0.0038116542988173977
0.0023569753447996744
0.0007036911159519684
-0.0005610367152893598
-0.0011861198488942082
-0.0012117815939470264
-0.0008502254353485215
-0.0003564019317859685
6.714572650116544e-05
0.000314174803481482
0.000372499396665508
0.0002932465222166444
0.0001516622489838189
1.479145292842963e-05
-7.641540836498204e-05
-0.00011028748781209176
-9.731910472312523e-05
-5.87566939989513e-05
-1.602466346968283e-05
1.602070511140167e-05
3.13116307330512e-05
3.123325562926381e-05
2.145455553987001e-05
8.587322946402945e-06
-2.221818726820238e-06
-8.35816418270207e-06
-9.62438318230969e-06
-7.414245558498535e-06
-3.6936594071846664e-06
-1.7752706170211605e-07
2.1128201843535302e-06
2.913377301214435e-06
2.5216524131722433e-06
1.4976742160932877e-06
3.929472038821859e-07
-4.1839081049109356e-07
-7.910944515848166e-07
-7.700386594994407e-07
-5.064017282553009e-07
-1.7148298107491944e-07
1.0410237678474567e-07
2.562106935388672e-07
2.827590654037096e-07
2.2158233362162683e-07
1.2397498217738785e-07
3.375301211912522e-08
-2.3662442162238744e-08
-4.2416346436199295e-08
-3.08596452389317e-08
-3.727920660263049e-09
2.4798365571255982e-08
4.531182552688608e-08
5.435864237916558e-08
5.332904237527217e-08
4.624475792720174e-08
3.7538499315630706e-08
3.052078697355719e-08
2.6759784051724338e-08
2.6232203615068132e-08
2.7915047979252266e-08
3.047176031052287e-08
3.2784155056032795e-08
3.422089725849035e-08
3.465556747039351e-08
3.4320646664403214e-08
3.3603212568326975e-08
3.286746162158652e-08
3.234954669822496e-08
3.213096408583961e-08
3.216994024082126e-08
3.2359730065724635e-08
3.258576426921797e-08
3.2764248499725624e-08
3.2856990107923496e-08
3.286655984722739e-08
3.282051943118197e-08
3.2753648881971703e-08
3.2694450232666086e-08
3.265856553229881e-08
3.264862223152481e-08
3.2658193633979206e-08
3.267712814016203e-08
3.269608278604966e-08
3.270913963579308e-08
3.2714393264224854e-08
3.2713071277235395e-08
3.270800087235343e-08
3.270213977889704e-08
3.2697606023695594e-08
3.269532586675649e-08
3.2695182659624626e-08
3.269643623915004e-08
3.269818272188962e-08
3.2699696486001516e-08
3.270059096996778e-08
3.270081468857571e-08
3.270054422678453e-08
3.270004541472979e-08
3.269955765885393e-08
3.269922899330327e-08
3.269910347662672e-08
3.269914563940664e-08
3.2699280752060096e-08
3.269943254615392e-08
3.2699547561996176e-08
3.2699603441957364e-08
3.269960447956418e-08
3.26995704927321e-08
3.269952494253031e-08
3.2699486279436894e-08
3.269946403020963e-08
3.2699459104541155e-08
3.269946667611142e-08
3.269947979417453e-08
3.269949233119623e-08
3.2699500591235444e-08
3.269950356939196e-08
3.269950227683139e-08
3.269949868504382e-08
3.269949475839064e-08
3.269949184419762e-08
3.269949047926842e-08
3.269949052021283e-08
3.269949143801152e-08
3.269949262462515e-08
3.269949361159275e-08
3.2699494164763366e-08
3.269949427111971e-08
3.269949406147001e-08
3.269949371673418e-08
3.269949339315199e-08
3.269949318284794e-08
3.269949310906799e-08
3.269949314474827e-08
3.26994932398607e-08
3.269949334552015e-08
3.26994934282825e-08
3.2699493473688964e-08
3.2699493482099663e-08
3.269949346150293e-08
3.2699493421497864e-08
3.26994933707819e-08
3.2699493318154226e-08
3.2699493275104955e-08
3.269949325710651e-08
3.26994932810776e-08
3.269949335814213e-08
3.269949348336598e-08
3.269949362683264e-08
3.2699493732094516e-08
3.269949372751318e-08
3.2699493552455735e-08
3.269949319386161e-08
3.269949272086922e-08
3.2699492299028715e-08
3.269949216506966e-08
3.269949255170728e-08
3.269949357058337e-08
3.269949508681719e-08
3.269949664220986e-08
3.269949749325249e-08
3.269949681187003e-08
3.2699494044423655e-08
3.269948934388407e-08
3.269948390463586e-08
3.2699479978377493e-08
3.269948037816729e-08
3.2699487417933534e-08
3.269950148240894e-08
3.269951971774715e-08
3.2699535558164466e-08
3.269953980714594e-08
3.269952364269604e-08
3.269948318236507e-08
3.269942426366164e-08
3.269936520899034e-08
3.269933504265646e-08
3.2699365398868855e-08
3.2699476446686603e-08
3.269966029560486e-08
3.269986859749938e-08
3.2700012890617536e-08
3.2699984911969765e-08
3.2699698458078354e-08
3.2699144671667825e-08
3.269844130082739e-08
3.269784815625626e-08
3.269772152929547e-08
3.2698394605330235e-08
3.269999985246621e-08
3.270228723627029e-08
3.270452542502738e-08
3.2705582843654974e-08
3.270425302114478e-08
3.269980568983913e-08
3.2692623078003287e-08
3.2684657267793137e-08
3.267937936497495e-08
3.2680950562287665e-08
3.269257197468357e-08
3.271434981185916e-08
3.274144665721831e-08
3.276359600217666e-08
3.2767010557921466e-08
3.273913331598042e-08
3.2675539966732046e-08
3.258683975137779e-08
3.25021729708168e-08
3.246560610864055e-08
3.2523078673304456e-08
3.270085052167101e-08
3.298113783684631e-08
3.3285313008182325e-08
3.347733814609144e-08
3.3397484360951285e-08
3.2927298118938365e-08
3.207193482683914e-08
3.1029364612765845e-08
3.0204724631608305e-08
3.013090615682259e-08
3.128008836999847e-08
3.379580056044181e-08
3.723142965683877e-08
4.042778247895238e-08
4.167075396230579e-08
3.921398173163349e-08
3.2120762586891266e-08
2.1195628419222183e-08
9.59852485400764e-09
2.6546868286176424e-09
6.487065502773596e-09
2.5461844073855274e-08
5.901701948978412e-08
9.907889588379637e-08
1.2968093166234305e-07
1.3025109376211383e-07
8.307696545593356e-08
-1.6305437630731685e-08
-1.4922193281429002e-07
-2.69633043122869e-07
-3.109394368014325e-07
-2.0686973098495778e-07
7.566939518694628e-08
5.010266252113843e-07
9.424741138613634e-07
1.1917976690795932e-06
1.0146113491670918e-06
2.5067628832378247e-07
-1.0640933697031446e-06
-2.601476336041128e-06
-3.733033555041947e-06
-3.665558862296631e-06
-1.7363496573427382e-06
2.1844527749194873e-06
7.3205875156900875e-06
1.1846290028830624e-05
1.3176898552827744e-05
8.802136136302692e-06
-2.4336027961621122e-06
-1.897545528375576e-05
-3.575111618582584e-05
-4.462893580803928e-05
-3.6649620581438025e-05
-5.961175509035313e-06
4.5493495963842715e-05
0.00010440958288370736
0.00014608223079336322
0.00013996430317884568
6.13290797109778e-05
-9.316617237454421e-05
-0.0002914213719013819
-0.0004611407679872853
-0.0005021283208681895
-0.00031946404004450205
0.00012667498109261005
0.0007694519313983357
0.0014064855138092378
0.0017210706251136645
0.0013721692003095768
0.00014877941745288956
-0.0018500150700874855
-0.0040832434022696285
-0.005577846431675812
-0.005158490920933044
-0.0019142471518519652
0.004185432578795366
0.011732950466311412
0.017675116667850016
0.017734647578230258
0.007578485581403703
-0.01545810331660753
-0.05065810859090054
-0.09304544135825994
0.06593598759189591
0.03607348272051174
0.025134604123396027
0.036073482720512175
0.06593598759190103
-0.09304544135824443
-0.050658108590871526
-0.01545810331656872
0.0075784855814395044
0.017734647578242776
0.017675116667817906
0.011732950466222927
0.004185432578660214
-0.0019142471519947685
-0.005158490921017501
-0.005577846431626035
-0.0040832434020317545
-0.0018500150696691838
0.00014877941795039828
0.0013721692006871027
0.0017210706251154198
0.0014064855132161107
0.0007694519301572222
0.00012667497943896647
-0.0003194640415351963
-0.0005021283213666925
-0.00046114076667198834
-0.0002914213683676626
-9.316616707621711e-05
6.132908518704304e-05
0.00013996430623710492
0.00014608222852326882
0.00010440957331124762
4.549347956796975e-05
-5.9611946086643505e-06
-3.664963454152651e-05
-4.4628934765656475e-05
-3.5751091946778455e-05
-1.897540632940929e-05
-2.4335389065159006e-06
8.802192144380452e-06
1.3176914503319389e-05
1.1846234811424287e-05
7.32044703650461e-06
2.1842467797031108e-06
-1.7365576719700186e-06
-3.6656675462196087e-06
-3.7329316810093702e-06
-2.6010918851767127e-06
-1.063451792802388e-06
2.5140801132544714e-07
1.0151247922945476e-06
1.191712740378438e-06
9.41484557641764e-07
