0
1.7310107866301957e-06
2.7407724375700785e-06
2.9853610342710583e-06
1.9001086224577965e-06
-7.520333326476949e-07
-4.573511577009841e-06
-8.359750080207804e-06
-1.0224366253614174e-05
-8.133073333798488e-06
-8.203660353290602e-07
1.1140590961574823e-05
2.4553208938797413e-05
3.365009775389142e-05
3.144317114409986e-05
1.2458976723620851e-05
-2.3684744377348588e-05
-6.913559043400024e-05
-0.00010689667108013523
-0.0001138952870184729
-6.882709365664858e-05
3.63181103024591e-05
0.00018459207939391662
0.0003279531696614175
0.00039289341859354904
0.00030188146571640624
9.233950425479313e-06
-0.0004578872408507567
-0.0009705786499822703
-0.0013026587975938032
-0.0011856432502126834
-0.00041643371265651606
0.0010047957119684399
0.0027570128560620772
0.004170886041500842
0.0043574861643245555
0.002520499724554069
-0.0015953338833832105
-0.007261822448501811
-0.012553872028480089
-0.014606858472539742
-0.010499990248000128
0.0012882097957824547
0.019202831867929798
0.03735016436768942
0.04541167080182632
0.030309723459778958
-0.020368264097363798
-0.11401819908361453
-0.04931311450842828
-0.01485486482024553
0.008851012229506667
0.044490359392628485
0.11177001032606862
0.022201699836741185
-0.0233436671124267
-0.03365631945772817
-0.02345564100980765
-0.008407538233626303
-0.00045419482915110465
-0.004564588536837589
-0.017464027507548094
-0.02848724396968499
-0.022395620869610975
0.016341263749699925
0.09874362164089427
0.02732682736271787
-0.005783281368389056
-0.017965919508148628
-0.03280443549169996
-0.07553258899150134
0.031421859324373046
0.07189815078177673
0.03830090606511784
-0.06697989423001928
-0.030921189705414152
-0.03043044194019393
-0.034814923430900487
-0.010450141079853559
0.0729195305078061
0.03568227443303612
0.08355359846646258
0.0061185070332303955
-0.020573446305831782
-0.027976186176209655
-0.04734521448112135
-0.10266227360166334
-0.006219774503767932
0.04206686018368873
0.05189976905899232
0.03785271946656198
0.01454996206390684
-0.006740083231732153
-0.019525483927727696
-0.021828215561242575
-0.015013810689090674
-0.0024927893482944038
0.011253729781937625
0.021301048937845807
0.022846755630730017
0.012047353500974915
-0.012784630835944064
-0.04995249744106454
-0.09380530920732287
0.06448419369896143
0.03463453261105061
0.024151019592237602
0.03568498413206922
0.06604797894118546
-0.09264626397729553
-0.05019484396279668
-0.01509306158018976
0.007768572304397775
0.017747898382584948
0.017556392785148766
0.011545276949995192
0.0039909589429839845
-0.0020621720243915293
-0.005216993250647092
-0.005517159556346059
-0.003895329365614516
-0.0015626510058488294
0.0004595461068032282
0.0015828315972285
0.0016859447852948441
0.0010114891905809709
4.957780362087019e-06
-0.0008461195417807853
-0.0011464184386227464
-0.0006961227516936168
0.00043697988927099993
0.0018885369140656983
0.0030394229937463916
0.0031597234652436974
0.0016651607211536936
-0.0015531774752249319
-0.005830707298886272
-0.009622443737057392
-0.010753928409808695
-0.00712331754287209
0.002215388804007038
0.015880999425941737
0.029403173131951656
0.035439291614922284
0.025366468076346453
-0.007823904644844122
-0.06608589700383063
-0.1437248993917241
-0.027196356544224597
0.10186698799784502
0.06105130672841716
0.061107066872786366
0.10204568939329324
-0.02687577576546828
-0.1432746494023211
-0.06559138409640701
-0.007462416493317897
0.025354613903601966
0.03483731299367312
0.028147831331018665
0.014192473294600364
0.0006599401546700927
-0.007708724087859234
-0.009517340280953733
-0.0061100434117850435
-0.0004433514233159146
0.004154929369311204
0.00508552152955605
0.0013089250647925759
-0.006179276972595287
-0.014349814807521387
-0.018773938420978648
-0.014993135251639096
-0.0005241032361025936
0.0229393469218063
0.04792579949259512
0.06117098946054072
0.045968050830695786
-0.01304996848551958
-0.12374291647015874
-0.08104334216472796
-0.06481987585792462
-0.04281785654064712
0.021298458816435297
0.15689464113236357
0.17600943939751496
0.0677489071765187
0.00015050153646475593
-0.0705041770923069
-0.18597345186952485
-0.1729065293922266
-0.035161287528916264
0.045617590665035776
0.10165172504493704
0.1664031740320118
0.06254083712202058
-0.005334152934417577
-0.05128482881763687
-0.1026465541050415
0.008883487719989211
0.05682966437850183
0.028059049802253596
-0.07178806530401015
-0.0163935575232672
-0.16127447887107096
-0.051444185141331006
-0.033986422800224673
0.12649848253982032
0.23366874125518217
0.25175800414956073
0.10903761624001584
-0.08609343140461968
-0.21964884501086152
-0.3448961913132148
-0.26306484889256965
-0.11961627244357845
0.18148898809941166
0.34980230387552996
0.2762925640129802
0.20828200333516736
-0.060507019521390315
-0.18286124027629588
-0.23835150135435246
-0.10919138968473653
-0.05993420903041435
0.07379384889867328
0.08652433472808256
-0.0035064018912731496
0.03534275146561141
0.037592144912713045
0.032452872020623434
0.03936908891114642
0.0676132245541679
-0.08081940743715925
-0.20684703580048813
-0.11100277691720342
0.006639962439885123
0.14301813870646005
0.28745973886835474
0.22000499090383252
-0.08391850202621572
-0.24239293018758049
-0.25375383227364723
-0.28814235857405834
-0.08990575846427372
0.2075683455828194
0.45898259104200534
0.2852060496681468
0.06186524023970693
-0.07611272029123234
-0.21546892920076313
-0.438724442281101
-0.20163953100019316
0.07774817193546128
0.2157720859802168
0.24910580754384112
0.21774395708696997
-0.04741599871848636
-0.1284819459971569
-0.2169342722879372
-0.10684438682643053
0.010223240839613257
0.1460611876121534
0.11310328740236773
0.12102348909115558
-0.024454313292117152
-0.11954581117700458
-0.1587258681153479
-0.1324928555770444
-0.029342482670351906
0.15751692395702235
0.22117808341055023
0.13434889539978478
0.04938461187033571
-0.09312001070544715
-0.14909759068134293
-0.15411455474454022
-0.1107505914833489
0.015256363660415717
0.08864980637269858
-0.01010478478093301
-0.003926082029839591
0.16221848817982573
0.10746717201348445
0.009317266399196854
0.007539564763661836
0.017088213012571973
-0.05281145238683072
-0.07765198172952864
-0.09947526220846993
-0.11592146031382893
-0.07956776759366939
-0.10846695422030762
0.0939545444886985
0.21431057761973105
0.3067575566970513
0.17964357867440162
-0.004031106023587289
-0.3124402375791204
-0.22240729051716954
-0.1970549478837839
-0.07150690372998142
0.1495531141050799
0.28400075394782176
0.15960890640527564
0.0030340731051702132
-0.16548979038908823
-0.1316688445428416
-0.08388968749984156
-0.010764131202256942
0.09870802390029566
0.25312790716970374
0.05727898135809197
-0.08657231251719373
-0.17472256666461736
-0.19813969934404393
-0.1425057625417617
0.005356251405342914
0.24571886215456168
0.3537328555715298
0.27366612902444937
-0.0748756436331463
-0.17799661614500106
-0.3011435001399185
-0.2648509034032594
-0.23227691127485786
0.08576453268231521
0.20890853444370722
0.2552512974098347
0.10954454908173604
0.201485246721102
0.10033935859924346
-0.07312246296981109
-0.22156124041463593
-0.24087577852516176
-0.1942682076690107
-0.09827779487831236
0.07582025749219354
0.1872144797512848
0.3037107332384182
0.08097782815270578
-0.050442736364701375
-0.08761484148597772
-0.0488055857925118
-0.16264176321187143
-0.05769235455228263
0.04411872109337329
0.12922870467533137
-0.009540672287151586
0.023672094293138216
0.025130580976674307
-0.009457234405461833
-0.08436776053353358
-0.0025962530014890426
0.0351420286466018
0.030558669388778065
-0.012941601727705207
-0.0916157660297239
-0.0031630497068146197
0.05125365916585712
0.06531037385710041
0.027234657665448667
0.12206363308937924
-0.0631758521866872
-0.1323437304468858
-0.07344238791486601
-0.055122956834210604
-0.028545021167217556
0.06516094669582853
0.08364106027030357
0.07146616753397465
0.05107635574894238
0.018947059178643515
-0.05230256137114356
-0.006901424138095293
-0.09628548395605184
0.030529066680429717
-0.06566407103478775
-0.010401764665457018
-0.015446123440319265
0.11831460825246513
-0.0035772384751167666
0.026563162595373505
0.015705589742850072
-0.030949912085134475
-0.10976730144418224
-0.018242080975844028
0.04480929720870969
0.07841868915645914
0.07894724122279065
0.0411740818063032
-0.038419703911499736
-0.15703621811431714
-0.10181962667095265
-0.049494827017862585
0.02928973328124969
0.16182339325506875
0.16442900939588942
0.036606732758373096
-0.03908509833109886
-0.09126197149309782
-0.15051306805531156
-0.04052800131652635
0.027234677766663707
0.054031206782282036
0.05031266696385979
0.03036550404614304
0.007358876369474544
-0.009773948682644855
-0.017267041870398847
-0.015735098847435645
-0.008500128599159893
0.00019163506727606106
0.006579917680242071
0.008275760000436649
0.004689331249871043
-0.0028808055412848275
-0.01145877874362033
-0.01698175285784435
-0.015390125563015344
-0.004226488125508426
0.01551600941118768
0.03788859889375656
0.051643315822912324
0.04178746545294144
-0.006744889956469557
-0.10397573949735069
-0.049909760108965306
-0.03170151229979115
-0.024479721203725657
0.0038858331046425798
0.08521336237485864
0.042825414647999945
0.08527846740446113
0.004014007338298524
-0.02430135046409092
-0.03150873839965453
-0.04976753837735181
-0.10396939448881173
-0.006951507918164218
0.04134364992482053
0.05103699758521279
0.037317417103205734
0.015276823818630577
-0.003825381392449386
-0.01417449671467281
-0.015075896741145215
-0.00939828450753232
-0.0015875858459915165
0.0041376827699143625
0.005088089819309121
0.0008098284138699287
-0.006796316458173455
-0.013941239025032257
-0.016019131350627863
-0.00924580408911277
0.007367764560223211
0.030230767405100493
0.0503617868441677
0.05437065918864285
0.0276794717278045
-0.04039709540897612
-0.1511701412400632
-0.09297641171206861
-0.04166308898279976
0.033967090793484034
0.16305168241530174
0.1631623844819228
0.0342557147422981
-0.04131828390868784
-0.09274777423776802
-0.15123167961888168
-0.0408566977763988
0.026853298990680553
0.05340078458793011
0.049657593569039524
0.030295084193001826
0.008607765171377043
-0.0067690745216689085
-0.012816875218745045
-0.011174048869546717
-0.0060777476864811485
-0.002054006338336038
-0.002009614990124395
-0.006129341764354999
-0.01177246814653708
-0.014401226326807844
-0.009409058250684556
0.005505890268057968
0.02805537684316001
0.05004001134672272
0.05790526751734796
0.035736199215708364
-0.0295626209021925
-0.14227380936127512
-0.0933787031797459
-0.06000730698540659
-0.010130975462571195
0.08831003457801208
0.256846880329934
0.09868006641481458
-0.002805295653456616
-0.07814296162157021
-0.16076424735071287
-0.27555762733980516
-0.03197628656688476
0.17551570578551945
0.16052308270812427
0.13540189129208285
0.1045271021149484
-0.1367228145396928
-0.19748939399464574
-0.08457422984994814
0.0028380310700087488
0.0743727785540781
0.1457104657633315
0.03405610488857811
-0.045673126573975174
-0.08268401690434818
-0.0705818763659514
-0.00738261189895673
0.10383288689821797
0.05388828704923827
0.027300643089297118
0.0040304567858388115
-0.036652583811694034
-0.11127225250555733
-0.02804470487940749
0.014751819858809688
0.027244853770780234
0.023869919991179277
0.018218588778972273
0.018540654250557214
0.025230880069050093
0.031003891995923228
0.02377987000110601
-0.00840215648278691
-0.07184658292588823
-0.16301747947160586
-0.06773936070235065
0.035089188094291346
0.1660214090392277
0.1366664956058086
0.14421372629310036
-0.02824615146951585
-0.20540504008273053
-0.21028243870391614
-0.05616833708467075
0.05630566139630772
0.13614663854836537
0.19544247496427689
0.043287198861211885
-0.11660428050100734
-0.08391550435723094
-0.057270885896098744
-0.030285081967462494
0.009599425500616827
0.07886885823286308
-0.0068090777140501465
-0.038199466035654765
-0.017405373236077194
0.039124927691087406
0.10046688131737047
0.12491196649276433
0.0680376341574755
-0.1055680938890414
-0.20967144183622705
-0.2273598405362039
-0.11026719165579134
0.011549473831731523
0.21080074669532178
0.3411365670811613
0.2203987875386256
0.02585812060676319
-0.09609237390878213
-0.2091520275019233
-0.36321364809950896
-0.1767057734034835
-0.03210907672015476
0.1137150910542485
0.3088301750585992
0.3839663707587858
0.13822913334412135
-0.06107331012747545
-0.2645334997744148
-0.3190049862272856
-0.2479084446972096
-0.04205850159076426
0.13534477829513747
0.3322525003352407
0.18733133359850573
0.1142282087498073
-0.10352790886803463
-0.10603327559519372
-0.14262170800044494
-0.05562183165567965
-0.0678946329712941
0.02248107914647582
0.039804644535765786
0.022345428377034692
0.010918317243182535
0.03768559185416104
0.11798902888502082
0.04721089912318169
0.0035398571333721458
-0.043989083066630505
-0.12444614906885111
-0.05433288785885739
-0.030677356468103784
-0.03013238498638195
-0.014480173828128383
0.058860619759303304
0.024048523471784083
0.0951306762973157
0.05874583480586713
0.0736779744824268
0.07823597492727818
0.004510494360474296
-0.2035177047861192
-0.1727913999016653
-0.09032121601711941
-0.10285989480043597
0.07168940884024913
0.12364198156573929
0.1271973989629513
0.11917770086978331
0.08678478155316359
-0.03216263344956568
0.06373894370852233
0.06245533070461016
-0.13342083175693809
-0.1798274345040774
-0.27244533563427503
-0.14193275793844098
-0.06627541652668797
0.10131140738559243
0.295587310612985
0.4039007529820961
0.2430577076832401
-0.044040290853735335
-0.17093387438894492
-0.27543548283169467
-0.28370108829348
-0.28204914237583595
0.09564864208104097
0.2634526136727188
0.26649024356697126
-0.03976748527087675
0.19407110026097366
0.0037878186202443633
-0.1870382782301672
-0.36025788364404243
0.10377359707121422
0.028964421945047714
0.040832377866774475
0.1605118621407778
0.19920460223563294
-0.043713751037139016
-0.17799913221096234
-0.21719345290746117
-0.17443645878881398
0.13729824843100946
0.3002147010276485
0.08511330159026204
0.04795224376251472
-0.06717941162008323
-0.1188064183069618
-0.15572751837701457
-0.005920852381067644
0.1299726740429461
0.07943201689344695
-0.10617198634325846
-0.15953805809964428
-0.008296874918705772
0.011953598310496508
0.1442205650012759
0.19964656452021848
0.15400113416440245
-0.04610294383046598
-0.06751269954430703
-0.16917695032015212
-0.18144109398469277
-0.09256836463995048
-0.046999556183647984
0.04368554229019057
0.07991202535231122
0.14897160300221957
0.10233237993729358
0.14140392157617784
0.015509331913822625
0.03264779402332466
-0.11966591405062375
-0.14882696002444026
-0.13345195969006982
-0.10770504811371984
-0.05754714730697215
0.07051446176252898
0.15103739311909672
0.056972726779665674
0.03886667682983042
0.11110273515227105
0.048223599128940246
-0.008052385135088677
0.06723089513033469
0.0037579993710285344
-0.2423102098451574
-0.2724066430032982
-0.24121531871280388
-0.06733813046618418
0.1422391576924033
0.4607810931636318
0.5147114371338537
0.2722851958534225
-0.14536472616838622
-0.43301277705573504
-0.4611445040522818
-0.44261880999573555
-0.1198537172662256
0.22189921908189075
0.5200309545447712
0.2918231184990177
0.1989964603334137
0.031209243588324154
-0.08773879239241376
-0.275365767880591
-0.25738042649620496
-0.1370926199968491
0.023957371885733793
0.010374115075187368
0.04376810009394445
0.16534078818569223
0.21694128705723556
0.026753786495367093
0.003475191321822844
-0.06054087197901003
-0.18001536996385542
-0.1661679531698721
-0.019577077016075407
0.07079460785601206
0.12273970936750107
0.15309050188889145
-0.028927483847152397
-0.02441804385363298
-0.04299737995249382
-0.09787217005677652
-0.00013870906405436442
0.04575510012022832
0.04455044922530182
0.010927597517196923
-0.030949102369419532
-0.04882716593602162
-0.004960803410262087
-0.06031672726669365
0.019604069176549915
0.05809310325337817
0.06123444029164353
0.014459802755515394
0.08321749905561325
0.018331918064789513
-0.03471785410136378
-0.12473019114618984
-0.08502339152383963
-0.12816888746672145
-0.047236021654853445
0.17667094012516624
0.16336218269107328
0.12348519209185983
0.05370790966058711
-0.06082464679035021
-0.238050304062947
-0.08853257916394114
-0.007676748050659853
0.026200376024280405
0.047540440961145715
0.09501876476365531
0.0020123086482721577
-0.01103623871879515
0.059429253313092296
0.0003330248234345775
-0.014045104706491741
-0.015521345584678546
-0.03455159557189418
-0.09371417959329832
-0.0037331309351487907
0.03709578257666545
0.040286696127366066
0.022540640166031235
0.0007066443617837018
-0.012376489842346352
-0.0105048228943064
0.004910627140022098
0.025394391408283153
0.03737949980667627
0.025479492013186434
-0.02332306772002287
-0.1154714992436248
-0.04799547822280167
-0.008380079910088519
0.022359073720436405
0.064267292525532
0.13275362005628955
0.03496271218616926
-0.030217820203286717
-0.06857799432655791
-0.08522168233294851
-0.08013506335217464
-0.04705376138636374
0.023465327353462698
0.13781421126638604
0.09264383125133935
0.07100326623378372
0.043735718522364346
-0.02348086479423774
-0.15945282693722895
-0.17695466117130657
-0.06661713184884054
0.0018753982177321562
0.07114121166465943
0.18291469887076306
0.16514070622021443
0.02409919756689202
-0.055758529722852716
-0.10474886289016816
-0.15695654201226814
-0.03973577886478075
0.03271162202564987
0.06032277547921246
0.05370554849620288
0.028556280186677826
0.0003180327255756602
-0.01948171722305474
-0.02489378781519621
-0.015657326403804135
0.0035809004437076506
0.0245040668341097
0.036769188407841415
0.030229643067914917
-0.002235840432361125
-0.061767290249379526
-0.14152781523584435
-0.026986366479067884
0.10079556047706871
0.05952656506440274
0.059754706337668884
0.10115331095237286
-0.027320956946842435
-0.1434411357274568
-0.06563534390285838
-0.007409743663420729
0.02563037197205924
0.035532083720323134
0.029368784058256752
0.015787899060209023
0.0021213716264286892
-0.00719100984988909
-0.010800271909383615
-0.009671286425693272
-0.005903541536143979
-0.0016489212646045748
0.0015807178531707228
0.0031484017051055207
0.003167068200965748
0.002187821188576088
0.0008684706246448157
-0.00026662123800823745
-0.0009347956637469628
-0.0010882871695098383
-0.0008399999850470743
-0.0003732260987462816
0.00012858271813466767
0.0005185849656289349
0.0006962885958106173
0.0006070571741643324
0.0002471150588994579
-0.00032051328685909087
-0.0009479753825227604
-0.0014028154785832756
-0.0014090222296376524
-0.0007403031576971435
0.0006472489993760885
0.0024869447618476167
0.004147096304764559
0.004724020438072278
0.003325142081460393
-0.000485610184700995
-0.0062058036071171545
-0.012094485811362406
-0.015312613363863947
-0.012700119359829813
-0.002194956419378243
0.015397654786369888
0.03489283476831732
0.04626411996790858
0.0359201770929295
-0.010087498248642832
-0.10154607163909782
-0.03967600551373789
-0.014568765703818555
-0.005697592034345553
0.014377173878985532
0.07412944960199185
-0.0032854605816935007
-0.005121784672454767
0.06837360903179811
0.004398545930254971
-0.019167886015521246
-0.028623112522548382
-0.04883914567242247
-0.09885520940477531
0.010050570171187387
0.07349001082010738
0.09121984602572562
0.06434166238343236
-0.005825104441072514
-0.1166201522490488
-0.06163120760771391
-0.028893172829085774
-0.0013298516456578867
0.04018602905217728
0.11222272407931674
0.024535847460027706
-0.022070220804849456
-0.03501105057879616
-0.02683636449325823
-0.01113064016384655
0.001197906783954052
0.004317774229819782
-0.001773569513462162
-0.012079198458256163
-0.018759224878509933
-0.014260869258459898
0.005089739351595008
0.035819021320680836
0.06543231413988591
0.07307045133817773
0.033410737964056816
-0.07648367372154309
-0.06902131584736414
-0.13940109584255253
-0.06329053199289016
-0.0006248920022058601
0.09482544621718973
0.06272862228689137
0.12434389969375516
0.07558912026038682
0.08765100948285205
-0.08456094255980474
-0.08839098813376316
-0.15816077471662043
-0.10368579251784266
-0.10661766740447778
0.07387377613548728
0.08776044121062247
0.17759757717127972
0.16446759625938318
0.04137787445201647
-0.023564924524907254
-0.07542970480875544
-0.15655321773386793
-0.29241787723738943
-0.08475521840877041
0.08535512612797753
0.24574123129823927
0.2180336902895936
0.20618648653918908
-0.006031632384273085
-0.24755386548880207
-0.34642488102747726
-0.1169648187317908
0.046093061521796534
0.16425271643346234
0.2654359528525854
0.17352683031023686
-0.09724836974972138
-0.14093684524704939
-0.1534635028770836
-0.12583976123876522
-0.04140227286163212
0.12103878440762031
0.1795867754951781
0.14102414339899114
-0.003885446811500303
-0.07928311376351985
-0.11800327934068827
-0.1533797922616491
-0.012755803391565628
0.08500539867715841
0.1281510754415379
0.1090226599052471
0.022123177690786654
-0.13526638303940847
-0.16063185810958464
-0.0442636969570588
0.02994094129721401
0.08037736368083333
0.12204469830743979
0.162288346791703
0.0005854081729122796
-0.1669852170292761
-0.1405545540688063
-0.11035754483363006
-0.05538481326168246
0.05169476712954466
0.23491287027198585
0.10471056389353821
0.05162279133910414
0.04700857424076589
-0.14912174001139042
-0.17613919928533228
-0.06131053303869095
-0.013074988323304814
-0.021253580156715707
0.13645675895487067
0.08459443744905991
0.040419533002516515
0.0079427794762134
-0.02297976707113104
-0.07283063575411093
0.0344632423394162
0.07945107468124564
-0.1457177460443901
-0.03244132531803232
0.04569477339254619
-0.07000088592939362
-0.1304863670626193
0.11068243149316682
0.08599410639575088
0.2046920842310337
0.04888189360334117
-0.022844261851538955
-0.06470850312815188
-0.1292217413054162
-0.25377748467967914
-0.05310503437331434
0.07983987299967686
0.16539844731709524
0.22524452290168892
0.07241107243467705
-0.09251411343816145
-0.07810311221184645
-0.09418775764604567
-0.14363752437458832
-0.01774932118520552
0.1028030878963606
0.04205010237701046
0.02040825257876298
0.0472163501306597
0.11678655962577662
0.009343071394143547
-0.10330216677191402
-0.04902215988804836
-0.046402272885827996
-0.09846451767300655
0.008945882745398155
0.10378025234163603
0.020709344402242782
-0.007345691957713609
0.04326877184701954
-0.018014186641734445
0.0023322575056440227
0.08352388196759403
-0.005111492511515621
-0.0977778467990091
-0.025320245602558033
-0.009518011021537822
-0.06002723180595738
0.02542290131131144
0.058052834341134354
0.053605880203432835
0.028141878359680784
-0.004629547048691702
-0.034079199065128
-0.05209197119160379
-0.05247227452547137
-0.031518035038302125
0.009785114948069617
0.06262650924477843
0.1080149184805992
0.11737665731238726
0.05771665896396277
-0.09869734378609522
-0.16243755539893953
-0.11699377970581097
-0.11538940136767552
-0.0863033961808201
0.05039695232222731
0.16225933360397443
0.2832342302603104
0.2002083122563188
0.052624936342225814
-0.05331128109545331
-0.21951130665435054
-0.3278622678968359
-0.2184897912763416
-0.08184589816481218
0.13292182438011768
0.2969860152410565
0.27667474412576665
0.3138857699803422
-0.18095174840405953
-0.2221734084273641
-0.2333690514240099
-0.2315178889656448
-0.21849113339968834
0.4167372377791536
0.28760960343135566
0.197982016425895
-0.0641746984038674
-0.12379382382959754
-0.20826152681305013
-0.13513068623722896
-0.10410875767141657
0.10307749196372594
0.11518587530722721
0.1599017935268588
0.05320836172848544
-0.006217663428402046
-0.03596867513254941
-0.06334720375384954
-0.11622403407478722
-0.014664045388543939
0.034182635559952254
0.0369974953641126
0.01161275175491939
-0.017855937944705986
-0.026652104459971616
0.005236665706216334
0.0887371671151341
0.02316763783864733
-0.0037842995428259397
-0.013407188457256606
-0.03128900222158704
-0.08196638333357255
0.015594693422128174
0.05063585528419721
0.021117367585667433
-0.06745950291050778
-0.004282478457434918
0.023983781851425
0.03029797630380242
0.02484833120215031
0.01386445093261996
5.226730155788419e-05
-0.0155006976497786
-0.030677588461679135
-0.040002926332597784
-0.03365065642607351
0.0016351194951140658
0.07987270976711511
0.012355585586427147
0.004663157530356856
0.055268725623637056
-0.04385321237966053
-0.1050165221412967
0.05805734683479057
0.03283066429579171
0.009744640441781345
-0.016793859297418556
-0.04816340730651756
-0.08218489142653494
0.08509805051308313
0.05674596280251707
0.03226603252731155
0.006150401965214976
-0.03170376512846867
-0.09395886235623456
0.006823881000135426
0.060463757890135174
0.06066789144043252
0.0060340672104095576
-0.09911421346608687
-0.04427848022663223
-0.013466007517249245
0.012430753624995712
0.05187128075437291
0.11880574827075412
0.02036942557733715
-0.042765000753321965
-0.07355496273996377
-0.07478205595460852
-0.04634054004910642
0.014891603907386279
0.11250534639323953
0.04667199321814167
0.010924607800296826
-0.008802552244831244
-0.032475772913894425
-0.08239181064015942
0.020910411809035103
0.06211131753413556
0.033480200098766295
-0.06374295469553766
-0.018820230727975402
-0.012066614732687397
-0.016889437930380544
-0.003442058378944205
0.05654798019676601
-0.015292173826756158
-0.008164327103177379
0.07560957318036912
0.020856044542416144
0.002588401350686285
-0.008589079078403975
-0.039858916323325715
-0.11010348712764846
-0.02621626547431349
0.016920096342010697
0.03272366753400888
0.03675180298654942
0.04023677392250759
0.04552464010258701
0.04498038353045448
0.023870047230866564
-0.03349502624192072
-0.13625072316927028
-0.08080080393896844
-0.04858712709144363
-0.009234077826121337
0.07152399104748856
0.2217326506686372
0.054602121788137704
-0.03541542895402567
-0.07063823028451091
-0.08355042278257915
-0.1085365794589607
0.02506263878807227
0.09695481585124277
0.09715998074200072
0.025922334352211304
-0.10646548146165895
-0.07985901295676073
-0.06562374419985542
-0.03046875587159358
0.05705596209171071
0.21892170067329622
0.06161284478979142
-0.0255961870824239
-0.06709019395072961
-0.09348073238512085
-0.13338189492650784
-0.00757933631525035
0.07265769924679923
0.10352098322698244
0.0850120393638218
0.01827902727478167
-0.09451039546187322
-0.04800259794958905
-0.030875155275040752
-0.024438479186537958
-0.003869526076848964
0.05788519984478353
-0.015469581194633658
-0.009312281816205909
0.07754840115948795
0.031160160061377052
0.024128691986044774
0.020835082662359856
-0.014662591508790934
-0.10985695781280717
-0.07662224392068574
-0.10808191756733526
0.019047213902148846
0.13702471466695984
0.07695802141381852
0.059537700088712876
0.08987094813871996
-0.04203701423120428
-0.15584141456671563
-0.0729942511047227
-0.009690114058752424
0.026930908744319117
0.03865185032817346
0.03314719303885048
0.019886619187542153
0.006652344137912959
-0.0023557368210782715
-0.006643272155216359
-0.008183220578426194
-0.00953076447093486
-0.012053034682299405
-0.014904267115730481
-0.015135607774070435
-0.009012505918316606
0.005758405191793563
0.027574092852816992
0.04922958618271386
0.05799669313721067
0.03817769397246307
-0.023986023542186787
-0.13429525593861916
-0.08569442784357863
-0.05693199376478997
-0.01623879004098435
0.07045633481606069
0.2293260094122061
0.07022003778392172
-0.016605351584767867
-0.05724315480806183
-0.08573836975842918
-0.13391146359654182
-0.02315345703377968
0.039269195771980785
0.05893076904164054
0.04944187145804468
0.02654238590644783
0.0032786123444523926
-0.01254784498282795
-0.018590009303517115
-0.016529360542284176
-0.00999759131532449
-0.002695704904247824
0.0027972439243391877
0.005419084460592911
0.005398076994235787
0.0037063904165715055
0.0014824272748933246
-0.0003861731466914788
-0.0014478469955367696
-0.0016681260916251077
-0.0012874026037916519
-0.0006451249700128626
-3.761743285504768e-05
0.00035846434624399085
0.0004972648360771568
0.0004299926425490315
0.00025331070038759934
6.250708099947787e-05
-7.770990276104383e-05
-0.00014216104861875203
-0.0001385401193618952
-9.295805518464151e-05
-3.5055139367875255e-05
1.252585174840737e-05
3.863417783263756e-05
4.289458825343535e-05
3.191711514566361e-05
1.4732691642662146e-05
-8.614729814538899e-07
-1.0272957954725774e-05
-1.2434024979806192e-05
-8.986865515890117e-06
-2.98018978598862e-06
2.4042693613189614e-06
4.81060296485442e-06
3.2747372697688236e-06
-1.5751309141915903e-06
-7.654074752613414e-06
-1.1908322170020332e-05
-1.118731121090565e-05
-3.4534009673770737e-06
1.0902117513675042e-05
2.8101965983947133e-05
4.101098421443162e-05
4.071323953087774e-05
1.9801805227505038e-05
-2.3194470651159144e-05
-7.972728184777022e-05
-0.00012967759236672671
-0.0001445679852237183
-9.6730422131678e-05
2.6616756381887124e-05
0.0002084567467262154
0.00039308271629503436
0.0004911004473378768
0.00040392629680591376
6.702747800705753e-05
-0.0004985211911084505
-0.0011467396761834468
-0.0016061795628710674
-0.001540843889627965
-0.0006782319923430013
0.0010196731668743466
0.0032018862065127237
0.005076186995043049
0.005544433726602125
0.003567745932793364
-0.0012849484907081952
-0.008269280662268352
-0.01514884308283792
-0.01843526044712162
-0.014398608069360249
-0.000815642927595519
0.020942717117047864
0.044255211343001054
0.056992188146835814
0.043448332243630795
-0.011395208771348588
-0.11617360055704387
-0.06791272967953745
-0.04957389462332435
-0.03201777616556984
0.019513809814738336
0.13610790597579242
0.13610790598301734
0.019513809823518555
-0.032017776187401745
-0.04957389470953145
-0.06791272984215353
-0.11617360076600826
-0.011395208947296271
0.043448332214539045
0.056992188372618914
0.04425521186643786
0.02094271785567783
-0.0008156422131373094
-0.01439860774727271
-0.01843526090645068
-0.015148844552862245
-0.008269283006300284
-0.001284951061037476
0.003567744272010897
0.005544434322513187
0.005076190864512509
0.003201893343098825
0.001019681950004695
-0.0006782249355476443
-0.0015408430391157643
-0.0016061889403270744
-0.0011467605970083064
-0.000498550045328481
6.700030550627318e-05
0.00040391517331206736
0.0004911201701220038
0.0003931414697937848
0.00020854823079477028
2.6714883822212267e-05
-9.667015432881686e-05
-0.0001445972530713095
-0.0001298339414132377
-8.00074222732322e-05
-2.3532196436837907e-05
1.9539507260418078e-05
4.0699415313767255e-05
4.1396668448246714e-05
2.892897344728477e-05
1.2019041339040269e-05
-2.4287250248316494e-06
-1.081340590866703e-05
-1.2747182393837596e-05
-9.996221386430994e-06
-5.138864854771961e-06
-4.633571860625036e-07
2.6391457747549966e-06
3.778908539193133e-06
3.321362519562647e-06
1.995811733455097e-06
5.343810212725746e-07
-5.573150252887731e-07
-1.0746470879925186e-06
-1.0672395176130812e-06
-7.301186928076674e-07
-2.8949832433671275e-07
7.921361464252096e-08
2.8745256690581744e-07
3.2921984857389776e-07
2.5262994859831716e-07
1.250335416583048e-07
4.951134855548231e-09
-7.293213259753334e-08
-9.982838948877482e-08
-8.60762518228776e-08
-5.0892563359993166e-08
-1.3119467710368075e-08
1.4513437089403513e-08
2.7113609227029227e-08
2.627293500732359e-08
1.7189859431070497e-08
5.7238301002486796e-09
-3.674587765186518e-09
-8.834082594110196e-09
-9.702585034662465e-09
-7.585189043130516e-09
-4.238757053699633e-09
-1.1581686772859169e-09
7.936045464656078e-10
1.4225202409462235e-09
1.0183007950417135e-09
8.642254259369216e-11
-8.887426326721093e-10
-1.5872158893351911e-09
-1.89281375920861e-09
-1.8545309646139687e-09
-1.6105990797486058e-09
-1.3126091861043302e-09
-1.0733354998372354e-09
-9.458254397903963e-10
-9.287934325315326e-10
-9.869761869916037e-10
-1.0746073804572234e-09
-1.1535461147224135e-09
-1.2023696928765302e-09
-1.216913812870721e-09
-1.2052327638553797e-09
-1.1806004803543713e-09
-1.155454419880819e-09
-1.1378244538943286e-09
-1.1304476852955302e-09
-1.1318587781103574e-09
-1.1383902780323034e-09
-1.1461249691576836e-09
-1.1522090883801704e-09
-1.1553516367022811e-09
-1.1556530049698068e-09
-1.1540626695309304e-09
-1.1517712893678756e-09
-1.149750854306406e-09
-1.148531902208425e-09
-1.148200206513319e-09
-1.1485333638578594e-09
-1.1491833126542683e-09
-1.1498310050814551e-09
-1.1502752357915472e-09
-1.1504521165886046e-09
-1.1504045982094196e-09
-1.1502298842174047e-09
