0
-7.648155588850682e-05
-7.648155588850682e-05
-7.648155588850682e-05
-7.648155588850682e-05
-7.648155588850682e-05
-7.648155588850682e-05
-7.648155588850682e-05
-7.648155588850682e-05
-7.648155588850682e-05
-7.648155588850682e-05
-7.648155588850682e-05
-7.648155588850682e-05
-7.648155588850682e-05
-7.648155588850682e-05
-7.648155588850682e-05
-7.648155588850682e-05
-7.648155588850682e-05
-7.648155588850682e-05
-7.648155588850682e-05
-7.648155588850682e-05
-7.648155588850682e-05
-7.648155588850682e-05
-7.648155588850682e-05
-7.648155588850682e-05
-7.648155588850682e-05
-7.648155588850682e-05
-7.648155588850682e-05
-7.648155588850682e-05
-7.648155588850682e-05
-7.648155588850682e-05
-7.648155588850682e-05
-7.648155588850682e-05
-7.648155588850682e-05
-7.648155588850682e-05
-7.648155588850682e-05
-7.648155588850682e-05
-7.648155588850682e-05
-7.648155588850682e-05
-7.648155588850682e-05
-7.648155588850682e-05
-7.648155588850682e-05
-7.648155588850682e-05
-7.648155588850682e-05
-7.648155588850682e-05
-7.648155588850682e-05
-7.648155588850682e-05
-7.648155588850682e-05
-7.648155588850682e-05
-7.64815558885068e-05
-7.64815558885068e-05
-7.64815558885068e-05
-7.648155588850682e-05
-7.648155588850682e-05
-7.648155588850683e-05
-7.648155588850684e-05
-7.648155588850686e-05
-7.648155588850684e-05
-7.64815558885068e-05
-7.648155588850676e-05
-7.648155588850672e-05
-7.64815558885067e-05
-7.648155588850672e-05
-7.64815558885068e-05
-7.648155588850694e-05
-7.648155588850709e-05
-7.64815558885072e-05
-7.648155588850717e-05
-7.648155588850697e-05
-7.648155588850656e-05
-7.648155588850603e-05
-7.648155588850561e-05
-7.648155588850552e-05
-7.648155588850603e-05
-7.648155588850721e-05
-7.648155588850889e-05
-7.648155588851053e-05
-7.648155588851129e-05
-7.648155588851027e-05
-7.648155588850697e-05
-7.648155588850168e-05
-7.648155588849584e-05
-7.648155588849203e-05
-7.64815558884933e-05
-7.648155588850195e-05
-7.648155588851804e-05
-7.648155588853792e-05
-7.648155588855402e-05
-7.648155588855619e-05
-7.64815558885353e-05
-7.648155588848824e-05
-7.648155588842302e-05
-7.648155588836125e-05
-7.648155588833535e-05
-7.648155588837892e-05
-7.648155588851082e-05
-7.64815558887173e-05
-7.64815558889399e-05
-7.648155588907826e-05
-7.648155588901532e-05
-7.648155588866525e-05
-7.64815558880339e-05
-7.648155588726916e-05
-7.648155588667049e-05
-7.648155588662929e-05
-7.648155588748946e-05
-7.648155588935027e-05
-7.64815558918755e-05
-7.648155589420628e-05
-7.648155589508112e-05
-7.648155589322382e-05
-7.648155588796384e-05
-7.64815558799184e-05
-7.648155587143566e-05
-7.648155586644227e-05
-7.648155586942437e-05
-7.648155588354155e-05
-7.648155590829976e-05
-7.648155593767407e-05
-7.648155595986761e-05
-7.648155595977506e-05
-7.648155592450648e-05
-7.648155585102561e-05
-7.648155575336561e-05
-7.64815556656208e-05
-7.648155563678853e-05
-7.648155571527255e-05
-7.648155592468415e-05
-7.648155623781589e-05
-7.648155656055302e-05
-7.648155673942002e-05
-7.648155660276122e-05
-7.648155603478367e-05
-7.648155506504642e-05
-7.648155393826008e-05
-7.648155311856964e-05
-7.648155318818165e-05
-7.648155462896876e-05
-7.648155752675695e-05
-7.648156129915134e-05
-7.64815645946948e-05
-7.648156551250361e-05
-7.648156222015376e-05
-7.648155389646948e-05
-7.648154172317362e-05
-7.648152946505734e-05
-7.64815231139143e-05
-7.648152922829544e-05
-7.648155203029741e-05
-7.648158996868491e-05
-7.648163313234729e-05
-7.648166328234611e-05
-7.648165800667148e-05
-7.648159934311438e-05
-7.648148521417736e-05
-7.648133967088261e-05
-7.648121620578662e-05
-7.648118847963963e-05
-7.648132572625231e-05
-7.648165606326246e-05
-7.648212877014254e-05
-7.648259352409774e-05
-7.64828166696721e-05
-7.648254799961285e-05
-7.648163445444918e-05
-7.648015194060991e-05
-7.647850082123848e-05
-7.647739693457591e-05
-7.647770192718095e-05
-7.648008325026057e-05
-7.648457251038796e-05
-7.64901808292661e-05
-7.649479386016593e-05
-7.649556052027854e-05
-7.64898704325193e-05
-7.647678008062452e-05
-7.645844528907522e-05
-7.644085774641295e-05
-7.643311864486987e-05
-7.644475829708395e-05
-7.648128849681666e-05
-7.653915373228983e-05
-7.660222046287412e-05
-7.664242734805174e-05
-7.662669112948117e-05
-7.653029579490398e-05
-7.635392969438989e-05
-7.613809178801146e-05
-7.596624032238932e-05
-7.594859796694848e-05
-7.618336694748033e-05
-7.670135613770695e-05
-7.741168068700368e-05
-7.807591694377543e-05
-7.833996594115562e-05
-7.784141836917935e-05
-7.63833329954538e-05
-7.412733574356147e-05
-7.172209094607191e-05
-7.026631977309337e-05
-7.102855708948125e-05
-7.492055917863156e-05
-8.18408880530702e-05
-9.013681258072058e-05
-9.65183862119348e-05
-9.672950265998632e-05
-8.708459429392488e-05
-6.661610563936175e-05
-3.9128940027756626e-05
-1.4095414297796122e-05
-5.276666196950356e-06
-2.6430273367048998e-05
-8.452819682765747e-05
-0.00017238229069065975
-0.0002639678051723715
-0.00031631556469274266
-0.00028085301950349123
-0.00012408957477344588
0.00014712410025885856
0.0004655559980534987
0.0007016772537279351
0.0006913350529049523
0.0002965503204460003
-0.0005112946389906944
-0.001573876608148372
-0.002515441357554705
-0.0028017470179566035
-0.0019112738598365971
0.00040056538545487323
0.0038205344529253105
0.007308894987432467
0.009191408270200992
0.007618225000533949
0.001376617179053066
-0.009137878225478431
-0.02118005985166322
-0.02964651182001706
-0.02823990665269204
-0.011935246289315632
0.01966856833655238
0.05917169598735607
0.08990729479966587
0.08770311841708454
0.026612505836033765
-0.11216705458113392
-0.13079348714255978
-0.20855701303960822
-0.10255624506617313
0.04322252197600117
0.2823726934667144
0.24935660988398464
0.14824605082197356
-0.048225101143407265
-0.18879240180387663
-0.32726586123254553
-0.10660566847006737
0.05031781991412482
0.14082244036897523
0.1754645650078931
0.16898725054702185
-0.06600411496606118
-0.12039438012235457
-0.18603465122729806
-0.052586780978534683
0.09318339327283742
0.06468420924272418
0.07082916413968686
0.11215698324211487
-0.020000266392967557
-0.1407179419798228
-0.0663450458342078
-0.009418293132285685
0.024278640944650647
0.035770892493198495
0.0307678064465947
0.01677299337036288
0.0006965237814272312
-0.012401002940951011
-0.019492808953155475
-0.01920865904924729
-0.011502071469683704
0.002252626466061742
0.018747536508790755
0.0322169696492777
0.034500086348301894
0.016155663304256003
-0.03138163336974179
-0.11327204730674367
-0.029516754939483497
0.024997375318234354
0.05849304023414132
0.07933330826014287
0.0937467069712523
-0.09445025912867146
-0.08206975205346373
-0.06402186334663239
-0.03193399848429393
0.024833923691918888
0.1160062117770937
0.046633246140895215
0.014815455234521479
0.012300739953390708
0.027955968774997446
-0.14730380883194857
-0.11644662617945974
-0.0754835837128124
-0.017162270773855407
0.061604389317197195
0.3517753520044449
0.2283604337998475
0.05475076331231976
-0.2040822797752765
-0.36367443124072935
-0.40547943465652075
-0.07389366098682242
0.1110550764946404
0.4283368635086029
0.32719149600697345
0.20667565543010707
0.01213666662265139
-0.14951898080623885
-0.3812680274863835
-0.16446129503514273
-0.13527725292471274
-0.07656817781765843
0.07321770171467408
0.19802705363815465
0.17694470249258512
0.260696320278916
0.05923294882938743
-0.05628240325428493
-0.13879272194412698
-0.24397655136277027
-0.21020575540861236
-0.046851505173945485
0.06561720786207473
0.16502696407480588
0.291621148352165
0.07367634582050543
-0.08010064758858924
-0.17978452848644058
-0.047332484755992846
-0.10791724862547435
0.016680602935712358
0.11101975230351772
0.16607406890715837
-0.021476740684701803
-0.04902189157644375
-0.10679757151621401
-0.17732186628643412
-0.03760706503709806
0.13499367379312271
0.15482243307811488
0.2214169469314031
0.11832547991862903
-0.18104162768716675
-0.3025034572423569
-0.2603982082514476
-0.052988925347956226
0.13295112235512152
0.31037154223170693
0.2794084878841943
0.2216685685314619
-0.09397800172994039
-0.29513626933619436
-0.38604124477984975
-0.3339856352976574
-0.07016536929824545
0.29292339844285736
0.4331041612977748
0.3903952764902821
0.1510068925346199
-0.149655852141879
-0.4063230758852833
-0.3142684532617689
-0.14257596028613112
0.08042970912971223
0.16647029429525223
0.15460633127287574
0.0934854511494823
0.0255109558406809
-0.02267903815799477
-0.042346813182945586
-0.0389133546055274
-0.025089431499594764
-0.013654755599111565
-0.011964764365750757
-0.019355791025171598
-0.02780697983408532
-0.025564839058993555
-0.002851390790539329
0.04182950215580738
0.09683953806938715
0.1363144072907563
0.12467941799379378
0.027116019792838463
-0.17616082650827908
-0.47668280649566297
-0.23192061652778398
0.028186141797131754
0.3822431030449458
0.2920730592758111
0.38119683367169843
0.02641272861806461
-0.23381087883988894
-0.47787686918912525
-0.17583324517221127
0.029498436950409115
0.12899201110205996
0.14148238748635886
0.10081095982205342
0.04199438110757524
-0.008728942320880896
-0.03805282338284033
-0.04457377761876279
-0.03464525628576737
-0.017452455619184938
-0.0010711050449517378
0.009653937737991542
0.013433061479367975
0.011625385087387972
0.006839026254460945
0.0016566869731236486
-0.002161978518908406
-0.003927768612288879
-0.0038442519725691657
-0.0026166906773231694
-0.0010480028819597823
0.0002474156002371727
0.0009660182853935548
0.0010955942733081585
0.0008120811106254019
0.000355606184142024
-6.796301231441786e-05
-0.00033862944908228185
-0.00042814663949468915
-0.0003751295262759388
-0.00024845739183719794
-0.00011468045182194518
-1.8123102871323875e-05
2.477490064525551e-05
2.0343841951612438e-05
-1.265245162485935e-05
-5.3434006630932217e-05
-8.642488131758567e-05
-0.00010419890269187934
-0.00010680224321298382
-9.899472104292318e-05
-8.703442852029278e-05
-7.617604125957685e-05
-6.940079175710188e-05
-6.73217920075966e-05
-6.886256861491768e-05
-7.221325559632474e-05
-7.566430689294346e-05
-7.810273735772668e-05
-7.91400901387251e-05
-7.896747716873405e-05
-7.808312799289989e-05
-7.702422592862055e-05
-7.618507893052541e-05
-7.574662164201204e-05
-7.569835173618772e-05
-7.591192094667283e-05
-7.622446753100171e-05
-7.650212487893855e-05
-7.667117007338681e-05
-7.67189605620332e-05
-7.667543416649597e-05
-7.658805751603014e-05
-7.650043961319863e-05
-7.643996569884046e-05
-7.641506412499894e-05
-7.641951442927656e-05
-7.643995328382115e-05
-7.646309466392667e-05
-7.648044728059634e-05
-7.648978074538518e-05
-7.649377815345271e-05
-7.649701479811904e-05
-7.650263770875704e-05
-7.651000687875361e-05
-7.651420972159134e-05
-7.65078342936005e-05
-7.648470740152074e-05
-7.644452561910624e-05
-7.639658874162848e-05
-7.636047406536442e-05
-7.636182354305608e-05
-7.642272709586268e-05
-7.654844961973133e-05
-7.671495768635562e-05
-7.686381449739722e-05
-7.691115589019368e-05
-7.677441849604498e-05
-7.641389872165032e-05
-7.587724928006288e-05
-7.532669611025263e-05
-7.502555463434505e-05
-7.526709084147372e-05
-7.624733947144858e-05
-7.791203688976768e-05
-7.983807858035069e-05
-8.122795494374073e-05
-8.108547634814126e-05
-7.859140655750742e-05
-7.360991486125473e-05
-6.71521883526625e-05
-6.154386328272241e-05
-6.0041851735538595e-05
-6.576981250492934e-05
-8.010140707918438e-05
-0.00010096757985833032
-0.00012187796721979837
-0.00013255320494871896
-0.00012179153577446434
-8.245385615278509e-05
-1.7340086362976896e-05
5.642176850872285e-05
0.00010750015728282374
9.755657812062925e-05
-3.927547518721243e-06
-0.0002000718398971417
-0.0004491563969028205
-0.0006591560159683084
-0.0007038934672110159
-0.0004653997162182474
0.00010318321324239414
0.0009132324557077542
0.001705678289582414
0.0020797402535034704
0.001608178624855636
3.248154541493815e-05
-0.0025118000796026346
-0.005333103501268807
-0.007201856623978581
-0.006643936254272769
-0.002524708216387012
0.005195745130610644
0.014809400177434828
0.022690699405528973
0.023975438929764354
0.014246319608734424
-0.008022136302868818
-0.03902762597582607
-0.06843043093716063
-0.08070527448757034
-0.05993223275841994
0.002228332270618813
0.09726233484484398
0.19272146693433667
0.2316109361419824
0.14167469247490463
0.055146920771142645
-0.2648803989301885
-0.5998539164280378
-0.4637208360910433
-0.1123306913147709
0.2238887591300393
0.6921504105437264
0.770861260969119
0.24273212015834694
-0.20097315445223307
-0.5260600207323387
-0.7044177352108061
-0.2660772767964191
0.12905375694965626
0.29308070488999444
0.2901567067342066
0.20616358717042177
-0.07997929566804456
-0.1157958878929013
-0.08363350480683045
6.229989163684778e-05
0.09160979388904662
0.13111506456749386
0.05679415783945398
0.021612559062807808
-0.19022985514491883
-0.3513604190437333
-0.1890665959942913
0.003475404170421763
0.14319476035982748
0.3263100589113409
0.40049309116996906
0.14994564493093726
-0.10071838815541466
-0.264684545987122
-0.2607723314928706
-0.18188918065523108
-0.07406681647482258
0.06850865557772326
0.09276294023921093
0.06515817161493993
0.04635790016688675
0.06912956452467425
0.1249679360521818
0.1628592194135581
0.10127511445946928
0.0516898587135408
-0.2513996291282396
-0.42213500717329155
-0.4063639913048415
-0.08406309615850745
0.10665014282258543
0.5297453078045244
0.5084799581352519
0.2944463310041646
-0.14087282112779592
-0.2903635472031864
-0.47923590668353716
-0.2300992992929225
-0.0377960457219441
0.2394178523753857
0.17354755231714203
0.15227705663812738
-0.03549918710882059
-0.00786914035896562
0.010654379420288565
0.19785516465286718
0.14832517514474833
-0.10992262948294183
-0.502239435684366
-0.5048639191077098
-0.360159361685119
0.08828055773359282
0.7475024047693986
1.0303046910450013
0.6340177242177949
-0.04202571107782985
-0.6398573976777079
-0.9641639526153947
-0.9103226906722965
-0.42762791389020716
0.2666449389471172
0.6263882114697237
0.8911984980878088
0.8074990611495148
0.18402163556433437
-0.30452482418844845
-0.4701663708978234
-0.7406014301263416
-0.49063223397063355
0.001568194332968743
0.16250008311262837
0.2985320867173489
0.35150240682906
0.2519093988827888
0.08438955643147718
0.0736115841598392
-0.20901948352443844
-0.22390002764864064
-0.23662069924296691
-0.09583994244616036
-0.02206962490851736
0.19120080262533776
0.1674040009117439
0.13394055497849097
0.11236142713692109
-0.08496919040231815
-0.2521805243311426
-0.18479672191026866
-0.07687792305591681
0.07671712698511378
0.2737444928540193
0.2979470367870676
0.1177702156709339
-0.10646835166098308
-0.40860550327666856
-0.40216333222245654
-0.07323956380313933
0.21446075989071142
0.30402370111940835
0.4266882129885982
0.18965210313174524
-0.22349652972765932
-0.4403251215908152
-0.282202742451756
-0.15166524085243416
0.16886506298568732
0.30691420984556306
0.28443299490381685
0.10547363095200003
-0.0465668849376359
-0.20102788238660968
-0.1856431516792932
-0.21290932647260696
-0.07367937473239282
0.058983778299524184
0.2173424153142141
0.22349336069631603
0.2779845907779606
-0.04194091618688245
-0.17322437259878393
-0.3508792277558004
-0.19228690814540644
-0.08924364657403874
0.1886528408899567
0.28120936219576254
0.2217463423558863
0.02541545559641313
-0.1136904654133255
-0.2167576306289588
-0.10990683172538905
-0.014654218642401034
0.05708562624337934
0.10279292939074251
0.12586031517346324
-0.06835512989695754
-0.0749958757927974
-0.09039293784201043
0.08814422309427643
0.06260565425570615
0.03462940376819906
0.006462302903650005
-0.017312387164165496
-0.22810631007664017
-0.013245102432483878
0.041324219548577304
0.1458202972519621
0.10101943660310726
0.09520530819924587
-0.09427943896293713
-0.09504684058056247
-0.131630831519935
-0.01875636917697167
0.04152737855557582
0.058250334514030076
0.046808352701618434
0.02342855733846224
0.0008476715241268595
-0.013758413453050688
-0.018629662585363114
-0.015808251898851575
-0.00902429491346861
-0.0018791310370808324
0.0032416908717115616
0.005467748246841533
0.005157515996991616
0.0033334756036113647
0.0011179015604027625
-0.0006548997219767952
-0.0015939571275434955
-0.0017116734524504965
-0.0012727601557764243
-0.0006198226472311139
-3.8252959972310044e-05
0.00031221596664038673
0.00040262376252662307
0.00029806698799823714
0.00010531416358275342
-7.426948051553764e-05
-0.00017505093080192263
-0.000178349561393822
-0.00010799743506562979
-1.573593599444944e-05
3.857634084955414e-05
8.189241156295602e-06
-0.00012123555361843383
-0.0003184765415507048
-0.0005053325570576967
-0.000572566919380452
-0.00041579764298415103
1.3118431414316765e-05
0.0006535811569699098
0.0013063201932063822
0.0016531312706574693
0.0013453402465388204
0.00015773658565842633
-0.0018292908849357784
-0.004092394099062825
-0.00566644950570648
-0.00536508758021064
-0.002241688402419867
0.003791662429861307
0.01139104979499081
0.017545808362653022
0.01796689669632448
0.008229499507421256
-0.014504168241008674
-0.04973344532661668
-0.0926604877267373
0.0652405625211641
0.03397559287061025
0.021816286553781976
0.032423801627001564
0.06352340664064296
-0.09235128633859827
-0.045432097481242995
-0.005678145736838962
0.019709655547450643
0.02758976639586122
0.01908549607372344
-0.000851443384546546
-0.02421240620171564
-0.04113512537445447
-0.04191705602624516
-0.020103912244785006
0.023648225038075465
0.07807144945387867
0.11997546889953799
0.11701959181485642
0.035499254929942436
-0.1479086039045915
-0.23390439750584552
-0.192915284207931
-0.1666894871925853
0.11915995607207173
0.33452516212433664
0.32308970457252145
0.08795459063890902
-0.00946711995170904
-0.23681254348741806
-0.2695875808673321
-0.1697390302242874
0.028469907779417353
0.12160736729337897
0.13040977940407583
0.08788365270166011
0.027462470295575164
-0.025098280699311457
-0.05495931882154713
-0.0575864087154391
-0.036310323536178434
0.00011466007621794948
0.03909927235033124
0.06523528357822746
0.06173689479620756
0.01325062093019086
-0.0898466322628521
-0.04672092916164093
-0.042838345277683244
-0.05009451240677803
-0.0312755560130683
0.05160093006188835
0.026905648064522718
0.10379866897700446
0.06649303051621099
0.07482753861193446
0.072127287931329
-0.0006984013300116738
-0.18806200572043308
-0.30463361573327835
-0.1278427207945947
-0.0018243491707221286
0.14716372745863954
0.188428356486077
0.3653510668863246
0.08253582852371773
-0.09374114807092761
-0.22231660626692884
-0.16668836262352504
-0.1753046211494504
-0.06950133665061502
0.1577336543126094
0.1334712093951731
0.09165619888589006
0.06063127134518084
0.05557078384998561
-0.12268555965939593
-0.08357834085109543
-0.040383733206876715
-0.004402514690414952
0.018276436169001792
0.027084985547109
0.02523489220158221
0.017279158527278755
0.007141267059134265
-0.002763688473180952
-0.011297328162035953
-0.01770381879812384
-0.02072427321419989
-0.018344353978150884
-0.00851530163678372
0.009257157937085307
0.03204771815162058
0.05232499396800272
0.058453587297544976
0.03748989767987896
-0.020020317424213806
-0.11473935440332056
-0.2352689262325485
-0.15961251972436727
0.13734385637536617
0.27200629458176956
0.24077586837277454
0.2154215690607903
-0.05082392691496461
-0.407235997050852
-0.28558755117735074
-0.08465554384640957
0.03397847483525315
0.13715710490209782
0.30227206395817835
-0.0027005476171533416
0.0654438049900105
-0.08186146639496743
-0.06355286799755301
-0.12176478344494315
0.08763948434390999
-0.09590376161759828
0.06967819904393845
0.13484478245726897
0.06337077274396417
-0.16305944777238573
-0.1412009431512992
-0.04527521975046802
-0.030385091732719728
0.15957107995548053
0.18161044356873068
0.08445302796949317
-0.09675516091972425
-0.141227933328438
-0.2408824153242804
0.0005951441589590444
0.16606068102163707
0.22158592814343064
0.11496801541974895
-0.020243947302056108
-0.05389923096253484
-0.04376672557061062
-0.2203137417084724
-0.17742291211864342
-0.0735051364227724
-0.04455642712077569
-0.026757841225558104
0.2177295240101667
0.4809369159279414
0.9049664559968493
-0.1997478861807236
-0.3148359126260328
-0.8648155359237021
-0.778619793178139
-0.8824656608840633
0.4653119482112419
0.9041925317404991
1.5902901214903982
0.5365870751169431
-0.19952551942020075
-0.6753064440002619
-0.985238916063129
-0.978429771460743
-0.0015326956217860833
0.5159983706388271
0.6369654340983415
0.4697967189638765
0.12288845561370694
-0.12360879876263632
-0.22366211265807648
-0.15436318972251817
-0.2987862199339259
-0.2331072737670983
0.07576833404064838
0.2617510744291092
0.3455751352669472
0.3236162828104146
-0.03329290343638172
-0.3689924265535659
-0.3235625904105165
-0.3161251621947608
0.06288988200820177
0.4469485890319322
0.2796556599893178
-0.00039333679533192113
-0.16949337279164628
-0.22139583177327343
-0.16508475076361495
0.178279448093396
0.1772562516150083
0.19196699465415545
-0.021528345642205682
-0.10306261454725689
-0.27823661492841156
-0.15070321622297006
-0.10130251307228447
0.10423489960324568
0.3015552494364509
0.5140364915328038
-0.053930652069109644
-0.21309327169820746
-0.3772190474838953
-0.35029035342248277
-0.3216555679706861
0.3264633457198092
0.6022637554026664
0.6884292770845573
0.1386388716353379
-0.5074565848912242
-0.6954424476898848
-0.42759137294363964
-0.45056193693662666
0.33179449521704835
0.8241015204514103
0.6983529700950706
-0.0352795059743594
-0.032676444228609366
-0.39404032240014825
-0.4268647727335331
-0.40988396080460987
-0.17239028869632572
0.10422268421858118
0.46563742186445917
0.5556987401321912
0.19390577113500218
0.1706094088507836
-0.13719418880718942
-0.5365369924771274
-0.9899919444660104
-0.20381151045778917
0.15759987778506654
0.833269445259847
0.7182603513123191
0.4281377147071061
-0.10853086564065385
-0.4263778134302639
-0.8792141395888359
-0.5954230142448688
0.14880719894603073
0.5301133749095975
0.5576547829081187
0.24644561161981482
-0.0006397226827989256
-0.19451242134642688
-0.3473220583497038
-0.25475680624391756
-0.08360318938980661
0.02862059107201425
0.16121724564353948
0.1898822550868097
0.1660574315439792
0.10345448099387465
-0.023877827315277825
-0.0718116060104784
-0.10848959883871569
-0.19486698687831172
-0.169754651497468
-0.043826955333515355
0.19630827366070336
0.17670364182404527
0.12276827940026518
0.049750107198341
-0.03961953010879697
-0.15047098649850427
-0.08724864419691464
-0.04558989971942787
-0.008184711211274157
0.05386199616309342
-0.025185870519769983
-0.014662529948928896
0.1034434517696164
0.1279627903140391
0.03670503935497682
-0.009613112645012365
-0.058353899751645295
-0.15345227191311217
-0.12512681582601898
0.0158246327399948
0.07755867422955531
0.08141049544167034
0.05356334263568355
0.017363429232925776
-0.011480058240358063
-0.02615007778406988
-0.027128195068989266
-0.019136708460535286
-0.008004709005276235
0.0015977754258305714
0.007203293005669308
0.008508696119673502
0.006672262774384166
0.0034127592092627057
0.00026521306605467853
-0.0018319134669194373
-0.002611272457810967
-0.002314091130406989
-0.0014284696415749944
-0.0004466566141119107
0.0002899070179204726
0.0006416488148855439
0.0006402427972238098
0.0004158413322916536
0.00012032563622242496
-0.00012803233749305313
-0.00026910489359977614
-0.0002983026260459621
-0.0002476077546902789
-0.0001621695360485075
-8.138964351968019e-05
-2.8746499888469017e-05
-1.0322065087902055e-05
-1.9294362199346425e-05
-4.280385935494878e-05
-6.81807627394202e-05
-8.682610104740323e-05
-9.539804942582492e-05
-9.492324632189597e-05
-8.887228658221855e-05
-8.117992061605368e-05
-7.484762324554465e-05
-7.135041077278935e-05
-7.073751223415563e-05
-7.214067989177256e-05
-7.438192136204846e-05
-7.645462211662888e-05
-7.777451286678359e-05
-7.820673091324496e-05
-7.794275596305995e-05
-7.732073447790403e-05
-7.666604071894482e-05
-7.619441440914766e-05
-7.598496523548809e-05
-7.600585789249107e-05
-7.616532858403944e-05
-7.636275028323404e-05
-7.652364461974109e-05
-7.661339545909541e-05
-7.66329982845053e-05
-7.660467908699276e-05
-7.655573583785198e-05
-7.650674435169683e-05
-7.646690949669677e-05
-7.643614943720156e-05
-7.641126559090681e-05
-7.639256150701423e-05
-7.638748730746023e-05
-7.640910745142359e-05
-7.646915321583087e-05
-7.656776151077718e-05
-7.668416647017247e-05
-7.677382846068671e-05
-7.677688978478232e-05
-7.663980030128711e-05
-7.634652050003769e-05
-7.594907544867537e-05
-7.558185258960962e-05
-7.544319174772898e-05
-7.573450462006578e-05
-7.656245345412648e-05
-7.783109608789332e-05
-7.917139962148627e-05
-7.996455730261003e-05
-7.950202779622844e-05
-7.72827318394633e-05
-7.338050605931687e-05
-6.874147706242888e-05
-6.522412002542822e-05
-6.521291377376032e-05
-7.074850732646127e-05
-8.232245107228115e-05
-9.77357844847671e-05
-0.00011162105783175095
-0.00011624842092047124
-0.00010396383159490408
-7.100511781229372e-05
-2.1615012434664384e-05
2.9403448708846693e-05
5.785261350974491e-05
3.661234366492324e-05
-5.26909787600541e-05
-0.00020555285467680474
-0.00038353145535002976
-0.0005134943357783724
-0.0005035242805106535
-0.00027731522623678775
0.00017916021421985338
0.000774587064509243
0.001296162079328102
0.001443946294416078
0.0009280978698805733
-0.0003824325129889968
-0.0023031452363029966
-0.004241729354788937
-0.005253157973114403
-0.004300444227077969
-0.0007117869788977754
0.005277421978562011
0.01211593144355161
0.016940554948866895
0.01623067530594999
0.0071684230504522215
-0.010557593581783778
-0.03314150763539929
-0.05216130893147923
-0.05611257217908508
-0.03445877397162387
0.01622412958979424
0.08562392541199533
0.14525762274189535
0.14922430616470989
0.042236367625530916
-0.02522601934432217
-0.07781900732260251
-0.298191500143052
-0.41889324520983484
-0.12917398192638901
0.10167063175496828
0.3891237358471539
0.5972491639846066
0.31473620991465917
-0.14685084718233476
-0.330909872216514
-0.39739270612990685
-0.2815498537122712
0.1373291206927897
0.25007293014874765
0.11467427004679161
-0.15923663249654174
-0.23341106351655191
-0.16812191542377442
0.14912712228074998
0.377501827067761
0.5062090569694132
0.2548085064745469
-0.105867319726634
-0.5162412684895219
-0.6861833192345397
-0.4649897102427945
-0.03583741856315775
0.4627538712650169
0.6983407752192583
0.7072861867490448
0.2773015254826635
-0.240675025343856
-0.6959219856596668
-0.8941737834783712
-0.5692940235139219
-0.1875309462487823
0.612776824627496
1.160123692394124
0.8931721293200623
0.13449973081185657
-0.29158715103941363
-0.80283464550248
-0.9867939717730648
-0.341084294456834
0.15189445465823018
0.40921607245269925
0.4003882794060452
0.28873701287888803
0.181700238670436
0.10418279970233436
-1.7976698192799804e-05
-0.0421578338650893
-0.14737800402217183
-0.41122132472686307
-0.4670520235111853
-0.2748597776659811
0.06426811438027989
0.47253757649857336
0.851820007567337
0.44935008310303415
-0.1531821001048904
-0.4234469394138502
-0.6441832443330753
-0.6780281588991246
0.051917872387107225
0.5581739857763034
0.46644143216834083
0.3886072055259811
0.1061887872551477
-0.22761992245512697
-0.4692978545342659
-0.259721262337852
-0.2045569635602856
0.1310908616513931
0.21240554980443213
0.31445531017160533
0.1006165874713089
0.007783320411382478
-0.15793712206482058
-0.21631862719056288
-0.0033769244488489215
0.03828717160642846
0.06654331091443962
0.044197288412356636
0.14237966846041228
-0.055784511179997456
-0.15119638071063723
-0.12604879522244586
0.055323914452452876
-0.15960462918507118
0.07756552215709717
0.20307820992586623
0.22993532035290923
-0.05686628755682406
0.10376722204057583
-0.1387437231181331
-0.23036385401487575
-0.1980220201153417
-0.04253507388193534
0.058398188307409366
0.1384911154817296
0.22744488829127985
0.13833944960039546
0.06319405020672522
-0.02131140643141809
-0.14018653512424167
-0.3042949408747616
-0.2995506216796399
-0.08700293638125027
0.18453485210537132
0.35743012442431404
0.44463831272893284
0.2195051740815782
-0.1779732853495801
-0.41975427363696377
-0.3618555391184694
-0.2219419231038407
0.02812271570282439
0.25213799043370605
0.32678853475793224
0.11581188677970962
0.05068278575371868
-0.07653992350104984
-0.10788048377587646
-0.10543048698633596
0.0659115642391328
-0.04588379341553956
-0.06902021444428912
-0.0031362713506038597
-0.0211141225848641
-0.07682350630108219
0.08277874041850801
0.10370456303148028
0.012279284122284002
0.006856283946748639
0.056102522929155615
0.10468614294633782
0.0858002528458399
-0.06145595316304051
-0.17345570714943964
-0.24733175394434023
-0.23569529364460728
-0.05448774639507371
0.19642781768758805
0.40538278059047134
0.22286051259640888
0.046576793162437874
0.02307585190681523
-0.1349232822359633
-0.3217859099995776
-0.2120834274553288
-0.0422905470649548
-0.006175325552248973
0.13619244624719717
0.2405602882592574
0.15888692160664245
-0.07535459511258953
-0.05322064498796955
0.012312384934014374
-0.10519882594886858
-0.03516488988686005
-0.0007233325900376248
-0.012871800316412683
-0.06875373381194048
0.04629159269589626
0.15417507506328879
0.0787543666812332
-0.1586457579763662
-0.1423640090709838
-0.06491850323486377
0.07016138752972786
0.24562810086784592
0.23021583056785014
-0.016533014858990724
-0.13358954064429185
-0.34479083669711036
-0.24802750848742816
-0.013070071854145925
0.20963087423318436
0.2720878498431823
0.2108508092311264
0.03555237586774243
-0.07170126850942818
-0.14671205849321023
-0.22820037193381085
-0.14397782066109358
0.0964730444584824
0.10115264503464508
0.0883173972023568
0.07705123973116206
0.0798264181312099
-0.10051230981465087
-0.06924928673442558
-0.035543764238853415
-0.00785419289177189
0.00908470280301253
0.015055204440149845
0.013298894186020987
0.00850075676553975
0.004726002189547081
0.0039679479177148385
0.005642892985495593
0.007085463371291924
0.004878016939724303
-0.0033351058778494334
-0.017064166363370496
-0.031861400237925185
-0.039518303106889634
-0.02997753553115198
0.005168542415146194
0.06848544344882122
0.15343132937690748
0.04386934415820248
-0.0825031914840487
-0.04728791950280414
-0.06331979625299236
-0.12851511298357787
-0.024258271845090825
0.08061832598105642
0.021204030951455274
0.02583275873777898
0.10666881153908218
0.05449661491808539
0.039517792779091655
0.018370925441373677
-0.054199316085401
-0.212194864723746
-0.06775447926280798
-0.006649774709751024
0.008398253215336623
0.027460094867489585
0.0992795458994747
0.05743669345538101
0.11074917387130252
0.040680444705419996
0.0066268250272741355
-0.042253781830702095
-0.1519924408957979
-0.150017886521226
-0.036923639841638066
0.013580551470542776
0.04659576479887177
0.11254636122909628
0.05254194517367913
0.08688873475425284
0.009791300440167848
-0.008687919011337046
-0.014385244616544684
-0.057061930563952104
-0.178056399909648
-0.0008068768862350018
0.07357536323090805
0.06526568109224616
0.010486093687821786
-0.04595343169286745
-0.05874778712167385
0.0100100659120714
-0.01629535211995404
0.06581750736909499
0.23787570768751837
0.06241499096995967
-0.10837213581669447
-0.11981459555239587
-0.2016663125936946
-0.15965731961508192
0.02469095875732041
0.18561192315592862
0.1593178088913458
0.17052640009040873
0.024624973992455015
-0.09192609603361387
-0.20408408379094456
-0.13761856127027253
0.08991090488588574
0.0735658872475511
0.02050670775975666
-0.05379280230380189
0.0695102527268862
0.008027503344111083
-0.025329113007816286
-0.02438482923571414
0.009657497678876853
0.06878470644871397
-0.06019454856540046
0.006952167622793199
0.055229736393574654
0.07405943095404896
-0.13949373466918596
-0.17899303581716738
-0.02972389688146361
0.12667121482185606
0.10501112584619944
0.10970107175929228
0.13155227546009682
-0.04969811670572549
-0.2577983351286013
-0.11050418885133907
-0.012435017321318702
0.04671098444037083
0.08831643626055317
0.13771334312628494
0.017127521010585803
-0.058712656491885055
-0.0835738458776779
-0.058367655448270855
0.010795447325433109
0.1139725026623898
0.03817478024852386
-0.031673998555950454
-0.1110805104966949
-0.013916836424568252
0.04927930277588398
0.07223673016751221
0.05349648561047664
-0.0027454421041485533
-0.0854110448920165
-0.1759081443562588
-0.04968916737066133
0.11899455611524629
0.1498934461278903
0.04971117865539562
0.008349876626463195
0.00037338862756101763
