0
-5.123735611856979e-05
-5.123735611856979e-05
-5.123735611856979e-05
-5.123735611856979e-05
-5.123735611856979e-05
-5.123735611856979e-05
-5.123735611856979e-05
-5.123735611856979e-05
-5.123735611856979e-05
-5.123735611856979e-05
-5.123735611856979e-05
-5.123735611856979e-05
-5.123735611856979e-05
-5.123735611856979e-05
-5.123735611856979e-05
-5.123735611856979e-05
-5.123735611856979e-05
-5.123735611856979e-05
-5.123735611856979e-05
-5.123735611856979e-05
-5.123735611856979e-05
-5.123735611856979e-05
-5.123735611856979e-05
-5.123735611856979e-05
-5.123735611856979e-05
-5.123735611856979e-05
-5.123735611856979e-05
-5.123735611856979e-05
-5.123735611856979e-05
-5.123735611856979e-05
-5.123735611856979e-05
-5.123735611856979e-05
-5.123735611856979e-05
-5.123735611856979e-05
-5.123735611856979e-05
-5.123735611856979e-05
-5.123735611856979e-05
-5.123735611856979e-05
-5.123735611856979e-05
-5.123735611856979e-05
-5.123735611856979e-05
-5.123735611856979e-05
-5.123735611856979e-05
-5.123735611856979e-05
-5.123735611856979e-05
-5.123735611856979e-05
-5.123735611856979e-05
-5.123735611856979e-05
-5.123735611856979e-05
-5.123735611856979e-05
-5.123735611856979e-05
-5.123735611856979e-05
-5.123735611856979e-05
-5.123735611856979e-05
-5.123735611856979e-05
-5.123735611856979e-05
-5.123735611856979e-05
-5.12373561185698e-05
-5.12373561185698e-05
-5.123735611856979e-05
-5.123735611856979e-05
-5.1237356118569784e-05
-5.123735611856978e-05
-5.123735611856978e-05
-5.123735611856978e-05
-5.123735611856979e-05
-5.1237356118569804e-05
-5.1237356118569825e-05
-5.123735611856984e-05
-5.123735611856983e-05
-5.123735611856981e-05
-5.123735611856976e-05
-5.1237356118569696e-05
-5.123735611856964e-05
-5.1237356118569635e-05
-5.1237356118569696e-05
-5.123735611856984e-05
-5.123735611857005e-05
-5.1237356118570245e-05
-5.123735611857034e-05
-5.123735611857022e-05
-5.123735611856981e-05
-5.123735611856916e-05
-5.123735611856844e-05
-5.1237356118567975e-05
-5.123735611856813e-05
-5.1237356118569195e-05
-5.123735611857117e-05
-5.123735611857361e-05
-5.123735611857559e-05
-5.123735611857585e-05
-5.123735611857328e-05
-5.1237356118567494e-05
-5.1237356118559484e-05
-5.123735611855191e-05
-5.123735611854874e-05
-5.123735611855411e-05
-5.123735611857032e-05
-5.123735611859568e-05
-5.123735611862301e-05
-5.1237356118639966e-05
-5.123735611863218e-05
-5.123735611858913e-05
-5.123735611851156e-05
-5.1237356118417664e-05
-5.1237356118344236e-05
-5.123735611833935e-05
-5.123735611844519e-05
-5.123735611867387e-05
-5.123735611898399e-05
-5.123735611926999e-05
-5.1237356119376925e-05
-5.123735611914816e-05
-5.1237356118501574e-05
-5.123735611751331e-05
-5.123735611647208e-05
-5.123735611586029e-05
-5.123735611622867e-05
-5.123735611796463e-05
-5.123735612100642e-05
-5.123735612461295e-05
-5.123735612733464e-05
-5.12373561273166e-05
-5.12373561229775e-05
-5.1237356113947654e-05
-5.123735610195448e-05
-5.123735609118843e-05
-5.123735608766747e-05
-5.1237356097332066e-05
-5.123735612307264e-05
-5.123735616153475e-05
-5.123735620114755e-05
-5.1237356223056983e-05
-5.1237356206190125e-05
-5.12373561363523e-05
-5.1237356017214886e-05
-5.123735587887599e-05
-5.123735577836645e-05
-5.123735578717654e-05
-5.1237355964417e-05
-5.1237356320502656e-05
-5.123735678375522e-05
-5.123735718807827e-05
-5.1237357300009415e-05
-5.12373568946736e-05
-5.1237355871590034e-05
-5.123735437639323e-05
-5.123735287191464e-05
-5.1237352094201665e-05
-5.1237352848362905e-05
-5.123735565188105e-05
-5.1237360312640846e-05
-5.123736561173442e-05
-5.1237369308179304e-05
-5.123736865007223e-05
-5.123736143422359e-05
-5.123734741042038e-05
-5.123732953830397e-05
-5.1237314391903107e-05
-5.123731101773363e-05
-5.1237327911616565e-05
-5.1237368512140234e-05
-5.1237426570685856e-05
-5.123748360810703e-05
-5.1237510922616996e-05
-5.1237477801021896e-05
-5.1237365487266866e-05
-5.1237183366060316e-05
-5.123698067168757e-05
-5.12368453543754e-05
-5.1236883208728485e-05
-5.123717609362452e-05
-5.1237727697609776e-05
-5.1238416348632084e-05
-5.123898221309825e-05
-5.123907515342645e-05
-5.1238374867078656e-05
-5.123676605475061e-05
-5.12345142322292e-05
-5.123235591619159e-05
-5.123140903870067e-05
-5.123284339495117e-05
-5.123733424956406e-05
-5.1244442512838126e-05
-5.1252184326475426e-05
-5.1257112114013346e-05
-5.125516402278178e-05
-5.124330913495981e-05
-5.1221639546390615e-05
-5.119513767397743e-05
-5.1174059322540554e-05
-5.1171940272600817e-05
-5.120082939732955e-05
-5.126448770822798e-05
-5.1351724327409544e-05
-5.143323301885636e-05
-5.1465520127399093e-05
-5.1404104237399966e-05
-5.122486410908241e-05
-5.0947743748166826e-05
-5.065250046598502e-05
-5.047411650030329e-05
-5.056833153517624e-05
-5.104693957423369e-05
-5.1897187356539884e-05
-5.2915768306200776e-05
-5.369841271523972e-05
-5.372247408420495e-05
-5.25357893938775e-05
-5.002042415255583e-05
-4.664478921780376e-05
-4.357313215992039e-05
-4.249565953148747e-05
-4.510085441045007e-05
-5.2242359913749044e-05
-6.30337205764278e-05
-7.427523655516095e-05
-8.068815693379225e-05
-7.630940396150702e-05
-5.703309456148955e-05
-2.371199480619529e-05
1.538453055264558e-05
4.434088436503131e-05
4.300043781437474e-05
-5.562850077411192e-06
-0.00010482830368481434
-0.00023530957146727715
-0.00035082843189837017
-0.0003857794256719357
-0.00027618315772538364
7.846923819210243e-06
0.0004276059487745883
0.0008551008660950969
0.001084385747033543
0.0008879658216181012
0.00011667482020238121
-0.001180916030325467
-0.0026670455164165096
-0.0037126417828394196
-0.0035377837708982524
-0.0015092691193286918
0.0024578691073504472
0.007527626923072328
0.01179020720664624
0.012515505858642648
0.006896453740008886
-0.0068407536681572515
-0.028346370781863913
-0.05467373076003918
-0.08100663627773723
0.0972381257791149
0.08156868436999125
0.06829407684918302
0.04872958643032425
0.012423254682154645
-0.24757853522226225
-0.12994239021651138
-0.02361609673985213
0.08877377155804506
0.2239096537859683
0.19073082147047793
-0.012718087388268068
-0.19669393449706166
-0.17296331614839802
-0.1478822313424365
0.08060765469827959
0.12054379649815418
0.17985009618521183
0.06036264646354914
-0.04464397077670565
-0.1483458944728388
-0.06521593089194655
-0.005734074411320714
0.0266020584722312
0.035169610886317614
0.027797774409460668
0.013530152553608779
-9.566954724630198e-05
-0.008547830441568044
-0.010526384240146134
-0.007282144301990161
-0.0015207066591603933
0.003709736097926916
0.005932506731312479
0.0038985607530591985
-0.0020180031224996506
-0.00972572557543037
-0.015737219502832023
-0.016042398350353135
-0.007565700835652103
0.010009104439713866
0.032592154326357974
0.051026172885253004
0.05221823023985171
0.022449925190439476
-0.04761211414339919
-0.15775532436812817
-0.09521481495369662
-0.03591861245862555
0.04939635004600291
0.18585858338555883
0.18551870538826543
0.04276693480963272
-0.06357032020475656
-0.16221480130127233
-0.2791742794531218
-0.029974153314375928
0.18240121508832616
0.16398109567481073
0.12392432574192544
0.07036004634044932
-0.18982250518381993
-0.2481928408173606
-0.09232545280508435
0.09304834843003275
0.12048792230672709
0.19235887704413684
0.09571878066703408
0.0031469728409238263
-0.11967220487548262
-0.1020622377037088
-0.1567697665913451
-0.07343167766034031
-0.02003440625840289
0.047642502031797505
0.17159122885917583
0.1771237381999115
0.06361067223196136
0.0038925815390164413
-0.047269481088151925
-0.13860105557894606
-0.10661643771585162
-0.16418653460324992
-0.09726901455349725
0.12912973125278557
0.1580661580371734
0.2258887408843493
0.15143825368591396
-0.06670845111175265
-0.24463993392916256
-0.20279643848207352
-0.1566004215705944
0.08742731261167318
0.3291711136510276
0.16910319770333404
0.003952762625000597
-0.17290752565480544
-0.1668198574381115
-0.1765302465051505
0.007738828153569291
0.201069177247589
0.21712160417562912
0.061838853242950985
-0.06878506186533995
-0.18586770681141215
-0.10184455257958809
-0.025335635174501433
0.04058830486689701
0.09638265268905624
0.1421406143914494
-0.02538968336400146
-0.012881038993713366
-0.027388290571017382
-0.07174095207092031
-0.1407820644862367
-0.020593650188146264
0.10840781444080197
0.065422743064313
0.06270968152315598
0.10133807697821039
-0.02893282809074443
-0.14568048294581779
-0.06757473670140424
-0.008562215668739903
0.02532341803295069
0.03584187912101613
0.029957595048388883
0.016355379692055385
0.0024849028409886244
-0.007082898477424318
-0.010900997232901161
-0.009888186383775666
-0.006145067767280531
-0.0018533390084467616
0.0014380449684369444
0.0030639692196799792
0.003125347678913487
0.002175541718003934
0.0008810032973564724
-0.00022851346238405998
-0.0008752095026833352
-0.0010274859842597983
-0.0008194589347707894
-0.00044831737561306083
-8.968796758549753e-05
0.00014920423389503778
0.00023784827756830735
0.00020378741876675346
0.00010271002494496346
-9.251434940718481e-06
-9.318653755743169e-05
-0.000133214858078703
-0.0001329796769805326
-0.00010734150992522271
-7.36245139328841e-05
-4.5309551150816415e-05
-2.9241996887384494e-05
-2.5934131363584272e-05
-3.1731297270557276e-05
-4.148186950404862e-05
-5.0693441319702554e-05
-5.6691565868227794e-05
-5.8786050762370445e-05
-5.775743810179261e-05
-5.507346805543719e-05
-5.217901912766305e-05
-5.0053954631184754e-05
-4.907835850970308e-05
-4.9134291224692684e-05
-4.9825471001391174e-05
-5.0703068843176486e-05
-5.1424963353669346e-05
-5.182323330554306e-05
-5.189254277647174e-05
-5.1732093751194544e-05
-5.14762997072953e-05
-5.123994026286428e-05
-5.108958072587572e-05
-5.104052257751453e-05
-5.107085928902736e-05
-5.114197239221913e-05
-5.121671135843546e-05
-5.127043898686481e-05
-5.1294118285923564e-05
-5.129140111739268e-05
-5.1272829339015966e-05
-5.125001712554334e-05
-5.1231635472267755e-05
-5.122178915445187e-05
-5.1220413628577056e-05
-5.122482632428108e-05
-5.1231524696687945e-05
-5.123757977728362e-05
-5.1241339221788096e-05
-5.1242474124705955e-05
-5.124159583215715e-05
-5.123971994224363e-05
-5.1237800575247145e-05
-5.123645431043801e-05
-5.123589045089665e-05
-5.123599411112658e-05
-5.123648081899805e-05
-5.123704884381901e-05
-5.123748286820369e-05
-5.123769405246997e-05
-5.123770588304699e-05
-5.123760782747957e-05
-5.123750059865411e-05
-5.1237451654262944e-05
-5.1237471775537626e-05
-5.123751621187625e-05
-5.12375080575602e-05
-5.123737691081171e-05
-5.1237101767718483e-05
-5.123674359925584e-05
-5.1236451570683795e-05
-5.123642985509641e-05
-5.1236861747330174e-05
-5.1237804586932186e-05
-5.1239089473003024e-05
-5.124027627542415e-05
-5.1240716507719134e-05
-5.1239754510129764e-05
-5.1237047603394856e-05
-5.1232916607979e-05
-5.1228572066378356e-05
-5.12260330623435e-05
-5.1227600625285065e-05
-5.1234886908229886e-05
-5.124762074858933e-05
-5.126268834666867e-05
-5.127401814612553e-05
-5.1273856514463116e-05
-5.125561272774229e-05
-5.121778205117628e-05
-5.116763933355102e-05
-5.1122749687807706e-05
-5.110828477944008e-05
-5.114903277963675e-05
-5.1256959675647786e-05
-5.141786982041061e-05
-5.1583216807345864e-05
-5.1674089817190124e-05
-5.1602477902548466e-05
-5.130936142360682e-05
-5.081062547203417e-05
-5.023270842731798e-05
-4.981445933543536e-05
-4.9854675315952e-05
-5.059964453903032e-05
-5.209129304375977e-05
-5.4027904697826626e-05
-5.571335191435294e-05
-5.617123155207704e-05
-5.446337379861932e-05
-5.017438139116266e-05
-4.391977845296208e-05
-3.76410475684034e-05
-3.441845870589645e-05
-3.761404279277183e-05
-4.9378263579477946e-05
-6.888699822645074e-05
-9.102113793044823e-05
-0.00010639643611291817
-0.00010351261985237705
-7.31927286351869e-05
-1.4454210919656294e-05
6.0250570108126974e-05
0.00012337305451423384
0.00013708263039351583
6.594224358396684e-05
-0.00010423826794873746
-0.00034707665360151865
-0.0005850704688169352
-0.0006981200950761386
-0.0005579916375724677
-8.679222465283345e-05
0.0006754221800041329
0.0015219236250890468
0.002084446063024737
0.0019209060308275677
0.0006904157798260804
-0.0016199916521598223
-0.004498637931620987
-0.006856821496374759
-0.007230345283195172
-0.0042829338326655616
0.0024614662212428876
0.011885782309908517
0.0209075279708285
0.024860452593082377
0.018880275307420286
0.00019477116531687428
-0.029286220255702097
-0.06118711875180669
-0.08104771952687286
-0.07196490883140773
-0.021650310899456886
0.06847958296230104
0.17527848079150887
0.2511451410836514
0.2305019414399748
0.046945259994625836
-0.3418625847758259
-0.5294639697625715
-0.4469272551176808
-0.16949137668559325
0.2541397055036777
0.7574352119311253
0.612339019919449
0.20368551189667983
-0.16730908980844195
-0.4515212568417201
-0.6049685917095391
-0.3445604647598696
0.078020975909827
0.2778536646666714
0.3177800963236208
0.2799959487951515
0.04030451471138318
-0.14719247884969405
-0.25365897977229984
-0.07119069711322583
-0.0061435201669292425
0.12599175267583457
0.10343310535335311
0.10024257226884446
-0.11042529654260091
-0.1516162821329417
-0.03787693787496909
0.02728475290913641
0.050555999895289146
0.04510120396294068
0.025717843971238438
0.004729304783284904
-0.01026384964382233
-0.016619690648313753
-0.015439398320249648
-0.009748371275631466
-0.002828425170329184
0.002854918550755509
0.00603616840566401
0.006511642426331957
0.00476066773000418
0.001582545124115579
-0.002110079553431607
-0.00534280998542351
-0.007086719240298978
-0.006368269309686457
-0.0025786080999268203
0.004043053402221125
0.011927389900198574
0.017982961662545434
0.017988588164289738
0.007711067997583702
-0.015421494078154541
-0.05064252341811117
-0.09298420654543213
0.0660515567446366
0.03617165062516882
0.025079996721093557
0.03572417779504517
0.06522794724151303
-0.0940147263452742
-0.05158638859855873
-0.015876081618597795
0.008164418964287287
0.019607104320457404
0.02064143158893103
0.014945357254654885
0.006182603579363984
-0.0028370702213983694
-0.010242934831422062
-0.014712698191174852
-0.01506505577982301
-0.010250412584131391
7.837747805846074e-05
0.014571407760759846
0.029241727395798174
0.03722753872308834
0.029797674868558603
-0.001297344560285382
-0.06072565991093213
-0.1470252258209924
-0.052168259313462126
0.035821770650603275
0.12780531453833163
0.22837129093279854
0.13369453934335912
-0.16566431918436902
-0.27796873098177416
-0.20346125903348142
-0.1322879254654959
0.15032134669542246
0.45365928551254364
0.37199458750269154
-0.11736802635423903
-0.2453477408865014
-0.2347962555323161
-0.2846036328961967
-0.16260319411588842
0.18826915989407306
0.2321644097029452
0.21771081833486486
0.15957129067650128
0.031345048720330324
-0.027558900746512262
-0.09359687704029047
-0.23571266726757134
-0.2949126354297036
-0.07380676647948088
0.06031211916961286
0.16025127281957663
0.2776249139179133
0.24387189611273521
0.06089956169494761
-0.0953946610272949
-0.2608838780917184
-0.2648759690049373
-0.11581429631258479
0.002963344635949735
0.12605452668536432
0.2910491881809618
0.12253150002760775
0.021701251742191733
-0.034598676385150136
-0.08581676084764261
-0.17439973425004718
-0.13253423624327604
0.026563662983315906
0.11068390618600583
0.144752762446317
-0.0361869652873144
0.005756520419887659
-0.09466792124607372
-0.11067716004948783
-0.0279000828408176
0.1513956960632311
0.2055805588891609
0.09479562197982401
-0.032225430529669065
-0.22615778446923285
-0.12335356389362154
-0.13541086597485788
-0.046178364710011514
0.18265855274640086
0.19979707836754268
0.05105055002796848
-0.030707672557308077
-0.029874288907318563
-0.14710390233745613
0.004716618932159458
0.004932221177357627
0.028518585932975345
0.048344605392977774
0.03714974306598101
-0.029844306437322804
0.028641891300741438
0.004006845129900882
-0.09881211248507327
-0.05999326586704773
-0.046834369847358746
-0.019610930397227364
0.05955357774912352
0.21712466748893863
0.06108513060204047
-0.02088771479495363
-0.057081535817232035
-0.08279801685328822
-0.13012696457716794
-0.020021053809363875
0.041001028632699735
0.0592224882981187
0.04871620784321196
0.025383482768588827
0.002190954785010688
-0.01326732484464412
-0.018868234903514625
-0.016457666929343966
-0.009742862412934873
-0.002420593625649554
0.002983475986375598
0.00547502511014389
0.005338155614880664
0.0035758680216377513
0.0013319579206410397
-0.0005183199087812218
-0.0015431725390599132
-0.0017264105190104826
-0.0013200594652757306
-0.0006673672901437948
-6.231471489359636e-05
0.00032394253943780635
0.0004513294820804313
0.0003752065795156305
0.0001940581818273707
2.946125206744253e-06
-0.0001348749778220594
-0.00019599986677035534
-0.00018953543048763394
-0.00014232024918209838
-8.40433510937422e-05
-3.693949760054401e-05
-1.159345549590761e-05
-7.91797863341338e-06
-1.9100426999160765e-05
-3.619709710648055e-05
-5.1704753554404604e-05
-6.137130110666851e-05
-6.432767893847382e-05
-6.211639904062894e-05
-5.732487500723821e-05
-5.23948491857935e-05
-4.8914494961878544e-05
-4.7436666829549286e-05
-4.768673884035277e-05
-4.895214144479078e-05
-5.046539848686647e-05
-5.166361083081076e-05
-5.2288849383811154e-05
-5.235658021411669e-05
-5.2050434301227906e-05
-5.160318615715903e-05
-5.120612019626359e-05
-5.0964621066193396e-05
-5.089685979965289e-05
-5.096015808773996e-05
-5.108664448902115e-05
-5.121367136867398e-05
-5.130143176594007e-05
-5.133698353868655e-05
-5.132841787493022e-05
-5.1294610207032426e-05
-5.125537219722813e-05
-5.122492898948604e-05
-5.120953524044927e-05
-5.120845396049729e-05
-5.121675803214267e-05
-5.122841063597917e-05
-5.123855975858529e-05
-5.124461733846183e-05
-5.124623038809401e-05
-5.1244558888632076e-05
-5.124134180849722e-05
-5.123812541353477e-05
-5.123584307021648e-05
-5.123475745761964e-05
-5.123465593479412e-05
-5.123514314203157e-05
-5.123589044721723e-05
-5.123675545245249e-05
-5.1237751377863775e-05
-5.123890631403451e-05
-5.124009356001273e-05
-5.124092908078604e-05
-5.124081620601864e-05
-5.123917014783436e-05
-5.123578123350274e-05
-5.123119187660455e-05
-5.122689653911751e-05
-5.122516305755615e-05
-5.1228351355216465e-05
-5.1237783998633386e-05
-5.125247397759406e-05
-5.126825895064434e-05
-5.127800570451107e-05
-5.127340353573385e-05
-5.12483820002264e-05
-5.1203408653822835e-05
-5.114905764699568e-05
-5.110666659175914e-05
-5.110406821646965e-05
-5.116564240272128e-05
-5.129829541914707e-05
-5.147791273458909e-05
-5.164323691091077e-05
-5.170449740243921e-05
-5.157110159216661e-05
-5.119580387134061e-05
-5.0623149564567314e-05
-5.002080076472606e-05
-4.966837023261989e-05
-4.98846026332766e-05
-5.089300450254705e-05
-5.265641678718649e-05
-5.47440290205566e-05
-5.631520315136233e-05
-5.6295878876050084e-05
-5.3772404921692794e-05
-4.8534909688139114e-05
-4.1589225425040625e-05
-3.536682774499318e-05
-3.335404714446274e-05
-3.8986211417734064e-05
-5.392504910728431e-05
-7.62103069516122e-05
-9.912348824156834e-05
-0.00011173701975142735
-0.00010185648243821857
-6.129492836335647e-05
7.766382274870131e-06
8.78349213507687e-05
0.0001458404057517512
0.00014039064045617649
3.73400697121567e-05
-0.00016917648700710478
-0.000437438583525544
-0.0006710806710347988
-0.0007348653474307487
-0.0004987689575766878
9.491302310999652e-05
0.0009611497782355346
0.0018312282207502148
0.0022785589434064788
0.0018372624145702758
0.0002089472942826852
-0.0024930295467104437
-0.005560429072723661
-0.0076938236264207215
-0.007299674927320376
-0.003104557124982174
0.005032317720515621
0.015393971593255529
0.02417658299130489
0.02615802917988517
0.016456329864530342
-0.006855890929393534
-0.040074690874818845
-0.07241685984585441
-0.08724857700625718
-0.06698623404929627
-0.0014826745787704793
0.10202776447530384
0.21110055357530733
0.2669366204638206
0.1936146697160028
-0.08173661196234773
-0.40212698478719683
-0.5562845628938138
-0.2674823566961605
-0.0032567433384405515
0.3941901505045453
0.6662015938976631
0.29939071353552826
-0.09533493084448875
-0.18009418023262316
-0.26707372830188514
-0.2856490594358042
0.04855196133980468
0.05405142956523198
-0.10989861774465298
-0.04923310866299029
0.05056973431084958
0.2070818514677116
0.2265166435778658
0.2980221810864263
7.937331952101938e-05
-0.28204968875692044
-0.33415494385329414
-0.29610885356946814
-0.259634495405754
-0.08556538487876551
0.3621934864805916
0.5763079482378546
0.5740147921945327
0.2870496219214015
-0.4204835469332496
-0.7117124853274461
-0.5293843332712844
-0.15925639794206975
0.18326552748565858
0.7424311874846894
0.39692422591210547
-0.16666048094330438
-0.47262344515161353
-0.4664520376970635
-0.12154712061273139
0.5535688061873343
0.7096713427584065
0.4605841674087797
-0.09674302534012404
-0.8470253933219654
-0.8185021783846775
-0.5602520057570718
0.05056998392453003
0.7702649638376309
1.133199162365453
0.4031365016329389
-0.04759477065390625
-0.5233485511894505
-0.7638229538924912
-0.4962185664883566
-0.0012882319195324321
0.2955867455922468
0.4101760665450197
0.3738889551783376
0.21158864685712025
-0.06701903285935239
-0.26044505619978564
-0.358953519597282
-0.32899700136869986
-0.10820792170657734
0.18469402172234728
0.42805455552567534
0.2724275354162188
0.12332143838365954
-0.06119840280617264
-0.1573044150229936
-0.2521506212193759
-0.21949550491573921
-0.10265475444041498
0.09041274522622517
0.18019584686993917
0.2016584951339588
0.18994220630245878
-0.028697905401116452
-0.23876149243691108
-0.2323629950773381
-0.20574402778297474
0.04060460954417731
0.6978498342839964
-0.0554400486591562
0.14765922829971925
-0.12869942760504294
-0.5089494936013613
-0.5935014819204377
0.44526086850488666
0.4560392917261316
0.4952344579927148
0.015443908385549423
-0.538534249251632
-0.5279472453197742
-0.5203596970010402
0.10082290337930945
0.9179651988454852
1.0622915059555222
0.4137887715689005
-0.372076829835862
-1.2154217451531604
-1.1610025982707797
-0.551666661114294
0.35614058769473866
1.3371688056261162
1.3252208135736734
-0.04418291615522541
-0.45237147377338816
-0.47280079885971327
-0.7174533978244739
-0.37699442170291053
1.026970452181679
0.6703155988089013
-0.3623169103099755
-1.079788313720135
-0.602261210958273
-0.2004850013893851
0.6425743977804279
1.1596111406008471
1.0393046660663108
0.0024631343907673873
-0.7752150611893547
-1.0024309217291452
-0.5976121718116043
0.17328691170885846
0.5307674480839436
0.5876806921207077
0.13824713652616438
-0.3575121794291648
-0.5884363778463315
-0.20827781171363008
0.1420391381611124
0.4053189702986194
0.4784851977270065
0.19282798440317545
-0.08759012990577471
-0.2481119312883236
-0.3929255685324857
-0.21308867838775436
0.03617548801054037
0.1432115239875513
0.133388898288247
0.053598389583304394
-0.04561373991235502
0.07491004491933534
0.03358395396647427
0.025398858340584817
0.025646843433838006
-0.0012394921330132708
-0.09000225994843501
-0.06305212992820296
-0.12235229914423704
-0.04723148571289199
0.0009171861368665234
0.06824902595272217
0.19563525110538244
0.20773315558161337
-0.09222482763968581
-0.12039164861337183
-0.10459457044205141
-0.07475918069834987
-0.05538585344783783
0.13779092759848693
0.097229126808398
0.0210278010771241
-0.08947751901113184
-0.03094040944603525
0.0016519721077885902
0.014668384426277629
0.01506480099269497
0.00928969134584405
0.002309006448090617
-0.002889202295161274
-0.005218290242931852
-0.004988649379453173
-0.0032293635806862077
-0.0010744700649478157
0.0006392287855266455
0.0015258897550073384
0.0016044027338767172
0.0011423130882649531
0.0004797261695951959
-0.0001043492258836983
-0.000457166705126617
-0.0005538499914307518
-0.00045837565016252133
-0.0002710845911484409
-8.408026741211268e-05
4.444951956481858e-05
9.59161504618707e-05
8.258305150409502e-05
3.241205727660549e-05
-2.54199008369553e-05
-7.00641283151028e-05
-9.244198840998447e-05
-9.375274481535037e-05
-8.132469005398221e-05
-6.407891952819426e-05
-4.9162472778077336e-05
-4.037122074000601e-05
-3.819696178203996e-05
-4.0887523304074813e-05
-4.581726040798058e-05
-5.0626596131165115e-05
-5.3860085721208746e-05
-5.508821084240396e-05
-5.466452915604504e-05
-5.332782496840454e-05
-5.1830246472375126e-05
-5.069784553980681e-05
-5.0149569588718995e-05
-5.014177967161749e-05
-5.04783171513554e-05
-5.092772353808559e-05
-5.130842534663487e-05
-5.152706833327685e-05
-5.1575230402093014e-05
-5.1500803465461465e-05
-5.13722653960854e-05
-5.124961457505136e-05
-5.116863527553401e-05
-5.113858035005794e-05
-5.1149142764327217e-05
-5.1181170579937786e-05
-5.1216371667766265e-05
-5.124321120749559e-05
-5.125832476718686e-05
-5.1264383756879683e-05
-5.126619280835527e-05
-5.126691685523814e-05
-5.1265931154010456e-05
-5.1259079536914074e-05
-5.124128415324898e-05
-5.121060179683752e-05
-5.1172107937314445e-05
-5.113960977045864e-05
-5.113339509861121e-05
-5.117322672267939e-05
-5.126760828752626e-05
-5.1402633539781875e-05
-5.153570758948063e-05
-5.159999090608283e-05
-5.1523483237768066e-05
-5.1261731262154883e-05
-5.083587875816869e-05
-5.0360384898736444e-05
-5.004076677948783e-05
-5.0125112100666645e-05
-5.080645850258475e-05
-5.2095655188808584e-05
-5.3710241156095926e-05
-5.5043398440815926e-05
-5.527475044465152e-05
-5.365072272384966e-05
-4.989471009057082e-05
-4.46202511039955e-05
-3.954533479810019e-05
-3.7286798287956065e-05
-4.059241469328448e-05
-5.106273344311661e-05
-6.769641186124106e-05
-8.58734748659966e-05
-9.753175776852573e-05
-9.314213735759121e-05
-6.555319227206487e-05
-1.489564675503768e-05
4.725527225295877e-05
9.69415815728277e-05
0.00010244214976920843
3.539949165221357e-05
-0.00011325277364179569
-0.0003176247069353249
-0.0005093394283620292
-0.0005865699550219322
-0.0004448063603237833
-2.6803785816927e-05
0.0006217705145075353
0.0013151066408449963
0.0017374749158149082
0.0015234072572139427
0.0004089289496086323
-0.0015794457385487678
-0.00396916553342089
-0.005815589539704208
-0.005893383453781737
-0.003137159958757486
0.0027412948723794114
0.010661179869598955
0.017913060372938775
0.020552821269964397
0.014634952295116662
-0.0018354073790352837
-0.02677821722335239
-0.05269527755535645
-0.06723964643523811
-0.05656408144614489
-0.011486317928906087
0.06479104285979706
0.1500614741514695
0.2011002871998144
0.15934820164341335
-0.03472675605064352
-0.22115248288542985
-0.4001440374337806
-0.3201686878672912
0.31895343466812315
-0.35373419294886893
0.38793688898549605
0.6331916159888522
0.2090624453140863
-0.527539689226922
0.32176233932521503
-0.3770323958183269
-0.35881972491699987
0.06818805123599068
0.24014275551017572
0.14393950812211107
0.014556944161782373
-0.27357199846429736
-0.21982337218160047
-0.1156187360662514
0.13280408624009243
0.38080530512428856
0.4281620790785571
0.21626301265273956
-0.15600218473275312
-0.40044657069813294
-0.40187965113798385
-0.1878892211720729
-0.11715858380952518
0.10952645993423565
0.21955817746677003
0.3301761594836493
0.31387307426790445
-0.022136621814359613
-0.13743675167098363
-0.1425635135120078
-0.17252957148025072
-0.15818390148575262
0.19775168238209126
0.23657112094341778
-0.048865377386911664
-0.4140713195842632
-0.1704218521531303
-0.0009924722289276577
0.21616442294399218
0.3820840382941277
0.3561758218745228
-0.05191496233556043
-0.2751931265921753
-0.3708505945936782
-0.1991331845237353
-0.008384132688062549
0.1692555313965529
0.3131337320523454
0.4063875045451149
-0.36831544799969335
-0.22668322064536933
0.023603896308307937
-0.21135079282138902
-0.11067392721585842
0.5567713041699214
0.22514410075659735
-0.2741712074433653
-0.11449003456426701
-0.2732497242252566
-0.13294573014944305
0.11328235926605196
0.2520770746752393
0.24104575545021875
0.20721173414197724
0.05747741083556076
-0.09883331243315803
-0.32086835703372074
-0.41023111585624117
-0.2985065399298318
-0.05535285021316232
0.28277023002245816
0.47115409280828496
0.41612873562864905
0.14881553533437233
-0.17836467905816777
-0.2728651727326512
-0.2692048843767208
-0.09414878567203262
-0.040351249288779874
0.045920210245516575
-0.03722391023059688
0.14014446706755007
0.02229440481644392
0.25130539691642184
0.05630582201999971
0.051142587413922816
-0.15991246066855527
-0.1720012650027337
-0.37067957747654634
0.07062417050983831
0.1843711588493882
0.19604250432135725
0.11036000492099886
0.10294648032633917
-0.07868134295010099
-0.1047739133160803
-0.04697344815695265
0.03920356615063176
-0.07164141802843438
-0.1677423285882693
-0.20202592066104802
0.09685270688289302
0.006421062340076769
0.3902636133683875
0.4828706615154158
0.08579156669277595
-0.6228331312315658
-0.2698463942649298
-0.26937959371553066
-0.2154278430732108
0.31150297028382296
0.7279503778326105
0.43140097543390865
-0.20511196380363345
-0.42361573065607133
-0.4621644744899105
-0.33757015186447464
-0.04044270866413919
0.4541351870738333
0.5660993464836876
0.291737167191365
-0.0021269380239173166
-0.36697177886432114
-0.4494747956733119
-0.26769507714560004
0.2021527887017412
-0.17751960126948957
0.2762172289627628
0.24096884320140663
0.16464347275088012
-0.14959676810744216
0.2551143249133842
-0.09896439311802346
-0.10316975757047821
-0.2382499097367261
-0.15388018036571507
-0.057634738337920134
0.08389481678624974
0.1332108859161961
0.16400405760401637
0.043281006885839794
0.018489218025296277
-0.08805786993268054
-0.07798977157876008
0.028736751308537024
0.0012150682763570114
0.004810968223149073
0.007264709188990139
-0.01674907732649008
-0.08291294519575713
0.00330730834134749
0.04509370704114752
0.05114199143897598
0.032111059749948725
-0.0021217227599758825
-0.04374956636240388
-0.08706865042547983
0.07200518205066236
0.03629593483818904
0.007507368777395745
-0.013556468966526292
-0.02652349231314873
-0.031018423516894912
-0.02679724436875883
-0.014790344960809677
0.0011822693845564734
0.21295838070458525
0.008216328952207341
-0.02663856856460017
-0.10106837222232445
-0.01430410965359158
-0.1513518088570207
-0.08355376084654535
0.025372224505545434
0.2090690193690414
0.08737064858195982
0.058479370837368774
0.09782534049894039
-0.03551252504191866
-0.18683663134958178
-0.19253130900283805
-0.07033043638541661
-0.01669675463028693
0.1881805244935744
0.17059370504722765
0.15344940165840248
-0.049510869381579954
-0.2339442096603421
-0.20141590673150234
0.04419388931904893
0.09762041684402291
0.15049771467775158
0.1895671316406205
-0.0021487268919133475
-0.24005936187925597
-0.1304302067070243
-0.06440796028176474
-0.01727631292918318
0.04585165119862069
0.15974377020735145
0.1480641644688299
0.015861415448566108
-0.05183495467066991
-0.08526669392003688
-0.12136968581514435
0.005319065984163684
0.06961757163581024
0.05949284807693767
-0.022874848279656867
0.03814415385600014
-0.1305479018272897
-0.09467362315116716
-0.018669844174624837
0.12634903882338389
0.1545305631540689
0.060045149708461885
0.017347182822935795
-0.012200834845633968
-0.06898456229485214
-0.18271296582752422
-0.16325501059807446
0.0018025330732896244
0.14178001416524486
0.09167837143638916
0.0793992707372828
0.11613550264682156
-0.006862323703999673
-0.11447849077390729
-0.038689946765676074
-0.0076333475440978436
-0.03631727760312839
-0.12162132523953705
-0.042888289503640944
0.03202300786038064
0.1369197208149681
0.09681390054680737
0.12048635379948126
-0.0011870431925679727
-0.0906296611544006
-0.1747340683147136
-0.07558166996268398
-0.004478449973931412
0.0386672789670584
0.061115206434278126
0.07070127693702406
0.07007426390582126
0.054344689864630806
0.013249218607945805
-0.06291045030425653
-0.17598817463568117
-0.11476476878341262
-0.054807374203121345
0.03540537093781853
0.1837030980891301
0.20286901782945116
0.0836404500190523
-0.004418241292494228
-0.10385684646978645
-0.2553108342140391
-0.08387083757099671
0.009037362845918597
0.04561985550423165
0.06423283604155221
0.10771655134920308
0.011655205365212076
-0.004062347602406454
0.06140632501201064
-0.008287490231242442
-0.040798140960203934
-0.06718698995244186
-0.11441018484186989
-0.00032863513616492236
0.0676810415057563
0.0909890573444171
0.07659302210136489
0.03456576092142682
-0.2230045204902849
-0.08221833315622533
0.07173662743365207
0.05198337851896886
0.06623505029281546
0.11383812495882886
-0.014563148449193002
-0.1341588186010627
-0.060999125462386984
-0.007076316466915084
0.022567336241434685
0.0299558953628769
0.022100673611093875
0.007972967531901519
-0.0043181107578827965
-0.009482642424725267
-0.00597805611978914
0.003973288563452018
0.015110747846142244
0.02050758347124525
0.013508421148901764
-0.009995239039742221
-0.04948216133395998
-0.09873140762418557
0.05343009352734487
0.020294297253827677
0.01299311627661271
0.0361740695431661
0.08519880941454425
-0.0540173013953884
-0.002237799087490571
0.018154012775707624
-0.010829417176084663
-0.09743390495033823
-0.03704050418573115
-0.012411463438256621
0.0023846203211544312
0.035219096545469314
0.10821942875003385
0.03151448885414004
0.00040642749561952605
-0.0031282894399751134
