0
-1.1504772177818344e-07
-6.08564359151497e-07
-1.0883021100706398e-06
-1.3098396591503423e-06
-1.0141318121829351e-06
-4.6683599921653106e-08
1.5056275555628347e-06
3.217266619529788e-06
4.33718509014373e-06
3.97001346107327e-06
1.4335474631201872e-06
-3.281321358196628e-06
-9.115431132022029e-06
-1.3843266919662741e-05
-1.4492747952047566e-05
-8.376593651188404e-06
5.4180286363133376e-06
2.4549699391747243e-05
4.2687774733618194e-05
5.0316777973352464e-05
3.7577230246886935e-05
-1.0750822341404783e-06
-6.163210358735835e-05
-0.00012696433050984996
-0.00016764649460331458
-0.00014932214253060753
-4.677315901476622e-05
0.00013834761609546865
0.00036273328284559873
0.0005385864098260932
0.0005510609730723376
0.0002991570603952172
-0.0002464721910067636
-0.000987471356726464
-0.0016721278195666136
-0.0019303828543558873
-0.001387438904550226
0.0001544594514292381
0.0025161834536068296
0.0050119819612262015
0.006494719607014112
0.005655677181399825
0.0015792239914295373
-0.005573063907414914
-0.014011899626143003
-0.020255929751019305
-0.01987691548443582
-0.009178287389989253
0.012435408907363273
0.040084249296808566
0.06206081010821417
0.06053518162983219
0.01484211278049628
-0.09315106095526439
-0.07331829398501911
-0.12371288338175912
-0.03146960634203247
0.020927731066480076
0.04522174756015528
0.03599262881501111
0.16261881670459744
0.16883042304636725
0.18279472441032651
0.13810204193678177
-0.19774132820399754
-0.3949849844523071
-0.5443267442686224
-0.46135918553351424
-0.11845488856567032
0.49979946754400867
0.7325527257632735
0.9925411933446622
1.1517570807009525
-1.0260452817068115
-1.2136334194111675
-0.8354227410305777
-0.6031822485098048
-0.49738026833506
1.6015822096386692
1.2501905098518227
0.3773822531614786
-0.3535055839978874
-0.7457280330546091
-0.6425358122195506
-0.2937173473947523
0.26624661640330843
0.4213059323429017
0.3632592798609154
0.07871934660022369
-0.056640955789761624
-0.2733006850868157
-0.1959995930148542
-0.03154325471900342
0.037734794127959215
0.05240593060187614
0.06753331487493534
0.1407772645533758
-0.07949416846257445
-0.16384259388400743
-0.10845172896129213
0.06113128546929519
0.29005236895523795
0.7004324631858658
-0.39356763746891105
-0.26251826436013864
-0.336544874043704
-0.3885815987186112
-0.5354877787297685
0.7399606625638833
0.5523445019972364
0.37577186528238815
0.019974252968084066
-0.17078282225624924
-0.2972223543660564
-0.27257837519949435
-0.19054675184751751
0.09649887898661731
0.18489039419721476
0.11426943031752133
-0.04563373131731831
-0.01097878955046282
-0.09940511941979323
-0.044018489392865026
-0.005207661946587623
0.2209183517478262
0.19972455996626384
0.06333305016364382
-0.07511919569467587
-0.10051587726711837
-0.2736032872850124
-0.2146786346974974
-0.09898925874954909
0.13397499262328166
0.16005063035503797
0.24580462199915565
0.22840145083595448
0.10690693973512998
-0.15232120545176236
-0.19888266346685363
-0.27730552963777627
-0.2103171562923869
0.007085609637933001
0.2010555241755938
0.20349558920337874
0.23514121654977105
0.09465456651684971
-0.04182646356051059
-0.21108874209868606
-0.24801104457799264
-0.1723892725693869
0.016849289393658744
0.13814108802623426
0.2172128654086119
0.2763022534018489
0.1286582417323769
-0.2187115849305004
-0.35589450580180176
-0.2605120505497894
-0.09463630741438202
0.18819122287854925
0.42798102939125027
0.24238809047407517
0.01793987121370853
-0.08705430084563483
-0.3293862621307472
-0.36416084440442625
-0.03226180693065302
0.24290318416522133
0.24984008922079531
0.17987192168047456
0.02109512244834145
-0.04068662929685089
-0.21473152538658627
-0.2963367751584322
-0.06173793732528664
0.12922819915171396
0.12285548992896317
0.15786053511729836
0.25426875344171923
0.00982547892184962
-0.19453645206399486
-0.18280683032682665
-0.17126618487959278
-0.16115426603817895
0.05990556903903293
0.3085611155246633
0.1932786307145942
0.10532168080137302
0.018176486284879657
-0.10362381243622518
-0.2898346363104603
-0.1503863466224113
-0.06820285479764904
-0.0025484629942128553
0.09782414269334586
0.2764568550296671
0.15276402445359633
0.11378175993441335
-0.08250246063596928
-0.09318509152372831
-0.1707635458338245
-0.14467665593647264
-0.21049049805891845
0.0695425173087698
0.15476173473448263
0.10731722479402885
0.1728167809341647
0.1667898083393359
-0.1290728254105933
-0.16060259205363042
0.01215578994869047
-0.0695723163204296
-0.050067125161116284
0.04914802792415361
0.03178297495201667
-0.0760116483704284
-0.032508062965274226
0.010106175258022283
0.09529283066876462
0.05288777369428719
0.09328127448381564
0.006773729525988006
-0.031582721459849986
-0.053096943122243
-0.08533660032773034
-0.14412231883674514
-0.030277682463344936
0.06788066182156105
0.16755113270001457
0.08305174391017608
0.01959862287842062
-0.028421241714949655
-0.07464124717825298
-0.1353510282182433
-0.02435731722014649
0.04980482150880218
0.08382666752737894
0.07793122286596237
0.034433136222837064
-0.042141330488446094
-0.14351789244021973
-0.05620136859724126
0.03811754977622634
-0.04061282155606418
0.12397952615119032
0.13948828928814808
0.0019023968936662636
-0.10338801750457745
0.0029745875781129164
-0.09943988611493897
-0.025378617828435753
0.018967662086415146
0.035708008764071535
0.0325866860692613
0.019346627528825554
0.004542722259331892
-0.006326730494394424
-0.011204934745914821
-0.010744366739826152
-0.00705462428325692
-0.0024856412969792327
0.0012024226013140015
0.0031739070100915124
0.00343859405506395
0.0025373210654379536
0.0011774491010681015
-4.95094283997915e-05
-0.0008102140201407736
-0.0010388754647004217
-0.0008596487168520236
-0.0004782306236493686
-8.78049836984455e-05
0.00018658731595268846
0.00030200808255567295
0.00028085697526259785
0.00017989114257303663
5.990950580018316e-05
-3.4689601873433504e-05
-8.372918770464708e-05
-8.864944019681358e-05
-6.411931711278474e-05
-2.8603886054955888e-05
2.787761778931212e-06
2.1781410270376554e-05
2.700765252800463e-05
2.1893040540516906e-05
1.1830229834024003e-05
1.7743385587718255e-06
-5.141494174384581e-06
-7.913958823701543e-06
-7.200229342953248e-06
-4.503208710850125e-06
-1.3922823197357963e-06
1.01047254336692e-06
2.215899909248621e-06
2.28784890401033e-06
1.6201666488408967e-06
6.926912758062058e-07
-1.0995493361009245e-07
-5.833314418900867e-07
-7.007554347969269e-07
-5.563386831760808e-07
-2.9127794056144445e-07
-3.2533726659383046e-08
1.4153076633450405e-07
2.0773739138951392e-07
1.8505325444582553e-07
1.1319797326443433e-07
3.263650069806337e-08
-2.8312606548322127e-08
-5.7846732004277194e-08
-5.829389044139443e-08
-4.0197161137380936e-08
-1.6010013856217775e-08
4.488611185820508e-09
1.6261373943388695e-08
1.8841899122940832e-08
1.480146579489913e-08
7.831604757930148e-09
1.181560609114898e-09
-3.192470564469626e-09
-4.762446181818754e-09
-4.068628855910816e-09
-2.1587717532815464e-09
-7.502099015975554e-11
1.4689927049478126e-09
2.190031192491379e-09
2.1655032538618885e-09
1.6768749449917822e-09
1.046959019923791e-09
5.240686897713337e-10
2.319480612232413e-10
1.769349906486092e-10
2.891035466799265e-10
4.720774233719495e-10
6.427967115550721e-10
7.525274801010981e-10
7.894516352499814e-10
7.68794327305896e-10
7.181444127956129e-10
6.643108386185294e-10
6.252493852318941e-10
6.077150714484935e-10
6.092694384861102e-10
6.224173908476212e-10
6.388014860382225e-10
6.521246556659901e-10
6.593569600069156e-10
6.604803032958889e-10
6.573877248492141e-10
6.525910875827519e-10
6.482106230276091e-10
6.454579844807987e-10
6.44592745963317e-10
6.451918779657671e-10
6.465329224775786e-10
6.479292375561452e-10
6.489300454801127e-10
6.493724797282754e-10
6.493241188457711e-10
6.489750251592646e-10
6.485327596207296e-10
6.481532612701008e-10
6.47916577744552e-10
6.478378379417682e-10
6.478946756074002e-10
6.480525585990136e-10
6.482764793204636e-10
6.485273984064096e-10
6.487509248579821e-10
6.488709273434898e-10
6.488002138580799e-10
6.48473662353636e-10
6.478976055142075e-10
6.471962673841019e-10
6.466268126241163e-10
6.465350172330503e-10
6.472382610107118e-10
6.488519121454474e-10
6.511130201356376e-10
6.532878690955413e-10
6.54258479735827e-10
6.528496488819772e-10
6.483748947082522e-10
6.412589925997231e-10
6.334743817655976e-10
6.284680427866486e-10
6.303189848929217e-10
6.420949585060759e-10
6.637535201233951e-10
6.90357483857632e-10
7.116667961555448e-10
7.141069428378404e-10
6.855232495841668e-10
6.219950708898949e-10
5.345473004898178e-10
4.523920175753174e-10
4.190886874469963e-10
4.794049417201804e-10
6.579555188691459e-10
9.353742877275098e-10
1.2323303554886173e-09
1.4138183746307758e-09
1.323376483440951e-09
8.477395734289685e-10
-2.2688355965827316e-12
-1.0250457344068877e-09
-1.8168279763138883e-09
-1.8533341992120095e-09
-6.781878540693659e-10
1.8327579448342138e-09
5.2174021463912935e-09
8.314851219469268e-09
9.431928107897257e-09
6.868647295464157e-09
-2.4795277885233884e-10
-1.1053567804851034e-08
-2.2364209767810023e-08
-2.889891872053035e-08
-2.466516986459237e-08
-5.499086141733147e-09
2.7821122429187452e-08
6.709013450127474e-08
9.640832567083137e-08
9.555138502653741e-08
4.7427046961023465e-08
-5.168358851867e-08
-1.8253099728640037e-07
-2.9905216680593956e-07
-3.355079196061509e-07
-2.2745973796494885e-07
5.5718801330028875e-08
4.7612317238690344e-07
9.062204635946056e-07
1.1396768585481292e-06
9.473042635985834e-07
1.7674310192739759e-07
-1.127858421055676e-06
-2.6335421615059665e-06
-3.7149937202287096e-06
-3.593016296005601e-06
-1.629215146287078e-06
2.2776638100350198e-06
7.330061015084402e-06
1.1702956045734534e-05
1.2846901239079569e-05
8.32395655855266e-06
-2.926126017834381e-06
-1.9263737426823962e-05
-3.559036010426126e-05
-4.385355320837562e-05
-3.530079415576111e-05
-4.386531635102637e-06
4.663344331147768e-05
0.00010428555914327016
0.00014400735162321362
0.00013581597511513202
5.59381537461111e-05
-9.786969403258786e-05
-0.00029271934480953806
-0.00045640731321713754
-0.0004901787663068013
-0.00030198557308858804
0.0001442558013313129
0.0007783942603053791
0.0013969475267003144
0.0016859825309392647
0.0013117050755021029
7.341810341542113e-05
-0.0019203208909087627
-0.00412566437062354
-0.005578705842798154
-0.005126344813870259
-0.0018839430621467603
0.004174529914297731
0.011708431136123416
0.017883390813347885
0.01891010392264607
0.011370632163528528
-0.005865385448560415
-0.029742762650954675
-0.052105338780749105
-0.060828584646822684
-0.043724801559167886
0.0049102986642706285
0.07646846773285589
0.14146890713000349
0.14737489022856565
0.023249698156973152
-0.10827195909008418
-0.11393341210844078
-0.03216178475635824
-0.059772612130472746
-0.1470167231313813
-0.002835652377946241
0.09013440277811392
-0.14652420151852055
-0.011728385670686636
0.35336035882878186
0.35264262579086536
0.13681466511592916
0.02190922874868328
-0.2784629079020524
-0.41632632138432873
-0.38072970950171725
-0.2889496178669627
-0.0032418326568330494
0.43003172036839465
0.5307375576092446
0.3414439299026042
0.20531852794543815
-0.026625951358539696
-0.3612940084320745
-0.41367609641089553
-0.3573589984719134
-0.08995961162399473
0.17833162900558508
0.31345093681595765
0.030691341353019718
0.06244960663668965
-0.07108978468045422
-0.08350979721589635
0.06582234697588403
0.36971501448151806
0.18123234945176836
-0.1689304437023075
-0.34940305454792625
-0.4066484859798399
-0.3536916271139564
0.025324978375575454
0.5563234973717616
0.8518186587941535
0.6966193298696131
-0.7468775201364006
-0.7142356768573981
-0.608232814779484
-0.38024728336057206
0.463326328856735
0.22987038778109525
0.5975720808164307
0.5797010520859255
0.3123938024240737
-0.5274227853179685
-0.2798504397780165
-0.6518529940897677
-0.4791403307925964
-0.31563487000605295
-0.05516526534584319
1.423344297773874
1.0069287252526609
0.11872643159958769
-0.4783785445018788
-0.8473841469346405
-0.8311441914416262
-0.4195056410641751
0.2531688138114998
0.6788821595262282
0.7298933051731074
0.41815912586565124
0.47964397992313473
-1.0093451066079964
-0.5915702319740893
-0.18228397867751772
-0.03598277916082955
-0.33781152124428976
0.780684500022314
0.2110700281650133
0.03640484347175117
0.7103611417940912
-0.9473109187712085
-0.14115174270921016
0.11594191827368412
0.016156113855486872
-0.6375897198109448
0.9658608869881906
0.03859872198069826
-0.2136584191870297
-0.19540602037403465
-0.12168783603859626
-0.017465671411211695
0.28206238844091963
0.13106293811118708
0.07545816723904496
-0.13961258802031198
-0.15768309559672444
0.002596424022018967
0.1582424760002313
-0.033382504425400306
-0.2779115560113431
-0.2564598048115552
-0.2476126277414386
0.04314884364399208
0.6532858764990852
1.543858333143252
-0.39658677527354785
-0.519416341140702
-0.5627285319538627
-0.7983309833684691
-1.20268664697749
0.9333876634607217
0.9584459923661585
0.5966963384113729
0.29405546169767627
-0.004195276433396473
-0.23724486541092746
-0.38272635163073104
-0.3990129015075137
-0.37574803797137846
-0.10772737911375035
0.10155470540124252
0.21016673238845845
0.3930324441932592
0.39694725582890644
0.10839250758219808
-0.25870556281947077
-0.3560415544773603
-0.28206056348704434
0.039630012433179165
0.27843044929954447
0.3109488005278578
0.23476952188109618
-0.014821338606880636
-0.4460057346283515
-0.5958678882620657
-0.12937787345614282
-0.058765513181058784
0.21732228760275335
0.4643822213695585
0.567762730380655
0.30914809005282834
0.17352935394171298
-0.41391590972924525
-0.6327264819852707
-0.6130587352889156
-0.40218548848910357
0.036432366819703216
0.5924803378071815
0.760459091035038
0.5948244901519475
0.08766078343852608
-0.422763682301956
-0.6185399922613473
-0.5607078789222175
-0.2592938207168301
0.1324613465506185
0.4988827171708645
0.5281167640168697
0.2798289480399326
-0.032001616446681605
-0.23584532625154242
-0.38334759486616615
-0.32489881807856164
-0.09164014267650657
0.10909135218200791
0.28505134574515734
0.24353804424154046
0.17804451135730154
0.06436926110530275
-0.1314686884115624
-0.23681525490136662
-0.2548266267065273
-0.1540654749574344
-0.07104460439467893
0.07339825859954027
0.14847287000183013
0.38723647137776573
0.3698715791056008
0.22439103241854305
-0.15283441020837107
-0.46204062469145185
-0.5628325238762485
-0.44979235306483517
-0.05227829124728693
0.33961670844514713
0.6322418407747609
0.6860237792406538
0.29162284584544507
-0.22478216956467684
-0.5691269993400094
-0.6340988154310716
-0.46047091562642334
-0.021334745861634436
0.3652978514428324
0.6027688387059082
0.5769604608657323
0.12939046733971943
-0.3477984870984849
-0.49619843205743047
-0.36564217908116636
-0.19271652575616166
0.20721927358129794
0.4336017416504444
0.2867043002077025
0.1560583441459532
-0.1816379628383153
-0.35444484597807957
-0.18233397220586267
-0.06731904414854324
0.007892223517067259
0.27210596878714477
0.15273491822916418
0.06388773223175215
0.00048766345723995043
-0.05978623483407586
-0.14846936317269913
-0.09612726402555456
-0.12415876876939426
0.15885090873413968
0.15621074920145162
0.07983609522260071
-0.05260674017810813
-0.01866063104672228
-0.19092750414949364
-0.13815320631051128
-0.02974148120426753
0.15600331859853558
0.2223613296079692
0.14792836378824908
0.08800371055218384
-0.014579045326486299
-0.21144059676360943
-0.3293658646480499
-0.1571727037499943
-0.0446387929733734
0.08494494233907655
0.3124313110431144
0.2985856637922746
0.06672439862735528
-0.0018249160063728577
-0.1587329409815631
-0.2707065337978531
-0.20007858720791957
0.008962598290549417
0.13479558205101957
0.17429712080499057
0.13458753214945524
0.025627629785499425
-0.14323336509833756
-0.16277444424203616
-0.02185082819643987
0.09353199713410551
-0.0011517098325834088
0.1081978694377211
0.03179974450418077
-0.024687280234306205
-0.05875442198267519
-0.0685652339844151
-0.051097345469616536
-0.0022856319453535587
0.080562814203662
-0.0048587216746963265
0.13123341223363658
0.07044301873299215
-0.010436826720355959
-0.1329977847238403
-0.11000273434897188
-0.14058044830554758
-0.010436276969639505
0.10241949592282208
0.2186410383834538
0.14936194576940215
0.09295548819933537
-0.16147621881826238
-0.2256983941252737
-0.30381056424155095
0.01113078755735945
0.13265627531583563
0.27041310442785466
0.2193265863930269
0.15489030359229583
-0.16162620920193213
-0.16912931338805587
-0.2894240799001538
-0.11425147418434418
-0.0026063346722593746
0.10990193404059274
0.09264149601434847
0.1987542614239905
0.04812936894050951
0.019909629041247698
0.056898103790700136
0.08102304891761937
0.016368175707289014
-0.18570063699010741
-0.3261862704133935
-0.35010545737831356
-0.15548054885275608
0.17974873036420602
0.3590570825274218
0.42905196423847547
0.5558312716424918
0.22674605040338575
-0.5201883469593007
-0.4477279776628019
-0.46866938539419567
-0.6119306194357782
-0.018525810064539256
0.43095646453461406
0.6682759373142766
0.5882897780473044
0.41855202998878277
-0.2802577560246183
-0.38439821317438566
-0.7615730530079508
-0.43021760866356074
-0.14137184500218075
0.20913099460118129
0.543422495418219
0.5548159801157788
0.2703522691356294
0.03702683052953066
-0.26391955438587056
-0.3811027582566355
-0.24916694919320448
-0.15197343002275682
-0.10359429984369506
0.14913138500968148
0.10564296510124883
0.08019419545027491
0.16949966489656418
0.22814814008527395
0.057644241093679514
0.011079332409978073
-0.1888772681096885
-0.22476508492756023
-0.15994325325282382
-0.022283095433869613
5.878463805819962e-05
0.15110379019676906
0.09165438372559508
0.08158762545249058
-0.035099100887784646
-0.039360078524333146
0.06061887131106952
0.03328923103685423
0.03240845324250324
0.008781567872990375
-0.07721829063749862
-0.24534275983331233
-0.09058504945886789
0.014074681871274631
0.10754224506675249
0.22639743720398714
0.19192343648397447
0.003413890277386891
-0.15989661425458632
-0.1297502656943635
-0.1370457777109808
-0.00225481864147033
0.06878398392914642
0.08344493672173417
0.05733019751497581
0.00853682605353184
-0.046746447372209954
-0.09664916561604107
0.06551988474638894
0.04127611038356052
0.02759861681231582
0.018416960350875883
0.0070036114138594344
-0.2113393150172563
-0.03750147026070387
0.13126229030077474
0.09928624060282301
0.07004504314081168
0.04518759197450059
-0.17417319172160997
-0.18502652006784975
0.0187824234615231
0.04475889818985615
0.09708008281155946
0.1713637855784376
0.05206679128436643
-0.08532611276840148
-0.06745679101757522
-0.11402751385248329
-0.030033321154844587
-0.002234815203720534
-0.0010964378434614968
0.012485534780747726
0.07770571388895516
0.02425005511769183
0.06506299370009735
-0.006767691768325541
-0.01639627940158844
-0.0014688596293980674
-0.003742525745299551
-0.06000562407371359
0.005781059665310669
-0.012484437598962542
-0.10192732942262973
-0.03389848466721919
0.02895099176535953
0.1232350171419431
0.07556607516552175
0.096317355493407
-0.021589087055094113
-0.09874997330287555
-0.1621314768327516
-0.037787126219136866
0.05388342645734761
0.09943800819922999
0.09139321010911775
0.027053200135616167
-0.09127020644020718
-0.05464958327216771
-0.04597632117028889
-0.040257786912311785
-0.007834419895854625
0.07979663561150763
0.0431466090823138
0.08915447039504114
0.00890501577536432
-0.020373354555711026
-0.02953479783829799
-0.0497654966926418
-0.10527485825460454
-0.008610301636396724
0.04021206595861335
0.050973740943259835
0.03837805515175626
0.017008235030674845
-0.00228000993652927
-0.013835062919960039
-0.01675995390995644
-0.013290490387742371
-0.00687359573622685
-0.000616223495852063
0.0035695635527891226
0.005125974657067385
0.00452472846343265
0.0027398218158033107
0.0007577360209482488
-0.0007354623402089064
-0.0014574073136395605
-0.0014680717548535983
-0.001023876420510926
-0.0004246125519601751
9.553270930893233e-05
0.00041438126478853584
0.0005141006543999614
0.00044276290572922884
0.0002705962386344415
5.941639497498653e-05
-0.00014747396147638043
-0.00031844235503636034
-0.0004204413836907395
-0.0004122815683877529
-0.000253319484084061
7.124772073094746e-05
0.0005171960835735233
0.0009575497777884523
0.0011891443295558026
0.0009851066118542506
0.00019342967748879535
-0.0011417981326150735
-0.0026848479570479146
-0.0038017529137723766
-0.0036980899347847946
-0.0017169271250465639
0.002257503529746322
0.007428773358935918
0.011952507798207066
0.013240187050931043
0.008808545382679103
-0.0024272202859126307
-0.018797521130447317
-0.03509676068062512
-0.04310850479503731
-0.03396903054228725
-0.0023376387244866516
0.0485062278402295
0.10238824833584237
0.1290021560530271
0.08753676801911785
-0.064486601897987
-0.1591186354446155
-0.20677774979844976
-0.19091780924906718
-0.07212836772879917
0.1983084416851624
0.2597562196923829
0.3260283242279958
0.17943947895188886
-0.02056331086769806
-0.3158633445578142
-0.3229623116314408
-0.4121320318220982
-0.1022113180366453
0.12484616716852967
0.3934752180557272
0.39861926658585894
0.3775486276964026
-0.10060934370713846
-0.32504507121489906
-0.41894987688446933
-0.3117612392064895
-0.11852567542286226
0.46889181963430443
0.5818951439885625
0.37506248857756663
-0.16625476528268768
-0.40961235585107125
-0.6584951172932045
-0.548223122967891
-0.26620536972817954
0.40147539995298726
0.808112336721201
0.9904449431139856
0.8422908030804864
-0.8675440941238072
-0.63550532170496
-0.541550364943948
-0.5738355698076966
-0.3839268861553661
1.1169214162433416
0.3252404288435992
-0.30838075130731873
-0.33777619315667534
-0.17325214544388845
0.47878973797097496
1.1939637263170546
-0.36765744879529094
-0.030819688882935948
-0.25061767197079643
-0.648553510171995
-0.9581098097613686
0.8042469286769294
0.1361712544867933
0.2196032531629848
0.07643878919901943
-0.07744534702606441
-0.271415797517579
-0.008774034759243102
0.31697356575281305
1.220749947589297
-1.257771682045957
0.07954170817254587
0.43414896024701183
-0.14382601137483245
-1.5208115100402804
0.935781560976009
0.14939527754481957
-0.2958295629372303
-0.19937184618331222
0.207676317237022
0.8214428123370996
0.2410631929606856
-0.03045627190174448
-0.15833693455998743
-0.12814087030524512
-0.6922743050844605
-0.32743205622752847
-0.01599883507551148
0.14350967284257654
0.30149874181360714
0.20992874749737284
0.1773148977397829
0.23854866822163323
0.14651160397031376
-0.21409559042407417
-0.19640928291196486
-0.35463588060703094
-0.4121731052390332
-0.04310585167480328
0.5307433103242445
1.3323728284920364
-0.7789107284408784
-0.5105495128089805
-0.3363227076397108
-0.3015622431781452
-0.6422384818492496
1.5823735168916395
0.854185104093477
-0.025855001885900276
-0.5347777807286066
-0.8007737462690859
-0.5667844323302839
0.037764096826622864
0.5071631646876302
0.7545780786719463
0.5046182567856046
-0.1039271119661672
-0.7010891779797119
-0.6622848825685184
-0.4937647332489697
-0.04032341559884112
0.4819025103876393
1.0380953919810803
0.7322830778111119
-0.011751988675310066
-0.8387645680720385
-0.8279057835485599
-0.6557767781522513
0.023982654745672582
0.7768868469126221
1.5676249278923202
-0.2581389850365892
-0.5746955278447361
-0.6575283246861753
-0.3563118367132041
0.12419850155185914
0.025503558070422188
0.6199483336745515
0.38769982526973973
-0.20315044616069433
-0.9070928671249253
0.6972111178678001
0.009805706893966853
-0.18689716108088525
-0.1247005844621706
-0.04627726610125782
0.19840585977378639
0.3570401900661662
0.18347687270992374
-0.14901356166900748
-0.4322192762658611
-0.4121529991493637
-0.3915654051659538
-0.05104379384830027
0.5140596098792546
0.952780046013739
0.8311013512827825
-0.5673422747581265
-0.4088860399949558
-0.4568265275460221
-0.6184805234514104
-0.5125603716721718
0.7322328946530176
0.44964517070419724
0.19256704735088653
0.0911919967784935
0.025796024743405612
0.01906542214445941
-0.15458782439865978
-0.14971755173584742
-0.2290204708238727
-0.2485323734830626
-0.05327803594120942
0.3169359152681675
0.4169919678704155
0.38983511116610464
0.1714801277317931
-0.2902815783988075
-0.8096993869346027
-0.5422493827234214
-0.18259760526934504
0.2124460412791869
0.7818935855644857
1.41609205416646
-0.4706914508341395
-0.5387683907198997
-0.4953863149887675
-0.45626644476982686
-0.5143203325648792
1.0740966870105828
0.6870362755630302
0.1292757994090738
-0.3705120913600548
-0.7557389397619604
-0.5389639063161209
-0.21127977330389686
0.530945190014327
0.7486831485279767
0.8287290521230473
0.47594505908556856
-0.6617943703358545
-0.9425034665766336
-0.6733522703102586
-0.47321918832890836
-0.07131914977250152
1.057799696763817
0.8391202620772857
0.34672719333352636
-0.020416903182321162
-0.3282428681572792
-0.4704570169750745
-0.5226826940804199
-0.3077283374508916
0.014370823167285992
0.12856313677589057
0.3271278535381981
0.46739111372713255
0.5418204441840742
0.2734640845004116
-0.05911723223663787
-0.7746070922769496
-0.7366256687371522
-0.5178163433941703
-0.19707372210077045
0.20603501595869625
1.0712140590289105
1.115104320668281
0.5523455237368953
-0.9038482418772519
-0.8036199132242877
-0.7043458042222002
-0.32253859037954297
0.08753979041344485
1.125780208010941
0.6207832970892574
0.005398249031962132
-0.49352114372817646
-0.6501506331551726
-0.2292998425647465
0.017225409675729175
0.3415408669870604
0.38137938139471095
0.34248348275955715
-0.008231080952844545
-0.13407118737967244
-0.3074779791757494
-0.38534153049702186
-0.1911759480669331
0.08865639932932333
0.2939511545849028
0.27079597283846146
0.2523366539730351
0.04865774767303871
-0.1506179445825415
-0.36360652304534236
-0.2005055658487709
-0.05309608617141269
0.10555661188778173
0.11138039759120166
0.19431389493753887
0.16475558899914297
0.0070495016436430726
-0.11757848246076494
-0.06001992287209659
-0.06844711704293951
-0.1747594108524655
0.013589421898736392
0.11446844699603018
-0.03480954063664814
0.01227640808144886
0.09997331121652774
0.06032164262435059
-0.09327203137110236
0.03192750285492886
0.010143940283068618
0.002538995677637355
-0.035175648701899126
0.05591785859847084
0.04651092359635568
-0.0736913575847808
-0.09152912917666078
-0.17043711450865007
-0.05634319658165775
0.11065412131607594
0.18124446651451986
0.1830418190659469
0.11290476396042111
-0.06143207368853508
-0.1908386630200431
-0.12933180357222462
-0.11938251162676225
0.017120075747054358
0.08013460114610542
0.08606108909512933
0.05891811748997679
0.02177012324296423
-0.009001178451817759
-0.025691405227264517
-0.028127347235644865
-0.02077100720372339
-0.00954001613250582
0.0006077801416474949
0.006879655108797423
0.008725571908310217
0.00718452203481826
0.003974794870156787
0.0007068800003182978
-0.0015803942608171298
-0.002534630285334751
-0.002348098532312086
-0.0014979868194835893
-0.0004930798079372524
0.0002964446213702799
0.0007035210332793999
0.0007416906638957975
0.0005345491361668849
0.00023678923127058696
-2.5455223541683193e-05
-0.00018345110949841357
-0.00022621678281133748
-0.0001827360069048814
-9.824203262197004e-05
-1.4144760522870802e-05
4.347782233131824e-05
6.638063455470195e-05
6.01732024881192e-05
3.7482209900906624e-05
1.143704713015519e-05
-8.608892059094671e-06
-1.860806024334169e-05
-1.9132253769372116e-05
-1.3497807028055468e-05
-5.7235133022468395e-06
9.805226022389277e-07
4.916876442888266e-06
5.8745555339553625e-06
4.648882951006881e-06
2.4239148781359227e-06
2.6045526855267516e-07
-1.189463967904543e-06
-1.7357769356598493e-06
-1.5399889229605728e-06
-9.356964987948918e-07
-2.6136119003253716e-07
2.470181172950938e-07
4.918650630531401e-07
4.936153729427093e-07
3.410032198645383e-07
1.3830828817415197e-07
-3.2870539948089456e-08
-1.30730006692333e-07
-1.516824055783285e-07
-1.1743922981687855e-07
-5.8949563461639744e-08
-3.356763305236045e-09
3.306783219213536e-08
4.6005848332640644e-08
4.004859303444732e-08
2.399318978518422e-08
6.55477852231503e-09
-6.320976655723937e-09
-1.229477531002505e-08
-1.2038656396658522e-08
-7.920491334640725e-09
-2.642808165967201e-09
1.722831624900554e-09
4.150068981400374e-09
4.593929753942147e-09
3.6444241748087374e-09
2.1093615732662265e-09
6.824657797188064e-10
-2.310463808543949e-10
-5.348645409901438e-10
-3.5816744747320004e-10
6.74716524410049e-11
5.179009505413208e-10
8.435606897521047e-10
9.887249227926249e-10
9.74416757610883e-10
8.636658684677616e-10
7.264268626889173e-10
6.152224006307267e-10
5.551673759842949e-10
5.462032644267875e-10
5.723615928765913e-10
6.125864213799091e-10
6.491685484351244e-10
6.720385619590943e-10
6.791009390718354e-10
6.739589831031402e-10
6.62698264434192e-10
6.510773449164009e-10
6.428522097844899e-10
6.393405249063481e-10
6.399062552606887e-10
6.428755153347484e-10
6.464396913046658e-10
6.492688931781104e-10
6.507508315304067e-10
6.509181980253692e-10
6.502015947922721e-10
6.491491246831132e-10
6.48212325445077e-10
6.476408334159906e-10
6.47478691138215e-10
6.476261204024251e-10
6.479234554067316e-10
6.482229249927005e-10
6.484303629992213e-10
6.485148846237653e-10
6.484952762989755e-10
6.484158952887182e-10
6.483234467938754e-10
6.482515577799865e-10
6.482150943650434e-10
6.482124163183812e-10
6.482319506677323e-10
6.482594483561649e-10
6.482834102815037e-10
6.48297663056326e-10
6.483013280983013e-10
6.482971510179345e-10
6.482893144421412e-10
6.482816060047132e-10
6.482763823316916e-10
6.482743597392326e-10
6.482749932902504e-10
6.4827710992901e-10
6.482795049532695e-10
6.482813292935273e-10
6.482822236643173e-10
6.482822507198535e-10
6.482817205547804e-10
6.482810031335276e-10
6.482803909381677e-10
6.482800362213518e-10
6.482799550308987e-10
6.482800722284287e-10
6.482802784085693e-10
6.482804765992626e-10
6.48280607933838e-10
6.482806560125024e-10
6.482806364197754e-10
6.482805801182429e-10
6.48280518145871e-10
6.482804719098963e-10
6.482804500485002e-10
6.482804504267831e-10
6.482804647590157e-10
6.482804834512998e-10
6.482804990736294e-10
6.482805078820411e-10
6.482805096323365e-10
6.482805063709014e-10
6.482805009553481e-10
6.482804958655076e-10
6.482804925688995e-10
6.482804914349052e-10
6.482804920228887e-10
6.482804935170862e-10
6.482804951187517e-10
6.482804962889765e-10
6.482804968213063e-10
6.482804967840213e-10
6.482804963979452e-10
6.482804959115638e-10
6.482804955133814e-10
6.482804952951694e-10
6.482804952588756e-10
6.482804953490058e-10
6.482804954910245e-10
6.482804956215901e-10
6.482804957041952e-10
6.482804957306954e-10
6.482804957134324e-10
6.482804956738619e-10
6.482804956325155e-10
6.482804956029385e-10
6.48280495590031e-10
6.482804955916961e-10
6.482804956020625e-10
6.482804956147021e-10
6.482804956248386e-10
6.482804956302306e-10
6.482804956309391e-10
6.482804956284633e-10
6.482804956247447e-10
6.482804956213993e-10
6.482804956193331e-10
6.482804956187207e-10
6.482804956192191e-10
6.48280495620265e-10
6.48280495621331e-10
6.482804956220776e-10
6.48280495622389e-10
6.482804956223281e-10
6.482804956220506e-10
6.482804956217226e-10
6.482804956214648e-10
6.48280495621332e-10
6.482804956213195e-10
6.482804956213872e-10
6.482804956214844e-10
6.482804956215701e-10
6.482804956216216e-10
6.482804956216355e-10
6.482804956216214e-10
6.482804956215938e-10
6.482804956215664e-10
6.482804956215475e-10
6.4828049562154e-10
6.482804956215421e-10
6.482804956215495e-10
6.48280495621558e-10
6.482804956215645e-10
6.482804956215678e-10
6.482804956215679e-10
6.482804956215661e-10
6.482804956215636e-10
6.482804956215614e-10
6.4828049562156e-10
6.482804956215597e-10
6.482804956215602e-10
6.482804956215609e-10
6.482804956215616e-10
6.482804956215621e-10
6.482804956215622e-10
6.482804956215622e-10
6.48280495621562e-10
6.482804956215618e-10
6.482804956215616e-10
6.482804956215615e-10
6.482804956215615e-10
6.482804956215616e-10
6.482804956215617e-10
6.482804956215617e-10
6.482804956215617e-10
6.482804956215617e-10
6.482804956215617e-10
6.482804956215617e-10
6.482804956215617e-10
6.482804956215617e-10
6.482804956215617e-10
6.482804956215617e-10
6.482804956215617e-10
6.482804956215617e-10
6.482804956215617e-10
