0
-0.0001439322926968468
-0.00014393226879128344
-0.00014393223705607116
-0.0001439322085863377
-0.00014393219930787862
-0.0001439322249325004
-0.0001439322930907461
-0.00014393239488080727
-0.00014393249965961004
-0.00014393255752498372
-0.00014393251272979522
-0.00014393232776256843
-0.00014393201241837288
-0.000143931646429818
-0.00014393138076726651
-0.00014393140458645183
-0.00014393187417301208
-0.00014393281684321936
-0.00014393404262419898
-0.00014393511175471468
-0.0001439354064227198
-0.00014393433188833414
-0.00014393162297444062
-0.00014392766603930817
-0.00014392368674343424
-0.00014392163317844466
-0.0001439236351329832
-0.00014393105995611757
-0.00014394339615890595
-0.00014395741494977802
-0.00014396718423597925
-0.00014396542298863362
-0.00014394630650389875
-0.0001439091822207738
-0.00014386189338722697
-0.0001438218449936065
-0.000143812976203618
-0.00014385775532910357
-0.00014396525330302913
-0.00014411889710225649
-0.00014426975269245755
-0.000144341857290007
-0.0001442539669007748
-0.00014395652948260597
-0.00014347450009815632
-0.00014293828883239236
-0.00014258070165829059
-0.00014268164310165965
-0.00014345751158194607
-0.0001449176933619769
-0.00014673978054992385
-0.00014823587604404002
-0.00014847946064521641
-0.0001466234951307696
-0.0001423639893961347
-0.00013640501680183976
-0.00013069684487907745
-0.00012819813685748815
-0.0001320031714480153
-0.00014389564010443382
-0.00016270890533101422
-0.00018318847993364375
-0.00019620882509729587
-0.00019102371797516808
-0.00015962152066105342
-0.00010226075715819691
-3.21430728999231e-05
2.3580002638704753e-05
2.9090578823852707e-05
-4.7474554217896226e-05
-0.00021602628917542676
-0.00044689758783148274
-0.0006624914305461184
-0.0007476995418592603
-0.0005848492940536805
-0.00011018694950654765
0.0006234498026457368
0.0014050829834960424
0.0018779355969711562
0.0016309002971651198
0.0003700268987991397
-0.0018680274911829248
-0.00454152216763865
-0.006577129330506624
-0.0065914016329767285
-0.0033973868588662334
0.0032828524853082135
0.012122095735007207
0.019844282716236186
0.021580418478529994
0.01211542127916257
-0.012120015849535141
-0.05090106863480368
-0.0988469973362538
0.0542223243454945
0.020841511053575887
0.011929490807971631
0.032628045600409945
0.0794534303218034
-0.060169633848073514
-0.005702475745120054
0.020847865341967177
0.00029345040291748877
-0.0786410471425812
-0.015704528820091136
0.002073164721478856
-0.0012713662893034654
0.005163475101052911
0.0533267177151935
-0.029987246175387977
-0.028556875234776014
0.059532367105135556
0.020484456459992275
0.02620261867091157
0.03874092736364788
0.01747886301610417
-0.07209977931984413
-0.049944587258076406
-0.11567119747840521
-0.047616102825051375
-0.0077052582442341455
0.048672511103330485
0.1604633529325186
0.1502570666847316
0.018752415701573655
-0.053713446413430434
-0.09935876195829739
-0.15207065805157516
-0.03757824364469326
0.03207218061116949
0.05864533510789358
0.053597568705245104
0.03215121114799158
0.007988986471565256
-0.009940064875478766
-0.018184960227620665
-0.017698183973485097
-0.011847812917351038
-0.004447746047538742
0.0016074278951415256
0.004910542928893119
0.005434067009135031
0.004030752845280545
0.0018432164198920141
-0.00015972019367883187
-0.00142189155709201
-0.0018220099658314442
-0.0015519641226391827
-0.0009420676245916261
-0.0003072757630643263
0.00014535235483703593
0.00034157353365359675
0.0003143242268566572
0.00015409350760112837
-4.0405278062916446e-05
-0.000195993677581418
-0.00027841959542874864
-0.0002887053907198924
-0.0002498758221841104
-0.00019175852012343582
-0.0001393086457403878
-0.0001067795896734978
-9.735259664758465e-05
-0.00010625399316826692
-0.00012502737578375003
-0.00014516745360765816
-0.00016026574399447135
-0.00016670603429783847
-0.00016348307518324913
-0.0001518074593201215
-0.00013488486952711285
-0.00011781422944868315
-0.00010717236976552124
-0.00010974730016546668
-0.00013015864021577765
-0.00016772952731159373
-0.00021375027827738913
-0.0002508563037385723
-0.00025622669308541596
-0.00020938011613200994
-0.00010346403500778161
4.3492430158978244e-05
0.00018296439557276964
0.00024204658271119805
0.00014513742169289086
-0.00015043074404758874
-0.0006142718773164041
-0.0011155080968821632
-0.001428905103091726
-0.0012910473655740281
-0.0005079001842523912
0.0009094620541479872
0.002631575614980899
0.003988727320430864
0.004104508402446262
0.002209338621634886
-0.0019160256113322062
-0.007510453580217572
-0.012637009844388723
-0.01445840519722504
-0.010129626736502036
0.0017558063541880755
0.01952267655229346
0.037207856148819954
0.04453803041457461
0.02863969025785405
-0.02254507204959656
-0.1159942484333108
-0.050068787851417544
-0.013379135966433996
0.013058746492514633
0.05088003470092396
0.11840704104081216
0.025924916193202266
-0.02606376291732959
-0.04517585750075074
-0.04309983589591243
-0.03104397475873371
-0.016486560661782647
-0.0022541808957408124
0.012054517350607493
0.027134417975331875
0.04085819922091865
0.046370125674443353
0.0323990701922464
-0.013971826080259464
-0.10283633211864115
-0.036922738531544035
-0.008890276794277029
-0.001837572671203652
0.006715415887991871
0.03820986618879995
-0.09470678755683434
0.0046447015845974765
0.11217442228548964
0.18253362970484438
0.1547838019357805
-0.03501834751401446
-0.23602846690334303
-0.26430987904814135
-0.09037660757054126
-0.037812096237862594
0.20553124821545765
0.16666288329513418
-0.03732976681849257
-0.12207106278199907
-0.05260802847480394
0.14813107944501946
0.4006336836536809
0.1813258537220906
-0.25354004241309325
-0.2361165438163263
-0.25511780932158445
-0.33364462929205957
-0.02415148019116109
0.37764813493295685
0.20465446463699355
-0.014876102807416032
0.013726526442747737
0.13328519860850888
-0.07046968710938364
0.13815138625383877
0.061494756002462785
-0.20922626615544193
-0.37164072439946044
-0.09579065213525481
-0.018048642721441265
0.2539968813991936
0.3298438744058908
0.22467111390166633
-0.04549050709536843
-0.260082977200979
-0.3854495720453887
-0.16845518370750995
0.06135327429632776
0.17931500881865658
0.2470206952583261
0.2952746251526031
0.11627733924670058
-0.13118165971240203
-0.3054198990238529
-0.26131642065388583
-0.23424566775181047
-0.03490850285109149
0.3439817937471426
0.5142424333126142
0.2806057823368849
-0.16172448886480567
-0.41899716936294507
-0.48636385252578945
-0.34094908735500684
0.05162884631708862
0.5171436736340708
0.6478676344781062
0.3867901109868971
0.032646759517618314
-0.33152540954412824
-0.5950086176216951
-0.577995713022674
-0.20972418272338794
0.06322335920776974
0.23938345786986504
0.5077436129455031
0.5944284515660239
0.3287117522048426
-0.16072887728536828
-0.41948933036871344
-0.4220564947720221
-0.32434709487549995
-0.22990748656717142
0.22171532304396943
0.4454437942470395
0.2886730521688493
0.008275303718251352
-0.1447529451516407
-0.13048216018825115
-0.11808654698292312
-0.08197082842432522
-0.00010934228828629543
0.14413507789913235
0.15824208639758913
0.037808161417118784
-0.03260383684591719
-0.07453718429393535
-0.1084820291993488
-0.14764348967242294
0.004568043107497533
0.15233801595258942
0.10191446437299705
0.0557656875213892
0.009421553134393038
-0.04764568290662079
-0.12790886447807207
-0.040731746497127
0.011171409169609736
0.03235337616081672
0.03246616294243964
0.022608924354705635
0.011803427362256019
0.004803174661255345
0.001744510472002066
-0.0004980664782211168
-0.0058393841575004315
-0.01622683887351851
-0.029509514049583983
-0.03875571570459915
-0.03354589765338483
-0.0032175712470609093
0.05872890013079056
0.15062222709648176
0.06090552988166301
-0.029955582297047093
-0.14415886156752164
-0.09989925773492396
-0.10636141298095216
0.037320251767578035
0.13892404097850763
0.20795439728423556
0.051717513654267626
-0.12484994223838997
-0.11558128847568229
-0.10827999856089698
-0.08230976296041859
-0.011045490353109678
0.13084318914198062
0.1578638122793845
0.06595700851968733
0.030207560025243822
0.009665607973203712
-0.04178917539076966
-0.16189997380112656
-0.16830522542534243
-0.05280814267991193
0.01604305236145392
0.08270101690828867
0.19025110967161046
0.1671087853145585
0.01953141844701311
-0.0676866124384169
-0.12333128797343118
-0.17852841060271357
-0.056973325375556085
0.029740344961130878
0.08074583118975025
0.10033636911393233
0.09168829162013849
0.053232631849604514
-0.020556159638170837
-0.13443508790852643
-0.08616950198918501
-0.06208472137775751
-0.036988703948904224
0.02080620372356613
0.14084392213321384
0.14139276090610578
0.02335285611248862
-0.030366166029117136
-0.049767864425176334
-0.06900314833101891
-0.11715684000778372
-0.011660773706976428
0.043886294885622866
0.05752302667922428
0.04394558528935733
0.018988637422919945
-0.0045817058097797755
-0.01912133025447632
-0.02217405638403152
-0.015311522060254549
-0.0025950789476883204
0.010777685667662951
0.01949446798742943
0.018980835068559476
0.006305682528626935
-0.018846771019010843
-0.05347546278654095
-0.09142051028104595
0.07515912809821798
0.053165672472039543
0.045841878343201706
0.051450990575559956
0.06445189611326459
-0.1208990918137281
-0.10597416427100215
-0.08461316974658026
-0.043606918941820005
0.032382511840410744
0.15283774266633496
0.11355479868853921
0.09274377701919924
0.05371546889860663
-0.045662274870450215
-0.23942558162880204
-0.14069896066126072
-0.13476976433013435
0.018631585839043053
0.17403926311118226
0.18379659667818807
0.08237630391080358
0.07697767218539678
-0.05274235715170977
-0.14644438932561116
-0.049835200730131236
-0.0009325875302954653
-0.01982600509318471
-0.10424666234693913
-0.03153351958100422
0.033848461594303374
0.1293663840581554
0.08325589648799517
0.10662766963098991
-0.008656110705121251
-0.08591523353569447
-0.15528386312155673
-0.044402541414366246
0.028554467624929088
0.05777293227731915
0.04887323660844957
0.015731383297367188
-0.02329004135784546
-0.04878905870387793
-0.0433796876682837
0.005383411099092417
0.10227977107336073
0.04261351370816449
0.012369634115937209
-0.009043119060063089
-0.043896255422767365
-0.11057937225030716
-0.019295149064279295
0.029508123111553555
0.04362969475725488
0.035458464635738346
0.017785429094816098
0.0005656997310826527
-0.01060524706207587
-0.014335952686086652
-0.01217473254906492
-0.006974522836446915
-0.0014941548607247835
0.002436555362141903
0.0041464310341621825
0.0039042139829767084
0.0024877260638278722
0.0007549168285478936
-0.0006496237257604011
-0.0014117155199725514
-0.0015186587391716572
-0.0011501507048314607
-0.0005557887824957267
3.5848981195020876e-05
0.0004610448416233242
0.0006268599522262255
0.0005007712000989381
0.00010443113117075873
-0.00047976191714046274
-0.0010964953125322222
-0.0015196292349368126
-0.0014911585683138348
-0.0008087267376399208
0.0005504810919385157
0.0023117578124600365
0.0038572728144002206
0.004322337574516806
0.0028719708888888472
-0.0008724428544306157
-0.006380134480489781
-0.011941906701353928
-0.014828834711432608
-0.012056447484231259
-0.0017430666916961371
0.015237247108358358
0.033907418670392646
0.04491728642104809
0.036007908904031424
-0.004626696458317636
-0.0837255862676818
0.0014279142986882091
-0.1347318382948719
-0.06750630700778164
0.032413009501785564
0.19026079418365888
0.018269661476040262
0.10996198350478759
0.04028573855074589
-0.02784381713265492
-0.1324117479050009
-0.10020824614675196
-0.13800409791057344
-0.03028663549088561
0.055443195331502854
0.15763382218602717
0.10795084466853502
0.12154045834613608
-0.00629271599966815
-0.09623620508102804
-0.17608305918160555
-0.07079219862592522
0.0045374433317465985
0.04659945691177608
0.06104620423329075
0.057116241505771714
0.04250915244180112
0.02061770626149452
-0.009120444470878774
-0.04842538472851957
-0.09668807500623687
-0.1489484339483738
0.003047136079766991
0.16662017031191065
0.14269918542221924
0.12243644454847985
0.08881804011345336
-0.17615653208516355
-0.28135491680193453
-0.21840660628399705
0.0395593957844197
0.1304875687052018
0.28986834165885494
0.137025828647221
0.06738953930630567
-0.14597646097232933
-0.1426568485375414
-0.16152858702458928
-0.02932329240823591
0.044925918054322354
0.06860478359910496
0.059245533699962515
0.036494297191041296
0.015359780377250408
0.0025966018430964304
-0.0033368703011231074
-0.009431429749690332
-0.023741928852625268
-0.051057788826077775
-0.09010330274383188
0.06675391757468135
0.031180985043286126
0.014841065553338473
0.02517056753384534
0.062447582725252464
-0.08098882740010034
-0.01930517992278761
0.02990981633735007
0.04959541434556143
0.02738923840090086
-0.04054868867777033
-0.14692052453023702
-0.07314445392143208
0.007263886630377664
0.12193586747407353
0.09143151529422405
0.12265009282076163
0.006661369196521904
-0.07802021796252782
-0.15805775639597092
-0.05688989782516276
0.011407578890076722
0.044084510204760674
0.047653764012291246
0.03350866605075631
0.013336849281494756
-0.004116497451199341
-0.014345774370466455
-0.016699507535032417
-0.013037163586689875
-0.006212465027663728
0.0010633284199998815
0.006772448286891453
0.00965911531948716
0.009089977327226387
0.004983713226006993
-0.0020507068210534867
-0.010436439484885306
-0.01747085091251895
-0.019627491956205566
-0.013567104738103337
0.0021690947838610675
0.025210054614534797
0.047956821774131506
0.05770688027538147
0.039025487615124844
-0.02165184609393358
-0.13028967130114744
-0.08048448761775531
-0.051994244554253895
-0.014001055067778479
0.06728354387192773
0.2190088049236922
0.0535248512600865
-0.035260641087198674
-0.06982367457205194
-0.08251436704305048
-0.10747159995614397
0.02614220329336029
0.09803562863701393
0.09804963765456684
0.026174929991648728
-0.10744470852985818
-0.08252362321303192
-0.06989135355575998
-0.03538638333438028
0.053374227863626604
0.21889900187667266
0.06729706792917745
-0.01379681922561219
-0.05158897010167433
-0.07996240173055938
-0.1298420216185161
-0.02154402187301293
0.03854212059438242
0.0565270656474509
0.046257923463424104
0.023528434012480372
0.001343950199628658
-0.012631577083947047
-0.016369759622085596
-0.012147077872953903
-0.004467698273728555
0.002003234469253747
0.00402825637185897
0.0007152468003683389
-0.006268632125434517
-0.013172919237094858
-0.015308036034404403
-0.008770049841088557
0.007523773784426685
0.03003104966950796
0.049793981120947954
0.053461909504677094
0.026545500975624362
-0.04150291650833748
-0.15185452756603
-0.09279095255692763
-0.040286323414931505
0.03648921430445983
0.16610001842265412
0.1655026721917682
0.03428117047021929
-0.045012604085142675
-0.10055021103101563
-0.16172337196316838
-0.05045281287829446
0.023396370324747034
0.06134664825799832
0.07164400721301595
0.06334882029663236
0.041999407429748656
0.0085524165281197
-0.03835184248330021
-0.09830677874142885
-0.16567865893524916
-0.029099827280878586
0.12507669204193084
0.10650786742268073
0.11481021981116497
0.13717018861640884
-0.04842439233944994
-0.2650889233537336
-0.1274759289680571
-0.03522859157560982
0.02731636294290674
0.08495133921449555
0.16173244535493791
0.07169885394874216
0.01393914659426388
-0.02626941664540194
-0.0710811889211753
-0.1412832944903108
-0.048597465742498715
0.00813703398146088
0.041914029543141856
0.07270538743609223
0.12124386394100481
0.004050010370490583
-0.06872107675931242
-0.09270593118358868
-0.0675257135572258
0.004448357763318826
0.11787790185577687
0.06337463508487892
0.027078200938765187
-0.007828886432591666
-0.05763777372081778
-0.13402961819596143
-0.04145376725760818
0.022412783492347415
0.06293096794059673
0.0829884652389028
0.0782361347528405
0.03540121066884505
-0.06529329682167126
-0.044354660670085144
-0.11610251462730839
-0.08329393744072638
0.06476310107800447
0.15030108425596098
0.0027824825490985684
0.05434021103500458
-0.06351189953663226
-0.12186111253416886
-0.09625923751572918
0.030227848499088793
0.06262730949415801
0.18993092249248872
0.184045981462728
0.004243103311572447
-0.19271884503094466
-0.23977044107972148
-0.14925630799082873
-0.11016267012313265
0.10528467006144697
0.3282603614027213
0.37945730366378183
0.061679678495547056
-0.23709897455230106
-0.33183041221312914
-0.22632933943428188
-0.10511612779620927
0.06393442551307262
0.3169724255930177
0.27756199770150186
0.14408700472333727
-0.1128023142077842
-0.1415537160361522
-0.193898533458008
-0.10872677874761799
-0.10205461458776585
0.03353193984739194
0.1205171779268499
0.1830669904306591
0.03412822867073794
0.06801784696420861
0.061237377267802005
-0.018720819021957484
-0.19946657712479982
-0.08934100134719866
-0.06762299307144501
-0.0831397838130139
-0.06258557549176261
0.07311605942721995
0.1886800882889622
0.3164866661026617
0.04667650030022593
-0.07106355743979947
-0.11452756652691293
-0.1695267519691081
-0.31086500121559274
0.010001670188954336
0.1675921736871941
0.15665395243824065
0.18289338553273987
0.05591709764314883
-0.011929252037005074
-0.20080559833446093
-0.07606390682055511
-0.18333081063814494
-0.0501934100654854
0.003949864389925271
0.25174315059478236
0.14019161359202525
0.07732508413032743
0.027816760503985682
-0.08094986229895122
-0.14432497181130102
-0.061592880458465345
0.08241894258711846
0.031868781943223054
-0.031149388005771377
-0.08381534903361108
-0.06626749512045955
-0.09198094645759894
-0.06430674957765707
0.10294790692169523
0.2649680313777372
0.2308493558255756
-0.040921299981376925
-0.033989747770006566
-0.05435272564748917
-0.20461693287861674
-0.15926694664230057
0.05282796707240072
0.05494073951295227
-0.0825174288431928
-0.05653417611282995
0.047800388236756315
0.13441090918563736
0.07557702819354138
0.09784874052983124
0.17777062647525793
-0.1516093081058027
-0.18529243747842572
-0.026201364965962988
0.03445921976545643
-0.06781802367340115
0.03736750310942968
-0.04352782985236577
-0.07315542886698545
0.006604848668834839
0.06153566440456235
0.15167840735215932
0.12077001674080155
-0.008849193994517869
-0.03498097400934937
-0.16954211202936736
-0.23128021826050632
-0.04103689768249256
0.17842232476371161
0.19914655288756605
0.18518719776556608
0.09457252473047777
-0.11199609912102668
-0.25784918254573264
-0.3380997240052166
-0.11503772770822564
0.07475510867348482
0.30261353057694207
0.22557593826339797
0.2685209809263946
0.017856804417981133
-0.1709214195408209
-0.35538112708611
-0.185759441412369
-0.0902794955636411
0.12892599698215987
0.2897458345584367
0.21882884501581232
-0.058555827804547524
-0.12340270741876055
-0.1625183205944837
-0.1658940149608677
0.07437356076346711
0.16191544115773662
0.09191826388890388
0.048039510008482104
0.003206156450507513
-0.07488365370769731
-0.015009269463715467
-0.03330089584773731
-0.12684656497710387
-0.07244058348956835
-0.03155598183362066
0.03917811684113421
0.1747226860066431
0.18986086075276432
0.07335005078132134
-0.00926290807024718
-0.10457325006215366
-0.25571541083623545
-0.08785750855225968
6.155196080798745e-06
0.034347814013426334
0.0583194699165128
0.11843189708444554
0.05127989519663718
0.07428585063398253
-0.017271858501116726
-0.04681991605994936
-0.048430399996599156
-0.05707343232655621
-0.1002263246481756
0.006949420535446262
0.062105073035692696
0.07271914950213941
0.0516110336161076
0.013082172341761775
-0.029063126096567953
-0.06171969791354987
-0.07209808829280236
-0.04824582106195051
0.018659884886163047
0.13064428034648437
0.07955286983288992
0.0461049871259878
0.002786135874815842
-0.07974788006984092
-0.22491843074066092
-0.04422539141628332
0.06451006037700613
0.11422761968969887
0.12299654744275561
0.10886413464839724
-0.11233613897275035
-0.12590322794061762
-0.11584872341606955
-0.06399374907983701
0.04756443058386626
0.23107223246147895
0.08746732016480756
0.0037670607625245674
-0.04452987597609138
-0.08661453534212227
-0.14792403605571958
-0.043621386342705536
0.023437281507317102
0.059763799144395856
0.07502088694842166
0.07551441991153444
0.060324508914921915
0.02177984820099014
-0.04986330619538508
-0.1595110718778327
-0.10124902434194777
-0.056393596474088294
0.0028158766670107493
0.10474710804753293
0.26836433284066896
0.09604410365626707
-0.02728985354442065
-0.12799636175344845
-0.233219833446561
-0.16095533385799174
0.0848133663009584
0.11216033371841756
0.13428273927036125
0.1617631545918975
-0.0018812621267778808
-0.15951033840751142
-0.11568534403246328
-0.07126652219931397
-0.020661072562300965
0.04665396199446096
0.14115333297048033
0.06743848673772013
0.020521371950300953
-0.013946248553073949
-0.05558064171307231
-0.12312332355858897
-0.02883052634977381
0.024456030913060336
0.04275501813973847
0.037646755640751324
0.021916900185773414
0.005847260671638447
-0.00480184133854086
-0.008910668487939718
-0.008654159781386332
-0.007434998211301599
-0.007861635633793605
-0.010382573624143403
-0.012956370570804891
-0.01187637153254812
-0.0035845547105842162
0.013000466162393857
0.03441026117295983
0.05174997311118591
0.05185759769687091
0.020827759644875245
-0.05069454964222497
-0.16214162305650998
-0.1000061121171725
-0.03935490255861159
0.049514873441999875
0.19105361587101954
0.1948764171604779
0.050861326654756296
-0.06852459604046943
-0.1993184478121697
-0.1742655658724984
-0.01299282980987048
0.08234953871850671
0.12544949187081983
0.14039259929771042
-0.044453421565178806
-0.20121132351126852
-0.10594042518162952
0.05798471272775286
0.09589137620590057
0.198396370090255
0.14110339670807434
-0.11057958874332435
-0.19189782612994574
-0.12773544161813755
-0.12479338288459405
0.029458831236095023
0.16048293024186622
0.09570384243663975
0.05341849055748606
0.03587544171268217
0.028908421596705765
0.008064790638672534
-0.050888579341875934
-0.16054241323311852
-0.11347734471446319
-0.08035404319829142
-0.016031392020528182
0.12747028360290805
0.185073440670651
0.16528274351008182
0.04438156315117309
-0.029284715546503436
-0.12201973185863943
-0.09678306009998847
-0.19635454398128938
-0.03296622390085415
0.012594004764372176
-0.017403779457896097
0.12790010472382546
0.292523748553254
0.10265131303788913
-0.036142565381205354
-0.13299565286959597
-0.20054953414274598
-0.24420846724109885
-0.05731881996246422
0.17529722321079505
0.26736270698477893
0.22012658589204503
0.01636563122668227
-0.17721560732773786
-0.20027919994321897
-0.08652377232451613
-0.05416426902808331
0.09744955121879578
0.18507837178139247
0.03526820748877706
-0.12238166672015095
-0.06042856703888206
0.04289758653989852
0.001189326688736598
0.018033140293633825
0.08624514133138089
-0.01118626558722113
-0.09819594188871032
-0.0012279422924349672
0.05573045379900014
0.05575742995934156
-0.00729187588802204
-0.12642950593116148
-0.08135833316436342
-0.041496499701256476
0.027466940530154478
0.1547149293012571
0.1559390653789915
0.028739781757529954
-0.046126929530694284
-0.09800008501740531
-0.15680908830294732
-0.044637877535281
0.028583214828499237
0.06430300755827992
0.07082919208160106
0.057756511319009746
0.03198855957794245
-0.003165960027355708
-0.04594928274539573
-0.09269010427112565
-0.13515334337319734
0.039353719223906264
0.04448661119940557
0.08918899479189504
0.1724829127556809
0.08152935676739081
-0.20560858094869164
-0.11341343610213168
-0.061519043114760745
-0.0598005772187662
0.09229758505130675
0.20290766980084726
0.08388442050221398
-0.051415169984792834
-0.18775243526676746
-0.10639480654693165
0.015077402468669641
-0.00037647282425478463
0.06449364704700625
0.2142201949969486
0.036051145672256875
-0.09973451083987091
-0.03418674205036206
-0.01046273043024503
-0.06396932178726658
-0.014673233505031847
-0.06342462759350054
0.007027244872599041
0.02679801097565946
0.030920523450595018
0.05090137908511097
0.1081308518721765
0.010951159725187055
-0.04396711425350391
-0.06678356729049387
-0.06830701794810932
-0.055050830460923975
-0.0274689820573219
0.018104524812951148
0.08492287598489902
0.17105666831586425
0.06707053985142845
-0.042120831959837894
-0.17155474426385722
-0.12926305027283633
-0.11169353430828066
0.0958073249571269
0.11331245029383641
0.15797839381693435
0.03687492019525181
-0.056003632575385445
-0.1378013992963219
-0.03148826451019535
0.040274309118892564
0.060107127298612575
0.019045841304921932
-0.0819802840310078
-0.03214022632633566
-0.012348363551815903
0.001262589472383957
0.032464263607082385
0.09982340622619698
0.012895843939606876
-0.029062275395050335
-0.0355684445010521
-0.021312657046161164
-0.0017973532234664893
0.010566197678286954
0.009191396673868398
-0.005362643958992732
-0.02551152208190768
-0.03822248467764921
-0.02802158814527299
0.0188769369286121
0.110170375163974
0.0441753033131646
0.009060850413923863
-0.014717227186265579
-0.04937967679870226
-0.11391891158520975
-0.019460421900592044
0.03252528360336077
0.048835805933279096
0.04098551701397451
0.021203112747380397
-0.0005167665700633693
-0.017627309542278383
-0.02673337503347987
-0.026589142174997738
-0.0172918428132344
-0.00024642554639838063
0.021092889466583525
0.040265191679917364
0.047514379623756695
0.030955607064544935
-0.020587269168143657
-0.11374090893034226
-0.047199715730369095
-0.01044064775033662
0.014539997170139521
0.048855384919719004
0.11130182747690101
0.013900013726610677
-0.040087997489648856
-0.05536692786059862
-0.04198612946283348
-0.012399780943905363
0.020628709909458125
0.04501608026111775
0.04980141556881666
0.02587346677886577
-0.032584336904504456
-0.12633476217689996
-0.050156996065911515
0.006073959075720556
0.054037723369742725
0.10252476131181495
0.15411496414649686
0.005068975085880744
-0.15092559814298498
-0.11666381352484699
-0.08612896489206885
-0.043119357982884195
0.034856037739114894
0.16863524980617328
0.16868338517348633
0.0293886053726859
-0.07118619603568724
-0.16630387834282548
-0.09300579509418269
-0.08558959810023667
0.027528482938499167
0.2237429911666855
0.28555669028473285
0.0026009567744340813
-0.22194171710782656
-0.16231965894348746
-0.1635127601396432
-0.1422863354106289
0.0010950498196229334
0.16182838692209178
0.2056223179888923
0.14761301475278907
0.14265029148159472
0.4915698631781784
-0.5366377408284531
-0.27225106243166464
-0.21172814015836863
-0.1950918175964254
-0.4013303365935124
0.6373436296581878
0.4086921418428135
0.19215499878199588
0.03996714221598407
-0.2267540389736521
-0.20899652157405132
-0.3155164183584275
-0.15183269104084116
0.08201675131927452
0.38513129688237435
0.3462532507679322
0.1387463357045656
-0.074669809350562
-0.32797890093583193
-0.4353861650055146
-0.38184217726279385
0.07212956371228332
0.37073484794776057
0.5358865573629095
0.34557947684738677
0.12945513426690303
-0.21361097226895795
-0.380723040631599
-0.4255805003836129
-0.32959794445259183
0.0049954944182945904
0.13661916857057874
0.24593347852452363
0.28968134345636204
0.36088945216218365
0.06684409952264622
-0.06980232616392815
-0.18876203406345504
-0.25680004272543555
-0.23043963829474834
-0.02674242288370649
0.0918781484865146
0.1181141147789298
0.0890369796250256
-0.13046769555670326
-0.06529197210628049
0.154652806875189
0.5839642854994898
-0.5421177986516194
-0.004674178323534179
0.006417755747701961
-0.09994295413040619
-0.5125320715053505
0.5800215188193767
0.18276476619594906
0.08774881075103454
-0.12829588118000296
-0.09996792468558323
-0.0647216417204946
-0.053970088604963405
-0.08748545738161995
0.027102037560611938
0.09013729592525441
0.10332720848964215
0.06376235035422392
-0.03875762309839645
-0.019936535884059334
-0.09538171448640588
0.3269447265838601
-0.3460154070086602
-0.08770260695492556
-0.051980850688576025
0.020533314989904964
-0.20979630313880746
0.5030806803996348
0.17750495337632735
-0.0021468190217237347
-0.08144694194339169
-0.12256466522319995
-0.18639845148513032
-0.11658582725611302
0.0694513945676767
-0.01969925014667897
0.04238193025293118
0.08733492735916706
0.1393779968675757
0.006591548202037467
0.07863676082212596
-0.06868928095612246
-0.06386391456585812
-0.12842030798651421
-0.0679806145216195
-0.06858110737648311
0.10058717926947895
0.07921679084688922
0.10569159014313986
0.008156358923237454
-0.0006161565015380489
-0.12384391394072289
0.022194611857503634
0.012907694864145426
0.020477077734960457
0.018517951910408493
-0.013986817442360888
-0.0897998962440442
-0.012127693654124312
0.024617861862340808
0.032055279917265124
0.023879647704051474
0.011976713197872427
0.0037339213395948625
0.001144366469261873
0.0017043264391044903
0.0006640109641623369
-0.0060609778502980554
-0.01912561740808469
-0.033962540029652884
-0.04066777747096939
-0.02594194230336519
0.02313676316784142
0.11451125539492508
0.04735763514210331
0.010786396731424492
-0.014109449401176553
-0.04937480315037064
-0.11422225231968061
-0.02017198500358998
0.031016031499862953
0.04618779279565203
0.03733563783016416
0.017484140737764498
-0.002581677975302197
-0.015997172070254827
-0.01997773801729876
-0.01503713882916875
-0.003931460717060096
0.009247191687441718
0.019777186837703867
0.023057831214906482
0.015709532274644653
-0.002887147338103423
-0.02894271560844612
-0.05326234421875386
-0.06186162271793277
-0.038891115085417156
0.028241650409583027
0.14283542404109958
0.09425050331155821
0.05714710582336604
-0.0039877603052603785
-0.12569412695259596
-0.13455454476887801
-0.03822598079469001
-0.0218005243417322
-0.05090431706288814
0.11941862735569478
0.13288251212408078
0.020888994132682977
-0.00453831248885933
0.04788119079112999
-0.047242712254771634
-0.12427032234119806
-0.01773945998218094
0.04514623710574947
0.04930232973697424
-0.0064656746665737305
-0.11032736179328666
-0.04055606381569764
0.029360145403557372
0.1243550325689009
0.06173266882803782
0.04737152931207494
-0.12457713245655816
-0.0687585409177611
-0.003995179474887998
0.05127776495004276
0.08261736617291049
0.08228890131874808
-0.14865699821266898
-0.19944980575192062
-0.05114380801488801
0.11832459333268225
0.12634356537001223
0.17805886156165618
0.06280084751041234
-0.0431285584813476
-0.1678683210728551
-0.13304071731454284
-0.1451602628739012
0.00680230019969564
0.1466619294996145
0.10124151186192
0.08988171570183733
0.1176504629882136
-0.025135963524027805
-0.15722623067701458
-0.09727973716071181
-0.05526928990792828
-0.028010480208754462
-0.00046433553755388256
0.04791104484104941
0.13432634344275649
0.06472710917170096
0.029777034643907938
0.006331886781186611
-0.036047739995795414
-0.12583898082491177
-0.08086083393701719
-0.10329584055161839
0.019751838766614044
0.11051234973932539
0.19217602463309436
0.08165115685108146
-0.013348063802846172
-0.09192908391924277
-0.15422116480855397
-0.19585785096088892
-0.006317250824410029
0.227435428775073
0.11362040239844218
0.04847639189887382
0.013114907662025842
-0.02380516091379457
-0.09846948023671763
-0.04213591220931847
-0.07248434762902431
0.01132838526045847
0.028765450545194478
0.013560837917493164
0.006416413063180215
0.04662658696942039
-0.0356738473331166
-0.025396114438191945
0.07428321810226572
0.04189694676860494
0.041196368872899694
0.028122511247173992
-0.03968756252075233
-0.19287504718589749
-0.04257357683298089
0.02261178452085992
0.03374973121902197
0.03372559749117083
0.06675130857273529
-0.03200088720894658
-0.04442433317620928
0.026195877895127576
0.15529350136679226
0.10201208981986302
0.01902820834304143
-0.1341611007252985
-0.17783421306764294
-0.30333804663906316
-0.07347020586257141
0.16651987861288095
0.2702358001243244
0.2706050817790242
0.16748212445712093
-0.07232243068335359
-0.30258091886461974
-0.1780482797638323
-0.13570431033465835
0.016265047147616694
0.09877781964858262
0.15295837037265597
0.026438460614799646
-0.04024999821528554
-0.023700712384475575
0.07746109410992678
0.04296972459189424
0.03616161002269142
0.01312346016309579
-0.0660481362913106
-0.22667111798630715
-0.07286789174351936
0.012522668163980823
0.061065280146035794
0.10716289041374755
0.17607863000963248
0.07608173068163744
-0.0023150009590001005
