0
1.0141506142072363e-07
1.0146772122271875e-07
1.0146540812159724e-07
1.0137735407945563e-07
1.0119718705466888e-07
1.0096023145407057e-07
1.0075030152398721e-07
1.0068654114761482e-07
1.008852139554029e-07
1.0140073467293447e-07
1.0216295351787968e-07
1.0293942620693341e-07
1.033557660325494e-07
1.0299776076377241e-07
1.0159238811482709e-07
9.922431718987453e-08
9.650179715423331e-08
9.456080290888149e-08
9.48115140547697e-08
9.840250925019547e-08
1.0550288414149785e-07
1.1465039560661899e-07
1.22525202584747e-07
1.2450773763949052e-07
1.1620091362876793e-07
9.57262239090371e-08
6.611136728476363e-08
3.66458558341732e-08
2.1937522314510646e-08
3.7800428576609405e-08
9.41615365962151e-08
1.867514630513995e-07
2.909685114419355e-07
3.622013376824815e-07
3.462000246594798e-07
2.0021691669664125e-07
-7.925027725168344e-08
-4.3195326387042835e-07
-7.265818219755419e-07
-7.842293590328461e-07
-4.3893497484820213e-07
3.730138606003537e-07
1.5223344720443717e-06
2.638441468991405e-06
3.1520184937180177e-06
2.460238221917649e-06
2.0439599663692228e-07
-3.4116175273633456e-06
-7.395249697233834e-06
-9.996670244337255e-06
-9.1315724944701e-06
-3.214217589944741e-06
7.771700142676703e-06
2.135407021475382e-05
3.234631450111923e-05
3.382786859193716e-05
1.954830563009315e-05
-1.2603368225330672e-05
-5.715572233621596e-05
-9.935025489434992e-05
-0.00011702416871565886
-8.723496811554674e-05
2.885521221934949e-06
0.00014394183927681308
0.0002959822918441219
0.00039045149299656755
0.00034737230516200963
0.00010812918618159329
-0.00032324753636384405
-0.0008457070459320183
-0.0012546617612792428
-0.0012827052505939981
-0.0006949029633772898
0.0005766504835401036
0.0023025653537570153
0.003896930955787919
0.004499640323758825
0.0032419652125928403
-0.0003290433106457349
-0.005784343778024306
-0.011510857497264947
-0.01481927648629815
-0.0126503387439992
-0.0028872717419802874
0.0140038195218075
0.03359278748412417
0.047141729432685034
0.04298732014863278
0.009854647775280959
-0.05853705306736297
-0.15915964235580105
-0.07776442682053893
0.008967398210313478
0.12714615421259434
0.09728058803044178
0.12713874000427008
0.008954445549583051
-0.07777913651683736
-0.15917066814143224
-0.05853825215688355
0.009868181078876333
0.04301653713290468
0.04718098461289099
0.03362868790191079
0.014017113877840236
-0.0029158233528476215
-0.012730627882597982
-0.01494160812084572
-0.01163934608404054
-0.00585933967599197
-0.00028266921176769365
0.003457190297525026
0.0048755882523558005
0.004341592565422361
0.00263668889689271
0.0005714156554634749
-0.00123391480131085
-0.0023997477942655707
-0.0027348551575339854
-0.002170491447078116
-0.0007495644552958813
0.0013122172230644548
0.0035360952641942584
0.005147688328509247
0.005195353354739844
0.0028690890429389675
-0.002021662652444259
-0.008568917686068425
-0.014540454578068095
-0.0166845013039328
-0.011739559374709397
0.001919291841765935
0.022408066203893927
0.04297105431960284
0.05200009614903375
0.035085662736333484
-0.020911588990328845
-0.12275035732753428
-0.06651148891378317
-0.036161962752803214
-0.006194618006091769
0.05206381250737479
0.16254868049044643
0.13793359062439725
-0.022937502300666192
-0.13286029429791124
-0.2109516969163052
-0.07749212773925647
0.04813490079280126
0.14580752320359888
0.19162031920926098
0.15727205508135864
0.014879428451731201
-0.25276064021830774
-0.2400472552474444
-0.11039546814023857
0.0028567962210671403
-0.015296710667928898
0.11850635091552765
0.26379459547378076
0.23902958396207344
0.015335375004046095
-0.07628192981243509
-0.12637639923089594
-0.22331701209927943
-0.2321142948658361
0.017754505692741715
0.13272777406220876
0.14539991783686212
0.09961367663401459
0.036237820593592734
-0.016160947892487683
-0.044331552680145714
-0.04809124917695758
-0.035200310619064215
-0.015847935905841402
0.0014887530009290502
0.012082186925691797
0.01505545727977736
0.012241376217484088
0.0066174460413063
0.0009613481787235533
-0.002937225887854882
-0.0044711990135132456
-0.003978776890513111
-0.0023089566561234863
-0.00039558046919368676
0.0010382109042635038
0.0016136206468562349
0.0012999180766347519
0.0003442075358629098
-0.0008265072697232807
-0.0017110070109950636
-0.0018503785652122324
-0.0009634334941569919
0.0009086435041496748
0.0032909362432892585
0.00526923313123867
0.005667036893246942
0.0034416894081188347
-0.0017529493583143046
-0.009009046105666909
-0.0158894204242647
-0.018740520093629986
-0.013795787670817948
0.0009901282446344857
0.023813096020193134
0.047403063489171636
0.05889599970713818
0.04194593455316549
-0.018890518738675872
-0.1325504140925863
-0.09670110852823212
-0.09613952167763437
0.09428357223739742
0.10282617058517558
0.1527159286951369
0.05613168390341873
0.012743489042806047
-0.18710108820844598
-0.15694970016639412
-0.11024037646557108
-0.06056429690401178
0.17365107585784192
0.3631929265444544
0.26610743114125884
0.03428066467288472
-0.3708669902276025
-0.3585798552883703
-0.2937926568158031
-0.09536278417621771
0.14938200372148694
0.9580488349412944
-0.37568317951046476
-0.0029283794168260407
0.07322765121962871
0.0037766068393746263
-0.4913623084413662
0.49495918546979706
-0.12555281111646005
-0.22313125434847428
-0.04186166353868349
0.002116236085547711
0.11627332368923855
0.12310988839759825
0.05059029967712257
-0.07531036765808942
-0.03444778348893093
-0.013109472745270315
-0.00278775131096111
0.0015100866406932382
0.002658663757883632
0.0023240613492006177
0.0014731471839315804
0.0006371596442734321
5.5470135265950014e-05
-0.00022660060137739358
-0.00027577901471639816
-0.00020051254607725416
-9.811362241839954e-05
-2.483139548379496e-05
1.0419292739682245e-05
3.301590185229254e-05
7.81401280685004e-05
0.00016432672212985663
0.00027449340625085376
0.00035231680889223
0.0003184264070012549
0.00010533251117844721
-0.00029745465697024454
-0.0008044670444638941
-0.0012229254144055948
-0.0012888376323605517
-0.0007588052724705527
0.00045623387431219757
0.0021571079018252357
0.0037880141976595755
0.004504937450847663
0.0034262238477080036
4.736488903400938e-05
-0.005289217343906194
-0.011069344105213132
-0.01467278788398181
-0.013027537074518182
-0.003880367887779901
0.012567132217424342
0.03221810165203279
0.046601101826176654
0.044053367837090025
0.012815401036656722
-0.05453699929191377
-0.15684211564488743
-0.08236663734796396
-0.010773905232535389
0.08082474407657873
0.20975954650370568
0.18119846822643582
-0.01358979612363774
-0.19297646627012852
-0.1768344092346464
-0.17896972865074987
-0.004386969131126795
0.14711091775066834
0.2732881332526648
0.16278307882737525
-0.005710458092762481
-0.05633651277268315
-0.2032091429386784
-0.23728288210800955
-0.11929033291658588
0.01695318020415701
0.05060355790879646
0.25327366763812886
0.2688965360970819
0.10111559360363705
-0.08731727863167818
-0.16323577305344122
-0.20443542604562479
-0.08061714318521486
-0.03998867205275053
0.0954922335463921
0.12692156690186435
0.0705646811306158
-0.05082816903898993
-0.014742659921498313
-0.002716382834697043
-0.0016799225742556978
-0.0037191360271595234
-0.0050273254517389
-0.0045687302182508905
-0.0027999790374690454
-0.0006679705791557644
0.0010193749660527107
0.0018632559392588665
0.0018753250411993024
0.0013315632285751577
0.0005898424245258648
-5.354614831694172e-05
-0.0004361286422101785
-0.0005334308425202225
-0.00041870526319236163
-0.00020683230670580244
-5.09102798313019e-06
0.00011723805226347528
0.00013865041550938315
7.927766043418733e-05
-1.4315201151748666e-05
-8.753495417716289e-05
-9.565316943313433e-05
-1.899849358019176e-05
0.00012666309378587284
0.00028767715939719734
0.0003818519232492481
0.00032232608838565226
5.44667877791749e-05
-0.0004026780657709297
-0.0009264935304018507
-0.0012930750521362821
-0.001229148002722056
-0.0005172895423396691
0.0008658680542621435
0.0026269357615410823
0.004117818648386182
0.004450484688153865
0.0027967971230777574
-0.0011666865798376843
-0.006804153450911108
-0.012275803343610227
-0.014749042284235084
-0.011234816947841703
-1.7815779622728545e-05
0.017645054326047693
0.03617782862198304
0.045457251063152355
0.032314999882785564
-0.01615571942489344
-0.10823871206438644
-0.04369049076648846
-0.012011970325261972
0.006020559295382778
0.03370898423829623
0.09198426901200804
-0.006985221841719535
-0.06451465078012379
-0.09761526750794712
0.06146343831719091
0.1685294587344797
0.17428088003211045
0.0354093700897866
-0.07073195028664357
-0.33131539998717835
-0.28893134202850923
-0.24423096183867155
0.12676052274466404
0.3434865894514491
0.48854699079025415
0.18368624864993982
-0.016790360906709906
-0.21273206246279208
-0.3303148563596576
-0.29006183394956764
0.018623982967802696
0.14981902695215357
0.09969471773124368
0.09554542872798157
-0.018878105912503898
0.003086840813465732
0.0011627833169374137
0.0026330652330637024
0.020828031816037897
0.05683767439507788
-0.09651642601955827
-0.049692355463294535
-0.011877843707476354
0.011870286931757422
0.021287692347256637
0.019758135232580198
0.012304043246988368
0.003664484674594538
-0.0029354709930255437
-0.006157907394637359
-0.006238822272089266
-0.004319821362513005
-0.001752062481301989
0.0004068933931187211
0.0016203395844012253
0.0018545869220317642
0.0014098197969874802
0.0007048647776245989
9.681842951553595e-05
-0.00022238015625791125
-0.0002463157764266469
-0.00010897308738699024
-1.870737578054648e-06
-8.191740413880011e-05
-0.00039507866718650205
-0.0008368950525233396
-0.0011661276387164785
-0.0010794752426551413
-0.0003401601009600642
0.0010692226339697251
0.0028238968530422902
0.004234575129569531
0.004389435733544953
0.0024832817176118137
-0.0017198133774160669
-0.007440319452711524
-0.012684259979180042
-0.014539693988457687
-0.010127502914429983
0.0018464730351831198
0.019288076628183593
0.035292814751317125
0.037858971889718145
0.011312184284454272
-0.06049244080493348
0.010195933300364862
0.019417643169606574
-0.025347501604365854
-0.10436748522412233
0.012030083825030093
-0.04227840648931684
-0.03783398583117537
0.04054762343904253
0.18538346663667307
0.16288359564722987
0.11693697399851784
-0.0183155208545623
-0.2995660030573779
-0.15456447471350448
-0.1684522504742255
-0.08178334260865573
-0.0019298351399430764
0.37519962614437846
0.13997020130747703
0.1484735058869512
0.012852314125528595
-0.09554209996839387
-0.23287143037495145
-0.06519739631176229
-0.052779294459299145
-0.04058343365435049
0.1438337520750005
0.08674976322976694
-0.01779799836608939
0.026512580823861015
0.015247987002706596
-0.057080100190354296
0.004650036101284924
-0.0014364667227555583
-0.07229249383520038
0.0006407994223361038
0.03037747077337408
0.03199329762236876
0.019737523573999726
0.0046540685988427635
-0.006594901040467035
-0.011575380996998444
-0.01095833700003284
-0.007008757110348031
-0.002222156528227448
0.0015656416301931466
0.0035158009520101703
0.0036806753464749702
0.002656169658044801
0.0011920113313621877
-0.00010173355759159092
-0.0008948060437951162
-0.0011355840274589067
-0.0009608812906891849
-0.000578537544936632
-0.00017153415762474503
0.0001514202699970839
0.00035764069348382993
0.00046018330079525564
0.00047844788826180624
0.0004109557255322818
0.0002334216705459091
-7.651167976219224e-05
-0.000498774472574374
-0.0009351208199905969
-0.0012023523748864854
-0.0010736025646470742
-0.0003713763790789652
0.0009079019166546717
0.0024843759847788713
0.003764772358035711
0.003953120797221993
0.0023284993312834026
-0.0013513711222791721
-0.006447985647418819
-0.011242423756283523
-0.013158068961723831
-0.009549542090390621
0.0009846122788665958
0.017074114414366688
0.03340064424321466
0.04055546283448833
0.026450451259967055
-0.020702704616130614
-0.10857204080040321
-0.03741405094690288
0.001231167485910778
0.023102135358498057
0.047458180006160366
0.09239794711595914
-0.029118893691061867
-0.11149746881674853
0.04310518976435359
0.025651802253069123
0.02179508583585096
0.013974623767685232
-0.015993386426368182
-0.08415877122817458
-0.0021988268614944193
0.023626897569585754
-0.007840246094162374
0.10619170582547059
-0.02858524130648744
-0.003765945118528901
-0.0074289685115723125
-0.022933187963854566
-0.028311745671819214
0.0027654151729444173
-0.10215718140004611
-0.11968993961360451
0.16265098416724277
0.14035909656419301
0.1896620127479122
0.2721285536056046
-0.05289350699225144
-0.6110330407547936
-0.3979807078104292
-0.17544996282903433
0.11698205657725845
0.5368745237627737
0.7112777172714697
0.21997950719772127
-0.20102066684483053
-0.6363095546651569
-0.5588611223997995
-0.20420274213553483
0.23743103846135036
0.40903889015318545
0.3627906245073934
0.13646323120065199
-0.059402890005907705
-0.24017887984115768
-0.2352334544504015
-0.07286222566521115
0.0309344437142111
0.07628520356632228
0.07640951550890462
0.050808627469419
0.018239802826795284
-0.00805902321822077
-0.02203422474256137
-0.0238455622114278
-0.017432735799554323
-0.007857213491986623
0.0007013502277534506
0.005926192445250015
0.007399377447524127
0.006031796338591065
0.003288705765835595
0.0005277003786903716
-0.0013857697879390064
-0.00216754914107873
-0.0019895243295643145
-0.0012581214261446828
-0.0004013749698864333
0.0002718289710326606
0.000622803875535052
0.0006616565203320395
0.00048738865477150774
0.00022337994262459614
-2.8801008373171162e-05
-0.00020889696464272898
-0.0002948471550469918
-0.00028815871459268635
-0.00019980659794509957
-4.476996733456824e-05
0.00015324996594581037
0.00035202291525028145
0.0004853358764127007
0.0004716077620146808
0.0002416515139872494
-0.00021830069784723233
-0.0008231254458974456
-0.0013684843886781117
-0.001558744776411927
-0.0010980143010665857
0.00016416211699980395
0.002073228008193392
0.004067577304310882
0.005218422392310071
0.00447472351352142
0.0011116732720199598
-0.004720231334837204
-0.011558275012562269
-0.016584721519101953
-0.016231780858269155
-0.007520786916612126
0.010080413447684629
0.03286221944283522
0.05199996089393786
0.05446749156788502
0.02617485537574691
-0.04311619558575909
-0.15465929843387147
-0.0977586944470047
-0.051237950176249054
0.00980569223279663
0.10343809377961376
0.23022700268515528
0.16721931552116634
0.07036825639864504
-0.11369022177877634
-0.22957165302254792
-0.2950958531560345
-0.09035234101854232
0.04141149397727335
0.18102049867702563
0.21340711040956908
0.20772462341137826
0.004139648902867831
-0.18950876460378716
-0.19237571154940858
-0.040918909707756315
0.020451934299011695
0.14579008554862163
0.09129740986737497
0.01806801229961305
-0.10469571193795647
-0.09621514882119937
-0.16209663984975767
0.10449378752286893
0.11809204547647359
0.09431228539886417
0.04419304012088164
-0.02816614720201675
-0.12420472124027065
-0.04717706678377867
0.0015960570069018028
0.024703664006562643
0.028359781486399036
0.020558146234933124
0.008843531077904618
-0.0013354282986890755
-0.007260279181922443
-0.008638335273442783
-0.006733802770213608
-0.00337345461081161
-0.00016125767993435233
0.0019410687063590691
0.002676485722269162
0.002312015156258016
0.0013615249299177782
0.0003340675531560389
-0.00042320395774222687
-0.0007735280032623672
-0.0007555474061690746
-0.0005068245010872648
-0.0001853101026115008
8.584566415024648e-05
0.0002417329523329321
0.00027241704214593697
0.00020486882013925718
8.230394759923549e-05
-5.0993284981413696e-05
-0.00015702545999621574
-0.00020607093708671124
-0.0001779684892125097
-6.650499673530689e-05
0.00011259085370218577
0.0003138220668764231
0.00046131004912938826
0.0004627485454578197
0.00024133139178846813
-0.00021904582610641758
-0.0008302426281529674
-0.0013812667458994322
-0.0015691468657980454
-0.0010934309075537733
0.00019506353977416716
0.002133134938531405
0.004144233882231008
0.0052826963879086765
0.0044860071794949954
0.00103176622235331
-0.004907007423801956
-0.01182529202700805
-0.01685383587279572
-0.016385803842984534
-0.0074445929348117635
0.010433496067484775
0.033397718525315055
0.052439873813246815
0.05438931051573695
0.02518979984883396
-0.044990024908645766
-0.1563780008579575
-0.09633161481886778
-0.04041973613226638
0.04133889542948864
0.1745448091184619
0.1702519687126156
0.018565296961622374
-0.1113933620248276
-0.06522552487909045
-0.0932289202962618
-0.04001880909829188
0.06366492930585398
0.20621316247288882
-0.0018219143613352618
-0.12601909343329762
-0.1079633095530338
-0.06839289572703072
-0.11556247167522903
0.04066668079110866
0.07093439758593707
0.2089395408411398
0.23991460763788522
0.09982370471676548
-0.11269903401630926
-0.11387201814561838
-0.20792715386210575
-0.2640063829657626
-0.10386572411976618
0.09615990568177828
0.19041968860131406
0.242332934402982
0.10379852045922792
0.002282557326875211
-0.061477696500702866
-0.10650172972258556
-0.1596833142065876
-0.04417923061475239
0.02797920286615744
0.057542342129124124
0.05493085079368311
0.034794018681169964
0.010780690433634693
-0.007816586468675307
-0.017064780554276363
-0.017497378679107188
-0.012236463745023657
-0.005038584410038177
0.0011198893267612673
0.004686206168182095
0.005491482987261745
0.004293428595341531
0.0021983528665850726
0.00018725096331482943
-0.0011445228110836933
-0.0016314015919801853
-0.0014313835185840466
-0.0008579767579499487
-0.0002255824570511418
0.00024833113458070847
0.0004746785572619651
0.00047263146859304533
0.00032350498285860484
0.00012298327474547175
-5.255402496915988e-05
-0.00016039102870418176
-0.00018976418456895347
-0.00015165638452044526
-6.778698345764782e-05
3.6377892774409766e-05
0.00013379791884130402
0.00019584186014369725
0.00019424587973895885
0.00010828716630803863
-6.272791513109678e-05
-0.0002858629131211299
-0.00048777122428220475
-0.0005637933922465072
-0.0004087834854083873
3.257155530813767e-05
0.0007097189436048505
0.0014294625937492716
0.0018685308830932756
0.0016586520488262755
0.0005447879759911722
-0.0014189571261290718
-0.0037114383589309224
-0.005327871356092879
-0.0050034061477579736
-0.0017254607111872415
0.0045105929051820195
0.0118589895268384
0.01592835580626548
0.0094502758001899
-0.01762096772664502
-0.07774945080330956
0.014465223945550783
0.0422942272664409
-0.013121256676925704
0.02800194324431112
0.14658387296351846
-0.0704752353421943
-0.023260430487773053
0.10915743155715292
-0.024542074292359578
-0.3453311963062189
-0.1484059051001331
-0.11711607138226224
0.05417241770360279
0.43286792781038735
0.4249959811512853
0.16543244119029563
-0.07257421137732474
-0.24966471616834204
-0.5228340706385487
-0.21053983753713088
0.02843236529464542
0.19717332635033327
0.14622189271077043
0.15014139164337614
0.08399160410331745
0.006333943088449575
-0.04839728272238915
-0.06888503254619857
-0.0602913347727293
-0.035691717773246576
-0.008640534080063683
0.011436828717062683
0.020748357673480388
0.020273845631071846
0.013708775963140872
0.005309234776576781
-0.0016473331739336762
-0.005529608466899371
-0.006259838722002049
-0.00476953855558255
-0.002339491849386358
-7.269170073062154e-05
0.0013840190190431028
0.00187399924240122
0.0015995768017379776
0.0009271112299520532
0.0002125131213050574
-0.0003058949623236478
-0.0005385029565200011
-0.0005177359603600866
-0.00034312210055919293
-0.0001256113940442001
5.121685102305602e-05
0.00014716433538996672
0.0001620165780999187
0.00012092529942963794
5.72494315801943e-05
-8.612248207125788e-07
-3.7330629508155405e-05
-4.8735031659900044e-05
-4.072367213808255e-05
-2.2924861710973108e-05
-4.482222507092849e-06
8.618322524749281e-06
1.4254925208442463e-05
1.3411625777089997e-05
8.730123120338175e-06
3.0768710377453335e-06
-1.432932806616654e-06
-3.817677478381119e-06
-4.116899707890007e-06
-3.001427346117808e-06
-1.330619626581444e-06
1.8450320461707194e-07
1.145051379940042e-06
1.4673646342550592e-06
1.284884475741232e-06
8.196960576138895e-07
2.792129026983282e-07
-1.950157732252281e-07
-5.279699197907241e-07
-6.826547803320791e-07
-6.308161687997692e-07
-3.458811551350827e-07
1.733585254647169e-07
8.582449111430977e-07
1.5310699397663166e-06
1.9049364019774089e-06
1.6500549467895621e-06
5.313526217207793e-07
-1.4133191137830016e-06
-3.7236578747715423e-06
-5.490323132904065e-06
-5.537750096318843e-06
-2.847976313088805e-06
2.8445486462823e-06
1.0482551495002063e-05
1.7436497596734962e-05
1.9886138500661154e-05
1.4011459133422843e-05
-2.1243189287748875e-06
-2.652639158111459e-05
-5.1968598820216525e-05
-6.651756345159059e-05
-5.668121842811763e-05
-1.3153342868109099e-05
6.217016501566291e-05
0.0001506229150953628
0.00021623212512015072
0.00021340017822482353
0.0001037875360006631
-0.00012058247025777528
-0.0004157715356334628
-0.0006774475172896607
-0.0007572403852001301
-0.0005102760200106462
0.00013146408084682874
0.0010811631174160881
0.0020503924175447647
0.0025748211916509366
0.0021419864287319694
0.0004175952098363053
-0.0024838409158329197
-0.00579188369685279
-0.008076666070807051
-0.0075723829371732105
-0.0028664483003385008
0.00615536266880747
0.017390324878437873
0.026031879498448738
0.024899098782724494
0.005731666218069496
-0.03884457113860078
-0.11348183084320351
-0.019458176842853184
0.04408453782102637
0.07729295028314087
0.0765298970741645
0.03289207080115346
-0.06651153956463643
-0.03471948098324472
-0.07999110634393934
-0.0017339250083926942
0.011295474907546683
-0.019784287267042247
-0.06650414794545867
0.7042305005401457
-0.6712489979238275
0.04696662662289185
0.10289427337110933
-0.057357040449543616
-0.7922222971442162
0.7240487069415474
0.28829271384728855
0.2591866064716832
-0.04179193712624808
-0.11638656050360552
-0.2660099413366785
-0.3670377819233202
-0.2543020449406635
0.28123339672695075
0.28072981391088386
0.1977221587862336
0.07908945415137135
-0.046357065316986135
-0.1694708358894453
-0.09491553709056598
-0.03250026731521308
0.010046155582591754
0.030661486101064804
0.03291562506708599
0.02373058897028641
0.01052036617597318
-0.001013783146713431
-0.007887091784900456
-0.009697168527773194
-0.007772737007160882
-0.004112565001741169
-0.000511898667828226
0.0019242476517293513
0.0028719026092452055
0.0025992280409573025
0.0016586181581278142
0.0005998607746401375
-0.0002115303050888678
-0.000648287797590946
-0.0007721809313210293
-0.0007304362476643372
-0.0006496395747624187
-0.0005672866603439792
-0.0004220314150406884
-0.00010263880371821182
0.0004638993592145366
0.001220151835704484
0.0019253543552948348
0.0021821362012769906
0.0015644159449769656
-0.00016748979794900615
-0.0028252914126478007
-0.005629283585194668
-0.0072468942544242345
-0.006128965023895515
-0.0011510143712148704
0.007572565357852136
0.017982287209531128
0.025842943223779967
0.02529593949758671
0.010231945879412188
-0.023951795534291605
-0.07919733050728349
-0.15558235608895182
-0.05518450022610601
0.011035844443712233
0.21541140417608928
0.3089468023465996
0.2247436232759558
-0.10755719534374056
-0.1377450628754948
-0.2680193600359819
-0.43288623688421013
-0.29544065675183495
0.1349758033578781
0.2660239924883487
0.47625475635168174
0.2736581434500874
0.07178002239459835
-0.00978432188449617
-0.121952675275066
-0.448211474932165
-0.16410902184237783
-0.005432182709072434
-0.05206398852488551
0.07135848240703162
0.1819619814400485
0.11909542713178776
0.1257520249075582
0.03614828550283529
-0.12850462525897133
-0.15735230131486538
-0.04394839445444085
0.01910657469307596
0.04256210165218732
0.0397622729523473
0.024098788672331672
0.006384179379204632
-0.006686799005473846
-0.01264632542115006
-0.012246761571649185
-0.0079539901060099
-0.0025329411056444666
0.0019031327007555685
0.004278185254532117
0.004482661343567368
0.003055889440467369
0.0008249268290379982
-0.0013714638415026337
-0.002839292405217262
-0.0031038318087949395
-0.001965443331316497
0.0004229651686883191
0.0034718969109915365
0.0061379934555297316
0.0070747104672276365
0.005022749892817486
-0.0005830263268319413
-0.008955126559608825
-0.017546631857444754
-0.022261632552945426
-0.018561709632852835
-0.0034722297112501957
0.021938969737910364
0.05049780908753383
0.06843785210143492
0.05750647318816271
-4.630334734903446e-05
-0.114526190506887
-0.08212298133119873
-0.08141434065679268
-0.07546849539790955
-0.02031536594604013
0.12172359889331073
0.16748102785528565
0.10195973835226982
0.07525509905607478
0.009560136931082472
0.015300057216719648
-0.18755136801223019
-0.2488881853923537
-0.17486393026724267
0.07425044831909351
-0.02607571573230434
0.016501364452506287
0.49055620744548395
1.066543073981706
-1.0053587058708868
-0.48537809024763623
-0.1302053003102032
-0.28678584416395925
-0.7018719794645651
1.4540874670056438
0.9598949360053616
-0.07060011671381868
-0.37802597226293416
-0.5230681800055618
-0.642152510483877
-0.4125296692814068
0.3592592731267416
0.5233270591371746
0.35612878850569246
0.1287984441936997
-0.11341003037617907
-0.1558257909030645
-0.20627525412145908
-0.08145176433077407
0.005183395729379397
0.049876788878069
0.05893521805452532
0.04496282011687241
0.021799579213053095
0.00042777626656775105
-0.013045439075416517
-0.01732867788857226
-0.014505596925062647
-0.008118369949087875
-0.0015189798839153948
0.003111007219806384
0.005018501125889423
0.004599974642906377
0.002865733803529262
0.0009019779424696875
-0.0005076695952838157
-0.0010451296378520376
-0.0008299463198130037
-0.00026621421824583516
0.00016329142580687327
9.60179818453041e-05
-0.0005619286705881202
-0.0015699134655344411
-0.002393996642492827
-0.0023678274060238372
-0.0009600387465882039
0.0019077324262963314
0.005598876438532599
0.008699222430623616
0.009289394875934201
0.005609446247731559
-0.0029809000824319717
-0.015042344821850922
-0.026565341746243174
-0.031463646221267856
-0.02339059938616024
0.0012223941707983576
0.03963912912539129
0.0801596464448323
0.10197640066239463
0.07881697778919379
-0.013581452316248311
-0.18801736296870267
-0.23810639788303872
-0.1367268847801785
-0.043649040648320744
0.0781420646041893
0.24224966262717187
0.4228560449227793
0.3514597582360152
0.1317560851036294
-0.32852944223583774
-0.6781109741342065
-0.6900991038701805
-0.2525784743856883
0.2106697270225043
0.8944571712147186
0.7583740515882734
0.28605532980772147
-0.3273517083146716
-0.557868819380722
-0.7172881735227938
-0.11757201073869734
0.35082387140372706
0.4228434707751972
0.25110601442011504
-0.0031892753176464153
-0.17341484214048777
-0.2838631686552477
-0.14364624066276646
0.05630509164113216
0.1401869792809942
0.13928940701256287
0.0828307107724354
-0.00836472045839394
-0.12341093210370285
-0.05881389829130598
-0.014188152365321241
0.01135081807494992
0.0208378011223119
0.01920765722434299
0.011986410291320516
0.0038704555888297116
-0.0021752108640710026
-0.005092946080692189
-0.005309285128130658
-0.004006670815687441
-0.002397321325332636
-0.0012214025254684874
-0.0005703442226428877
-2.3469939587045963e-05
0.0009967916003638152
0.0027957032865011896
0.005067342553264316
0.00679913270692825
0.006523217456286743
0.0029219253396896797
-0.004344664360018278
-0.013875627495991196
-0.022230357117415125
-0.02448996078788587
-0.01588732927943643
0.005673997298179531
0.036908680932733334
0.06740822910404476
0.08018687706757392
0.05542454181944391
-0.02276147378478977
-0.15823650531250222
-0.13661118344795078
-0.12444929947992643
-0.07635245684889581
0.05035323902570117
0.2769529273641722
0.1869818535954367
0.11909873977594539
0.17408963536398234
0.036653271476040736
-0.1924640253908134
-0.36285830240653527
-0.6506755953022269
-0.35480249658957547
0.2825715274011903
1.2361364078045594
-0.3474015396252809
0.6180459060940957
0.7493773196273461
-1.3894667624076784
-1.4572008294280578
0.6919363141897111
0.4180201200324893
-0.11389273121702216
1.24870191496949
0.03536660227354936
-0.44080036232354847
-0.6610924156349095
-0.47482198279675086
-0.08319363459015737
0.35762439869422935
0.5159162603267181
0.2568689897144736
0.02082398141721052
-0.18455216328098376
-0.17784354072725314
-0.18910139866177308
-0.04460660629850656
0.0428596805237233
0.07613212427801679
0.0696068561621
0.04232485143755488
0.01148102101785689
-0.011589406728266607
-0.022431863866143112
-0.02215407429437622
-0.014956477111831488
-0.0056558445188964095
0.0020500529858992764
0.006322119612913966
0.0070666784364333095
0.005322105930920722
0.0025223615014301056
-8.769616812689589e-05
-0.0017608845349265075
-0.0022898118744976693
-0.0018730073171957854
-0.0009164540151883003
0.00014240902074294875
0.0009464109677384202
0.001267194134079631
0.0010167342997700068
0.00025010748206644753
-0.0008286069787953907
-0.0018692360469722826
-0.0024168571991289413
-0.0020208906925468237
-0.00041722786746217256
0.0022552774450571083
0.005291768784499847
0.007430172154312659
0.007135871345503757
0.003189151447205257
-0.004534768664258115
-0.014366335983697947
-0.02261977436065179
-0.0242473310631388
-0.014579367537505704
0.008032552126822292
0.03936729536788692
0.0674265110833238
0.07273381361457845
0.031662492155411774
-0.07745104129081724
-0.06705228322598687
-0.13472849140734638
-0.06208202842041041
-0.01988827157863674
0.020792284616798565
0.0742161986333212
0.1267018951478535
0.12955040184101344
0.20238012014713785
0.24890727371486335
-0.21628488311394986
-0.4357338744166116
-0.381265570908001
0.059469416378403736
-0.12448402093471946
0.30435885574486665
0.18957821606262856
-0.06543450199128494
-0.33776637613542604
0.5882726376792966
0.4131513467049884
0.13624941229849719
0.09227395095478606
-0.5960153648336148
-0.7617992432372042
-0.3514656389222442
0.19168508481776678
0.3140081524560909
0.7167071152848371
0.11517093006883398
-0.1927840971203976
-0.1421945461894028
-0.10079567973614
-0.059759253029079765
-0.022201441590112378
0.006017120706561962
0.0214942490886894
0.024788917547409833
0.01950158760983872
0.01038137422884483
0.0015788444949435293
-0.004366079099732527
-0.006704186830614226
-0.006050746503664416
-0.0036996075293417507
-0.0009843869267084973
0.0011327613855567685
0.0022036388256937225
0.0022287703774243658
0.0014900692650784157
0.00037912385107464916
-0.0007213290639589094
-0.0014931721163243179
-0.0017019041133143123
-0.0012165415018938971
-5.461085357259069e-05
0.0015544425017207262
0.0031279611521160024
0.003971085120078418
0.0033506297958984734
0.0008063697343117479
-0.0034717839626770804
-0.008355340143223046
-0.011785087787451286
-0.011263936286765495
-0.004903898444815708
0.007118956486164318
0.021104937818019174
0.02896704253602934
0.018580327785492474
-0.02427734522420212
0.08752889789860328
-0.05316167515952647
-0.04370540203354217
-0.06935485079387055
-0.10439785608171258
-0.11779332962021694
0.11705315827171571
0.2107325738589831
0.14862161737304413
0.08848100684789777
-0.03250183157236225
-0.08201419726056829
-0.11249466263853129
-0.14281280334033417
-0.14793185894301483
-0.2608176958579128
0.01246367077697648
0.16775183893585968
0.47549487963604076
0.5614464591444832
0.40460174594527865
-0.4444644236174846
-1.0315044074167317
-0.7682985404260434
-0.2214740827155163
0.6708223509837482
0.961029899548124
0.8527643195506845
0.08198572538533842
-0.46938039547754495
-0.9324891565056812
-0.6024643257080646
-0.10381031529075581
0.2151356716015414
0.4585984638237851
0.5431155283240983
0.15829457410046407
-0.05706828242246685
-0.11782251192154432
-0.2777965015475736
-0.4069947017437155
0.029187140955687016
0.18214517244843922
0.2227956392328219
0.13883796539969823
0.1320140468452446
-0.18139693568751608
-0.36767497864656234
-0.17444333176591917
0.06439623552195729
0.21611914121112583
0.1321594546346511
0.23294910788849432
0.10083598869166822
-0.11584601150227516
-0.2889597909197818
-0.09214447516375608
0.015785451394350364
0.0008506002116051371
0.05585427498275658
-0.004287741550105876
0.04901925186422164
0.04878287092861246
0.024644839345631553
-0.001984378865959366
-0.01946547241993582
-0.024680702415171923
-0.020149152908698308
-0.010790540995734448
-0.001325865884343494
0.0052015806687856865
0.00778838612220346
0.007041872991448051
0.004397948933735245
0.0013656645916325443
-0.0009733977274060294
-0.0021477383814501967
-0.0022204184472855845
-0.0015739649597295753
-0.000674250446105765
0.00010513967655729663
0.0005653927803486977
0.0006802318297689478
0.000540732516682333
0.00028382764666737883
3.277321565121962e-05
-0.00013625912987881198
-0.00020064495438031134
-0.00017870687847298245
-0.00010897944650219779
-3.078653938761845e-05
