0
1.3386418513149024e-08
1.3386421306166875e-08
1.3386423343347066e-08
1.3386423182017973e-08
1.338641962560262e-08
1.3386412456154874e-08
1.3386403109794997e-08
1.3386394929034466e-08
1.3386392622053134e-08
1.3386400735097509e-08
1.3386421318015383e-08
1.3386451465065807e-08
1.3386481870544566e-08
1.3386497700070044e-08
1.3386482692224686e-08
1.3386426344186005e-08
1.3386332430178512e-08
1.3386225428306775e-08
1.3386150474467148e-08
1.3386163108967156e-08
1.3386307944278992e-08
1.3386590336335023e-08
1.3386950959312936e-08
1.3387257499201334e-08
1.3387327495980817e-08
1.3386989156993741e-08
1.3386172211205859e-08
1.3385001466366564e-08
1.3383848531217643e-08
1.3383291930788304e-08
1.338395209920362e-08
1.3386209943628198e-08
1.3389880097309187e-08
1.339397358880194e-08
1.339671878829068e-08
1.3395980220301717e-08
1.339009977815597e-08
1.3378990949205461e-08
1.336509365175108e-08
1.335363821707475e-08
1.3351687427776959e-08
1.3365719459623296e-08
1.3398095992966365e-08
1.3443508991525955e-08
1.3487144859436276e-08
1.3506467533446608e-08
1.3477842311641994e-08
1.3387545787081354e-08
1.3244281818974557e-08
1.3087909590534229e-08
1.298788378310966e-08
1.3026204171012687e-08
1.3264286179218564e-08
1.3700746433399072e-08
1.423563414277551e-08
1.4662477112025915e-08
1.470820672728362e-08
1.41290765863935e-08
1.2847804747733216e-08
1.108828083068328e-08
9.44003838538709e-09
8.779952942729225e-09
1.00068837510347e-08
1.3611459370042272e-08
1.919733711135913e-08
2.5161702430583036e-08
2.878489187453133e-08
2.6922439732253907e-08
1.7308160409812255e-08
1.8074754332543152e-10
-2.0379949089119028e-08
-3.623402280027672e-08
-3.683642345928188e-08
-1.3037733131919288e-08
3.759676361253389e-08
1.0568978551962986e-07
1.6781730303588017e-07
1.89899164558499e-07
1.3780928098791644e-07
-5.833070896224216e-09
-2.2337817767960027e-07
-4.505112428355256e-07
-5.808620455510869e-07
-4.940158781534074e-07
-1.0670428231572557e-07
5.645978824301976e-07
1.3538974404056349e-06
1.9407023370357272e-06
1.918290103698383e-06
9.440973959108906e-07
-1.0542185205150626e-06
-3.6862835168068053e-06
-6.022814971737991e-06
-6.740790214368694e-06
-4.5469175940632316e-06
1.1677487199189002e-06
9.630493495492823e-06
1.826578993516773e-05
2.2918159257751877e-05
1.8983014493333153e-05
3.415210000833835e-06
-2.286510596739826e-05
-5.3124377294674454e-05
-7.475977837769835e-05
-7.210341410837759e-05
-3.236469017485308e-05
4.6396160981807035e-05
0.00014801394634869508
0.00023567628620662807
0.0002580810675132948
0.0001663086019522012
-6.068731583235095e-05
-0.00038952927202632963
-0.000717276682934261
-0.0008817807765316609
-0.0007072282685942788
-8.285225050376378e-05
0.0009447315284179904
0.002103165250369416
0.0028975830316216944
0.0027254182588330148
0.0011109951703124653
-0.001986138572092208
-0.005898241936128419
-0.00916679716202035
-0.009801583077816462
-0.005952356538519755
0.003097473543381351
0.01591583915717614
0.02836897930383734
0.03406229250607468
0.026118906847229017
0.0001696268906969743
-0.04225585869117498
-0.0914268085877749
-0.13001474770263954
-0.1379922271422283
0.09823424428089746
0.17484166081549274
0.262465000327298
0.30650929842786145
0.2396703515841443
-0.19425416711704924
-0.6125651814105548
-0.7746427135004655
-0.3854903582278891
-0.32957462475529015
0.4698160417421312
1.3850537071389335
1.8419442424642467
0.1291832579175472
-0.3278491562498549
-1.0427930353911443
-1.7327684360936588
-1.8221709084227888
-0.42712697595542215
1.5655847918348493
3.546611982986818
-2.9932201282249578
-0.014566091726058543
2.7782461777493817
0.518186983274228
-2.9697843720769126
2.948810289745354
-0.32607352882311585
-2.8691916686608803
-1.704296759886971
0.2538962121699994
1.173762052717726
1.2100374714625772
0.775720062317892
0.22841342298114115
-0.19753371141958392
-0.40521117473238993
-0.40750583303856086
-0.27905295061073315
-0.10858928302255537
0.03457443333778363
0.1152403834637822
0.130791932970577
0.10001162775153398
0.04933588998983019
0.00178940921639801
-0.028939991235115006
-0.03934226832459306
-0.033465145576340255
-0.018933621622612883
-0.003348166358226718
0.007975982592165141
0.012757305668721717
0.011357439622968483
0.0058327911215331095
-0.0010664305708226682
-0.006673726505956896
-0.008923029001299697
-0.00670857337409154
-0.0001921851038999818
0.008954531954021985
0.017542400711380187
0.021354626500751064
0.016337440196671753
0.0004382645072951916
-0.02437094346431128
-0.05077002202917565
-0.06657152399786766
-0.05790194582286453
-0.015206167136051336
0.05906489271604103
0.14361692596197848
0.19575938349550337
0.1562669832923795
-0.0371791899481347
-0.23018662105433554
-0.23128273424544105
-0.1987462846399516
-0.041388677750229426
-0.03618490512323335
0.1394536026402417
-0.03259347206127649
0.04978816372640407
0.080958429092587
0.4397807278579334
0.4096950607258956
0.6309462231003261
0.5830519715708841
-0.31453453922247054
-2.0084179293754394
-2.9593106325858027
-0.7666623540733769
0.9165442953819211
3.404111687564723
5.195596557286292
-1.331266253943534
-1.9103835956043769
-2.674467720601913
-3.206601140629612
-1.6345011657040573
5.389235485027165
2.4355520307605216
0.6345962836371818
-0.741402167946032
-2.4276312108511533
-1.676841172141834
-0.18229810097227156
0.7455092428270079
0.9398752765913786
0.6988321547777174
0.301453785149641
-0.051229559222010494
-0.25802896770363404
-0.3058731810824149
-0.2382124643722679
-0.11919763729749382
-0.005465955756975774
0.06894966909389018
0.09494976310549942
0.08201135761523604
0.04836461330060412
0.012055023627963589
-0.014643934290532592
-0.026956578517914692
-0.026350162131696123
-0.01778573993240424
-0.006881463994866831
0.002092836158972906
0.00706524716898158
0.008008359649111287
0.006191638830442484
0.003285872437619881
0.0006542846620525937
-0.001007141395057692
-0.0016768668061060766
-0.001765204313915415
-0.0017687164895751177
-0.001962954667731603
-0.0022389501032731318
-0.0021377860248522206
-0.001079464668261563
0.0012789472996459735
0.004678925591445364
0.008053258750367335
0.009639238200424472
0.007510743598271496
0.0004871971550435302
-0.010820648347947166
-0.023265677834209034
-0.0312616630701367
-0.02817214801928141
-0.009086612279119576
0.025509003712569506
0.06632423961006677
0.09372634850230067
0.07957766755135859
-0.0069393079332246655
0.009489619873116521
-0.08077432343468222
-0.2676565974448374
-0.32567185837871876
-0.23048226699250102
-0.18718173896062185
0.33628860051907217
0.9839528272856318
1.312470968358509
0.8327687521112144
-0.30493636350947523
-2.6016513401304815
-3.3155524356010733
0.17109371879606133
4.89861152216866
-3.3967760644358735
2.3618628555165597
2.6592448988931734
-1.0887490111733755
-5.546778061229851
4.178358138405786
0.6014224950358807
-0.06807022979359373
-0.6453733641503582
-0.48507508748923844
-0.4040509030011138
-0.6319616904355423
-0.0025187672558708496
0.6140255071482658
0.6495429246383402
0.1680903736346478
0.007293559619346143
-0.05678487016492085
-0.11948737728064497
-0.13806068944004285
-0.11189921398621687
-0.061053038381025874
-0.008948458995807422
0.02792839079877832
0.043461551168941855
0.040357879553521235
0.02618630413375947
0.0092578784031703
-0.0042461972661177
-0.011434100962548394
-0.012408981994238196
-0.009146072167107874
-0.0041985206285009334
0.00029884336840862807
0.0031259233390362614
0.004005308876622325
0.0033309760042023184
0.0017999041605183629
0.0001035022465326939
-0.001245950009913327
-0.0019575153838998077
-0.0019262373709227083
-0.0011858112074778372
0.00010663363258509941
0.0016499019857802312
0.0029787591376950464
0.0035029911527198715
0.0026543488438825857
0.0001458559594682427
-0.0037216548690321687
-0.007842094832567812
-0.010350530991417152
-0.009078729861131547
-0.002446957527165213
0.009376191491958199
0.023430634396973904
0.033561870441790084
0.031126590723976787
0.0069419344700523905
-0.04597958484149161
-0.13003018934843427
-0.042411214864883195
0.022582410070020948
0.06854988138372367
0.09092512015791007
0.07247857465463237
-0.017278696311535138
-0.0177835619435585
0.431035360624019
-0.5011065027950015
-0.027114724053377358
-0.5424995247141005
-0.43786966534807314
-0.7246984402672104
1.3329702827009013
2.1983999339589153
2.6771549247165742
-2.8171641238442136
-1.7568894092025324
-1.9966023274013898
-1.9289426850968152
-1.1388389549082416
4.849253577709411
3.7850597900560015
1.9473828584173727
-2.695698025150575
-3.212582042722122
-2.572285363071527
-0.3256329035046825
1.2413436947169263
3.079610656170683
1.9190840849290094
0.23752758413267389
-2.11053334016077
-2.414914881369947
-0.6245511707147516
0.49672234725731274
0.9512144393548083
0.8372218639437364
0.4610844634993589
0.065362072371227
-0.20731596650245288
-0.31307242806989155
-0.27956479594013856
-0.16888372864990042
-0.04460452382849644
0.04891682352873691
0.09338896948343228
0.09269405544194832
0.06348899039044228
0.025278899469699433
-0.0067421618391397395
-0.0248684842086209
-0.02855219477637019
-0.021957467986401878
-0.010938251070668085
-0.0005917389032878827
0.006062522309125926
0.008278743488807328
0.0070037164867299525
0.003976509654990059
0.0008959891313248282
-0.0011186926317905902
-0.001716588244848012
-0.0012129066392380275
-0.0003107024208146706
0.00023753325325571813
-6.37215799574979e-05
-0.0012441702049693307
-0.002803691770256508
-0.00382627503796063
-0.0032809676995290867
-0.00047188940880522824
0.0044716467323112595
0.010249746269484099
0.014418017999104454
0.01397222462922348
0.0065224057597690396
-0.008181844619864806
-0.026933028219832896
-0.04275907482688436
-0.04644905641253125
-0.030384383763738358
0.00559269273088247
0.047538231157983786
0.06219766508363323
0.19590650616765173
0.17988445832230626
-0.05737415331456951
-0.1726758434134513
-0.19089139181206563
-0.2950945443953859
-0.4305529487142584
0.07479724943330035
0.4770362057382034
0.38049060677332286
0.11396300367762992
0.5321749031101377
0.44915633757814866
-0.29916124127519095
-0.3761303210141804
-0.8711617941147287
-0.6580041074643181
-0.806576562615649
-0.25797702310067644
0.24604457011689634
1.4072764246587006
1.031472914368672
2.3507263293958767
1.0408679958664637
-2.661239769753268
-1.9720016817428923
-0.36716144585357297
-1.8442863098383935
-0.682865540542819
2.8956403474780226
2.0023827957268656
-0.05441440300563454
-0.26455905315434286
-0.34683934607839845
-0.5236917959660936
-0.6664332903933902
-0.24005438603604684
0.13230835586948153
0.27810049752055566
0.26197297633028127
0.16174962877214238
0.04557689916324987
-0.042107835507212636
-0.08373593280322492
-0.08321674676377885
-0.056369779714922165
-0.021430776768397684
0.007581768561431682
0.023696658288944367
0.026565932722015084
0.020128390521054945
0.009796221882951678
0.0002178050404934649
-0.0058977956628387795
-0.007918288358849794
-0.006725628926756553
-0.0038852349371459134
-0.000903815776959004
0.0012252417722496622
0.0021513299357014026
0.002046898358283759
0.0013632078536055085
0.0005795155164424746
2.4697060469767185e-05
-0.0001968325296918275
-0.00018161955050845406
-0.00013603470133302553
-0.00025656094581509364
-0.0006205841324652456
-0.0011220516848698399
-0.001478087692902722
-0.0013187979933220778
-0.0003503380477611611
0.0014488461595431957
0.003670280676744417
0.005447281728393662
0.005636977106277579
0.003238728507672898
-0.0020245977615179277
-0.009160821493937401
-0.015701918647064755
-0.018166930649795604
-0.013416809113771303
-0.000861628901458953
0.014894842438397506
0.021767737314467635
-0.0007049778198075288
0.12015415563943259
0.15476838623908545
0.07882866129837086
-0.11807533099319534
-0.42683228125598716
-0.6221507600487467
-0.48001941534520676
0.39094233903927894
1.3140073939857362
1.323703705147746
0.3804241592294083
-0.7707939470591462
-1.109830038026752
-1.8519816896918773
-0.9982350578345526
1.048988614003796
2.206153344274542
-1.6061952420056904
1.6280174594308117
4.552987489102964
-5.9696393262185765
-2.0238972008145852
3.0148699621641204
-0.08023369737608653
-3.3746353220885204
5.025773669243682
0.7806389362391329
-0.8505771542644025
-0.9402397196775125
-1.6083418183698035
-0.9600957162445939
-0.48195198385981713
0.08911502421302032
1.2384147257272324
2.1289039671351735
1.2898706781138796
-0.01996557999872777
-0.7615798420714597
-1.7984010705748847
-1.7596797295971853
-0.13556601055216205
0.963650615185602
0.9827825192640303
0.656961689733041
0.14197239805023304
-0.2338309960357846
-0.3871404449501106
-0.2732679049972476
-0.069010011854982
0.04323364833324032
0.0839380597342425
0.07727222828272921
0.04739374069490243
0.013918500639565873
-0.010920123178796393
-0.022576668408579692
-0.02242704873902146
-0.015023345082080752
-0.00546640366699954
0.0023878571677695215
0.006663194376823902
0.007310103483742163
0.005442577794871002
0.002559049034431787
-6.814646209524578e-05
-0.0017078411843515582
-0.0022013599224199707
-0.0018054366211881607
-0.0009648487625554096
-0.00011021968960661393
0.0004675692447918075
0.0006581680076288203
0.0005082960459118754
0.0001648596445936124
-0.0001888830796685501
-0.00038892351702780995
-0.000333141313110908
-1.0961832742233994e-05
0.00048181761011658827
0.0009501775443954881
0.0011394943855290872
0.0008141618858117138
-0.00013215937709717553
-0.0015636695011427763
-0.003037353527736903
-0.0038450565742626118
-0.003205883628318097
-0.0006038982178392705
0.0038087316066991016
0.008902537810433722
0.012562212201279037
0.01215811102397704
0.00554522717057897
-0.007595339370057866
-0.02453407117439501
-0.03906225330954188
-0.04252863010672131
-0.026695688838757725
0.011910206067780486
0.067378854410358
0.12154644125666278
0.14512909129674173
0.10433615683686169
-0.027539768399953028
-0.25690762580333953
-0.3610692750757584
-0.290777262940066
-0.1888835214820801
-0.024186260003875137
0.3679768584497603
0.8537158705988791
0.9955787764320849
0.6892897783858077
0.24482231229913315
-1.1047113605398624
-2.7029139429486633
-3.026310617277809
-1.9354671668806516
2.775742665172145
9.382871352859304
2.678568684144169
-5.247478928429851
-1.0755738018388317
-3.4389404352070114
-7.14288018984851
0.6778405311685819
8.235299111973417
3.2609072858208608
1.194478083054333
-1.5018904891334575
-2.0698956962931954
-1.6671537542677823
-1.3534765077588875
-0.7326366002022422
0.5060429400761025
1.1457858421584484
1.1336256660023347
0.6534294062687186
0.024027991996963212
-0.35372215086193476
-0.40004270748107223
-0.3250628369895198
-0.18463593256807914
-0.04093627642849195
0.062373981176978684
0.10870331599651623
0.10466426885836537
0.0699191634877122
0.02643975919704989
-0.009126858017187094
-0.02867924665308733
-0.03205335370915411
-0.024166981030406917
-0.011627744844576175
-5.8267922782201417e-05
0.0072903950004717406
0.00967741543101194
0.008178021867007087
0.004679379912044456
0.0009943113854430587
-0.0016734132555280016
-0.0028747568184263
-0.0027709946839202357
-0.0018536570026393177
-0.0006697078423560721
0.00036102461357705
0.0010122387045486082
0.0012266222261446684
0.0010496796430771755
0.000569871746106284
-0.00010651879519130168
-0.0008445237453540485
-0.0014563857708004644
-0.0016992109847879578
-0.001324613059610159
-0.0001882953135391434
0.0016071119570324202
0.003598347576579272
0.004960123259534563
0.004688316592503081
0.0019866560295264024
-0.0032168743462718074
-0.009806194362269849
-0.015328480562670103
-0.016420498836956367
-0.009938146110816507
0.005350996102790068
0.02700256275647206
0.047852452730156134
0.056569096531949685
0.040354668187884093
-0.010438736966630674
-0.09713404337752435
-0.20939602348049333
-0.1264448832479457
-0.024426349551570383
0.11107370978271994
0.2716883060343343
0.4187811487084558
0.2882389261594627
0.01020135680276097
-0.46038108401463024
-0.7138442946259913
-0.6721938733915008
-0.2048611756825298
0.02306597023906832
0.881328424478029
0.907610142796975
0.8723556837860257
0.5984646612161942
0.24270891315727722
-0.9763685248615536
-2.4400102564820227
-1.4271933161402341
0.11045824926913898
1.0816598656927363
1.9159086221872863
0.7968692364062003
-0.48233378241067154
-1.4110645280978698
0.005176820567676829
0.45919784389209234
1.7944563757307368
0.4924467338285169
0.1927442849425885
-2.9694365238947342
-2.041561417756118
0.01145906672067238
1.4912526702170998
0.877408135888654
1.7057061875063024
0.061577194494243655
-0.6778287761903555
-0.6465457801095199
-0.4545085571452992
-0.14042398523977934
0.06554618977803268
0.1595195336808588
0.16337689705230193
0.11343954892915266
0.04670086925971379
-0.009425038273465879
-0.04137490514475233
-0.048235643285480884
-0.03724724370862329
-0.01850975058700273
-0.0007813475557309553
0.010747897312788263
0.014747978032383549
0.012729889171412594
0.007517398125751349
0.001876281013784237
-0.002325901080557296
-0.0043599768311256394
-0.004421669280574303
-0.0032035520727954877
-0.0014759589712486133
0.00018151412878211523
0.0014574060031292359
0.0022379480130169456
0.0024783039945940827
0.0021091336588532593
0.0010406382296270357
-0.0007276388233077889
-0.002942371539697528
-0.00497448931183583
-0.0058505901189791695
-0.004515468251788613
-0.000319388103175269
0.006397154289592568
0.013869192446745506
0.018935702236513523
0.01778887272872886
0.007490219047375849
-0.01205880704198221
-0.036419862418653436
-0.05623052419327959
-0.059158504324594414
-0.03474651351471617
0.01828668414498648
0.08400189062850615
0.12328727919237768
0.07322984775164953
0.05429814406552183
0.18596341449796308
0.008823960632481044
-0.09152496303317796
-0.26632987219825804
-0.8004419705068758
-0.7324176555237131
0.09900708888627814
0.5897067647986083
1.3069612543465636
1.65770467519225
0.9145623678175595
-0.4921361055780951
-2.037135413698088
-3.166389953745746
-1.2259427035759711
0.3042111159382449
1.6709627581460813
2.651101128907393
2.5732327929428633
0.23089802034804469
-0.8773259934529776
0.8030005499005873
-5.917934965370113
-2.408254361428183
0.8461281067735565
2.368952303905271
-0.2797874644470441
5.099814393009368
1.6147062725192505
-1.3336554384816752
-2.9379133827341177
-2.400452351208526
-0.5560956789912609
0.4300238449087333
0.8635710658783989
1.0403435758302124
0.7288435365916454
0.2622758695008424
-0.12967054257332572
-0.3404123463981722
-0.36651239386853035
-0.2666498125350602
-0.1184482900498434
0.013598163938031739
0.09375957166836925
0.11573992433383958
0.09382498810250132
0.05083564646167469
0.007844064653689052
-0.02177980143467971
-0.03372487700941198
-0.03076601922932487
-0.019301727065482388
-0.006030853793807799
0.004245280400939981
0.009422629824100503
0.009759729078625394
0.0069293582453320715
0.002977550091257862
-0.0004514657432905117
-0.0024803834220453553
-0.0029907093559358743
-0.0023810202391766327
-0.0012527724652408913
-0.00014824000124405757
0.0005968489688130034
0.0008821508029513676
0.0007875570825843438
0.0004820974434484079
0.00013849926986582203
-0.00012203525237587772
-0.00024871534269325744
-0.0002511659339736371
-0.0001742674735631274
-7.123373817325436e-05
1.6045481260983972e-05
6.594756399062376e-05
7.649379063296646e-05
5.8851086030287464e-05
2.91063995958716e-05
1.462905052893728e-06
-1.5589843932037673e-05
-2.004919728952462e-05
-1.496337183343077e-05
-5.9432265630594e-06
1.3748592390628532e-06
3.276602581380028e-06
-9.578756348604147e-07
-8.920507958205042e-06
-1.584886344353612e-05
-1.6219357688861916e-05
-5.949605747712365e-06
1.524388956786436e-05
4.2099872407714725e-05
6.366736045662905e-05
6.565582686711569e-05
3.5573340239736965e-05
-3.0190342012490432e-05
-0.00011960552117155786
-0.00020201169311053754
-0.0002325117699954706
-0.00016586409718547887
2.1444866721788174e-05
0.00030704991119993023
0.0006071490752560103
0.00078217664041989
0.0006732288021982407
0.00016914362073000834
-0.0007110219607144459
-0.001751816296311608
-0.002533579246020205
-0.0025206965662126317
-0.0012581558929956253
0.001357662257758964
0.004824428024764196
0.007930584001518495
0.008942289578979119
0.006157184168207145
-0.0012348738762211337
-0.012230495860055882
-0.02345165483347064
-0.02943575918932236
-0.02414065850636399
-0.0036547020671073745
0.030472694641829348
0.0684684928482194
0.09167857236047958
0.07532878377530362
-0.004974936432012902
-0.1643282732767855
-0.20020437748483508
-0.08848080816403893
0.013479771408891035
0.15676205526018697
0.18711537055545546
0.13261527224692182
-0.0025852767762974257
-0.036455530592794695
-0.2007818855848101
-0.1305446011317966
-0.05578253671139876
0.0008223267172768618
0.020361147767361372
0.18082317016224145
0.25147791544840065
0.19305772812570865
-0.03387057127284494
-0.253957142488319
-0.4615808053095236
-0.4133065346846056
-0.035092509576724364
0.3550890153855388
0.4168205180293451
1.1627495897201918
-0.2462097405396208
-0.27981572831733265
-0.5977933350628734
-0.4065288512743691
-1.0333971262843844
0.4672310190108048
0.27497153023318466
0.5440604344149832
0.7456602459145895
0.6344057413051569
-0.14680396972206436
-0.6241221741262932
-0.6273009379782082
-0.7256098951923543
-0.38828235460310806
0.41801125436820913
0.797630534504696
0.4766476207076688
0.15708884011351565
-0.10897890713045884
-0.3206399141830245
-0.310750478288276
-0.12176572489595831
0.014233587806991362
0.08530801810143172
0.09901086395783792
0.07503599385752764
0.0359935090742031
9.046359795097308e-05
-0.02249493799661647
-0.029618932337529158
-0.02478663749307841
-0.013939694230905839
-0.0026920963685079886
0.005302375830980478
0.008762951865150238
0.008296289154617562
0.00549643911309278
0.002068169477344628
-0.000754132592746944
-0.0024112716431019354
-0.002916994135490697
-0.0025954924867066078
-0.0018120336885965487
-0.0008063343437325907
0.0003288401126355154
0.0015480074962018354
0.0027054281304837715
0.003453941398546688
0.003272406349808921
0.0016588602068133829
-0.0015447695842626308
-0.005811307555195996
-0.00974788785194771
-0.011264026162230227
-0.008202516432357027
0.0006194326421511428
0.014244421671307985
0.028794523405885092
0.03768886904688314
0.03333206298186677
0.010293283650203097
-0.030730693773462173
-0.07967974602018572
-0.11667057281698281
-0.11622298948116705
-0.056961198600371216
0.06451862668633718
0.21949972928751368
0.3386407260389652
0.3152463752371135
0.023787606452731567
-0.44830440572893754
-0.5639306120970856
-0.10701342054378667
0.02848555575824445
0.22679918219492745
0.11940927036963213
0.14371775019554006
-0.29906746528549805
-0.07943942643787329
0.2364518470452429
0.7784788621512265
0.1838264582297599
-0.17052291151236854
-0.5189651930858542
-0.6549160537221587
-0.49173862904679844
0.14985060232593692
0.5250149825526215
0.5277182677391926
0.24974072110760837
-0.04859856752552582
-0.14805761649513216
-0.2620512228298006
-0.21843601048289812
-0.0412694993131831
0.060471644395414574
0.0949842331944807
0.08253893111934942
0.04728939075012264
0.009894938610464067
-0.016738288936637216
-0.028156807274920554
-0.02640900015795304
-0.016914541594210214
-0.005500842355367515
0.003563852822031379
0.0083113521634132
0.008819682594621221
0.00641998646705639
0.0028202287699249503
-0.0005424678405514798
-0.0028019665410786944
-0.003660286464867679
-0.003217355216451344
-0.001780286958694511
0.00025011687057229794
0.0023955832201014208
0.004071242372244395
0.004601861599606106
0.0033637064790022052
7.1892013901886e-05
-0.0048608632796132865
-0.01006243449176133
-0.013254574356690585
-0.011800341381574334
-0.003771439988590453
0.01069158213983545
0.028236086861124672
0.042071258082355074
0.043311195684669616
0.024139141268473715
-0.01771374255016796
-0.07463424496930682
-0.12719084339049727
-0.14700795432410582
-0.10595234331892373
0.00900698471429926
0.17892158515738327
0.34054821739300306
0.5865409746015904
0.38434243785015804
-0.1858907724734582
-0.9832167500448338
-1.1655728703128838
-0.5779003872169618
0.2185298565681273
1.2804726944091733
1.604582317732394
0.6696805031311759
-0.7755882445274839
-1.0766737819729053
-1.2092113038366845
-0.3190911006183323
0.7088177665844028
1.0479768876286948
0.3067205903348254
-0.09601946012958244
-0.5426232494265131
-0.4159484346570906
-0.09435203699957291
0.24850932404427595
0.23631330932592448
0.27916572467530626
-0.03398494446061994
-0.13482270240191122
-0.06689556012945859
-0.07247962250620903
-0.18039067215778898
0.0010105034119448845
0.08382407231205954
0.0945534529264133
0.06495209096029692
0.023344855019700635
-0.010939495391359692
-0.029127450982536315
-0.031238442145036578
-0.022543915142476556
-0.009853296823968995
0.0012449064311174346
0.007728585393728453
0.009193817427833784
0.0070686214475535495
0.003521923273950663
0.0004935622766074367
-0.000916078917449483
-0.0006357873194842438
0.0005491628652871115
0.001418212609056737
0.0008564776198324495
-0.0016168943080038967
-0.005473979336311586
-0.009104812993468367
-0.01017134856935184
-0.006431022894269714
0.003086803222650483
0.016878075556241028
0.03024729080473438
0.03563842096312914
0.024377119203672266
-0.010304148241377032
-0.06978372122300736
-0.1475641470544022
-0.029351954284594493
0.10350455494960355
0.06799971303474804
0.07320063701432718
0.11653459818855162
-0.015508412011121214
-0.14233535076438392
-0.08197665969574072
-0.04485261014903452
-0.031539475353059974
-0.035874396917502396
-0.052641843087133336
0.11275426600151432
0.23653471826369585
0.27509870254138385
0.1732500300753938
-0.11775359235746513
-0.6171189473232676
-0.49568791903193826
-0.07152625619806098
-0.02539220390392489
0.5673851914143295
1.0007926567715342
0.3134405809656035
-0.7136318614512474
-0.5367940043526109
-0.019034195006280945
-1.004926090374058
0.48698864811409887
0.8532554867670578
0.48518910917723845
-0.4470023292968917
0.40437949920768596
-0.621749002882166
-0.37421571465405107
-0.07215174023381753
0.10062996295990974
0.18750419901546445
0.2417116009712258
0.10784647553071665
0.009398441230132844
-0.05409778489973316
-0.10110478820719303
-0.15723711335350793
-0.04443001201189662
0.02603347817233906
0.055094163630311124
0.05293734275786081
0.033767691740757076
0.010778128651495876
-0.007079978631835299
-0.016051723547446377
-0.016691365253224556
-0.012013084699153319
-0.005568017802925605
-6.113950682196566e-05
0.0032475516873217195
0.004430376191063803
0.004331736366303594
0.00388103806281541
0.0035548878253647744
0.0031632452756189824
0.002012421810193721
-0.0006223506004687767
-0.004887620373508189
-0.009854871081721471
-0.013408789080399337
-0.012733721289701794
-0.005446626778293323
0.008836529175235494
0.027011905907581762
0.04180574834122731
0.04261920180216153
0.018261949208696872
-0.03877885442976507
-0.12776865297243273
-0.03671297877640244
0.05735413209178119
-0.01598416206277843
-0.028367603968484353
0.03759501889315486
-0.021334070202787266
-0.03651132485921281
0.1293963706803962
0.18564289845173787
0.22480498270073954
-0.05729378198600571
-0.3355914628586426
-0.22955688816402098
0.11557488199927816
0.03357347513880558
-0.4749818724546566
0.028995418219927162
0.18270390722780436
0.17602287331320568
0.11084101710806522
0.5757250655786607
0.24410962832086938
-0.10124861153058311
-0.5222916260609459
-0.47023833560895095
-0.13650876212121144
-0.02332708341190793
0.06023618958840891
0.17973176888576609
0.24334692555485327
0.1675195459136889
0.049577956660859714
-0.047192109056269416
-0.09546686444358245
-0.09610922664451922
-0.06588302278459542
-0.025554989379256134
0.0084284864636308
0.027632267751575096
0.03136479220512959
0.024052272281291594
0.011969527014270856
0.0005957652855714472
-0.006805763596387626
-0.009391403813750102
-0.008110303744875874
-0.0047515455637661625
-0.0010855326297336163
0.0016659006742371976
0.002988446626299315
0.002956653529385322
0.0019866452286568946
0.0005949472437203637
-0.0007579094118513575
-0.0017258824002806888
-0.0020741741797592967
-0.0016693240860802504
-0.0005045353878579456
0.001234317015223246
0.003100149862794462
0.0043829765467195735
0.004245196069135046
0.0020235852339125114
-0.002351134951198344
-0.007962796451724995
-0.012767735044913535
-0.013930720736670194
-0.008765795502748648
0.0038103637354643042
0.02169791587698205
0.038552633350613645
0.04397045652020825
0.025402379697720433
-0.028327904794439248
-0.12287100172961787
-0.05520877770289246
-0.013168587017227054
0.021690804875764212
0.06863562633292665
0.14190285258734953
0.04699679060659839
-0.019096751581417843
-0.06376748369911363
-0.0926501654641831
-0.10464273882336023
-0.09105333416577914
-0.04037807639829951
0.05211806026866923
0.17333505746830627
0.28490372746678644
0.3246606387240312
0.02004703876578369
-0.2882745190175583
-0.6200699943975193
-0.5378428024120302
-0.14808202713105578
0.47547575562579225
1.0541194625114403
0.26774812911592155
-0.06421830705765859
-0.3773228968596642
-0.5372160230080968
-0.6094584119780698
0.3616483422539214
0.3579779767752807
0.37871844693022527
-0.1735264565472802
-0.10320853825019093
-0.025268846679034687
0.03729486450588126
-0.14131286573291352
0.2159068496332525
-0.10666982911648408
-0.11436970479343934
-0.0014556852516522938
0.04714668211668466
0.05191937986850414
0.03382063160595782
0.009992866526945553
-0.008659874987378257
-0.01770161848479907
-0.017700955389139583
-0.011982647050406761
-0.0044747420899813725
0.0017767810024013557
0.005243395242130607
0.0058322659784215735
0.004385754035893025
0.002076353337302537
-7.492999946553533e-05
-0.001453663305002179
-0.001888106038076587
-0.001540567316040262
-0.0007453993128712711
0.00013505090189249783
0.0008024681898130064
0.001063702371722174
0.0008424631784559268
0.00018431741832632112
-0.0007362519713506382
-0.0016179037158145298
-0.0020692059558665215
-0.0017046667556586052
-0.000303362649011168
0.002004456522588784
0.004599280564463888
0.006384592864279509
0.006037645333309499
0.002519285680815014
-0.004254953995365323
-0.012819213980671871
-0.019976188480554463
-0.02136385142251307
-0.012930289637147374
0.006873882305312173
0.03483292022924337
0.06167756420068861
0.07291974908989848
0.05254937855628156
-0.010683496954524896
-0.11612982414889016
-0.2463466708400367
-0.16801727409144013
-0.04101207467566034
0.16522282282804202
0.25280511320077287
0.38193374329297936
0.2706915716765587
0.012374992463781567
-0.2919897299792757
-0.4954509960949009
-0.575320722735942
-0.2250476111371609
0.1256813553740252
0.4666496123791561
0.5526835246662395
0.45800989680393966
0.15567893864827842
-0.07076676033397782
-0.3880001654216937
-0.7605219492333052
-0.3040104203842701
-0.06025664232482352
0.1996519200229085
0.348665621498227
0.6670212908895848
0.2111896614302604
-0.20008022066392547
-0.3801647242764526
-0.35613635000924126
-0.14901397968550423
0.037400921485298395
0.21538452479277811
0.20294164823687086
0.2113728409465025
0.03781664351970992
-0.13355550505647534
-0.12266907757718604
-0.1416550257682669
-0.18579538025366654
-0.03169486967500549
0.15620521453911465
0.2133615450967343
0.16230304725712213
0.004644985119010272
-0.07903628666973019
-0.12212805935103938
-0.16136599525707163
-0.027263870151381146
0.06111599986473995
0.09630852602573987
0.07913915454123782
0.014617850216939808
-0.09091090709502207
-0.030806249706951783
0.0019200011773450952
0.014686343226848236
0.014901175611578327
0.00912192063272046
0.0022627721963408096
-0.0027825145630232463
-0.00500083260945126
-0.004733623661673422
-0.003003131994738331
-0.0009152279652927975
0.0007252333945974544
0.0015559623326641804
0.0016061582266738948
0.0011417083786173907
0.0004937880762226666
-6.945742156952492e-05
-0.0004040394883598788
-0.0004898030324876912
-0.00039143037790307137
-0.00020721100054712114
-2.6092621141829276e-05
9.660793472365822e-05
0.00014409864194502592
0.00012920084863188161
7.947813550115075e-05
2.322983034389933e-05
-1.9601720894379955e-05
-4.0580065630026385e-05
-4.1181130985921536e-05
-2.8695752368303064e-05
