0
-2.862568209079593e-15
-2.862565416776646e-15
-2.862564579235682e-15
-2.8625672438167978e-15
-2.862574130105416e-15
-2.86258429482122e-15
-2.8625946315053022e-15
-2.8626001458645746e-15
-2.8625953212941654e-15
-2.862576534396228e-15
-2.8625449395333466e-15
-2.862508673097584e-15
-2.8624828963325286e-15
-2.862486401034031e-15
-2.8625344558912365e-15
-2.8626292368742758e-15
-2.862751155456074e-15
-2.862855879411472e-15
-2.862881818547178e-15
-2.8627704604268093e-15
-2.862496992805609e-15
-2.8621020921986308e-15
-2.861709889448955e-15
-2.8615152352345178e-15
-2.861728722039783e-15
-2.8624820373227626e-15
-2.8637172665807952e-15
-2.8651053838322943e-15
-2.8660510401912103e-15
-2.8658313807240966e-15
-2.863878272248484e-15
-2.8601480951569112e-15
-2.8554476839012354e-15
-2.851530333970592e-15
-2.8507811008174156e-15
-2.8554080935491987e-15
-2.8662515728396122e-15
-2.8815759133238135e-15
-2.8964298277341497e-15
-2.9032199828644576e-15
-2.8939196090490136e-15
-2.8637726605305164e-15
-2.815536112172725e-15
-2.7624820613682784e-15
-2.7279602963764812e-15
-2.7397404936000477e-15
-2.8188922482976432e-15
-2.9655126541785144e-15
-3.146505363888044e-15
-3.2926245781585235e-15
-3.311618392124513e-15
-3.120338780914929e-15
-2.691002655946371e-15
-2.0970194091099535e-15
-1.5355486609053146e-15
-1.3021648267864272e-15
-1.7023155841413245e-15
-2.906522363351221e-15
-4.788028862041766e-15
-6.812719681523035e-15
-8.065898413307895e-15
-7.482165906936408e-15
-4.2829961038232565e-15
1.4730819097038351e-15
8.433475366404239e-15
1.3866995842585125e-14
1.4209659702233459e-14
6.337704896045259e-15
-1.0637443159865558e-14
-3.363389353500623e-14
-5.48135213000052e-14
-6.268407460794102e-14
-4.5641800112023694e-14
2.374732022450629e-15
7.568050720714402e-14
1.528277461823702e-13
1.9802656953553893e-13
1.7045831175376343e-13
4.147285007652163e-14
-1.8422908654241868e-13
-4.515546554290095e-13
-6.529205257651796e-13
-6.508048245217077e-13
-3.281431972911321e-13
3.42105538117667e-13
1.2313807582995033e-12
2.028560972782966e-12
2.2873262543713955e-12
1.567639578409837e-12
-3.4374801382701277e-13
-3.1965695674013106e-12
-6.13133938788752e-12
-7.74931402478492e-12
-6.4888169589319436e-12
-1.3002902278289896e-12
7.53921454462555e-12
1.779256698258958e-11
2.5227366660867256e-11
2.454363161515854e-11
1.1366069915084276e-11
-1.5062976916572635e-11
-4.941035922976267e-11
-7.934510006168708e-11
-8.755357243322276e-11
-5.737988995234736e-11
1.858399176040174e-11
1.2947971985494173e-10
2.409313579412667e-10
2.9833614795719723e-10
2.4203348347464737e-10
3.377102635398397e-11
-3.120178121426923e-10
-7.047464810202779e-10
-9.781163720977833e-10
-9.281262205102171e-10
-3.917239048397059e-10
6.490703042545159e-10
1.9740984885042454e-09
3.0953404981184325e-09
3.3419437524204323e-09
2.084710170620514e-09
-9.296458316115839e-10
-5.2354822643619475e-09
-9.460418687984832e-09
-1.1475371537262711e-08
-9.004591872542025e-09
-6.620673547595857e-10
1.2848994577710422e-08
2.787007240683507e-08
3.7874961610038136e-08
3.502151667023924e-08
1.325259226861896e-08
-2.7682814202407795e-08
-7.873579872785661e-08
-1.2061906362253337e-07
-1.2736937298775498e-07
-7.526779337067757e-08
4.416851510694412e-08
2.1116229765120334e-07
3.7101976632328515e-07
4.408180707055794e-07
3.338861871184537e-07
3.424437132888651e-10
-5.26969190418075e-07
-1.1006486937675396e-06
-1.464889561808153e-06
-1.3186224940783965e-06
-4.376159764423202e-07
1.1704192537683435e-06
3.1350037277604168e-06
4.694906150872329e-06
4.846487768686485e-06
2.6976132759970355e-06
-2.0279683646476248e-06
-8.497003965381305e-06
-1.4533387960293414e-05
-1.6911154113776778e-05
-1.2334919255898892e-05
9.763833954771475e-07
2.1532806557505656e-05
4.340906624239793e-05
5.659022682078671e-05
4.953348885369835e-05
1.3969876821517255e-05
-4.912042998982293e-05
-0.00012462266678112783
-0.00018253221373985118
-0.00018409900864673495
-9.584841721769207e-05
9.085933121978362e-05
0.0003411554688005683
0.0005685914033117615
0.0006478012276916023
0.00045369220202229945
-7.6752306417745e-05
-0.0008773877426021306
-0.0017105297998519992
-0.002184493721985074
-0.0018571572384370818
-0.0004243858008885851
0.002050378177428627
0.004954769791470852
0.007111997645745254
0.007035356619780896
0.0034842680599500397
-0.0037773375074526693
-0.013277929790754529
-0.02157331126549761
-0.02381460072666339
-0.015374857814231323
0.005609299312078483
0.03542266973842558
0.06277573783257495
0.06887582504568689
0.030439816205021283
-0.07444135059133655
-0.05897353025042322
-0.1212943117326911
-0.041650200931108584
0.015306657776496063
0.09333533496944374
0.03459422630877337
0.06986521187896026
0.011884517796644518
0.0535034444508559
-0.029121688874282545
-0.06952510461728861
-0.10232081241659305
0.04450994079326024
-0.04550455952278869
0.023976716430998732
0.06033679510252407
0.07840792661079277
-0.10361832246648603
-0.06797069858668103
-0.0006423226493833919
0.10562561836813421
0.04913689653941023
0.018788455439547398
-0.003818196031249456
-0.03987720961688326
-0.1078088650951526
-0.018527712188888528
0.026838354141112575
0.036194102865522104
0.023304143383311087
0.0035324158785215404
-0.010199341964380122
-0.010415362483006403
0.003271806163475667
0.02396188567034191
0.038768095255770046
0.03164974464413709
-0.012451455351277566
-0.10293883326757439
-0.039692622883760555
-0.011491599449887095
0.0023844924839741192
0.02762115097931851
0.08875487276763344
0.003370619562335381
-0.021697240947321506
0.008757995582888985
0.08035626021289759
-0.02661430384590624
-0.1319009544911403
-0.05047891426808113
0.010231005790793567
0.050323460836840535
0.07505489332016965
0.09171767124793778
-0.09266873318566825
-0.07219918828948657
-0.04201714894032366
0.001536856560879044
0.05993593003174458
0.1310938510298959
0.008804568223469002
-0.116066267714095
-0.052821281724212694
-0.007902003598353514
0.016914304379466477
0.02440346880848835
0.020248487513493302
0.010829315561058591
0.0013735391325027655
-0.005021622199516415
-0.007449999578177649
-0.006613462758593192
-0.003984977598312529
-0.0010552878602789518
0.0011416604374971482
0.0021835124173534308
0.002165799528687427
0.001481076789934127
0.0005867469577079243
-0.00016184159392321776
-0.0005849973866977622
-0.0006703610423962588
-0.0005153851116110289
-0.0002566547506559317
-1.294168031204573e-05
0.00014528370359481903
0.00020008623752102464
0.00017236482981485669
0.00010107417242571908
2.4447193285197036e-05
-3.166135593231369e-05
-5.729071796141525e-05
-5.564270868046209e-05
-3.7249103829760655e-05
-1.3995502306971115e-05
5.082135665161572e-06
1.5568578052213345e-05
1.7349091193887985e-05
1.3065810796478513e-05
6.28136529741853e-06
2.9896020180850466e-08
-3.9349727706393825e-06
-5.216674521043187e-06
-4.400965472317652e-06
-2.5125020829170388e-06
-5.341362019048423e-07
8.842098203081612e-07
1.5059333000875745e-06
1.429733652873876e-06
9.356919571693667e-07
3.3132012244341264e-07
-1.5440340290648255e-07
-4.1359262486983203e-07
-4.486230315874623e-07
-3.3089609060242077e-07
-1.5322389571569507e-07
6.975290298838454e-09
1.061644565935382e-07
1.3582051895754108e-07
1.1223277668288106e-07
6.231087000119414e-08
1.129323254252221e-08
-2.450912301575771e-08
-3.952009698761247e-08
-3.669475487873859e-08
-2.3464696989219495e-08
-7.776639387285576e-09
4.574755744297449e-09
1.0963436833214196e-08
1.1587124641897123e-08
8.368595882809444e-09
3.722566543703344e-09
-3.7794801074379967e-10
-2.8546497640913755e-09
-3.5316037429042748e-09
-2.85869606245391e-09
-1.541508218107518e-09
-2.2739188851797366e-10
6.750061791997645e-10
1.0355035235247915e-09
9.407070289185093e-10
5.873883864027581e-10
1.8066643609955128e-10
-1.3301966143126147e-10
-2.9002308425660016e-10
-2.989296152400618e-10
-2.113521407305905e-10
-9.003427210281646e-11
1.4802552388041996e-11
7.652042780338072e-11
9.170999134650481e-11
7.272258255725078e-11
3.8030516287949815e-11
4.219045692785487e-12
-1.849214028096949e-11
-2.7097677454804136e-11
-2.409401848878057e-11
-1.4680404667686382e-11
-4.145231822239378e-12
3.815277453253092e-12
7.664318771408356e-12
7.710168147689483e-12
5.332349870103604e-12
2.1586378685024726e-12
-5.323231359184337e-13
-2.0795880044824878e-12
-2.41731422378616e-12
-1.8759327495520062e-12
-9.348071722372625e-13
-2.1898472937923113e-14
5.947369173408753e-13
8.252058486037669e-13
7.161875231335995e-13
3.879070385485731e-13
-2.022143106179188e-14
-3.8160655571920577e-13
-5.946368875942734e-13
-5.872461511256612e-13
-3.2680150082215335e-13
1.5945923889099682e-13
7.605146516727197e-13
1.2725007240130892e-12
1.4269249502590802e-12
9.707940922850303e-13
-2.074777674782908e-13
-1.941973919614532e-12
-3.706341532957199e-12
-4.658569948567677e-12
-3.867881938886383e-12
-7.189321960894664e-13
4.602724258488649e-12
1.073647356374371e-11
1.5133614305307856e-11
1.4622254762946014e-11
6.607681410284924e-12
-9.31435308256798e-12
-2.9886902136112675e-11
-4.767143308247614e-11
-5.228607470454236e-11
-3.38132170566678e-11
1.2043626891843613e-11
7.857977576940871e-11
1.4500805239103693e-10
1.7852903009178957e-10
1.43522789892063e-10
1.7465898770812725e-11
-1.9036704003231555e-10
-4.250174960126351e-10
-5.864111826230671e-10
-5.52489890774133e-10
-2.266038511215441e-10
4.001096395000831e-10
1.193404177066015e-09
1.8590183851343465e-09
1.994815693346556e-09
1.226350550037158e-09
-5.925251740997636e-10
-3.1751267891385377e-09
-5.691990708771024e-09
-6.864603724962598e-09
-5.334835605563669e-09
-2.8803856323725975e-10
7.830025214900442e-09
1.68012823889425e-08
2.2699751642883748e-08
2.08350170522244e-08
7.62005012946746e-09
-1.7020596027096032e-08
-4.7575374313000036e-08
-7.24190713233509e-08
-7.599336578997915e-08
-4.419135891039562e-08
2.784783482192046e-08
1.2797688077691098e-07
2.231545568858861e-07
2.6360161818313344e-07
1.9761766072583738e-07
-4.055064800121864e-09
-3.207864815667949e-07
-6.632691289180477e-07
-8.776680460995433e-07
-7.839797209130372e-07
-2.495521066724749e-07
7.180577406517873e-07
1.8934262092727711e-06
2.8178995472906974e-06
2.8902528977361015e-06
1.5802323213724998e-06
-1.2689325482820645e-06
-5.146487723392042e-06
-8.738412008922098e-06
-1.0108749667886805e-05
-7.292694941783099e-06
7.518610981922507e-07
1.3095198672645642e-05
2.6149442697559095e-05
3.3893859441069e-05
2.9429880490018754e-05
7.871324104947017e-06
-3.0079551806524008e-05
-7.523443543282927e-05
-0.00010952157768785596
-0.00010973570441991964
-5.5994446085510625e-05
5.653434038053328e-05
0.00020651518893718995
0.00034177034094865535
0.00038709092870848905
0.0002679316047031522
-5.246919073830659e-05
-0.0005330434971013994
-0.001029957657742929
-0.0013078393265224628
-0.0011026132753429964
-0.00023491150118615099
0.0012525205947467395
0.0029872824139857332
0.004260085680752942
0.004179771379037936
0.0020085192079091247
-0.0023832960398404404
-0.008097647583091509
-0.013053447367042812
-0.014328819096068817
-0.009129969595078365
0.003709010743094442
0.022091709593115832
0.03955604355518442
0.04545294346220089
0.026913313634575452
-0.02751738483207142
-0.12356438957512603
-0.05792752650037976
-0.0177317686412392
0.016476056342276835
0.06494735616895457
0.142342054554914
0.05342480190811333
-0.007148482915057645
-0.050656772022692594
-0.08746347512442562
-0.12056709304064718
-0.1427077204045183
0.061132776306905195
0.10632727855550145
0.19927023911990827
0.13051419285196772
0.07417736959489328
-0.20518741740085436
-0.14054531861866407
-0.15001417353500782
-0.02933250944258998
0.047813835550961685
0.12190114796284295
0.03522620934948106
0.019414642364559028
0.08655491758582812
0.02620777710811755
0.00880471022021195
-0.00563397951244184
-0.0558687095807521
-0.1682178887672338
-0.14922743511416803
0.015211277464292638
0.15385150348213664
0.09942468174321788
0.07747021034397421
0.09885598240654284
-0.041620468086271074
-0.16080036476715648
-0.0794220860790025
-0.014559599136770133
0.024962111327046347
0.03920575526964277
0.03466307529696424
0.020467789882366787
0.004960305754669766
-0.0063971277944704415
-0.01154464709521164
-0.011156093049514112
-0.0073966169194305785
-0.0026883592886664605
0.0011428682631465174
0.003218340529753158
0.003531970609942377
0.002630934621179815
0.0012412170805423041
-2.4876013261496844e-05
-0.0008181691110039309
-0.0010650140218516364
-0.0008891452308067066
-0.0005006444847126238
-9.873718861215472e-05
0.0001863375557027229
0.00030860113580425747
0.00028972727255187895
0.00018743818601583788
6.42667733324329e-05
-3.370902819040828e-05
-8.519092840445431e-05
-9.120084181957083e-05
-6.656478087778714e-05
-3.021996724720984e-05
2.2001863549276353e-06
2.202762008208851e-05
2.77044473947572e-05
2.265745334853294e-05
1.2398859191598704e-05
2.0415715669892693e-06
-5.1484991956456065e-06
-8.09250301004881e-06
-7.431840688775479e-06
-4.696377608397412e-06
-1.501094384274681e-06
9.887645363447522e-07
2.255872982949094e-06
2.354183227918139e-06
1.6822938874473636e-06
7.325815314542077e-07
-9.677582262203567e-08
-5.913652396819833e-07
-7.199084717334794e-07
-5.767570423887007e-07
-3.063321071289602e-07
-3.970164068070054e-08
1.4138577642044402e-07
2.118791383300252e-07
1.9041373314980006e-07
1.1745590642233996e-07
3.4666927773108625e-08
-2.8526898835951333e-08
-5.961667473546737e-08
-6.069839171666062e-08
-4.245553893211214e-08
-1.7673865375787213e-08
3.517619413200395e-09
1.5829410078255565e-08
1.8683545220333983e-08
1.4663463099221688e-08
7.54736060792287e-09
6.912671606945334e-10
-3.862404656308744e-09
-5.539294627224477e-09
-4.873036303127586e-09
-2.931933398433674e-09
-7.894719887573351e-10
8.123229535190356e-10
1.5725369600348683e-09
1.5631960533186833e-09
1.0698406313659986e-09
4.2407118237648793e-10
-1.1676924186990038e-10
-4.2256924057102816e-10
-4.842938488394547e-10
-3.7233519088285825e-10
-1.853919417567142e-10
-9.296679238425776e-12
1.0502367239657615e-10
1.446086565206578e-10
1.245620724670977e-10
7.303531527634236e-11
1.7657180964090553e-11
-2.288956245802728e-11
-4.140840680327466e-11
-4.0214699747891196e-11
-2.692032491698013e-11
-1.0114911212678452e-11
3.6717192954913156e-12
1.1249228288926362e-11
1.2535126534400163e-11
9.439103334324723e-12
4.535886654214306e-12
1.813446000391555e-14
-2.846972077519832e-12
-3.772975476424834e-12
-3.1832837403608222e-12
-1.8184335201447309e-12
-3.887017813536733e-13
6.362635498219793e-13
1.0855165534411465e-12
1.030413588217817e-12
6.733696674078998e-13
2.366030872111539e-13
-1.1443281048613566e-13
-3.017916345172675e-13
-3.271923676773927e-13
-2.422105848160436e-13
-1.138694247313391e-13
1.943425849209268e-15
7.380923899575462e-14
9.556426498051508e-14
7.890157379352956e-14
4.3111741210011674e-14
6.233584666224262e-15
-2.0115387420872042e-14
-3.194324240588321e-14
-3.119561453731871e-14
-2.278728733377148e-14
-1.181011715288296e-14
-1.8134676965194324e-15
5.608248549317804e-15
1.022240583062227e-14
1.2155237615525282e-14
1.1108100012550936e-14
6.237087247169815e-15
-3.1869028913147945e-15
-1.6598379427318832e-14
-3.102351579644655e-14
-4.077810524544501e-14
-3.8612863307712256e-14
-1.850217146297495e-14
2.0459186057071524e-14
7.043013431965983e-14
1.1347377970583175e-13
1.2448741649744515e-13
7.943546677880435e-14
-3.212660103284185e-14
-1.9395132123270473e-13
-3.5556507425379317e-13
-4.372537841325503e-13
-3.5237600691461733e-13
-4.6055722293264206e-14
4.593164770169495e-13
1.0302535915746378e-12
1.4234640981817227e-12
1.3420147815954695e-12
5.505330684276465e-13
-9.730596206148658e-13
-2.902859359847518e-12
-4.523607918877302e-12
-4.8571907503693146e-12
-2.9921005797072317e-12
1.4286924770242176e-12
7.709952449003902e-12
1.3836033695807237e-11
1.669782105138462e-11
1.2990275633863129e-11
7.274992519230943e-13
-1.901290763810836e-11
-4.0842757352514644e-11
-5.521667471502976e-11
-5.072327371122447e-11
-1.8625808821245425e-11
4.127975105169742e-11
1.1561152022970963e-10
1.7611084937121813e-10
1.8493377496279043e-10
1.0773760998822166e-10
-6.736209625296913e-11
-3.108992248739484e-10
-5.425773826662276e-10
-6.413379808118162e-10
-4.813605013161852e-10
8.694799446754033e-12
7.789070175413101e-10
1.6123131065038657e-09
2.1348748363502133e-09
1.9086404357035884e-09
6.104779120642848e-10
-1.742034576433645e-09
-4.601512830236372e-09
-6.853011802811817e-09
-7.034061202404303e-09
-3.853683435721773e-09
3.0718491157087132e-09
1.2503310033192524e-08
2.12472196984815e-08
2.4595341895312683e-08
1.776577788553185e-08
-1.7831815951778809e-09
-3.180017966822447e-08
-6.356825940776553e-08
-8.244790652302477e-08
-7.165403648749168e-08
-1.9282638700152824e-08
7.298958066220668e-08
1.8284884146269143e-07
2.6636253515892863e-07
2.670817875251775e-07
1.365956777776154e-07
-1.3694548834791472e-07
-5.017691613828629e-07
-8.310666944536899e-07
-9.419337097684826e-07
-6.529490531605102e-07
1.2555660122271617e-07
1.2940544452066104e-06
2.5030507086384144e-06
3.1802362300818517e-06
2.683202019735749e-06
5.753421607061083e-07
-3.03952424214816e-06
-7.254637576307762e-06
-1.0341113983954072e-05
-1.0122784724896107e-05
-4.789034038167399e-06
6.000718197868374e-06
2.0095918907014346e-05
3.2468784524042614e-05
3.602205372361481e-05
2.3885461952036224e-05
-7.066708256383579e-06
-5.250176803150425e-05
-9.843477623822497e-05
-0.00012251815322037512
-0.00010020114666783052
-1.5550317165265763e-05
0.00012589600496916165
0.00028739349816664616
0.0004009859905158262
0.0003828773623405952
0.00016553145214550914
-0.00025960931883514633
-0.0008036734890060924
-0.0012675992489888821
-0.0013762500930331507
-0.0008697795661054581
0.0003595960864603345
0.0021265408445599533
0.003874404683224728
0.004735079969362434
0.0037777217992014116
0.00043347193769699915
-0.005011261974489038
-0.01105762796422833
-0.015032060890752128
-0.013738397604250573
-0.004778160317482266
0.011688027486058041
0.03128578728082793
0.04465036075446148
0.03826104408439561
-0.002795212401811135
-0.0905638233955544
-0.02970185204194901
-0.014329617842206948
-0.027566407705706633
-0.04414710187228229
0.16455692105780953
0.024612229370811197
-0.04555824449788415
-0.03817826770291204
0.04320150210999948
-0.01517681456143373
-0.035047179178454714
-0.04326769588658515
0.1314190973668251
0.06204312477277464
-0.07239483745862717
-0.08247216050099475
0.035257978206113955
-0.10057958117996794
-0.058730036564465044
-0.001769021819487557
0.10464787721152158
0.0821506618725573
0.13276857215876017
0.03752355945647622
-0.03842835181836055
-0.13540420907153894
-0.08690913953942671
-0.10961971918419144
0.0010735309099670837
0.06882211971653958
0.12868366780611237
0.017089189471567966
-0.03733516447432128
-0.01987715759609199
0.06797695861636326
0.009827072000627088
-0.021457860050489514
-0.057571372200049035
0.07217024473375715
-0.05284508981374068
-0.040081971741577085
-0.0822864135378104
0.04063771465246107
-0.043562761514601596
0.09312358328161763
0.07139340813869262
0.09915524575797025
-0.03010080253418732
-0.13470948895902202
-0.03922574726082766
0.03204669528757508
0.06051973941127765
0.03695474790476889
-0.036747924891184544
-0.1476317525850738
-0.07411573257547682
0.008792114419287206
0.12215240224502857
0.275952233900642
0.06547895270878934
-0.12634891961134015
-0.12097340633064085
-0.13385844637454783
-0.16662791836027455
-0.005453034278603389
0.17344657285998571
0.1936511307855788
0.0683535003302356
-0.005387774860854757
-0.045795889996950466
-0.0798551012327259
-0.1342792794152844
-0.027667726140141933
0.033483595209824295
0.05417735334068253
0.046874281639991605
0.026201806105583928
0.004483817007233864
-0.010721254740348851
-0.016928793795396694
-0.015484892280301078
-0.009666132797347828
-0.0029174359658302594
0.002295145422610004
0.0048963053418477846
0.005025235547027209
0.003544645307337209
0.0015046470025157205
-0.0002545126523078904
-0.00128801807581728
-0.0015403309520740339
-0.0012197410025775555
-0.0006366218486555303
-6.920279804209534e-05
0.00031136644438700705
0.00045505272236958
0.000404059081405264
0.00024579112416193933
6.900191048442147e-05
-6.437730229312477e-05
-0.00012869746641945565
-0.00012926427716147568
-8.931499645037603e-05
-3.618678550940602e-05
8.713512655542245e-06
3.440662165252869e-05
3.993481807386532e-05
3.0980048842783704e-05
1.565366235309489e-05
1.0748582684384828e-06
-8.484882832102758e-06
-1.1887899482199286e-05
-1.0334171353684117e-05
-6.1286105603333475e-06
-1.5565329484250015e-06
1.8217643106032715e-06
3.391271677299035e-06
3.326875323398469e-06
2.248725130225919e-06
8.653281391244218e-07
-2.798320697487425e-07
-9.17160625010629e-07
-1.0344291837878799e-06
-7.86068296643036e-07
-3.838046984870706e-07
-9.596876770951523e-09
2.3017147736020467e-07
3.101089112126442e-07
2.639886022376409e-07
1.524881512682065e-07
3.4387816663721357e-08
-5.106184075000342e-08
-8.920677773380335e-08
-8.552562423686253e-08
-5.6527357772400396e-08
-2.0552366764003666e-08
8.619153901749377e-09
2.4389434959243657e-08
2.6762658257107246e-08
1.991901221888567e-08
9.377517853553588e-09
-2.1664325538346238e-10
-6.219687080090595e-09
-8.078590402684177e-09
-6.735682156479162e-09
-3.785616521096342e-09
-7.385455078839027e-10
1.4197504409274455e-09
2.3426725456350375e-09
2.1961354157463805e-09
1.418604382678398e-09
4.842734820356486e-10
-2.57922251698977e-10
-6.471110902386474e-10
-6.915803973699002e-10
-5.040669364362226e-10
-2.2824225626414114e-10
1.7449488690967376e-11
1.6746129307518358e-10
2.101563923094135e-10
1.7163829819909583e-10
9.375015264700004e-11
1.524479792093338e-11
-3.916719545703719e-11
-6.136901303232729e-11
-5.6276811049400415e-11
-3.552011114387915e-11
-1.1345775648381254e-11
7.435943057393135e-12
1.6947488289919015e-11
1.765122454793699e-11
1.2614290398546463e-11
5.586320162318135e-12
-4.443251747988854e-13
-3.938084553843297e-12
-4.788058092568048e-12
-3.846338068201994e-12
-2.2894002185253464e-12
-1.066966103570364e-12
-5.79527228820413e-13
-6.293201966837618e-13
-6.122049614718604e-13
1.326538657237708e-13
1.929289884208611e-12
4.4588125293869034e-12
6.671927583350862e-12
7.020847381937641e-12
4.034670352800708e-12
-2.8642385428739193e-12
-1.2559696010064855e-11
-2.1841715788863616e-11
-2.581519928588892e-11
-1.9368860740517557e-11
4.121982388317093e-13
3.153177184497138e-11
6.522343343721401e-11
8.635340185890932e-11
7.719427142283443e-11
2.4663200284763644e-11
-7.053241444595581e-11
-1.8624072083808174e-10
-2.773386335521075e-10
-2.846396905571031e-10
-1.5590199243181944e-10
1.2439404775388265e-10
5.060827251200485e-10
8.599107385585537e-10
9.953318056386465e-10
7.188359249685431e-10
-7.24050830820264e-11
-1.2872273438198928e-09
-2.5728033792161093e-09
-3.3366446602168936e-09
-2.899484483653434e-09
-7.796645863595509e-10
2.9547966496816797e-09
7.400675592003295e-09
1.0779889719288023e-08
1.0807974401221668e-08
5.525989449763997e-09
-5.5451344765585e-09
-2.030953875099441e-08
-3.3634746635648545e-08
-3.811849535708545e-08
-2.6419253755376397e-08
5.090485060745213e-09
5.238076652613385e-08
1.0130558268619239e-07
1.2870261523046516e-07
1.0857470771722516e-07
2.325631644791099e-08
-1.2304465710187369e-07
-2.936245723287335e-07
-4.1851074729651676e-07
-4.0963490600971865e-07
-1.937316078734224e-07
2.4296316509172487e-07
8.133923750844936e-07
1.314061577250344e-06
1.4577408581507488e-06
9.664143783605682e-07
-2.863601532635178e-07
-2.1251603911920626e-06
-3.983939109960369e-06
-4.958251883085645e-06
-4.0545676432862325e-06
-6.281902270436996e-07
5.096549355905018e-06
1.163243793920497e-05
1.6229291733650275e-05
1.5496232332295037e-05
6.700897449744889e-06
-1.0501775886790661e-05
-3.251383796684968e-05
-5.127882954141168e-05
-5.5664337053052455e-05
-3.516296886816667e-05
1.4566421033330583e-05
8.597985608201482e-05
0.00015646683038532839
0.0001907468893780047
0.00015090060659768415
1.3522777089526879e-05
-0.00021032101557333352
-0.00046054019537060924
-0.0006291703944232036
-0.0005857670480798276
-0.00022857467095803685
0.0004488278075238658
0.0012993420675853453
0.002006330414219356
0.002142298410998773
0.00131691471908009
-0.0006066051280103905
-0.0032939426964929707
-0.005828716972076075
-0.0068282518947247834
-0.004869115805625237
0.0007894662953940344
0.009332855066653243
0.017648901348744847
0.020052000464046447
0.008718420134802101
-0.025182234983498756
-0.09002362254117321
0.007494164064788773
0.06292331668675429
0.07421571641297577
0.04220137034613123
-0.027936588042011476
-0.12440689013913885
-0.027077642224121106
-0.10799987893710765
0.06476597478748294
0.12050634944739769
0.0784225552632859
-0.05791804109950514
0.09776742307421632
-0.08277127899502822
-0.03614560231884809
0.0004141768938694214
-0.0036242465765851076
-0.06679010267962748
0.006770928263832463
0.026532906177131155
0.012099564962581185
-0.01209313331321717
-0.022752328433825266
-0.003313026082061072
0.05184975364408773
0.13559518838967025
0.029507930141280284
-0.0909993772273662
-0.04896573244766804
-0.057874017036826424
-0.11618508712748568
-0.006521475487788033
0.1000073328083355
0.03568744774854402
0.026969044641801273
0.08706762825367101
0.0125582585644736
-0.015238841803837104
-0.02472375725706626
-0.046147377260138386
-0.10382670088059451
-0.010716636334585253
0.03326614424250869
0.03909636055200734
0.0238398412649015
0.004980081542400459
-0.004512018079076616
0.0006471475752425957
0.017053971372030827
0.033842842411146254
0.03596358311816162
0.009044890870162659
-0.05513011814579101
-0.15412918637981227
-0.07326638710164743
0.011730234521784563
0.127952012383765
0.09659926657097838
0.12573177537796046
0.0075301756250897335
-0.07876805275155441
-0.15957606921986883
-0.05845217433351186
0.010230184647788989
0.04342961133698112
0.0474882968841094
0.03377068027766352
0.014019479230868628
-0.002979179136304744
-0.01278168097231047
-0.014934646485788999
-0.01158017749357872
-0.005802941931236632
-0.000309779934350739
0.0032791466953957823
0.0045365335993870215
0.003922106042071826
0.0023124440789257347
0.0005737385886258672
-0.0007050315613516051
-0.0012942733681861945
-0.001263565072199184
-0.0008501795382260708
-0.0003235534274437385
0.00011052346377353748
0.00035069690160934947
0.0003932964586647596
0.00029760505795719644
0.000144253666590994
2.23904494593766e-06
-8.831779863859405e-05
-0.00011807702956587122
-0.00010008743014093176
-5.749486720334869e-05
-1.2616495946034658e-05
1.9713969074986468e-05
3.402341599308288e-05
3.246820791513242e-05
2.1359764349511706e-05
7.670508823714815e-06
-3.3830715486001465e-06
-9.32217236970122e-06
-1.01731818158775e-05
-7.539392354207991e-06
-3.521917866617718e-06
1.183173614589374e-07
2.3847410137089795e-06
3.0751724227114174e-06
2.5531183876711072e-06
1.4266674717660366e-06
2.690471721161952e-07
-5.47319834159831e-07
-8.9319870483343e-07
-8.33527675753327e-07
-5.358564325825863e-07
-1.8041466429474702e-07
1.0074499826884213e-07
2.4723077734949414e-07
2.6282518485452917e-07
1.9073681213368314e-07
8.564712581262634e-08
-7.554142358184558e-09
-6.417062798992552e-08
-7.998404635023259e-08
-6.504875627366497e-08
-3.531476777319953e-08
-5.488880425035988e-09
1.5094686767791787e-08
2.3411801168549552e-08
2.1373967825152627e-08
1.3419605462938183e-08
4.201997592183234e-09
-2.940630806102324e-09
-6.5430865091671585e-09
-6.782200554414273e-09
-4.818636025953984e-09
-2.07364052581559e-09
3.09837454187944e-10
1.7213403873709425e-09
2.0776945731493884e-09
1.655294912432382e-09
8.718623759302264e-10
1.0428444192131987e-10
-4.139114028477037e-10
-6.127268777281882e-10
-5.474622101729659e-10
-3.354548571978934e-10
-9.670688210853557e-11
8.451328194852708e-11
1.728242342256963e-10
1.7481008637684648e-10
1.215550961326123e-10
4.9952963308142644e-11
-1.0930965998693891e-11
-4.6047761307780334e-11
-5.390972533760952e-11
-4.207381461441559e-11
-2.1463721921498595e-11
-1.7276590048683284e-12
1.130108932565745e-11
1.6021495880012674e-11
1.4009586399008248e-11
8.360860801736391e-12
2.1685621013346993e-12
-2.437838254880207e-12
-4.6005765113195e-12
-4.533060869302231e-12
-3.0612909573824427e-12
-1.1456758441327385e-12
4.608512603176276e-13
1.3637945628159689e-12
1.5135493914676429e-12
1.0959837971179086e-12
3.9948910788825053e-13
-2.9142737359415414e-13
-7.573884190780028e-13
-8.67727396835268e-13
-5.861684222877233e-13
2.467355243198518e-14
7.970597613603503e-13
1.4634706503256555e-12
1.6961416135511054e-12
1.1985176912239743e-12
-1.5509718394658767e-13
-2.1687227170185496e-12
-4.2326050472038695e-12
-5.374429853645061e-12
-4.517257434064821e-12
-9.41036600276057e-13
5.1597792237086766e-12
1.2241676508004563e-11
1.738749732046436e-11
1.6943564013777327e-11
7.889959459716022e-12
-1.0305049667363232e-11
-3.3979209170095053e-11
-5.4646318577901735e-11
-6.037751229180504e-11
-3.9680891088292305e-11
1.2582049236841712e-11
8.897660800330126e-11
1.6586089375506582e-10
2.0562958563030057e-10
1.6714144279373263e-10
2.3941894426139756e-11
-2.1417516855464777e-10
-4.849542790130972e-10
-6.739086522093251e-10
-6.404246284033533e-10
-2.7189376095498217e-10
4.445366103081913e-10
1.3577279907971142e-09
2.13184901016593e-09
2.3046778299602e-09
1.4420326331408542e-09
-6.319802764255673e-10
-3.59836438713657e-09
-6.513190733790153e-09
-7.910053351068093e-09
-6.219479361421898e-09
-4.825709570586425e-10
8.822035359586168e-09
1.917966021336416e-08
2.609707939958654e-08
2.4168459003306154e-08
9.20974321940411e-09
-1.897020779580344e-08
-5.4157808495526926e-08
-8.307941651611038e-08
-8.784495295733979e-08
-5.208494079109727e-08
3.009971010437183e-08
1.4515318530468205e-07
2.554530919250766e-07
3.038824805350462e-07
2.3066288777437758e-07
1.2694418482531065e-09
-3.618966758320202e-07
-7.575063009228101e-07
-1.0094269221296755e-06
-9.101058547229785e-07
-3.046187946330301e-07
8.024334790149253e-07
2.1565991483533175e-06
3.2339526223697262e-06
3.342883811107514e-06
1.867607069244055e-06
-1.3843574017390157e-06
-5.841626096522872e-06
-1.000717054890003e-05
-1.1658807438383132e-05
-8.523428924509293e-06
6.32326549060182e-07
1.4790750893261463e-05
2.987802267167377e-05
3.899800087549597e-05
3.419261153510661e-05
9.747356790693735e-06
-3.369023583362869e-05
-8.573702396767135e-05
-0.00012574044427213996
-0.00012699588977917642
-6.639466180348898e-05
6.210002106957185e-05
0.00023456811172207294
0.00039153173896713176
0.00044662602023321185
0.00031355232657737895
-5.135678411695287e-05
-0.0006028741343549136
-0.0011775631972436491
-0.001505683979097103
-0.0012823523277226162
-0.0002972285407741775
0.0014072895101250999
0.003410919801629379
0.00490444774656937
0.004864682885728129
0.0024373361566711123
-0.002540367558460315
-0.009055013236908525
-0.014734863654666776
-0.016244709201212876
-0.01041753876109624
0.003968488120859797
0.024198512771127178
0.04215250165932819
0.04420243619240571
0.013067505110584129
-0.06841565904024727
-0.012470386957668316
-0.021969953595099113
-0.08794527959083631
0.010039195536606073
0.10061703799439112
0.015406573204202339
-0.016605034638792
0.02634322076007622
-0.04404991051848395
-0.027194833085791806
0.06683836755813337
0.019036795539707798
0.0043670092717890616
-0.004228444671970824
-0.0312938086789235
-0.09478398998390118
-0.00358880722780541
0.042625905324573485
0.051426081930533406
0.034503068739505365
0.004782897425044227
-0.025382788013067096
-0.04493713263383092
-0.04442829184005525
-0.016711258628497715
0.04164653024419571
0.12876347364212345
0.03677069242553055
-0.046940740390721346
-0.1365640760433441
-0.04407740476104079
0.02343907427106005
0.06434575422316241
0.08122711778697032
0.07926345647396321
-0.13463406722551888
-0.15186572192272269
0.037584852006149506
0.04352290853968425
0.0725763304894976
0.1253003141365299
-0.004807578993145083
-0.12945018237688796
-0.06151508541036531
-0.010802531812339398
0.018593911501103177
0.028433925555140325
0.02448206953472632
0.013849336041779046
0.0026691165656668975
-0.005230239461963951
-0.008550447389367343
-0.007937739437805182
-0.005039230980573385
-0.0016105077099339302
0.0010751224451661736
0.002446879799213526
0.0025557944045520443
0.0018296071455633728
0.000800382866247746
-0.00010015927711023809
-0.0006386854848456284
-0.0007803008946903815
-0.0006266321669201569
-0.0003340375317668935
-4.476649992803578e-05
0.00015220929150306324
0.00022937124653714296
0.0002066657193565965
0.00012785290129997294
3.811605143834182e-05
-3.054993564582135e-05
-6.447145685382799e-05
-6.583108934444207e-05
-4.6163544905628437e-05
-1.932412583745432e-05
3.6839968501233793e-06
1.7093384039865993e-05
2.0247884379794533e-05
1.593006169728082e-05
8.230613882002892e-06
7.923620151937257e-07
-4.1611863762899595e-06
-5.9979249110682065e-06
-5.289795472869259e-06
-3.19224213443415e-06
-8.696167409104898e-07
8.711669717094093e-07
1.700976378182944e-06
1.6956213908910151e-06
1.1634953197135658e-06
4.639911572375365e-07
-1.2329647580720167e-07
-4.5644917749517114e-07
-5.249153870658184e-07
-4.0455468425700494e-07
-2.0224738846375366e-07
-1.1173850066793261e-08
1.1321007894909803e-07
1.5661084132121314e-07
1.352369541392049e-07
7.954255349200756e-08
1.949915922636612e-08
-2.4572958857610715e-08
-4.479662675231674e-08
-4.36242024990706e-08
-2.9279232345116313e-08
-1.1072606910909986e-08
3.900150055601223e-09
1.2157827628821486e-08
1.3591660672814611e-08
1.0260677057755887e-08
4.953494272947819e-09
5.080780471428111e-11
-3.0671561681154196e-09
-4.0835967366724395e-09
-3.4533699723864782e-09
-1.9777535947951885e-09
-4.27361025169135e-10
6.868936143330088e-10
1.1777340035408118e-09
1.1210595221045642e-09
7.356236757726212e-10
2.6235643068562125e-10
-1.1890841012024834e-10
-3.2307169507782865e-10
-3.5151263808108753e-10
-2.598986041482574e-10
-1.2088869457807648e-10
4.763594698633293e-12
8.278237777253238e-11
1.0633327395276919e-10
8.807636291411528e-11
4.905893234406442e-11
9.072153343956416e-12
-1.9058946335432187e-11
-3.0916253134052945e-11
-2.8778768350859368e-11
-1.8452486647863358e-11
-6.164775334759456e-12
3.532077851212609e-12
8.565131445936874e-12
9.076733618816452e-12
6.566880630570184e-12
2.927388163835544e-12
-2.913707618281043e-13
-2.238176202526513e-12
