0
-0.00027348308753998176
-0.0002655037723133773
-0.00023481532724097264
-0.00018336065576809557
-0.00012444456884823602
-8.277192093858923e-05
-8.888984855311748e-05
-0.0001675250720209931
-0.00032202032410651415
-0.0005202755236333374
-0.0006899949197192122
-0.00073098247260008
-0.0005483181917763618
-0.00010217917063924323
0.0005405977796664472
0.001177631362077265
0.0014922164733815718
0.0011433150485773665
-8.007473427937593e-05
-0.002078869221819681
-0.0043120975540015885
-0.00580670058340739
-0.005387345072664202
-0.002143101303582856
0.00395657842706436
0.011504096314579737
0.01744626251611711
0.017505793426495823
0.007349631429668003
-0.01568695746834347
-0.05088696274263501
-0.09327429550999095
0.06570713344016985
0.03584462856879053
0.024905749971677157
0.035844628568790525
0.06570713344016994
-0.09327429550999072
-0.05088696274263467
-0.01568695746834306
0.0073496314296683605
0.01750579342649599
0.01744626251611693
0.01150409631457912
0.0039565784270633435
-0.0021431013035840174
-0.005387345072665016
-0.005806700583407235
-0.004312097553999958
-0.0020788692218164984
-8.007473427528588e-05
0.001143315048580888
0.0014922164733824652
0.0011776313620735649
0.0005405977796573104
-0.0001021791706524744
-0.0005483181917895472
-0.0007309824726066971
-0.0006899949197121877
-0.0005202755236082138
-0.00032202032406516637
-0.0001675250719743798
-8.88898485211535e-05
-8.277192094553008e-05
-0.00012444456891324353
-0.0001833606558928378
-0.0002348153273986474
-0.0002655037724453956
-0.0002734830875663913
-0.00026460526776425836
-0.0002478296066534889
-0.00023128775401456335
-0.0002200520150960125
-0.00021567725294770516
-0.00021700786200964727
-0.00022153356522190893
-0.00022666970057198815
-0.00023059050317133766
-0.00023251971176213443
-0.0002325871849086876
-0.00023145562543246955
-0.00022991824019758675
-0.00022860346937109342
-0.00022783953545622366
-0.00022766235337534047
-0.00022791168396887732
-0.00022835313945131612
-0.00022877850224569725
-0.00022906104035445827
-0.0002291650991422332
-0.00022912377156386206
-0.0002290033334833351
-0.00022887039416573054
-0.000228771006742841
-0.00022872385820439293
-0.00022872448972165318
-0.00022875517940022845
-0.00022879532727322554
-0.000228828923462835
-0.0002288478479514533
-0.00022885151052408936
-0.00022884429167665163
-0.0002288323888267177
-0.0002288212600459996
-0.00022881422490280266
-0.00022881221121996847
-0.00022881428740539889
-0.0002288185229138794
-0.00022882281106019923
-0.00022882546418421425
-0.00022882555288443023
-0.00022882304802054597
-0.00022881882431833052
-0.0002288145279227288
-0.00022881225181610335
-0.00022881395811477474
-0.00022882066730496128
-0.0002288315924391286
-0.0002288435735716523
-0.00022885126788323967
-0.00022884846863971273
-0.00022883059390392695
-0.00022879782680163303
-0.0002287577540769292
-0.00022872591415870887
-0.0002287227646910482
-0.0002287664753129926
-0.00022886266477779757
-0.00022899436045084777
-0.0002291172554302671
-0.00022916567682099208
-0.0002290725438708355
-0.0002288016034194908
-0.0002283831847495978
-0.00022793789691637979
-0.00022766959139978988
-0.00022781321809669337
-0.00022853708995107197
-0.00022982125863063463
-0.00023135807367323594
-0.00023253680730845567
-0.00023256871662487275
-0.0002307724245890724
-0.00022697203314104837
-0.0002218772042005609
-0.00021724743127682973
-0.00021563428307034115
-0.00021958368796731747
-0.00023037797938074733
-0.0002466705084572449
-0.0002636233558909756
-0.0002732651107653458
-0.00026660056531795583
-0.00023744950325161143
-0.00018712638897109635
-0.00012814282729199856
-8.454097009737605e-05
-8.673809520688236e-05
-0.0001602371838837467
-0.00031020673344028533
-0.0005071313244708653
-0.0006812254830481233
-0.0007334487749748981
-0.0005673263467637862
-0.00013796298661835916
0.0004959361440692324
0.001140949041853493
0.0014862225985297981
0.0011887758455933891
2.4302150009791073e-05
-0.0019328196895053865
-0.004172165949617789
-0.005745404203333208
-0.005480543945933717
-0.002434555377676117
0.0034954049561655457
0.011001935291346876
0.017126765775986725
0.01763243571139553
0.008119050669399174
-0.01428050464290581
-0.049165924806165474
-0.09190215900410287
0.06585588015157108
0.033994580777502885
0.02082247383496387
0.030266749398964825
0.060548609794280145
-0.0951885753533999
-0.04670156280652206
-0.003954039595469016
0.02502471552964364
0.03524040841238741
0.025024715413710243
-0.003954039838132166
-0.04670156317330604
-0.0951885757925428
0.060548609409442324
0.030266749262564223
0.020822474152915955
0.03399458166667387
0.0658558815217939
-0.09190215753333889
-0.04916592389121895
-0.014280505053781438
0.008119048363885563
0.017632431543197415
0.017126760713223145
0.0110019313062259
0.0034954046364859743
-0.002434549746733876
-0.005480531684306341
-0.0057453875036397204
-0.004172150464567029
-0.00193281375476242
2.429006651437528e-05
0.0011887412402130813
0.001486169452602752
0.00114089278476724
0.0004959026942883121
-0.00013794390643944587
-0.0005672336496210342
-0.000733285414044278
-0.0006810309500341963
-0.0005069833955014776
-0.0003102053610355139
-0.00016046811036732992
-8.722234924944515e-05
-8.518694156958365e-05
-0.00012872603536285093
-0.00018732298812677275
-0.00023693820600413366
-0.0002652224633754921
-0.0002711962378988412
-0.0002614823460029822
-0.00024547062021087893
-0.00023125679606436083
-0.00022331465730711896
-0.00022203419232995597
-0.00022471142245816561
-0.00022734451064084096
-0.00022658932713761026
-0.00022133278106066672
-0.00021346723638180858
-0.00020757901771005483
-0.00020944444062627216
-0.00022351812982584208
-0.0002500115544043249
-0.0002826051952043865
-0.0003081150445921846
-0.00030928184639819525
-0.00027105936402617225
-0.00018933465828156125
-7.923483956831216e-05
2.1260751485654625e-05
5.6863869352425755e-05
-2.7766419366808374e-05
-0.00026076522969288086
-0.0006134195038515968
-0.000981350365799681
-0.001192060397147087
-0.0010504154054881423
-0.00042165206593007586
0.0006672312049330173
0.0019470238274309107
0.0028986395426937677
0.002864330605465206
0.0012920509982190156
-0.0019301226391943774
-0.006162138757925318
-0.009889967968606792
-0.010965216822249891
-0.007301620576785811
0.002042299846496006
0.01568949536026015
0.02917917856087167
0.03518087565311108
0.025084244819340722
-0.008108506040305698
-0.06634510052727675
-0.14393243893547375
-0.027338342570657044
0.10178058284278642
0.060979202084067666
0.060979205673105774
0.10178059227260458
-0.027338331072510533
-0.14393243079441018
-0.06634510137963508
-0.008108519650668349
0.025084218915785255
0.03518084396719371
0.029179153779140016
0.015689493710494343
0.002042335307688383
-0.00730154428911678
-0.01096511390313067
-0.0098898738509967
-0.006162104970961216
-0.0019302007934072752
0.0012918345450391535
0.002864002348433458
0.0028982964217308636
0.0019468263341558853
0.0006673611845641548
-0.0004210686218630391
-0.0010494028542697915
-0.001190868697962
-0.000980462837469277
-0.0006134500866709889
-0.00026223174512283537
-3.0779592338580676e-05
5.289126566878624e-05
1.7729610716000577e-05
-8.03280654368808e-05
-0.0001860361647919059
-0.0002624456158927143
-0.0002965127085197027
-0.00029507144343880417
-0.00027555590757629816
-0.0002559098123853249
-0.0002469722131775067
-0.00024908555710657503
-0.00025326664088103
-0.00024619530451446594
-0.000217450756155854
-0.00016676257147514307
-0.00010858931120042312
-7.135868668339023e-05
-8.959749863691685e-05
-0.00018923846598461474
-0.00036948906338465134
-0.0005879999381382239
-0.0007582211885957468
-0.0007670015436122093
-0.0005152828273913591
2.487212630158806e-05
0.000755580661967843
0.001429106158614515
0.0016842006715547064
0.0011600773677004652
-0.0003230183352052544
-0.0025672208848355224
-0.0048732646574773855
-0.006096365372766171
-0.004967041354013677
-0.0006906171191928271
0.006273162300698474
0.01346676984855801
0.01600963083973761
0.00672521851364548
-0.023131484547971162
-0.08275957474361378
0.019328545936316235
0.0763036874879602
0.08420095485307
0.04395752984726929
-0.03541153204566357
-0.13340029880867996
-0.2165381021419695
-0.04135009505695642
0.03709392965047487
0.2526235904193815
0.21573946199213945
0.10703469075297059
-0.12016201608082507
-0.1281749709048272
-0.1785333976957386
-0.11669396630350524
0.036969683838537964
0.08773945783558107
0.05982660852068999
-0.01433256450182418
0.09499180363704486
0.006525680773846276
-0.07616715617608918
0.03556240081647035
0.11950464717474635
-0.050593880383280915
-0.09681998833227846
-0.029309364027545873
-0.04103363166349345
-0.10692242944523461
0.012112416662215287
0.16128276203461156
0.18263654610311447
-0.09254963992128298
-0.04746846379392546
-0.0793101535324636
0.003877986552958962
-0.012928905093826168
0.2517276491704627
-0.22139761058849872
-0.050132345737720255
-0.05001282224812841
-0.03548001476139951
-0.0231893815748475
0.36407668324949427
0.09565638926177887
-0.06400111500483098
-0.14711090442808494
-0.17170906189582447
-0.132912808878757
-0.0006079920036732383
0.07478572849283655
0.15024696482786973
0.07604870260658789
0.08443026842860801
-0.01553682216077367
-0.03595243348649069
-0.00247815431220324
-0.14424560839601336
-0.08488394412246421
-0.03763419100803963
-0.0059562547889066425
0.01108591451004239
0.21140128004493164
0.18434012542873854
0.11071908204930171
-0.02997924526987346
-0.24707510546489153
-0.32616067027199563
-0.22347931362158824
-0.07241016764408803
0.1975958903154496
0.43535780485780917
0.44572129775191505
0.18107548431445253
-0.24784432837814516
-0.3444357319454791
-0.3920641854734357
-0.22637213773796142
-0.024312086966882404
0.28693509613350254
0.20576874255617356
0.22636497543342532
0.013499699154594263
-0.011107929465430027
-0.06907396891237352
-0.01473021817277142
-0.11843728787591629
-0.04903725442178405
-0.05970918504204246
0.020158931373911518
-0.01362649393469829
0.05562178828450661
0.05758226211384022
0.025963616804848967
-0.00939284627864983
-0.028091411524589036
-0.022162224513075816
0.0032035044318637477
0.03071593633892443
0.0336554684772856
-0.019822715916375855
0.03918779214484568
-0.012663876407169377
0.016176775471675158
-0.06185376334811273
-0.01026712805764954
-0.1697848348794975
-0.0651943808521072
-0.017807781744950825
0.23832908029464123
0.14033030914065392
0.08530183522267497
0.027921277656921137
-0.1122699347876965
-0.2361852484769089
-0.04753708517976487
0.16344227700041364
0.13249016592987628
0.029855482888915104
-0.1344741688719769
-0.10927405432095227
-0.20621453555849767
-0.11167203238757908
0.09364702775412995
0.310448963707522
0.1982276643751154
0.16149685351425228
-0.050100438912410825
-0.1274119223419419
-0.1776126627559579
-0.09771459783116843
-0.15328971911446182
0.03242797320651034
0.07748042484449269
0.030005831032059428
-0.04897900920452077
0.0959481316279877
0.0992683098138661
0.1658157160157657
0.07096806545846986
-0.030032156934301585
-0.18614525683108274
-0.23311416558888468
-0.18078196536692548
-0.01001298758790248
0.11955857068082004
0.2541987195716561
0.22963622586503885
0.06037679672502853
-0.061085122214876254
-0.15554441281564535
-0.24341935911681684
-0.13261505183155675
-0.01328958764856101
0.1385545516967934
0.15085932864861673
0.24374940088223176
0.02159517361270232
-0.12802397745575117
-0.22907075597250545
-0.10922199235662125
0.0060752573571233644
0.09509690296298955
0.13748391795330617
0.11103910066093746
-0.008943713841723712
-0.04602126150548348
-0.015258741687975962
-0.11485024172136842
-0.12012108529443083
0.017211831703511517
-0.036800857289172546
-0.010018694148551189
0.160952232030027
0.11665784583231235
0.06543582088131673
-0.018375837764493346
0.011932584329958936
-0.11189071829320427
-0.05769275970260373
-0.07893961835008445
-0.005508723015024789
-0.04107425504037568
0.03293609643668289
0.04843734989739775
0.039479038052911204
0.03166848148266787
0.03474817213701272
0.039926176308136774
0.022414242231247793
-0.05152158707430384
-0.01471502897039085
-0.08887810914003114
-0.0765537685078454
0.04279765066627881
0.11180350047016524
-0.01020526408703091
-0.05574137339223605
-0.15982947441271678
-0.07224114439431534
0.02951125563988829
0.1286741828142201
0.3634145448812667
0.43166720855972646
0.009954056516069445
-0.4154420621182161
-0.5131996475750774
-0.4806397709417677
-0.23873877625756143
0.1462734152390234
0.6202635487650052
0.6926014202528266
0.40042595600677144
-0.0999199702714113
-0.31109661163345764
-0.5520439354493567
-0.5119465288779833
-0.2188529828589822
0.1661368672369602
0.3291410015578409
0.3682329481540229
0.357648549904097
0.12495913133159067
-0.15188909902330328
-0.32929619242140507
-0.27305843967916305
-0.23502335985482534
-0.04035335867883639
0.31139374550018833
0.23461349225798994
0.14284250237768595
0.03834028383679824
-0.08984025027528056
-0.26001020002017017
-0.08852684042928236
0.017862923328070567
0.06471071629874901
0.0673346413901468
0.04522126043673843
0.016226671692709548
-0.0073159514090195225
-0.019821111343105487
-0.02141262189194053
-0.01564736455899373
-0.007086395507750106
0.0005179602646532941
0.005103255306153706
0.006324118498547714
0.005033337333198605
0.0025775185026242326
0.00019153678849828003
-0.0013586059459726931
-0.0018643298407501276
-0.001560650805853458
-0.0009098950660045625
-0.0003750702979533796
-0.00024605109051797745
-0.0005503106013873984
-0.0010564838859029987
-0.0013644387802281637
-0.001064119627817988
6.933809668059588e-05
0.001896692775445275
0.0038232960500945725
0.004871057629204023
0.003962887326080236
0.0004022339694162278
-0.005569768963013329
-0.012361702926309037
-0.017045798510182744
-0.016039037845221534
-0.006510766537780654
0.011736246422498913
0.03452805842921389
0.05260475008462954
0.05278081154478585
0.021364905754722885
-0.05068974091674175
-0.16254126161879606
-0.10051976715664672
-0.039647206878988976
0.049787292622445474
0.19238964217260002
0.19838645657962628
0.0591698747579709
-0.04981073948152404
-0.15956767146986223
-0.2954968932317197
-0.0681078287203225
0.1293508936689084
0.11573099416248356
0.11230774785357055
0.13341241590591374
-0.018592223212942703
-0.15253036726150637
-0.08319883495816865
-0.02481864777763188
0.013826673128555475
0.03105121502561537
0.030995579715395676
0.020777173484402806
0.007557484491024809
-0.0034585414449753347
-0.009748003000810785
-0.011129110531118385
-0.008850300785903086
-0.004626694785029943
2.2368290281432124e-05
0.0040173779001410875
0.006637735867997882
0.007331047800820022
0.0056365415743276906
0.001352991438747456
-0.005077116729359236
-0.012163426913478955
-0.017251703562353973
-0.016998078409907847
-0.008573335978517454
0.008572166487486097
0.030931026985777557
0.04999746393955654
0.053045559127446004
0.026121080107575734
-0.041099311143039025
-0.15000445173225926
-0.08953362354577146
-0.036590951662701224
0.03878669372727412
0.1648085932918603
0.15901748004667465
0.022736038594909268
-0.05881591301400123
-0.11101047961744648
-0.16163107160370185
-0.03370455730156615
0.05795641324454169
0.1060839832899037
0.10798838035057126
0.06308837805733966
-0.02703650562382997
-0.15601321030095444
-0.10941138671039222
-0.0636804770408539
0.010709147271333125
0.14206961552725908
0.1486856554885254
0.03198235648943131
-0.02539095922451498
-0.05570331275751701
-0.09796919144930036
0.011731349908690061
0.04867308027017193
0.00484878211565022
-0.10949437511870833
-0.06836579413929925
-0.036503516016384935
0.020987442615520206
0.12793346904870712
0.28873059754934066
0.08599287843102545
-0.11367430218974485
-0.14689483843189527
-0.2383187915281191
-0.189240745699097
0.0249999107660267
0.24759576765928534
0.12591307089895676
0.096023370294842
-0.028221247416606206
-0.058511227528647514
-0.027944909508876493
0.018264428397856504
0.03430528320292377
-0.01511954355733409
-0.1462958717173906
-0.15260156722235538
-0.006702770901897191
0.13106071917582754
0.10018281994081844
0.12730223844309355
0.017471533449900198
-0.04803493216495304
-0.10727557385508277
-0.008548362591376335
0.0005535904647704704
0.08363633774989208
0.024279385006542063
0.03244437409752717
-0.05235336856888379
-0.36276270181195996
-0.21229328964184221
0.08799703191933421
0.40699077910643344
0.17145090909650365
0.35295532172248556
0.07059561748444088
-0.18931016695958158
-0.5420660428087247
-0.27258894078021745
-0.013736393139161413
0.2582343796101282
0.011373127850696224
0.13505387993897608
0.11453665733885798
0.009996523935624673
-0.15590216775709995
0.19937865185245668
0.024744623997379
0.04932768952778708
0.0011877480258150248
-0.17280996968190365
-0.29083978344298256
-0.12883096632745866
-0.02548254416240922
0.10074404117652255
0.3274877264380309
0.30523291306099154
0.04310880307711543
-0.09140386439354205
-0.15947126424209768
-0.23026637394193233
-0.16064877939766037
0.018032839912859137
0.10286407250744557
0.11314267722478007
0.07916592721620982
0.030914907513494218
-0.009788448982088827
-0.03230150282903421
-0.035991111397718684
-0.026612096183525398
-0.012132128985510584
0.0005951726010844914
0.007656825960607126
0.00842105042065791
0.0048082462850559966
2.5765061722917597e-05
-0.002780018349756198
-0.0016518682872268924
0.003449694056097761
0.010439533747578084
0.01552288458720946
0.014275252353957397
0.003272373981320267
-0.018116822708691437
-0.046473121249300774
-0.07448788594505475
-0.09325055132721279
0.10335195472576356
0.11335965703095488
0.12300666596456698
0.10720201056762933
0.03561800738433901
-0.31675248269283673
-0.1583668162596823
-0.07428827221335571
-0.027568119328143945
0.03067834227746493
0.3459010284381075
0.14536557880312312
0.02998679671090434
-0.023859197801664157
-0.0532727100196869
-0.29303069977129925
-0.1614090405406016
-0.05329108024423564
0.056749268441999956
0.20287486684809208
0.2129934064231074
0.09674647769538039
0.04135572286321476
-0.1834184243219315
-0.21395302877257763
-0.08033439958843486
0.002024585836022974
0.03405962194198074
0.2287128890786771
0.003668286247440039
-0.02531913617312056
-0.04835801052028368
-0.062493519759001255
-0.07111752622794854
0.11705246730846385
0.08909374954273803
0.029690380751264647
-0.0756766151397749
-0.03637934141533377
-0.052533353345312235
-0.11302287928214513
0.0030190059542054234
0.12132487282647106
0.06582398171989373
0.05283583359177684
0.08861670620541907
-0.028609980810253628
-0.10295852363470698
-0.13407364436867214
-0.11255463533039974
-0.020296781509951484
0.16360626618278873
0.05331958901548294
0.04679702330162911
0.1202369520851745
0.028908703852286007
-0.0853774555166821
-0.08204575493921658
-0.008210277865717855
-0.0876775717977829
-0.11560033219178933
-0.060327274264557446
0.12794995938679574
0.10420482191569219
0.11527611896387176
0.190551836110078
-0.06058982176660072
-0.2446505548052599
-0.17621678120304013
-0.0710145644331896
0.05672190297953001
0.1922487786136194
0.31665891198298657
0.005901855891521568
-0.1647637744959205
-0.211781347725241
-0.1341103379193488
-0.10913123586035373
0.10319129672792993
0.14853252006732032
0.06286935861615552
0.0591001712867854
0.12036927473216621
0.002602516496366744
0.04610099886367393
-0.006415562776971287
-0.18991707288087117
-0.30115011263193353
-0.09242655828259391
-0.07877440697311507
0.041889020681829835
0.3606406731575046
0.330126866367293
0.14713014567601523
-0.04854829454815718
-0.15833869540702586
-0.29783642343121053
-0.16763457123364003
-0.031083381668803776
0.09549231083829139
0.03942667705102507
0.05844729743592684
0.022526353810585938
-0.004357507083051793
0.021061302948402125
0.11249565901595318
0.052507998419304126
-0.0014536563608489052
0.09572877648169595
-0.10609762347761256
-0.23500377431432493
-0.0841364231837825
-0.007678306744123744
-0.12776288222503235
0.048673343665458065
0.20717482493353584
0.20330536480148262
0.04698833241875253
0.09858660962735735
0.07828978232514387
-0.1136151638052658
-0.3713957797719922
-0.16112572389731428
-0.10772237312667776
0.004314922202288412
0.21765211647056443
0.3822926486919802
0.13737517340629354
-0.09852240422702947
-0.12606453441953608
-0.15551923326408384
-0.19479951048865907
-0.04122177353965761
0.11965712406341113
0.1085093820389209
0.14343026561321592
0.03230298967549496
-0.030414474088204427
-0.061728825554398514
-0.08463272852286655
-0.12201522078199557
0.007386532184287952
0.08980927865615389
0.11480821824454596
0.07326918467487116
-0.042721184581009417
-0.0372868261070442
-0.10642984556268033
-0.034139747070070066
0.008897697031465772
0.06291045795145087
-0.026725869184639026
-0.01738429733199353
-0.0777191192319065
0.004594631403768862
0.2175079413087636
0.12362336676074691
0.06549124177548478
-0.022364359685349132
-0.19691162535757456
-0.2904686911149944
-0.1008992718912257
0.007471891186994616
0.09167763005343087
0.21055926053929513
0.20473231748525741
0.08320414604531921
0.0213257760638643
-0.029336330577446883
-0.12279777759938305
-0.2985787431474308
-0.1669628889673622
-0.105151829157702
0.13395369992781023
0.20349751539676916
0.3420842026264419
0.15924894530226674
0.03304628503356289
-0.2792486117214624
-0.22198857162701408
-0.22182540956185848
-0.07634231385959601
0.04487146633183958
0.1875135153134092
0.1935878437608445
0.08358842391925203
0.04637775977881189
0.040166618945983355
0.004170040403328723
-0.12270469876980844
-0.1817892116900463
-0.1794401448595565
-0.08183323560807439
-0.022110795927325656
0.08168355994940776
0.30321186073403833
0.28655843642494117
0.034286713941214055
-0.09114044253618836
-0.1535881545333602
-0.22273763738126107
-0.15447110311992956
0.02144300280402698
0.10353411539331152
0.11198128485030348
0.07730661806217454
0.029213865260744147
-0.010979002092249954
-0.0330834434701941
-0.03667882431983327
-0.02742716090787274
-0.012967065074381745
0.0002380292759826944
0.008498259138842203
0.011031546440765549
0.009137623840955284
0.005025488607486181
0.0007883687270784597
-0.002208127929846366
-0.0034857478969406277
-0.003277598891836727
-0.0021946974782230517
-0.0008968755429589149
0.00013096991901662694
0.0006662194279649701
0.0007222630961722029
0.00045834468400749107
7.677579370399338e-05
-0.00025615826991389764
-0.00044990825049977885
-0.0004920515016632236
-0.0004258633689377479
-0.00031824361171938
-0.0002303178048036965
-0.00019782123752744592
-0.00022347420557015338
-0.00028036688537719023
-0.0003239336781965014
-0.0003095698697247
-0.00021231944910470707
-4.384399151762097e-05
0.00013952866739488977
0.00024422815175267535
0.00016660219342003088
-0.00016187193389241615
-0.0007221380231015304
-0.0013683640162785097
-0.0018281031083449818
-0.0017641102948624324
-0.000903079421749337
0.0007930994212158296
0.002973009136839373
0.004843993927225221
0.005308084014204324
0.003327586481611973
-0.0015264313390682344
-0.00850718921223764
-0.01537681924874044
-0.01864784977317137
-0.014594615616522071
-0.0010013343102802659
0.02075227924613216
0.044038448715609003
0.05672787153592532
0.043126285088805894
-0.011762636334394193
-0.11654451002665457
-0.06821915599067864
-0.049740170900825754
-0.03199336394430704
0.01971481447030729
0.13637618975419305
0.13623753236773503
0.019247617763190762
-0.03289117636900495
-0.051089380101686684
-0.06980901667184791
-0.11785007344344015
-0.012010848618733723
0.04470027992117939
0.06046731901121413
0.049422004187649575
0.02613169885373723
0.0017540018601457084
-0.01731855499632595
-0.02865404410240365
-0.031898336216225544
-0.027082030287976223
-0.014062652226382385
0.006605760981741783
0.03183505523020949
0.0542599533938866
0.061878962346268426
0.04005440781435232
-0.02403297494848148
-0.13561473114647496
-0.08747827491119012
-0.058525128808024254
-0.017287612005299186
0.07000445128482333
0.22931756879505688
0.07042046036700225
-0.01640687148611432
-0.05717494104516534
-0.08583603778904217
-0.13414250603461908
-0.023456628061952207
0.03894799539125752
0.05861791891141941
0.049134624904401854
0.026223407708131564
0.0029382841317777534
-0.01289188084053211
-0.018886149042144397
-0.01670485620032321
-0.009991235242692518
-0.0025022296475218516
0.0030879046072696003
0.005610084096749278
0.005222239514321978
0.002919697593434662
1.724302412324497e-07
-0.0023535911333876047
-0.0033267667921931927
-0.0025936860410360214
-0.0003612107080916156
0.0026412591652724103
0.0052511362778302866
0.006100942987003667
0.0040297562411743025
-0.001354696437076918
-0.009116832738738784
-0.01670799640063049
-0.02027166396840831
-0.01576217469674934
-0.0008368782781042689
0.022913620158461913
0.04823402438463427
0.06201726225173154
0.04751048490473538
-0.010957888822081048
-0.12173780722123148
-0.08023208809504778
-0.06646859983150323
-0.04776398825385512
0.013357003702574364
0.1479399312801226
0.1697050627971983
0.06859332314636585
0.011715113501747833
-0.04790597485806685
-0.15735618179278982
-0.149229145637571
-0.03129833251733418
0.016180361276689727
0.03487141646280976
0.07645229752520241
-0.01203159197205315
-0.0017222483792563455
0.10876450482122654
0.09054974861957686
0.08939219346271782
0.038095382759127765
-0.1257047771464177
-0.24064071885524266
-0.10723564592735507
-0.08323603072104703
-0.091295044168532
0.1621854659772255
0.16194965285192903
0.15972412291047808
0.15832471496706746
0.10915255754409067
-0.07569276521980431
-0.0998344210555083
-0.25429894359146255
-0.19282529248798294
-0.11822400355313342
0.016177735828687916
0.09072821155078653
0.19450292229695873
0.19914750997897188
0.13953082292590094
0.006767447211796783
-0.04494742524206324
-0.08059649853004688
-0.1617631987099183
-0.1264543345104958
-0.1776579352295751
-0.08440009601285062
0.004608612501787365
0.1386960883009444
0.34173635330545493
0.3965270705015787
0.24484757443415478
0.006247835789156711
-0.3888031186174503
-0.9633089982461518
-0.4714750601545221
-0.0025474571289297115
0.5867762893963762
0.6222932089066164
0.7648976357041146
0.18614250240800057
-0.22253248689290553
-0.8107475900813952
-0.5167649648971684
-0.22295110820429215
0.06456697707619896
0.20712509588282568
0.3024012928122303
0.24477191441828372
0.29180565566639244
0.04743820176159163
-0.13439471813530013
-0.12892979011185313
-0.21103943109172263
-0.22747733443077348
-0.17998265502007654
-0.02431462417524286
0.11503783637771917
0.3199245484315931
0.25227249224688797
0.13567871234034765
-0.04914972236938272
-0.1545728093673211
-0.24664467856143743
-0.18404217079636612
-0.0027634736855670027
0.08919864534939673
0.1074099594180174
0.0804459853039052
0.03814887285252049
0.0026730872637095713
-0.01572868577778669
-0.018223442129037683
-0.01356823368828595
-0.012787350303113768
-0.02413605340321537
-0.04975816740584261
-0.08492713131043388
0.07993232887195093
0.05515882501553372
0.047327763864307565
0.056279950275059144
0.07517514844115292
-0.10624122671391033
-0.09649553446880853
-0.09783672699499718
-0.10484673110506307
0.09247169317944115
0.10200003985106743
0.12216630399566349
0.13780893723690588
0.12216781590110234
-0.15456750853520887
-0.31289761297111773
-0.15305781326532802
-0.05092836835986437
0.03635762221041077
0.15667463144791868
0.34652798286447817
0.21909219207029956
-0.03789830918605582
-0.2533268158163048
-0.2571370726972541
-0.2657023182360163
-0.07541917888051032
0.13227988175717048
0.37709631350531936
0.2644587151851574
0.17691196839320086
-0.12245077470852003
-0.27521379268963225
-0.30799813843248475
-0.21710753551053777
0.03509928393114659
0.10983190000585956
0.27125747489619934
0.1635904041989217
0.19448034199141945
-0.06945517371053109
-0.09383925705774769
-0.15807635564243597
-0.1337262628559134
-0.06647732240651885
0.033561184317471855
-0.008295235077665728
0.060107859567180434
0.10405221766445416
-0.013040597445281266
-0.04256935644208724
0.04046973243658064
0.03391254179149478
0.11037197565747708
0.024527923220189055
-0.07517164114584661
-0.03254224816177358
-0.07073888288761007
-0.18409992794148536
-0.13775710155268495
0.12384400657138359
0.06105502048969263
0.12003222837098668
0.11645654742218606
0.22738475396861496
-0.005543463292168243
-0.06165272587317145
-0.21929088922067919
-0.1329578986521758
-0.21678493139933175
-0.039789965840626794
0.06548181685766742
0.18374909146079596
0.1935030688635902
0.14674962863297258
0.058009890916224396
-0.09498847732465346
-0.1607346995998306
-0.1984960660571129
-0.06401114571625324
-0.0007474327229125082
0.1621078580534893
0.20710767487170106
0.1254359348129831
-0.08344640999855885
-0.20881574653054719
-0.2249682800237346
-0.09093055083818662
0.04352654288577174
0.22623145138387477
0.2897364887195066
0.24338048091697911
-0.12511385969410652
-0.2383309481004431
-0.3130806451170539
-0.14741208283887483
-0.11753358558579693
0.21310473247943548
0.2760278203350184
0.27885719807439635
-0.006394965964640795
-0.04265905788545147
-0.11472517203967313
-0.10833902885623453
-0.0883058746019591
-0.08202127693562876
-0.07269843194849557
-0.0037362831864166473
0.007110046189430874
0.04741719379901561
0.18885578443493722
0.2707246047079283
0.09298926977821277
-0.17914131810146194
-0.20106254163762496
-0.2306495587843541
-0.11297988681274412
0.12734354657723398
0.2857223477771408
0.1723308813720774
0.006901769147565467
-0.18356779803122164
-0.365011012426683
-0.0980398066146024
0.05536594561884218
0.32026816123273233
0.29666630346014067
0.1534479370627648
-0.16678429888672902
-0.13205389119270092
-0.1997605018422635
-0.19779911294666094
-0.1151656559008005
0.09444679054026563
0.09726699929638796
0.157550361976825
0.11649055957781429
0.17877217189677558
0.11101745971649209
-0.14738709570529043
-0.2645835053395813
-0.09416686575280936
-0.05799820778787961
-0.13917401153749648
0.11330074951431011
0.17037525803304798
0.1041873622681303
-0.029759329675618597
-0.005118608447974623
-0.029903965218938525
0.055551647260791974
-0.013274867846764108
0.08768375594927215
0.0869079188196566
-0.06599142598777978
-0.18579741953043966
-0.24359114145696947
-0.1691816543937041
-0.06622980760533574
0.16177505193896974
0.3812611928626556
0.40394761374368765
0.17765897381424833
-0.0019361592486617173
-0.2605952616218016
-0.5052669846426748
-0.3882091221727765
-0.08838035195690011
0.08312156285027461
0.2556753252108387
0.3597022562217637
0.28869755713145645
0.07468478478845786
-0.11656739627440077
-0.1714249527437526
-0.20212306154527176
-0.11767184495932387
-0.00014363820237500155
0.10895276055106504
0.01145303769287515
-0.05354212535270136
-0.021664035902950206
-0.018439383660694232
0.02487184129642838
0.15744078942350725
0.1999793737146684
-0.056709354499667866
-0.044941540139650786
-0.0069304772488462205
-0.17926609860006062
-0.18016801268948585
-0.0038099367396184788
-0.023788291855718346
-0.0047292698992824015
0.28193255305414633
0.2437576708284543
0.060275081190177764
-0.11372740609904022
-0.13554168778310122
-0.25735712727444676
-0.11107592775401756
0.09972648084195201
0.19907707335686137
0.031200960901703857
0.05042375372600957
-0.08822325783671517
-0.13635994431562565
-0.058010240545478556
0.1654994130153144
0.13180650064157012
0.016510080279304132
-0.023458624346528054
-0.041883948658425756
-0.0924597295118849
-0.018023196916630214
-0.04262023905341904
0.0318619794861518
0.024134942086336764
-0.032213575143207905
-0.0972456075799446
0.06556025574312443
0.08009068984505416
0.15110602044318666
0.06271269799108187
-0.016922362130925177
-0.12536725467761656
-0.0932290971718292
-0.13323775868761933
-0.03495704304055588
0.032993927790539536
0.1139812200220547
0.05068439394928514
0.07272767986791633
-0.011890257554466136
-0.019625921214982724
0.011711159687626862
0.030901731600377437
-0.01562576481310929
0.028400945115868846
-0.05973378802533803
-0.07396775886999016
-0.17747252668684313
-0.10821695590811548
0.007718016226965071
0.23741230397604834
0.22200069443198678
0.1635824145857998
0.023328124687319398
-0.06772537884936095
-0.18831745566612465
-0.20367600838415048
-0.14694342593276336
-0.011193373379222332
0.04584784450988618
0.08653241200378761
0.17284944251207326
0.1473918227241129
0.021369058615761348
-0.027297655882263024
-0.046071142142167044
-0.09319060905826984
-0.020932584014724413
-0.06125299665782378
-0.017197935188384052
-0.06190815266242368
-0.1454691154032151
-0.008333506436118606
0.20161632248385833
0.31299629836364107
0.12131153549547437
-0.010010611131182637
