0
0.0033859527494993994
-0.03488005960726617
-0.06473449282835915
0.12193313977517044
-0.06915212063023359
-0.03588363365704482
0.019158984278448064
0.08807275383503502
-0.04219555832229238
0.011552481944789595
0.03154602664077687
0.002850955988465774
-0.08259752507202914
-0.022807760771016327
-0.004468564524917119
-0.004282679014854867
0.007191361167581298
0.06003931796416412
-0.02088996802901753
-0.020975850972859946
0.06102864137140873
0.012259754179125565
0.007641915977800165
0.014286475774659807
-0.002243710192104542
-0.0709739098249431
-0.009391272206296831
-0.019685829613123377
-0.08846051583062349
0.00978311133656191
0.10606716579439261
0.028908274756487943
-0.0029775879919285413
0.01472942937575259
0.07114741704903745
-0.056759453252596084
0.0019480155823642254
0.020005838103846683
-0.020308128970333808
-0.12137605229352083
-0.06808166815213822
-0.03041141895842668
0.029251499684105554
0.1458719378376136
0.14171294633166756
0.019982163887275906
-0.03554005750124506
-0.05490130918510279
-0.07267840532154579
-0.11841764996742721
-0.009969679684229528
0.048543692804685686
0.06429612685412994
0.050612444264758694
0.021477468907621405
-0.012442217962439482
-0.04554740988484591
-0.07719238769879025
0.08942759822692274
0.04872693820399339
-0.005613712633193718
-0.0786887595183884
0.027672505001858683
-0.08362724301489467
-0.004698019108588712
0.07631180940521497
0.17360745435244723
0.10264632125463956
-0.11998356080559358
-0.27700039955074046
-0.35439720706658423
-0.15233926746482074
0.09656215517998953
0.5066938651508921
0.7271296452351196
0.5497267391286433
-0.055057311878481334
-0.8782820442611889
-0.6049025910702883
-0.56230481400561
-0.5064464747695054
-0.055056548506147565
1.0391795288026204
0.7972434336639511
0.9331712808728801
-0.19107757808848974
-0.5653416611525747
-0.8941903807423305
-0.34462091032378067
0.49862437605689486
-1.1435924140092084
1.156502974106102
1.022644365009839
0.06576040432518664
-1.511000480327615
1.3087613454292018
-0.6158868530608084
-0.5570232418417584
-0.3047812214639817
0.22701610414143716
0.3768465492829815
0.3004431074669781
0.1364000223462537
-0.017147424063625388
-0.11004669179561037
-0.1335469674016867
-0.10543118388822574
-0.05358430434942628
-0.0031147014298276415
0.030587873777964476
0.04305140966592082
0.03801530232064199
0.02316641949679191
0.006273930720924548
-0.0071804599529381626
-0.014680354406308353
-0.016111177737637015
-0.012681289991443608
-0.005986398465595757
0.0024145145090191424
0.010907520083816222
0.017512715321217197
0.019788037499533704
0.015306964622668952
0.0027873251849204334
-0.01647160827278641
-0.03761458672758763
-0.052749624496164424
-0.053905378990692365
-0.038818123791937234
-0.018929462328365818
-0.027670060483943593
0.27420781835265995
0.40032795295797596
0.2509865003587614
-0.06335796448904
-0.5924072834120078
-0.921256662811984
-0.3640636231362407
0.21512579843188484
0.557352308768506
1.155619686663209
0.8167542618259849
-0.14289758155843296
-0.8637968309104315
-1.4857665730149496
-1.2925886903335522
0.9188514330221702
5.040106207217366
-3.561671962132026
-0.4517184297991587
1.073123976542348
-0.8208839399547633
-4.935551231071243
4.4925287391325694
2.099295863306659
-0.6949875863817855
-0.13109629524910302
0.9099752503964652
-0.6098636703766416
-1.1649218220997233
-0.139857133401533
-0.3303338247847971
-0.8928333078709692
0.24815626893147474
0.7429654703436558
0.729887566366509
0.34564811525267664
0.057635739080175205
-0.16872156190047688
-0.26790389025884803
-0.2483595886190597
-0.15730801029782476
-0.04897801692567129
0.03621309107462643
0.07976492221026198
0.08302212946888365
0.05951648744344756
0.026261685130769753
-0.002858077835416596
-0.02029858008848485
-0.024909351606352673
-0.019971534310527016
-0.010568279057888255
-0.0013465064141137562
0.004782455395115321
0.006946176323287003
0.00588490935472059
0.0031813005164697816
0.00048755225074020864
-0.0010361827185972681
-0.0009939390297456674
0.0002460643808065624
0.001762718578164338
0.0024362202626381506
0.0013772200543836306
-0.0016508125388159948
-0.005929104398270757
-0.009743380323341667
-0.010739794982268796
-0.006729062045236586
0.003176807365426611
0.01743419638705135
0.03148144572106816
0.03828877414521742
0.03043200173400611
0.0035568529516732976
-0.039667652712442374
-0.08679638710835208
-0.11618921420812955
-0.10276190394723676
-0.02945603100934372
0.09718983840957268
0.2314227939969691
0.2783128504361302
0.09484314457801625
-0.09536493154327065
-0.27571550303997505
-0.6050190951455892
0.01164531256875827
0.7447013726685859
1.0553174423156502
0.508556854875165
-0.8152315837562192
-2.922553776802314
-2.7454305422680383
-1.0351632352472804
4.099749291085773
10.068046279465117
2.5680178350106933
-7.282954331825343
-4.88929720401967
-5.312646931969115
-6.157352877229448
3.7029635848765823
12.393733642044499
5.857237112949717
-0.18578234430447543
-4.4073169684646025
-4.994071333581657
-3.8593637118375925
-0.9172748830890682
1.4639963345091527
2.2082941903089064
1.9378499512530467
1.1371412069890086
0.16093214605684897
-0.46611792998183116
-0.6547302278903873
-0.6887711618690306
-0.5352664546530298
-0.16214359344421853
0.1146245954840041
0.24881005428347072
0.25360580810790695
0.17644275159566974
0.07216335657343341
-0.01645774883196414
-0.06741670555570149
-0.07860235569226619
-0.06109595562930434
-0.030855448249826455
-0.001957367798562667
0.017079436031427236
0.023886162947783392
0.02071471105408001
0.012056106014827787
0.002469217936627072
-0.004786470976822456
-0.008206278123142464
-0.007815684300208193
-0.004629877670364314
-0.00011324781622302265
0.0041975933020382255
0.006909620432280571
0.006937088109092025
0.0037313112104141607
-0.0023910803312161815
-0.009929358936295776
-0.016124794280084523
-0.017405955591526454
-0.010519854025611767
0.005749758586972819
0.02873766346164918
0.05070566920949059
0.05916570627740271
0.039240540959797954
-0.02224302782526858
-0.13239076427454732
-0.09009348976637473
-0.0888236287971059
-0.126104366578999
-0.01921157463900754
0.17612114230607845
0.14985182871285144
0.13201006261754256
0.30422786401276397
0.6326004462550874
0.3210860507831374
-0.9226347461217154
-1.2256253552954226
-0.31528417591229174
-0.3322234587453735
-0.4973136220912379
0.9792442624113475
1.5759070329496359
0.9625190278672278
1.3611089330404627
-1.4208407865422386
-1.698469834432841
-1.3976471216860678
-0.5694668454103796
-0.7623024486720648
3.1482504202465775
3.101749456103051
-0.7889986310071704
-2.0350568645883422
-1.9296887632838857
-1.304733033219091
0.07546395406523958
2.6699625114950933
1.890529674476794
0.6483401519124361
-0.846342052530298
-2.027268292400843
-1.0870187194352576
-0.10640309453867143
0.5702025502516023
0.7085635322298063
0.5259264922935935
0.22789736025257584
-0.03653422040645633
-0.19203204236226967
-0.22870359660004724
-0.17882120484111624
-0.09020288868191707
-0.005157321126291149
0.05081985113923045
0.07081970080986746
0.061786027272896754
0.0371761893365002
0.010287927389130683
-0.009883739491235334
-0.019867329974208727
-0.020684772121761494
-0.015720371579564404
-0.008596589348161975
-0.0017952740192930198
0.003715818784782785
0.008011604537689763
0.011321573272332113
0.013240366206262934
0.012471437332121095
0.007321932684643158
-0.003139095619369588
-0.017678551380648687
-0.03193886943823112
-0.038693180103726146
-0.02989466636742844
-0.0005754924335929369
0.046120736325001604
0.09426440996222706
0.11270936983530223
0.056406872601039805
-0.12837338727494188
-0.29667189746761635
-0.09850447340352293
0.2235966566498767
0.03273965781380432
0.09411842348783993
0.17385006580817372
0.04346890236145694
-0.10913395229490923
0.13550618196916217
-0.1567746523203784
-0.2655841782792884
-0.6207072838527565
0.17579220470110496
-0.28974484603353884
0.5080137336016409
0.3879003137277763
0.6383345057604516
0.6307878528091662
1.478333464805935
-1.8668803403537801
-1.5006313697031866
-0.47548233204019436
-0.770016216986223
-0.3409929652514557
0.3454984927102665
0.5334724786515816
1.5939804656306709
2.292035712638902
-0.4527536570417184
0.708144077805285
-0.2731824997164564
-2.2114841394740603
-3.0686321825845067
-0.608553017458151
0.8315244536535427
1.6531143371720944
1.4333102253945649
0.7493738442596731
0.0467097080119228
-0.421429900219982
-0.5849187991320581
-0.5020217186298215
-0.2894113212294395
-0.06218415411409774
0.10235922722024697
0.17527228349906665
0.16729972050131492
0.11086771282594461
0.04180566682063229
-0.013380587350452207
-0.042694119546155956
-0.04732760542155101
-0.03648612472563978
-0.021245761931908972
-0.009674676720997024
-0.00440504187666809
-0.0028543314410353314
0.00043885590295407976
0.010349890977071735
0.027786430551455587
0.04764505116285456
0.05918217437262413
0.049374355059205274
0.008944372571840825
-0.060498329035664086
-0.14100371004176857
-0.19803669487362494
-0.1885109592790333
-0.07807490956323736
0.13503042988743746
0.3965204164557228
0.583175404860556
0.5105275620898354
0.1660691696832201
-0.6368961602986676
-1.6011328727239251
-1.306642838979626
0.38913164693402413
1.909366041895478
3.2940940456155023
-1.4534018122669
-2.78914321502754
-3.42680376338382
0.8626254915988589
6.236877440819425
3.7763143688132033
-3.8723652588028292
-0.3862326344561144
-3.630989910404641
-7.9841206616588165
1.0085407612115016
9.029454870420437
3.711674416036464
1.8163032440609335
-1.6224342231379245
-3.156303083254411
-2.4519001504114413
-1.202961118943837
-1.1285797718038173
0.8900714392760425
1.5398042953752122
1.3204902906501714
0.7704716790457489
0.12866944964229327
-0.3363578888184821
-0.5295768990092014
-0.48515951308246746
-0.30298764655123706
-0.09075789524074603
0.07361619966427456
0.155787614238248
0.15979964364508809
0.11273103434187699
0.04777953938389458
-0.00833836184041603
-0.04133176929353655
-0.04923515751995181
-0.038538521455748855
-0.01915280645146777
-0.00019998421159669007
0.012400031445968015
0.016517352364795224
0.013135527917127245
0.005137258514272705
-0.0038807364269059855
-0.010505690675888196
-0.012140955749317813
-0.0075223589821922544
0.002788663730497274
0.01603443089017079
0.02732147867270949
0.030504861640391394
0.020131480898056015
-0.005756512484056964
-0.04277761670500788
-0.07872561295051873
-0.09506144800393904
-0.07255060305541129
-0.0009547440813012823
0.1091935946459484
0.21660406162970802
0.24589092545872573
0.09490519041794389
0.0537079281669037
-0.1684720560129246
-0.4165952140160366
-0.4744935968829327
-0.4709488950535089
-0.5116658277854692
0.26825712370711186
1.4489125799293887
2.0947104075985217
1.7761340610313534
-1.343358942207611
-1.9741063750534702
-3.7734070750189748
-2.292822174101601
-0.44759154463550505
3.8961132421910762
4.282674734781962
3.482871935965995
4.258803246257237
-7.49138982808163
-6.469111614418797
-2.7210302607492682
0.8724961169395355
-1.2938703905018
8.600917344548716
5.1231333042750045
-0.18980385453396592
-3.011821679804285
-3.6314300732649554
-2.672712413771019
-0.8574630120498883
0.7047655826941929
1.679639287021856
1.565159432250263
0.913319989633528
0.18176293128304227
-0.3467310340570318
-0.5722106436563779
-0.5329647263335181
-0.3385191591018532
-0.10736943946328155
0.07403857301550663
0.16672901029286546
0.17393302599832458
0.12452952235173957
0.05456313358150443
-0.006671685318707555
-0.04331619090025036
-0.05297738644830366
-0.04254246598516748
-0.022634539812063228
-0.002938596741362756
0.010465777688078645
0.01567335253375346
0.014020554840789167
0.00849512711644406
0.0022232594745840977
-0.002530145477615045
-0.004737153710855306
-0.0044842517784345285
-0.0025819994219037816
-0.00012445943681668907
0.0018655770375974063
0.0026638592291984846
0.0019671904937279246
-4.9976956923761094e-05
-0.002731732566567893
-0.005018694993600089
-0.00566233665969085
-0.0036113903448179857
0.0014669262725153422
0.008678694617443056
0.015659436473753778
0.018879247078398612
0.014684128835107117
0.0010051659456628364
-0.020710397669712666
-0.04417538074911455
-0.05858085411256154
-0.051421216363255695
-0.014025229045010336
0.05111027585561038
0.12331423229710395
0.15999969634029934
0.09889845364991935
0.06735888791834156
-0.0030495767840123308
-0.3616624770359494
-0.6310843442167605
-0.6142742416969226
-0.5194100325708086
1.0041439593852997
3.63800697397879
-0.398129765548407
-0.28557845103918333
-0.49886275835610816
-2.4895838800220647
-5.218371260955682
2.217361770916751
5.648671886450918
-3.7683357205048087
1.8469191389944537
4.970860133191131
0.059145350573791486
-7.555841166992136
3.3099446382369924
-0.5182843171644234
-2.2295632243057772
-0.9592717201546361
2.8007087118814624
1.3353788560676645
0.019734462215069738
-0.9529305653646987
-0.4102503012130022
-0.012153681172500054
0.15109379200525094
0.16320597795073927
0.08542184595820161
-0.03945622786213266
-0.18149677224628746
-0.11767463703125514
-0.027949869129753693
0.10488739346362395
0.09205886694016287
0.13481968777093084
0.022687884445956413
-0.06433631767085143
-0.15000651467043108
-0.05487937103683663
0.008932224832903334
0.03946083276417171
0.043034096352065045
0.030325398360649247
0.01219034298191555
-0.0032993942987229446
-0.012067901041969448
-0.013697005017187423
-0.010169411930670889
-0.004390424927748901
0.0009998491144253864
0.004295654723902628
0.004898208579651111
0.003156314150710402
6.237845353254844e-05
-0.0030701116595193423
-0.004909823751684101
-0.004414319624958932
-0.001163445611637898
0.004318107986485208
0.010376438135465422
0.014373966713877978
0.013336087531182365
0.005125827178787966
-0.010087410187476192
-0.0286058467432899
-0.042991304834603866
-0.04360613517363029
-0.02226473464373575
0.02240347075379101
0.0792291787788107
0.12053711134282678
0.10217214780767243
-0.03115828093631824
-0.1357656657427651
-0.05673540065046455
-0.017478826829180862
-0.01478487425745542
-0.02168803292643896
-0.19881981329726867
-0.313458244587758
-0.163728768692661
0.1976277881340388
1.049883974332433
1.2147740926113042
0.7021838996791472
-0.20898582603208266
-1.8748997942860508
-3.2161779325602375
-2.9198091946776445
0.05795974358925003
4.305225272789185
9.757489890376235
1.3923183262971082
-7.313762081106149
-4.184653682509335
-2.9103345376625414
-4.714462168207611
3.1995708443542794
10.451994872324583
3.455414066842301
-1.9139870054255235
-4.4678251418987385
-3.1104217662632774
-1.4048791291512506
0.388923788326244
1.149027035899074
1.4105456081418268
1.0236910733375548
0.4129848785565194
-0.11794363965616668
-0.41979868949645244
-0.4780315631217184
-0.3629666156002846
-0.17436652085907817
0.0014399454671811685
0.11381075277256889
0.15045187830264967
0.12708003246018862
0.07222038850996769
0.013738251162118147
-0.02932770339680524
-0.04910464121360229
-0.046958229830429056
-0.02966149892154941
-0.005723651585571766
0.016987133557570686
0.0322281719146718
0.03560300715799533
0.024851167973668455
0.000715536817736567
-0.031777545646344954
-0.06250923160097706
-0.07722812553557794
-0.06139080491685696
-0.007082952117813921
0.07826058108230166
0.1641857445437918
0.19435862585841165
0.09177738057132233
-0.026918684776692122
-0.030535363569596154
-0.15188243210779345
-0.5741642366761597
-0.433448586440553
-0.04205024855393376
0.06938175882487944
0.5024856335454391
1.1536640618314276
1.2095705608773917
0.389786244209025
-1.1658101732541202
-1.7895383307132469
-2.599747076118756
0.3231048102484812
1.0802499619137265
2.03703355206112
1.4930507134643398
2.1953510524158792
-1.6719517703908877
-2.627907673429357
-2.208516876421532
-0.3124674409992793
-0.019023876284620555
1.7230987634261083
2.5781829495492286
1.9395333379377586
-0.0687001771880081
-1.2873751669241473
-2.14482144849337
-1.868271006016892
-0.7518122281282273
0.47583013155483167
1.380953589180459
1.286754665548666
0.721004580537772
0.09817640901939366
-0.3374185407995174
-0.5073574657122859
-0.45292044225577616
-0.2733969085231976
-0.07160970505453297
0.08032267270089079
0.15247225629047126
0.15098800763393205
0.10292901778068785
0.040162328602847144
-0.012310529641114466
-0.04161980148827624
-0.046643567709133145
-0.03420094216433663
-0.014260948941533019
0.004038911343090925
0.014737943818533496
0.01577798744334219
0.008597753940386714
-0.0028464692151386004
-0.013277440660504312
-0.01742389222594912
-0.011543423608221342
0.00485233908939096
0.027305628616838818
0.0452633284264827
0.04207173879365914
-0.0035595010672741646
-0.11495401989314055
-0.11479350869538284
-0.023675207178431874
0.13955229110835118
0.1566823309820344
0.2105408937974301
0.08881016053488189
-0.20919839947634714
-0.6669095114914092
-0.45261519411740186
-0.13467400073768526
0.4915021579512106
1.1756543489657127
1.4021306788474133
0.4125264570466912
-2.1368246507395585
-1.7023381343968318
-0.8010104698984788
-0.010279008817500225
0.7725548506031381
0.8352348595466668
3.1655049882957917
5.023430286027676
-6.404516608610088
-4.089418171883108
0.9536240484437679
-1.0993357755786943
-4.364558016102221
7.167012404214589
4.820376880070934
0.6954632027714467
-1.5301785676102535
-2.042351150036481
-2.635020140669606
-2.058535424584514
-0.2602673684664936
1.039264587001617
1.646835891483026
1.3267626674325765
0.6277934951188058
-0.040392131247457955
-0.45770558314146026
-0.577611622999072
-0.4698636837811025
-0.25204852300110875
-0.03351476293310986
0.1164635780282887
0.17582866604662775
0.1592891731834676
0.10010111773927914
0.03265667037408136
-0.018941125801033337
-0.044873494514064534
-0.04753860430967399
-0.03617286138842468
-0.020986001435627847
-0.008866951071301669
-0.001636622252976142
0.0031709823246809533
0.009728034859460949
0.02065167095437353
0.03429215159376007
0.04366185541613491
0.03769661433563261
0.00485747064721786
-0.06182910246244201
-0.16009178659888398
-0.07631716585633977
0.012312908707672562
0.13147316135639345
0.1012676724141514
0.12917917391563205
0.007496423348673885
-0.08362570855501512
-0.16888111963878127
-0.06958203890583671
0.002027439660958053
0.04394330724799805
0.06139810929093533
0.06183321284548408
0.050547797597507625
0.029054095891421914
-0.0032219408512254833
-0.044809714384206306
-0.08780999446689387
-0.11604034828032098
-0.10816493089091601
-0.04688207813714055
0.06703055816003312
0.19961369149989638
0.27332670830052613
0.16731457720464235
-0.06794551082680701
0.017760784846051387
-0.08894539761156779
-0.2291784032555249
-0.5470672808201971
-0.08508636156590824
-0.004082779951258454
0.17403480333649335
0.11005373482444279
0.39146323595702326
0.2912616721398898
0.15306635195499274
0.008137160729938963
0.022596078463542935
-0.23377252403908189
2.4891827711059844
-4.010957285744424
-1.5532852174631613
0.8093809829319087
1.5109005745762625
-2.2548066245062532
4.131952521232023
1.8223096078269496
-0.7180217072405712
-1.6364397911666728
-0.9548483690789467
-0.8142227888498277
-0.754966393835963
-0.06638016577426416
0.7895502485458541
0.8993350999658722
0.5974277266352466
0.17781501640632952
-0.1597129612379267
-0.32288399893331615
-0.30848486916680656
-0.1677965929023716
0.028966974322791317
0.01940197265398404
-0.036690780273599725
0.04583840101627422
0.072747223816466
0.061717545954921155
0.033322118141935156
0.004263018484056214
-0.01589076729032773
-0.02463447507640846
-0.02425466769656953
-0.01881783637709895
-0.011687265249938626
-0.004318827054694703
0.0035188308401879324
0.012479456238921278
0.022056098193454683
0.029524747400776735
0.030125517919045774
0.018800363112542177
-0.006806186995037225
-0.04309555506304041
-0.0786360145019505
-0.09549040639136933
-0.07511543368004667
-0.00891864201321429
0.0883497101446442
0.16617015292625537
0.13180164127248892
0.05449809415296723
-0.016917544371265438
0.37648905242448655
0.34355732558436486
-0.11521381177602821
-0.8756984854222236
-1.0841917572628545
-1.994146442497745
-0.6530334670119335
2.374921984156203
6.092935973334941
1.6236269995098471
-3.1251554234585996
-3.2870382063194783
-3.2246444083049415
-2.573371521491105
5.191529878805955
0.8619789923723571
1.9337460040447882
0.6463807471507823
-2.7254189910900806
-4.724258870038901
4.469633635590378
1.829989081101208
0.6941282949788794
0.014414950598275926
-1.5370760454669117
-1.2304226804176024
-0.7487178844167086
-0.5097887131194232
0.3394744674216535
0.8613888245395684
0.8252836541549804
0.6009675307610463
0.07912985767704787
-0.3650973846477624
-0.4669762909357175
-0.2399799537870711
-0.13538906310081134
-0.008641265895206097
0.10035626593940801
0.17304388506096569
0.008611612296037534
0.016492966758901998
0.009161277617759091
-0.002694621787337868
-0.012282541638201612
-0.016717495127301803
-0.015869363318097674
-0.010952742321853537
-0.0035043959081694914
0.0049872684425910085
0.012917272364938911
0.018249129781177733
0.01851589989334661
0.011467636623792415
-0.0036280206143007405
-0.024447862808942976
-0.0446275966735167
-0.054262141135090085
-0.04257231899404781
-0.0026988001475586804
0.06249400423849305
0.13581810064880226
0.1851518204014309
0.16904937344912013
0.04872055583452338
-0.1969255997440034
-0.5603232522305911
-0.8078166525492887
-0.7033666331605609
0.34693708375626336
1.4433161146780409
2.1609766649748354
1.7703701839986798
-0.27361875435503885
-2.588459598938135
-3.9191836135378924
-2.665029884732129
-0.3351478403503193
2.8614648271825023
5.353817939753377
3.382739636101496
-0.4853331811647305
-1.4579714238214216
-2.4654127964903303
-3.8584695844999906
-1.973829608056629
0.7461587206241963
0.6542538353072525
1.8607690249491133
1.9433629931099252
1.8999394065146327
0.6188796834256749
0.09919221178633701
-1.7946991701089028
-1.8986906008752176
-1.310106776109286
-0.21255259123718379
-0.00426605777837198
0.6678437969640081
0.9976645805465512
0.8779886854827368
0.3715452531837316
-0.17460246601959417
-0.36096647214508343
-0.3219676539946598
-0.28545704505909214
-0.1254518909723646
0.07729934712301566
0.060087274925325035
-0.011837460664324609
0.053458916809456
0.06689054419480221
0.04851963245506308
0.018812702622179354
-0.007100665870305159
-0.021626891947366486
-0.023975551597847474
-0.017739113495984903
-0.008087644641953095
0.00047169710594739857
0.005330493589723428
0.006020506978553511
0.003742861089270015
0.0005462729372429226
-0.0015398902166288767
-0.0012184297841568163
0.0016270319049687652
0.005813748621290782
0.00912452448399309
0.008981822649396903
0.0034755159510075325
-0.007464315989257581
-0.021146097339858706
-0.03197940859494126
-0.032622512219588146
-0.016622546925317744
0.017808331588018932
0.06394389994034286
0.10424943540720275
0.11131097708177513
0.052841998968291545
-0.10011635603979023
-0.16491560903403263
-0.3437983237238655
-0.43002843094829357
-0.02572887934006039
0.432181091811059
0.8485222120926071
0.8639615203062663
0.4794972864479153
-0.6868887270833794
-1.326278434957505
-1.5767025957190663
-1.0044761559847397
0.7537551602272036
2.0981287038802408
2.358441662265227
-0.28051725078110507
-0.989565119803766
-1.2425904899093514
-0.9316138935961302
-0.08991567081145897
1.148302765413362
0.544903917910678
-0.8790021377531975
-1.1003926522818344
-0.5632335669938726
1.3490062065741775
1.8532888127979565
1.3453268761073642
0.03997927880739703
-1.523186730758983
-1.9361585329745588
-1.1890522005367898
0.0056052199558784144
0.8072660442663824
0.969862103585696
0.7268514648711579
0.279968984989516
-0.07751468316271677
-0.19079666881745605
-0.23177128352386017
-0.26064963482026166
-0.17858446586707083
-0.08582581165130466
-0.05416221619413365
0.08376742467826871
0.13076446606704423
0.11252804018278788
0.06266443950228819
0.010426001144479337
-0.026074107179432066
-0.04098044645695741
-0.03775134585145157
-0.02444981798172814
-0.009316117737964582
0.0021137839244920412
0.007965462159495217
0.009372065684773292
0.008896295860497073
0.008792271901668702
0.009743162448162491
0.010475657041260992
0.008375252673290525
0.0009351674829154773
-0.012416221723524377
-0.02880896602937017
-0.0415640503742698
-0.041662645776435255
-0.02129957674771886
0.021008769654090983
0.07522923218748721
0.11674680650687852
0.10776033986419106
0.00458842897409303
-0.02953196808357904
-0.008891502299363611
-0.11167127649627906
-0.2737858744793998
-0.1952979560610923
-0.16240655800586679
-0.08413716363749955
0.062355711331227595
0.38927921087958806
0.6736256297509549
0.7659431245327059
0.6428125838091847
0.10204785655865069
-1.1165686280423182
-1.8184455183972095
-1.6911321923891856
-0.9258054021149962
0.26729871126891164
3.0769276355704833
5.702554317590469
-3.570506266657584
-1.388504275024481
0.7554623634884019
0.8609567244608483
-7.445203866939965
3.3737397726724447
2.3740005311968178
0.07892834965386335
-1.9973966306269184
3.1907600639832205
0.80442545968374
-1.2478366657862485
-1.6405996838784944
-1.153075484743304
-0.016434621864236786
0.6895500652683808
0.7915533270725126
0.5519034873503258
0.20129513881671285
-0.10333927740372949
-0.28882033802915374
-0.34985066247208296
-0.12049731745465171
-0.04618433664923073
0.03542633159696858
0.10238096800179557
0.14756531040868498
-0.02660982234217572
-0.013979989853797009
-0.008598442829241375
-0.006464124853333069
-0.005609043587517182
-0.005371279189090089
-0.005503573167662812
-0.0055302019735757775
-0.004560804900881657
-0.001588477742588741
0.0038688286160718094
0.011068647491969499
0.01765943840843802
0.019970578575144574
0.014176383132378203
-0.0017843519622364398
-0.026076274652492397
-0.051563994305856224
-0.06625022207822755
-0.056405839021603926
-0.012427020888757098
0.063826983722554
0.15284115521724526
0.21586601999892857
0.20099276677918546
0.05770141514409625
-0.24319160703586418
-0.49169868821467466
-0.6332818365438259
-0.38500263507161736
0.12449682646027085
0.6999549906968051
1.0292801732657875
1.0632975923484307
0.44533993796622046
-0.40560609641979223
-1.5766226851395555
-1.1447730526042228
-1.1065022418576251
-0.1841321577095221
0.08472690243484508
1.5988404718454141
1.3327317835394976
1.4176703007437637
3.306305263802682
-4.566547831682458
-2.0537142188753386
-0.1550841702729388
-0.931345039760912
-3.3102930327611544
5.61946536098414
2.672746775695273
-0.3433984711486577
-0.05928391800203099
-0.6730217730207324
-1.6106343494862219
-1.571879355234365
-0.4174930605844655
0.267603911401741
0.9315025054383687
0.9575123735271929
0.5507125192830542
0.045543827324173544
-0.14420877026529336
-0.3306282231802633
-0.32400490081929983
-0.19025438133944522
-0.009791859315372587
-0.048255872524255464
0.05743040073393095
0.09953521287550976
0.09131505987422754
0.05558540282518064
0.014551663933575975
-0.01651735510689276
-0.031244938293059573
-0.03072629574905428
-0.0204078981838224
-0.006849500323922264
0.004608937603250882
0.010934321775580567
0.011434824250448184
0.0071947137650177646
0.0003532748287828486
-0.0065112508464127755
-0.0108568017007138
-0.010626772931970199
-0.004797998479100469
0.005981538587072003
0.018887086671967118
0.028945573810001637
0.0300207505082795
0.01694418282382533
-0.011516576940352392
-0.04980865716502813
-0.08437006641902814
-0.09566478926005507
-0.06451974164222468
0.01759654803382441
0.13666938168765486
0.24674647174086872
0.2678939438648348
0.09496622871218198
-0.18304392560790617
-0.4583451741903949
-0.5836731179788948
-0.16511465201260161
0.2271481424722289
0.6347163465840074
0.8864078543354811
0.7886737484597401
-0.46011799178184537
-2.03673376100581
-1.2610444904739613
0.21157671632296665
1.162894187439099
1.962797735865928
0.9302090241734529
0.3339702269595254
-1.158414849924051
-2.0069360442408746
-2.5447018532630783
-0.1873997459669246
0.6743777508243464
2.1215123510231675
2.949171065973094
1.376026055974206
0.06989724509168686
-1.5050620274942372
-2.6647512809921445
-2.8829481677620095
-0.2484348646721854
1.3539776613133119
1.7449537320999973
1.2848187858314344
0.5067242866219193
-0.1991797172124931
-0.429516893697835
-0.5481068811329807
-0.42899285808342574
-0.19084905451352058
0.05581005789997749
0.03856945545309316
0.1304046555379747
0.1408598257555946
0.09970744184478038
0.040617995120812364
-0.010350375434876767
-0.03974948178924034
-0.04607957431707087
-0.03573243250130784
-0.018023166959482275
-0.001171540214432427
0.009878668811319142
0.013807044601489947
0.012001005138363297
0.007129349592414043
0.0018385505813591774
-0.002066142004858603
-0.0038769262922698318
-0.0038029858389299924
-0.0025690268079436272
-0.000998276899447952
0.00028466895310522725
0.0009818375958160017
0.0011009437741271613
0.0008436848427825772
0.0004681389181862106
0.00017565415110341987
4.946948147026029e-05
5.042848022830039e-05
5.952943404394844e-05
-5.1838612887885775e-05
-0.00034722945060502037
-0.0007704416338714519
-0.0011333722809028577
-0.0011622363435971994
-0.0006037027833025617
0.0006297932007773215
0.0023226540053672465
0.0038945845139526833
0.004484674838098336
0.0032208978964445123
-0.0003515996066998591
-0.005802222024871666
-0.011513568397263417
-0.014792515819561028
-0.012581082045383605
-0.002772641218032231
0.014147158688597885
0.033723816558859566
0.04720025711715048
0.04291239353912772
0.00961455278619427
-0.05891157968156619
-0.15955375828707538
-0.07798661221621257
0.009135592087317939
0.1278580677336564
0.09851107491284841
0.1285930959612271
0.010057643740467992
-0.07776080807345533
-0.1608584972552842
-0.062067311151289606
0.005200580718700882
0.038892652213080484
0.04599940880592376
0.03772215070652728
0.024417651731067105
0.012146956065354887
0.0016894948163906599
-0.010108958615980306
-0.027536316641188135
-0.053043278716179636
-0.08537988493024756
0.08033859053381902
0.05068376317642488
0.031077314508197233
0.02350694652956823
0.025858668992648094
-0.16701982259241457
0.038687571379740146
0.037620082026876625
0.026277927271527928
0.0033060418010801822
-0.030557251787784772
-0.07264580468667779
0.08125938396125659
0.03627110434330045
-0.002325188267046757
-0.02951539577549771
-0.04069527417042851
-0.03190917419258573
-0.0006542688790787208
0.05274823071389277
0.12389157604795513
0.004167494847868375
-0.11755644906676431
-0.05186982526595337
-0.0057387656969742195
0.019137204543193412
0.025949139161680575
0.020871906351860967
0.010670410107151399
0.0007695550754616802
-0.005715704237033742
-0.0079799425674033
-0.006868807931557143
-0.0039811001505008145
-0.0008826009169207883
0.001373358059889176
0.0023863525242801965
0.002293175880822412
0.0015270218340015592
0.0005728692993112027
-0.00020322052265479512
-0.0006248543123676251
-0.0006908083149488437
-0.0005111579453094719
-0.00023211651749887314
2.2813013947981255e-05
0.00018300266866445313
0.00023330268909083592
0.00019839094484915711
0.00012045137287634093
3.959137115857762e-05
-1.790155144078402e-05
-4.268105152299611e-05
-3.9034375245681e-05
-1.8538339714440105e-05
6.2277784608115085e-06
2.5972910862195112e-05
3.6383743744841356e-05
3.7641630380953086e-05
3.271545359247481e-05
2.5412300481250264e-05
1.8882687735816443e-05
1.4879410430038437e-05
1.3724235609607151e-05
1.4732782749645303e-05
