0
-1.1795359486122784e-17
-1.2408658806465108e-17
-1.2937832470696747e-17
-1.3073264786433893e-17
-1.2519672524751631e-17
-1.1149944954486963e-17
-9.165398888142538e-18
-7.187195564869314e-18
-6.193911638981185e-18
-7.246733518153256e-18
-1.101443436588571e-17
-1.7216021526385492e-17
-2.4207941375009602e-17
-2.9003180277503866e-17
-2.796353424073731e-17
-1.8214611960140216e-17
4.942715045650038e-19
2.4143672065786263e-17
4.394635764209526e-17
4.791044647467965e-17
2.4889149914112937e-17
-2.943536604858433e-17
-1.0646033550728638e-16
-1.814024778841266e-16
-2.161199840466275e-16
-1.7015580020132051e-16
-1.9331771370638076e-17
2.2288713989378617e-16
4.901794035556081e-16
6.6537180681434505e-16
6.086686844149443e-16
2.1341503153697422e-16
-5.221060736972526e-16
-1.4329180235211674e-15
-2.1719001082244686e-15
-2.2751329299355578e-15
-1.3227328704168463e-15
8.286617763934235e-16
3.81473761952347e-15
6.64837617620153e-15
7.844628710398555e-15
5.863570283603621e-15
-1.627066892384916e-16
-9.612311852856358e-15
-1.9815311062503134e-14
-2.618077114229127e-14
-2.334424915708855e-14
-7.362519918163165e-15
2.1518210992746294e-14
5.655196641035647e-14
8.404487082503612e-14
8.607096957287651e-14
4.6850040422432676e-14
-3.823017188191933e-14
-1.5385871687079633e-13
-2.607829113698534e-13
-3.0125626292097206e-13
-2.167626275598136e-13
2.3592683397082783e-14
3.918250814584268e-13
7.80686665530434e-13
1.0105130847483474e-12
8.757326964920019e-13
2.311386730768351e-13
-9.015127824008151e-13
-2.2473137766458893e-12
-3.2667473253452805e-12
-3.267983968441392e-12
-1.6594212223776368e-12
1.700588947052539e-12
6.172765848871618e-12
1.0198674160210018e-11
1.1535243795871205e-11
7.962813033311744e-12
-1.6073942602631725e-12
-1.594029859491805e-11
-3.0736797007839276e-11
-3.897398620293278e-11
-3.2785200851136686e-11
-6.847105903771588e-12
3.752063786302791e-11
8.914992637304717e-11
1.268117184390455e-10
1.2383841956363633e-10
5.810946007512398e-11
-7.440804548890652e-11
-2.4717316540707695e-10
-3.984050209357432e-10
-4.410751867624206e-10
-2.911424475979365e-10
8.929626963468994e-11
6.465465536325983e-10
1.2086120871941602e-09
1.5012915156828059e-09
1.2239869667610465e-09
1.8252287605494455e-10
-1.5533899027389351e-09
-3.5313410377201343e-09
-4.917046246199253e-09
-4.683846518914328e-09
-2.0070043853897483e-09
3.2126487103317527e-09
9.878697626965534e-09
1.5545523320390195e-08
1.6840429308647747e-08
1.0587664302952673e-08
-4.512195815419031e-09
-2.6152789346387624e-08
-4.746567655838402e-08
-5.775726213791228e-08
-4.555855758034184e-08
-3.827248283296335e-09
6.401234502882526e-08
1.3968167524025833e-07
1.9043412101428848e-07
1.7679540781252356e-07
6.811232092306034e-08
-1.372208077309198e-07
-3.941107003518702e-07
-6.05882417779963e-07
-6.419829599765217e-07
-3.826563191456708e-07
2.1577163851704177e-07
1.0552094743470397e-06
1.8618563159260888e-06
2.219148780047276e-06
1.6901873129226176e-06
2.1244615365662703e-08
-2.6268739973631444e-06
-5.5174708228915305e-06
-7.366748152935899e-06
-6.658933559109818e-06
-2.2586349546658507e-06
5.808833170959267e-06
1.569621597814109e-05
2.358717027227916e-05
2.4434110889570716e-05
1.373110504243705e-05
-9.951127703834239e-06
-4.247505809715768e-05
-7.294426346500285e-05
-8.515035592485068e-05
-6.247764323783175e-05
4.144557856534144e-06
0.00010739196529387641
0.000217638007773361
0.00028460820672216824
0.0002501698639301171
7.241738617420291e-05
-0.00024425946619977446
-0.000624467813017287
-0.0009177469094782903
-0.0009291198227867983
-0.000489274238408029
0.0004472552729460099
0.0017081110810497127
0.002862214486330009
0.003283074194842561
0.0023457730782060014
-0.0002617498886047364
-0.004200447692972036
-0.008267260284632169
-0.010488869116582273
-0.008662465789687069
-0.0013545477357695447
0.01083362590370471
0.02413979205884877
0.031184661669015092
0.021641375393029485
-0.015853445000672272
-0.09096674524956304
-0.00901213246261568
0.03066519237284174
0.034778741440861544
0.014895026244976234
-0.014445794322154948
-0.03780970560843018
-0.041078596837007667
-0.013902830011713364
0.04777600436670601
0.13991312682972065
0.050476966002349924
-0.0376023529546743
-0.14097918229501036
-0.06978664988184127
-0.02346783500784452
0.009556453597937243
0.048202140702900145
0.11255638992187388
0.017632775518829445
-0.030825105999245244
-0.0374899989349675
-0.015837292587858546
0.015186876642053643
0.03517508380972115
0.026285382557453784
-0.02315188324652015
-0.11604623297457183
-0.04587382831706206
0.0012898942126647417
0.04208383984686932
0.08987676837508489
0.14983329442735416
0.01735382351600569
-0.11903414506747634
-0.07125024684191791
-0.04431839405588126
-0.031148232751115057
-0.011501467324882012
0.04444616567094136
-0.03098792104929286
-0.011651235999839594
0.11453845037617073
0.140738018059959
0.04124608660319487
-0.022782691509480098
-0.09318931051082231
-0.20348585572401773
-0.17062714626142195
0.006683063751145887
0.14236897642773919
0.2526897561653268
0.14635363035036927
0.02003089248638876
-0.13848920969982192
-0.1412014674477356
-0.18955627676233655
-0.06817061718102033
0.05414040097456696
0.21615014554612424
0.05210281966278159
-0.019670902350667447
-0.0036120222503838897
0.0724151686611288
-0.03761332150726856
0.011826856777895982
-0.030125315996984033
0.0012576229393551238
-0.10439447214772248
-0.12822505234642922
-0.024422011275291342
0.07068350744198378
0.02435882894245119
0.09147398895560517
0.10098058477941911
0.048588147543188
0.09783473157666532
-0.010389551728072514
-0.14212403944747853
-0.15264245138464771
-0.07190631456993686
-0.09755969867850145
0.00245756830294692
0.07867729388810499
0.18399877207114648
0.15798974087296863
0.016599471180370726
-0.049820324198474354
-0.07043960941267809
-0.08285173813278243
-0.1212582459827319
-0.007766953281885061
0.051087400031030884
0.062650414847662
0.0430655932234809
0.011242554923286381
-0.016155878247802017
-0.027801075291056607
-0.018911083201523664
0.008922875598409622
0.04889509152011678
0.09103351190887256
-0.07487418221079846
-0.05589819549114418
-0.05325208160715161
-0.06173484380670564
-0.07233282760347101
0.12229791925238459
0.1213084125115881
0.11104048168670806
0.06518272206155633
-0.04901063165580023
-0.05967633803121913
-0.17806957142120314
-0.18978213322604126
-0.05349092448295596
0.09117228629141953
0.10849646540490028
0.24923239106949202
0.13691313657857757
-0.037261412392604706
-0.10953169463072764
-0.1310930710373975
-0.15302991614175998
-0.013923964771899803
0.066532423276965
0.08748792657639101
0.06243311639629341
0.013159043779504819
-0.03555785281071777
-0.05972008101977865
-0.038752019815131517
0.04212012985268585
-0.010692067990711124
-0.0015417174680610508
0.05314177948902116
0.1257207765244753
-0.01881220215875135
-0.01603408779212092
-0.09357016816201116
-0.06325817411095168
-0.11678206560662359
-0.026789303718982242
0.046220845844032424
0.14305216780878402
0.09449469335436275
0.11345466967591104
-0.006720886044185089
-0.08736008153399671
-0.15525379739951706
-0.033021497225492316
-0.1329719287592598
-0.05674124723974383
0.19958939774610038
0.23775291032542217
0.05125955583372284
0.024821130891463858
-0.059683131521960815
-0.21309747722823905
-0.22958171242287176
-0.08294463657901065
0.06850284332669185
0.26968203825082404
0.15388235035535472
0.13164475667617181
-0.011802639660181522
-0.10953408682505468
-0.1994004169696913
-0.10958393817486566
-0.048884288952737665
-0.005177765171754727
0.047825965258591036
0.13841562569373306
0.08389743483905389
0.08147078894355676
0.10620472643823443
-0.08305899545222975
-0.1317352290400047
-0.0754462396752011
-0.12868167507219164
-0.08003922725214763
0.10438404616702845
0.07068656764897807
0.06346706276547323
0.11320885453373696
0.02857261207275034
-0.004361777664569748
-0.016055328884770913
-0.04275112144368065
-0.11427267561377448
-0.04390276005122995
-0.023174289510196112
-0.022975273864216755
-0.000613133126181176
0.08908889131360316
0.08160267315972139
-0.007400277665644194
0.012541325394412455
0.10731658003898716
0.024887208292272565
-0.09338536199574818
-0.09921302282723407
-0.02496996787728235
-0.07569390060828768
-0.02768593649380535
-0.03410932443510059
0.16384337710093877
0.023057310764723216
-0.014670171146697551
0.06796158712945215
0.059936124638862505
-0.07584937960145198
0.004988630078344466
0.039634888114849345
-0.0289794374960757
-0.03983352840721052
-0.004232960144780606
-0.10096886888872508
-0.0777754136161223
-0.05976076039736426
0.03591574197917567
0.08162048509358108
0.12120817019332437
0.1572488992256411
0.14770945393760818
0.014077833965974383
-0.14036179033079327
-0.20683065015553706
-0.2489191916858834
-0.08887209866925115
0.0936653508076294
0.1508880811761507
0.14869093652125992
0.14779812831738764
-0.010006715466957012
-0.10762566374940151
-0.15085938412544486
0.03808222766223625
0.028553865198730394
-0.011069846984478217
0.0931047782073988
0.12641156567538642
-0.10889357178866127
-0.18947805417267535
-0.0701483140339637
-0.08872283727274718
0.022548946864638767
0.12076695415347095
0.2356641053266457
0.1578778876572353
0.03674000563487345
-0.2108897363014718
-0.08309629961472363
-0.07191427403427404
-0.0446171681620923
-0.03138720897031533
0.17907837542155333
0.03658648621544962
-0.17938171275321954
-0.1730550995639698
-0.04957110003046622
0.06524134919910995
0.20572921357171903
0.35348893356581
0.4368272033014638
-0.2537201263813375
-0.23571330003690402
-0.3994139771190516
-0.3791094692386178
-0.3424210505834531
0.39744510141357553
0.3504530547900949
0.41114033548058226
0.22716048815869266
-0.01396489416016401
-0.17662389005762485
-0.3524814745419106
-0.2298125461912513
-0.06777206003635293
0.11712142328438956
0.15077731286897303
0.0910416229948492
0.012524694901490762
-0.008402339764637374
-0.10586608064800693
-0.03352867333995913
0.029152484915642127
0.0733204340263773
0.06052474302722514
0.12719272454952324
-0.0054710455395107676
-0.016867148783321986
-0.17029510697693012
-0.09831668477778678
-0.19463957208416385
-0.015577230453746028
0.10870553778105825
0.2563079920268058
0.09466655981029405
0.06643510417198445
-0.016195544176314993
-0.16868445177792024
-0.22593430504806553
-0.033098275911993366
0.16124705065080752
0.10894534617936767
0.1651607473417682
0.09315228611106037
-0.127885224161037
-0.29373947298133185
-0.1692679753643583
-0.0904675496730128
0.02314140863137396
0.24786387292350354
0.23308100355681016
0.1843952622698229
0.059261304220990484
-0.022421772484608426
-0.15544919361212547
-0.22112378291743345
-0.2625961924878923
-0.07158523822988974
0.009279543011407822
0.06930935399910411
0.20336677745596896
0.2846333261532784
0.14501097095136076
-0.031040136816558265
-0.09804606792518107
-0.1301824101659662
-0.19810072823898556
-0.14955175102064638
0.00056037823888123
0.06869024823630127
0.09166807498858977
0.11104465607576365
0.15852705083076607
0.04721232007271248
-0.02914422292664214
-0.08964094120258938
-0.15599345860233382
-0.2433208135744403
0.04392929185823882
0.10932059019346052
0.15686472336986773
0.18305657701906902
0.17344735063463157
-0.09343821007892829
-0.23580475270633927
-0.25656588020274573
-0.13595613598278422
-0.033659394545280094
0.09883704960606898
0.29988211292801387
0.3809172929869001
0.11922562986298174
-0.13533180614139978
-0.24100832281995083
-0.23949070555823923
-0.33580709711614826
-0.09121891249865262
0.16761854428630157
0.3264523824139106
0.25665030973713776
0.19394359581347723
-0.06993706007478885
-0.1810566725479246
-0.2066797738405031
-0.21587465711924528
-0.06468782449229672
0.21005918844955382
0.18886838372459025
0.06359095646339395
0.03219806629258505
-0.10283738240893053
-0.1327561687200035
-0.03976941991153574
0.003835645445256454
0.0332222533891299
0.08553507999257935
-0.006831323807626165
-0.02220954928161722
0.04654783082373293
-0.008963382248552513
-0.011039628576456904
0.00803763688546
0.011489528360870195
-0.035690413161559145
0.03947187993940242
0.023229995909344946
-0.08135670708690532
-0.053586562787457784
-0.05784544893962014
-0.0503284816304547
0.010886245319336808
0.1545154694969629
0.1868699707486643
0.08843956448306119
0.018633177903722854
-0.07175404683586455
-0.22403612391892286
-0.25702007924663306
-0.16023270677435422
0.10163629561972382
0.17419541205693856
0.29440226626420396
0.27527996509696345
0.10120879570324011
-0.26375131864094614
-0.2579592858736428
-0.3027854092444829
-0.1907194073208082
0.1133256264311394
0.25787369203121885
0.2841222396757289
0.2076839954924232
0.01065754266382299
-0.15287499454107528
-0.1405688724963089
-0.2015480040744218
-0.1599617997396397
-0.008125442842261929
0.08896111379519221
0.18017624367130175
0.11136946225750867
0.11110471377954215
-0.016517173807221893
-0.09063506240631876
-0.14579191511879497
-0.021153175253458317
0.04950048129486795
0.04470218507175602
-0.04138695878059369
0.0012419236964099415
-0.003760450428775206
-0.023277640562221074
-0.020472282086634635
0.03849969678132943
-0.022280206031312123
0.005886689800576701
0.11319584216935401
0.07197498930949336
0.04184094808766092
-0.020940562715027988
-0.15180040522275268
-0.16728818363355508
-0.05935649945937281
0.002931246269886239
0.06430193011741357
0.1696658538943388
0.15067729313409145
0.017071210569811885
-0.04451890836373992
-0.06446558618070833
-0.0795774406744973
-0.12208090181413583
-0.011763925825077832
0.04673210967049765
0.06158184999356465
0.04824988602421147
0.023320102966379545
-0.0002007821421174856
-0.01508989419418715
-0.019737226367999718
-0.016431241349471354
-0.009139493893560344
-0.0016230806314376609
0.0036716620795087984
0.005895610649115276
0.005474289525251309
0.0035055325887469392
0.001168864839941796
-0.000673294470605354
-0.0016287259433973805
-0.0017253959750211836
-0.001248617372121425
-0.0005576680142722835
5.335987689614509e-05
0.0004233063330406669
0.0005253701129887892
0.0004261195876784376
0.00023044385125396528
3.477236745536009e-05
-9.98861087522653e-05
-0.00015395659826880498
-0.00014018118497415808
-8.77725068074179e-05
-2.725182338694936e-05
1.954983762754428e-05
4.3103798242285535e-05
4.4627536882174295e-05
3.1744960486312236e-05
1.3742895018894191e-05
-1.942130093889111e-06
-1.1355964217587862e-05
-1.3955246481180178e-05
-1.1482136436948022e-05
-6.534432555438728e-06
-1.4090932916300166e-06
2.496024045971675e-06
4.721331746076587e-06
5.4172336159954976e-06
4.913194659863448e-06
3.4159295478354306e-06
9.645935826149657e-07
-2.362286981610516e-06
-6.116556298562247e-06
-9.23424875333605e-06
-1.008796598628847e-05
-6.970334502993137e-06
1.0273212120193606e-06
1.2998424922067925e-05
2.552834056397126e-05
3.287440492511135e-05
2.843705538615756e-05
7.53441323384815e-06
-2.9146595530396876e-05
-7.274435400399586e-05
-0.0001058270841027657
-0.00010600352103605552
-5.408296344381266e-05
5.460071682253451e-05
0.00019944967908759717
0.00033008203495303275
0.00037386945615054565
0.00025881588346896977
-5.059443524334685e-05
-0.0005147190195876885
-0.0009946667928100105
-0.001263129578314397
-0.0010650554795957126
-0.0002271694393857395
0.0012093232846597478
0.002884865913125384
0.00411454830053351
0.0040378042766673625
0.0019421513367053084
-0.0022974900238528725
-0.007813647028569678
-0.012596197461791213
-0.013823117180523804
-0.008796889504655556
0.0036052570556245164
0.021349090387756477
0.03817064998538399
0.043736425340458816
0.025523301243057694
-0.027699282068887957
-0.12173540917025857
-0.05380361649183909
-0.011988822681850348
0.02197237049592136
0.06735071408034411
0.1386084886214131
0.04158592213969735
-0.02661782240153195
-0.07407822071215463
-0.10864391114553033
-0.1335636359971718
0.0534046429925994
0.05664752254390105
0.07652959238374596
0.1033620213998739
0.11460414224343189
-0.1228770161681804
-0.045753254290038695
-0.08463037258349382
-0.05507441600017471
0.04803863668178626
0.05162532580714347
0.0012443498745495659
-0.045186269174448235
-0.02567902059953216
-0.08366558879980807
0.022136019301704876
0.10889423935193768
0.16414740378209025
0.14621032563150668
-0.007832754766423514
-0.16728629042544615
-0.18986566531969548
-0.10626203383331058
-0.11261543892971114
0.02636113174658437
0.16462468894286583
0.1567551082209112
0.04059014789765887
0.025914092186234753
0.09220860224142204
-0.004464131875166169
-0.11788603003421794
-0.09557237571838625
-0.16502544448197487
-0.1266726022855507
0.04425492205214
0.18773953085816097
0.1447535785693562
0.14423409421771427
-0.004076864239566655
-0.10907398953281472
-0.19158971342709702
-0.07546642042004835
0.019522363844873426
0.08069791266308908
0.10188735541109174
0.08148453476845675
0.021556450547647685
-0.07098483480197791
-0.1820900969881109
-0.0895249701155999
0.03459012812988639
0.016922621820498866
0.07340854894383537
0.2005902863620718
0.17175952170936007
-0.05940454444479161
-0.14769204387189233
-0.14086563938668212
-0.06505179124770437
-0.11611638935072188
-0.059900349936340025
0.15896880813303874
0.20290336222508856
0.12678646518200415
-0.03224576255556093
-0.05821764784093397
-0.1537007439629071
-0.13434857946737444
-0.024135755887505158
0.14675269118437229
0.14199332243731944
0.11972712554424907
0.03636522513174458
-0.14563366941257183
-0.24804813130249442
-0.06926523694272682
0.01739454133951465
0.05791108936768366
0.10612694378798745
0.21073735412642447
0.00515885822820038
-0.09685632808596108
-0.09965469766736922
-0.02033754757839688
-0.08270053993298257
0.08727753758085781
0.0637653589062507
0.021978874264763838
-0.06114009892177444
-0.005717347373525414
-0.027235196486039063
0.06527028751930254
0.0708323666835468
-0.002057810051229033
-0.13457410945984435
-0.098106587789613
-0.057532685743965334
0.02215753871118765
0.16696464288638846
0.18564611229627362
0.0657969180559802
-0.023291454981585236
-0.12130308205547881
-0.26441719782657436
-0.07459498552439299
0.04520927325758907
0.10857875690202189
0.13794479458546488
0.15579250136243655
-0.02134219239696956
-0.18436643678648806
-0.1297129571418601
-0.05691078066152175
0.03175099479768613
0.1289735168275333
0.21956250642218425
0.07999927760836453
-0.11740784758729618
-0.1963252585067246
-0.16745891320569278
-0.02321954830358917
0.06120684637451687
0.12075972181727102
0.19068073469095065
0.09838040976072619
-0.13975374792959505
-0.11607582810696417
-0.026141800882806748
-0.06337668659628658
-0.016710291699085247
0.1278947055406736
-0.01712796811307626
-0.04675423175315368
0.031418546879121365
-0.0061001661814454105
0.0009256318292716742
0.1998031899245727
0.13262507577462926
-0.05183157150004443
-0.18400798352286374
-0.26153132488771985
-0.24476266212151765
-0.06416720023112377
0.16026660263432185
0.2926406491882325
0.3570517285188737
0.3258767001409687
0.32707275874445385
-0.7298852387786552
-0.5180272252298614
-0.261143086702335
-0.12005346527455324
-0.20347561467617345
0.800349587789722
0.5838261318049226
0.18789882109512118
-0.21003208367433898
-0.28515981498720544
-0.33830209836532255
-0.26537259333412994
0.265358470019467
-0.17749190177513474
0.2080928782019566
0.24644620898547343
0.17194622247483216
-0.3794762693239282
0.22676396050131326
-0.17486805215508006
-0.14789527807200228
-0.05376049333113906
0.1447726501371739
0.07746787471764698
0.16027552525781974
-0.008143998307124907
-0.045286993616818386
-0.17966215079595715
-0.04420012027880191
-0.0712399529743351
0.10914340530083637
0.0678815195437573
0.174942380383938
-0.0007058089669892801
-0.0877353156171234
-0.10639201872064857
-0.062282271077138865
-0.1430612659567391
0.08009660437465706
0.2465412273112041
-0.001962380816871096
-0.028436943922691634
-0.0049779974316644104
-0.11410629460491409
-0.1486523869628952
0.08827163283276754
0.18285162066304644
0.11096917809880623
0.04145157217804821
-0.056812649298757456
-0.20528598492525654
-0.2073589772941347
-0.045245336637550565
0.1154583212401484
0.11457570529838482
0.18369496158589743
0.1354317861787575
-0.040332841315902895
-0.17228272610617712
-0.09795051553401891
-0.052821417776090326
-0.06238138297003094
0.06079586783488901
0.11537139743038287
0.10727936680863517
0.04627752890321299
-0.05520078223104124
-0.1810782917273628
-0.11054879369311557
-0.019351831341793756
0.11542847307690608
0.10826085690206748
0.1589405149267544
0.050691217855674174
-0.04560014657304226
-0.16197399924689307
-0.12229247805294945
-0.13393341130277447
0.014273165369511316
0.14708509439246337
0.09308696559618664
0.07425512094721055
0.09894267337894934
-0.039391656756299145
-0.15792305476518537
-0.07706783441042758
-0.013304825099596447
0.025104569428974915
0.038583577914433634
0.033741399850256516
0.019638705824426856
0.004445643941183893
-0.006553610683282828
-0.01142621705904647
-0.010900814607114478
-0.007134377081404565
-0.00250346419319373
0.0012212016318501422
0.0032048486972436523
0.003464603122856597
0.0025504963733455573
0.0011775977547713414
-5.80117250031031e-05
-0.0008216823799713389
-0.0010486877292679602
-0.0008653563363672095
-0.000479551612177314
-8.592748834870023e-05
0.0001899117559984605
0.0003052171238585803
0.0002829957300669035
0.00018068758317836783
5.9609111214717284e-05
-3.559003292435912e-05
-8.472849155656332e-05
-8.939981889775899e-05
-6.447838715932382e-05
-2.860359832808038e-05
3.0151280225497904e-06
2.208134822537551e-05
2.725977171708464e-05
2.2036077824850406e-05
1.1859437305309368e-05
1.7222083262397213e-06
-5.229038035636944e-06
-7.99681279500312e-06
-7.254477669729786e-06
-4.522636401884129e-06
-1.3838143790302689e-06
1.033752923179039e-06
2.24108878225137e-06
2.3061767236020778e-06
1.6282147500624709e-06
6.914978110529405e-07
-1.1684543334301896e-07
-5.918807827634279e-07
-7.078609833075188e-07
-5.604543106454523e-07
-2.923362080916912e-07
-3.145293468025987e-08
1.4345273306264335e-07
2.0932501667655156e-07
1.8555369962254363e-07
1.1238276269581646e-07
3.0760130723787576e-08
-3.063754290272693e-08
-5.982315334489512e-08
-5.9154022728851643e-08
-3.9452556320944734e-08
-1.3707898255303162e-08
7.57922074344248e-09
1.865112651522574e-08
1.8627454509520614e-08
1.0324406300189579e-08
-1.4073227857414853e-09
-1.1275647243636543e-08
-1.4874369104415033e-08
-9.77283169960077e-09
3.5994374688811863e-09
2.1422811023520423e-08
3.66918114617777e-08
4.061969266928712e-08
2.5489134516292072e-08
-1.1386773071406376e-08
-6.375012979524921e-08
-1.1443276826594576e-07
-1.3746392968374442e-07
-1.0564272534964313e-07
-3.0874817230116434e-09
1.6048059256670678e-07
3.3972724687441016e-07
4.5538317573982544e-07
4.1358433102308855e-07
1.4361684190377636e-07
-3.538341999110324e-07
-9.656031601342432e-07
-1.4565334555955875e-06
-1.514554016472374e-06
-8.598183475684022e-07
5.98689742240236e-07
2.608707031700172e-06
4.499764279138181e-06
5.270865378563157e-06
3.8919455548617025e-06
-2.0536972162758033e-07
-6.579682793270753e-06
-1.3411251059754486e-05
-1.7598755574884614e-05
-1.554382056091889e-05
-4.635850516363436e-06
1.4888083931161663e-05
3.840720760152462e-05
5.664980911369294e-05
5.756296745952904e-05
3.0638156843854026e-05
-2.701354368123317e-05
-0.00010481509508426578
-0.00017612004271376567
-0.00020201730831161203
-0.00014338877302147058
1.9932253808587345e-05
0.00026822156761918377
0.0005284289570300465
0.0006792239992940022
0.0005827628657465619
0.00014303106622186708
-0.0006225625688834657
-0.0015259260218521292
-0.0022018829501231846
-0.002185275481694299
-0.0010819850224608118
0.001195999105877582
0.004210300449568968
0.006908056153348575
0.00778645425530968
0.005375746264099992
-0.001012506001105986
-0.010487920088306082
-0.020102909087213922
-0.02512446554432638
-0.02037983423414156
-0.0026810214182033474
0.02615697632015681
0.05670254335632123
0.07099170611096318
0.044422071365747086
-0.04922163953988767
-0.030526540360554768
-0.10710283685757888
-0.06877466980278019
-0.08748124961440729
0.0773783842907075
0.0693827918367888
0.12428129081710128
0.06165373318418738
0.08204652701706824
-0.029318072791713095
-0.09357295081091772
-0.12735897664240559
-0.13446179779312023
-0.10371661637156941
-0.014850838845689678
0.14912910632308077
0.1874018202272451
0.2707825244652704
0.14077954536805104
-0.07918583320055789
-0.2625953471035694
-0.2554453749591867
-0.2575700202256579
-0.017055484976337573
0.15959675585256194
0.18471999054065796
0.16165877454314015
0.16055123631216014
0.004302334263076991
-0.1327071100296221
-0.11481342551852715
-0.028573363211555774
0.03544070272210664
-0.0011829961357779338
0.007518111403905712
0.03942799937379845
-0.09309598284058912
-0.1460797119540797
-0.05254747734685127
0.06353159176080315
0.07002623508030277
0.21003760267393107
0.09063964927522015
0.08079039790096328
-0.0803190178432104
-0.06649828581124438
-0.14414374050110546
-0.15413368764011537
-0.10125740035952983
0.045971646273663805
0.14553227935590257
0.06559171313652486
0.0667617589832983
-0.012317387013891649
0.03695878299287198
-0.007608560849010526
0.006839168081218416
0.019063490439722528
-0.032621427798877514
0.0036200463372121094
-0.09519420844937972
-0.12003671061604822
-0.02984265717678265
0.04097955128899282
-0.03144076258784641
0.021972595276772634
0.24612481920432405
0.04943445892518032
-0.0001855647423026606
0.030486093675033594
0.05456159969077211
-0.21499461451263438
-0.044813581826905605
-0.06502915781674266
-0.06173724225464476
-0.18009945763846552
0.062319745501736495
0.15493535643377507
0.1714090789093172
0.15109869835988268
0.0901471292451757
-0.05521692507279928
-0.15448385636077847
-0.08244683203199397
-0.09881480674184749
-0.03350370398776771
-0.08105152727871019
-0.004842741242598464
0.050700076535111854
0.1437376701640259
0.1193113627109111
0.19901384980425532
-0.020958549949752294
-0.1633464249526817
-0.25825085361740935
-0.13185363525850857
-0.0004484177112058761
0.1281802841352986
0.24799611743202782
0.14733379915574565
0.0057546579791136225
-0.20261059717472307
-0.10069191331703138
-0.09920107501294939
0.009229867082129405
0.050143904164225754
0.06192739330123011
0.08732347882478628
-0.035423205397413574
-0.07972376156393603
-0.03524638823100014
0.09008207266908928
0.07073141886231314
0.06735859211337268
0.03415775870660753
-0.07079365002804938
-0.07429986405452184
-0.17927104850793454
-0.16190289755469803
0.023053150677572628
0.2294966546935167
0.10331433591832785
0.067407993276238
0.11357153743012854
0.0039025053402807195
-0.11881159304844792
-0.11506895177843374
-0.031870409950726125
-0.08997693340405462
-0.0784652584679797
0.042460377976137775
0.13175569036627044
0.054060711749081766
0.0663313951092337
0.007812827289597918
-0.10508786286632633
-0.0792903516203334
0.0577860106506593
0.06313098922115955
0.08473557491543336
0.07007530863127008
-0.02370927145318511
-0.21948324068690897
-0.11264519746850454
-0.06993570775946907
-0.03660277282657975
0.04879409810443773
0.23570437436177494
0.14479744697439714
0.15892467692481832
0.02560152967863001
-0.12896898053027273
-0.17837808383119216
-0.17382853107611693
-0.12848340223060123
-0.013350206497541801
0.03414448538612323
0.09178542057748164
0.23022584222401027
0.09350386961910646
0.08814507637772297
-0.016274089280821042
-0.07588889303156461
-0.15464991849370166
-0.10555191988280761
-0.15661906519851437
0.09465415769970682
0.07771254216143958
0.03844760845920821
0.025791598573314426
0.07947357957757177
0.021908975918718276
0.05567388810193877
-0.03350134193096281
-0.06968219443184974
-0.07815930708397785
-0.07827327359734848
-0.07996113700722739
0.11514402930027072
0.10914659485308291
0.1024687132971117
0.09048272683993343
-0.1361742974567846
-0.18822717100731068
-0.07387480297760429
0.002758792832361421
0.03961574105816951
0.23250886752955038
0.17202404623869239
0.044812672267400114
-0.15957667324360905
-0.23855287391146396
-0.16799220306541485
-0.1006879832245061
0.025557843570267417
0.2717875611410985
0.27918751033586914
0.05495702647053467
-0.031724458531958134
-0.04219405234483592
-0.25231279092183234
-0.13377430338461457
0.06144036104237892
0.1098479225723123
0.01798838015366665
0.018451442514609204
-0.03735611404720533
-0.0882647121913836
-0.07365198074989901
0.05547845489947245
0.12595289236243265
0.13483084530547143
0.04756827128700332
0.0037321583107959044
-0.07017316964639628
-0.04363387037690304
-0.16522804827601167
-0.05047439094006567
-0.07779427549502994
0.006238472975226453
0.07376713318059634
0.19827883595174634
0.03777907133683643
0.022893411414675147
-0.047595264047037525
-0.003735896545124668
-0.09582566370183095
0.017056951067857432
0.07896260003834746
0.04772985936498557
-0.09673416131573541
-0.14770301167670383
-0.07186373353016845
-0.01565510439762492
0.08267913235261946
0.07788572863493348
0.20356003982084747
0.06346449869055737
0.03118708526198462
-0.1417390142518237
-0.11210357479711429
-0.13043976024735673
-0.03036030042219853
-0.02472324843741697
0.0912491100518579
0.1323329614434131
0.11498918572722061
0.0520081004907344
-0.047990873013844346
-0.1768725333413493
-0.1219936172283713
-0.06350821054100524
0.023653488812677162
0.16334343324218223
0.17006966983337726
0.04311490575166679
-0.03409566072108755
-0.08888157422394115
-0.1506472444400336
-0.042313258856245956
0.024943804553505405
0.05226045078067266
0.04971401700190678
0.031103937005164627
0.009106856030849897
-0.007756218872084226
-0.01596276177452169
-0.016099724960226432
-0.011097515681926491
-0.0044231469934064615
0.0012100896216153477
0.0044150264056663875
0.0050758358664216244
0.003915985855979697
0.0019631836703869862
0.00011626642826252054
-0.0010883421903620464
-0.0015111536835844463
-0.0013075252695157003
-0.0007710288193606132
-0.0001911929970614152
0.00023527500281217957
0.00043173155809120495
0.00042140026072514465
0.000283453628525075
0.0001077783669242718
-3.698753329070357e-05
-0.0001170533643856779
-0.00013121402785960587
-9.925814417425309e-05
-4.808715226098267e-05
-7.144330560359804e-07
2.9482941814753095e-05
3.9396488646496686e-05
3.3384364854013596e-05
1.9170177360356895e-05
4.198566128309935e-06
-6.583770596533129e-06
-1.1353185895711311e-05
-1.0830768421864648e-05
-7.1229063022008605e-06
-2.5556953030568088e-06
1.1310868335519833e-06
3.111155309004101e-06
3.3938842865023344e-06
2.5144786641797204e-06
1.1739663822469263e-06
-4.0300238431041805e-08
-7.96047200419956e-07
-1.0260099155435722e-06
-8.515803333637752e-07
-4.756676244330128e-07
-8.948784153849473e-08
1.8276766675368594e-07
2.980426946059391e-07
2.780444054504609e-07
1.7868941472760375e-07
6.010376639448687e-08
-3.367185229958222e-08
-8.2507586539492e-08
-8.767989202821103e-08
-6.361179628488856e-08
-2.8547207032372812e-08
2.5412620095723787e-09
2.1419712433969353e-08
2.6685630778348458e-08
2.1696325111965195e-08
1.1773933430131045e-08
1.8242402364370485e-09
-5.040161000341139e-09
-7.811883927574206e-09
-7.12971701622498e-09
-4.474856961772054e-09
-1.3996501269319648e-09
9.825989376224004e-10
2.1835410620001168e-09
2.2625402462692823e-09
1.6070086596903692e-09
6.911223341585132e-10
-1.0390394955026446e-10
-5.745480375184946e-10
-6.931841633855348e-10
-5.52097443324085e-10
-2.9066842081095995e-10
-3.4614354711203794e-11
1.3819461608575603e-10
2.0444496588021564e-10
1.8261300313838704e-10
1.118557039743825e-10
3.2205366931721454e-11
-2.8234944976369034e-11
-5.7673506625402214e-11
-5.83163680932809e-11
-4.053861247826991e-11
-1.6648972927398316e-11
3.658497184731386e-12
1.536700550992459e-11
1.7983607286230293e-11
1.4031484291488151e-11
7.1554464980815325e-12
5.734573589760062e-13
-3.770044643142042e-12
-5.342754911868374e-12
-4.6718668149005045e-12
-2.7905669200454956e-12
-7.300295461684598e-13
8.013905211645388e-13
1.520481925686763e-12
1.5013505350987356e-12
1.0210825970452812e-12
3.9879540026304424e-13
-1.1930796040689207e-13
-4.0993239834220446e-13
-4.659980267039552e-13
-3.5616651215869494e-13
-1.7561369144629922e-13
-6.6137055287758724e-15
1.0237787183268054e-13
1.3941346309526075e-13
1.1937107387333075e-13
6.94629574144579e-14
1.622025322560127e-14
-2.2529948432768814e-14
-4.0026885777378587e-14
-3.862006934992776e-14
-2.5690795472867625e-14
-9.502491201195921e-15
3.700004129648624e-15
1.0896389173731708e-14
1.2048459432241993e-14
9.016812006768073e-15
4.283308277169437e-15
-5.099942390387723e-17
-2.7811726010908508e-15
-3.645009083318454e-15
-3.0585740881484712e-15
-1.7373598457772003e-15
-3.6320991719256646e-16
6.159382238586634e-16
1.0398264287925147e-15
9.8019548613254e-16
6.332120097943047e-16
2.126046635182646e-16
-1.2342869939058242e-16
-3.011548396436636e-16
-3.2327707052747883e-16
-2.4002455142668307e-16
-1.1604344287190411e-16
-4.954069042169429e-18
6.331151251168424e-17
8.314202396670912e-17
