0
6.536686689148302e-20
8.202682259048129e-20
1.0174874574827779e-19
1.1659056924214177e-19
1.1640540726342696e-19
9.256238292532417e-20
4.308002234795328e-20
-2.253771881798781e-20
-8.131868095744212e-20
-1.0032624195383726e-19
-4.7107409932102977e-20
9.403302904619594e-20
3.04570885985535e-19
5.210296292913937e-19
6.40171058834394e-19
5.467940926678898e-19
1.6356436026001378e-19
-4.888949785737387e-19
-1.2453091208752202e-18
-1.7932417984546913e-18
-1.7416525650001435e-18
-7.6798444813637545e-19
1.1831240869385382e-18
3.717467437044859e-18
5.924601960945681e-18
6.526888861045093e-18
4.296006727335234e-18
-1.3130836477120848e-18
-9.496935713676684e-18
-1.771686752947046e-17
-2.19428867020015e-17
-1.7774142250805237e-17
-2.392487423874518e-18
2.3130034949513462e-17
5.210152835341241e-17
7.224619550207205e-17
6.851300886264342e-17
2.888230532052143e-17
-4.795120400249221e-17
-1.4571620838535496e-16
-2.2838159672343584e-16
-2.4644405387846e-16
-1.5350452377591524e-16
6.906367072240396e-17
3.868153078027133e-16
6.984039330028566e-16
8.466957145281487e-16
6.638271744539448e-16
4.770359144117979e-17
-9.49512610357829e-16
-2.0575728387772387e-15
-2.794741859108828e-15
-2.582452411725808e-15
-9.742295335917113e-16
2.0476078716613246e-15
5.814348212251281e-15
8.902037038998801e-15
9.394861731207077e-15
5.543809608009755e-15
-3.2745704680431416e-15
-1.5597609050482525e-14
-2.738649757742595e-14
-3.2521416826516985e-14
-2.4609613755587654e-14
2.2550990324881706e-17
3.894090789999544e-14
8.125792070617891e-14
1.0809166924363162e-13
9.723102020314045e-14
3.214930530673769e-14
-8.655159166915829e-14
-2.3149591182245056e-13
-3.464849136881393e-13
-3.5746289842010364e-13
-1.9864849424601656e-13
1.502443928274125e-13
6.276023479185823e-13
1.0727396625293234e-12
1.247582589154038e-12
9.090780641324238e-13
-7.391540349219723e-14
-1.5910418379157597e-12
-3.2046606445024633e-12
-4.175557839881179e-12
-3.652201812102296e-12
-1.0252011915262707e-12
3.6318301266803043e-12
9.202113844101722e-12
1.3470591275830547e-11
1.3578069198890554e-11
7.0564074230644094e-12
-6.728156842765016e-12
-2.519794948438734e-11
-4.197016736998092e-11
-4.7793826784453014e-11
-3.344403813454859e-11
5.716652264346603e-12
6.479014938266647e-11
1.2622195313365583e-10
1.6110617041891924e-10
1.3684217271893106e-10
3.105624891405785e-11
-1.5143619685328302e-10
-3.6522236004308916e-10
-5.231083149374973e-10
-5.14838733728206e-10
-2.480471956098483e-10
2.958406592045505e-10
1.0096221425653204e-09
1.6401440857637693e-09
1.8283472134610879e-09
1.2247459985596303e-09
-3.327815157969733e-10
-2.630345398444298e-09
-4.96520378394242e-09
-6.2083422269519316e-09
-5.113451052983318e-09
-8.630479953103054e-10
6.279746728393103e-09
1.4473665743227655e-08
2.029069955783625e-08
1.9484488642154303e-08
8.608012095119569e-09
-1.2823695882583628e-08
-4.03752772967114e-08
-6.402096825257712e-08
-6.984063569108777e-08
-4.4619463457239346e-08
1.7230154465927985e-08
1.0648786935628774e-07
1.9507433997578082e-07
2.3894290669125284e-07
1.9051867225848784e-07
2.0096391289779046e-08
-2.591481364527407e-07
-5.727618558361114e-07
-7.861390786486556e-07
-7.359432000512219e-07
-2.939256796226907e-07
5.495045088017529e-07
1.6116817423138539e-06
2.49611302174617e-06
2.663765005359884e-06
1.6159747599460654e-06
-8.363676993162575e-07
-4.299948382041698e-06
-7.654804767881617e-06
-9.18449462809685e-06
-7.0757750094417425e-06
-2.560154414118496e-07
1.064831600528532e-05
2.2634179123367208e-05
3.0422480398125347e-05
2.7738617660161466e-05
9.82689773121822e-06
-2.3324147521885315e-05
-6.422241789462773e-05
-9.720920218725069e-05
-0.00010143596906760629
-5.8126675154920393e-05
3.896591128902588e-05
0.0001732089525770502
0.0003000055048971595
0.00035254032342521324
0.00026180973639888556
-1.0644487238638013e-05
-0.0004360546141656193
-0.0008935836146825945
-0.0011764275002213414
-0.001043806052182538
-0.00031983175342878894
0.0009823005398293594
0.0025573815259798934
0.0037896906421979702
0.003877212214013879
0.0021203473143703204
-0.001671620702367177
-0.00678860583908189
-0.011445321149154575
-0.01304039889496027
-0.008981698945054926
0.0019821448922965473
0.01825158801239829
0.03426631430935735
0.04047374681872199
0.024867377669382122
-0.02394140764925834
-0.11290586149628604
-0.04139564356039362
-0.00016765362878206998
0.026878596180985263
0.05876751144938981
0.11297646606130927
0.0022668941815785007
-0.06611227934786672
-0.08913787580010044
-0.06609980535346771
0.0022786709228397733
0.1129670765951141
0.05871948621720511
0.02678924074246924
-0.00027728469808927604
-0.04147946839887268
-0.11290317999068827
-0.023799922831246358
0.025160214095861413
0.04086156763713966
0.03461217075289016
0.018359345396638145
0.0016593285675590326
-0.009826639815014724
-0.014294359561197801
-0.012727619117564617
-0.00748344076850602
-0.0010951548526819035
0.004422616731402486
0.007773861273055815
0.008289128204274028
0.0057992172110164645
0.0006531431218969914
-0.006104345411131172
-0.012554929695334652
-0.01599604170278402
-0.013544231033476312
-0.0033234526391378288
0.013993378398323455
0.03385518813322012
0.04749513570176717
0.043288143874560335
0.01002813648887638
-0.058498855615937866
-0.1592198715457351
-0.07786908967752341
0.008866726457516197
0.12707975599166926
0.09725814700680198
0.127153801499764
0.0089916673667527
-0.07773723966439447
-0.15913911807425055
-0.05852717618841932
0.009854676225979297
0.042981076702906594
0.04713343281913254
0.03358574724597521
0.013999737910472716
-0.0028882402737694587
-0.012649067228444093
-0.014817015793392138
-0.011508707441886867
-0.005782965582354051
-0.00032861448073483174
0.0032416285189507546
0.004498893093214841
0.0038961255286601645
0.0023019422870515895
0.0005763044741614243
-0.000694998906879059
-0.0012826462370854113
-0.0012545555848699254
-0.000845635063563664
-0.000323248429976216
0.00010805566103980653
0.0003472497458647116
0.000390308625250854
0.00029583924706525687
0.00014380463612995113
2.7489216944519033e-06
-8.737884231187344e-05
-0.00011717575084817209
-9.949573352727697e-05
-5.7267482516586114e-05
-1.264953503589896e-05
1.9586622233865695e-05
3.393692921064718e-05
3.246642234444765e-05
2.1382554292221862e-05
7.5896189148242765e-06
-3.691668826841073e-06
-9.89248701121106e-06
-1.088166710068975e-05
-8.09037739491143e-06
-3.5136139940272205e-06
1.040840716424988e-06
4.318348014575145e-06
5.659600976154101e-06
4.886922043678697e-06
2.2032399207366763e-06
-1.8091973728979373e-06
-6.120796810523254e-06
-9.24699342117729e-06
-9.463754163035736e-06
-5.346885586367708e-06
3.418903483761642e-06
1.5220863542715567e-05
2.612503791439277e-05
3.03894530150697e-05
2.2184671404295025e-05
-1.6135663092610595e-06
-3.8315557401922614e-05
-7.735136372378469e-05
-0.00010088254130688918
-8.835439173200698e-05
-2.5037540838175363e-05
8.733446661431328e-05
0.0002218597175437496
0.0003251097520182732
0.0003280555872279415
0.00017102532147390432
-0.00016146129730322536
-0.0006074154344835436
-0.0010129613343988005
-0.0011548259321269882
-0.0008100639995211963
0.00013394892699881395
0.0015601328306270937
0.003046386979190779
0.0038971542288662574
0.003328512479217909
0.0008048769339564179
-0.0035505116431205483
-0.008631031673878301
-0.012319137228993466
-0.011945388394471979
-0.005298749913283665
0.007971832896566547
0.02499337738162931
0.038973598254247316
0.039800682678532304
0.016235758400852836
-0.0406658978776218
-0.1340788961449097
-0.05959326218613816
-0.006547859881670689
0.03720419303928731
0.07855256761695609
0.11325899281082287
0.12412476710863157
0.08535577912868889
-0.026860056401310884
-0.22030118319666198
-0.2743488278641263
-0.13531345166949624
-0.12373083593627286
0.04625722004790221
0.440505001180249
0.48058511047819086
0.13161400192837636
-0.09146230690318366
-0.29999170558865296
-0.39853239762645926
-0.2548890661335916
-0.08409412277542815
0.14881952224555006
0.3099670776079181
0.27022741946236273
0.08167910873473097
-0.035351790915390285
-0.09209350276605825
-0.12068861355043722
-0.15892090557882066
-0.03642176675134587
0.03341098693349735
0.05443966363423095
0.043060946270400635
0.020501006693232002
0.005002152656465732
0.00598888993132278
0.021319229332899356
0.03794967295920837
0.03579019114262572
-0.005997371765902405
-0.10164409755708267
-0.052375890376788824
-0.04318962347982522
-0.044433731701921525
-0.018501664561692187
0.06966124563053658
0.040931079174448486
0.09275734654280123
0.19573371149809393
0.09834022339430606
-0.059933169946353795
-0.1298097952243951
-0.33338593131008487
-0.2521744663315808
-0.02760435717349831
0.22464580138914225
0.1905936410615471
0.332482728036402
0.07092596258768413
-0.019394760397169867
-0.19987768236368358
-0.14855269433885882
-0.13840630695193187
-0.020502422055917374
-0.016111829817150466
0.08161458129466886
0.0989418451913402
0.06990918109168037
0.02579553244350201
-0.011588542951123708
-0.03195864435015745
-0.03480456052119653
-0.025573515227246275
-0.011593648474861995
0.0009867456964492427
0.008715834079832532
0.01093349643804309
0.008951821457577403
0.004918866074691592
0.0008389178968708379
-0.0020019088417679476
-0.0031744252091316853
-0.002926364900697064
-0.0018570165503915695
-0.0006014901832210204
0.0003803623286555193
0.0008829244562843772
0.0009255428920487615
0.0006638708736967238
0.00029127292105571306
-3.5318401838339665e-05
-0.0002309556901235835
-0.0002827264529655886
-0.00022732288528483897
-0.00012138182935773818
-1.6498749912663004e-05
5.500970049544083e-05
8.310254751786474e-05
7.496456244125324e-05
4.643952910110227e-05
1.3909631524965047e-05
-1.1010661982152664e-05
-2.334528982958007e-05
-2.3870231856757345e-05
-1.6759038654783638e-05
-7.033617435032417e-06
1.3132940718979142e-06
6.185190264763809e-06
7.339128685959846e-06
5.780743759007859e-06
2.9921106014380934e-06
2.946182263445471e-07
-1.5040592916282902e-06
-2.173148506697442e-06
-1.9188643920754223e-06
-1.1596183857035498e-06
-3.1761556148779373e-07
3.1419287656440133e-07
6.159892775924387e-07
6.148664886620052e-07
4.2242509117742994e-07
1.6893709668106857e-07
-4.413346227545095e-08
-1.6518953767846137e-07
-1.902761252953673e-07
-1.468164607947101e-07
-7.353674909299054e-08
-4.239209356129786e-09
4.092992527939904e-08
5.674720023475493e-08
4.9060187437247964e-08
2.8898105528162992e-08
7.129611939581982e-09
-8.867352241051899e-09
-1.622418672340362e-08
-1.5820028393964438e-08
-1.0631215658604934e-08
-4.0329698799624306e-09
1.3995784822164913e-09
4.400538508256809e-09
4.927162819030001e-09
3.7239641197527112e-09
1.8014271672302168e-09
2.3232777978430572e-11
-1.109144362775601e-09
-1.4797839653799683e-09
-1.252867849322074e-09
-7.186132492044625e-10
-1.5648780179274003e-10
2.4798764072695866e-10
4.2658610814246886e-10
4.065719192237287e-10
2.671287295903571e-10
9.560010130435785e-11
-4.274325208395918e-11
-1.1695002843223494e-10
-1.274355495418608e-10
-9.433250911419056e-11
-4.3971662442644625e-11
1.6050784722017332e-12
2.994274634796516e-11
3.853618041305638e-11
3.19570211216021e-11
1.7829122152934663e-11
3.3302799642366324e-12
-6.882165674706122e-12
-1.1197942375987967e-11
-1.0436899259137559e-11
-6.7008678443257044e-12
-2.247435273626983e-12
1.2712316146681175e-12
3.1012264170168267e-12
3.2920940903037415e-12
2.386305061233229e-12
1.0690667860487189e-12
-9.77630863691147e-14
-8.055765801446178e-13
-1.002238405611761e-12
-8.141505965613546e-13
-4.4126731736057847e-13
-6.773123899127332e-14
1.897398678537573e-13
2.9348614360680773e-13
2.6761403529854727e-13
1.6779492666422242e-13
5.231281199708567e-14
-3.706964198199767e-14
-8.206611208824508e-14
-8.494680775520304e-14
-6.02809451726657e-14
-2.5876748105665004e-14
3.9611697607457746e-15
2.1605606095813523e-14
2.603277089704004e-14
2.0716352995639274e-14
1.0892586273597906e-14
1.2801447146225203e-15
-5.201180146303892e-15
-7.680284535899084e-15
-6.853981151718859e-15
-4.193880394714593e-15
-1.2029517833179433e-15
1.0646570481578991e-15
2.1674954503179333e-15
2.1894454329905383e-15
1.520630820578766e-15
6.232960107756473e-16
-1.3882064091363327e-16
-5.777322176123721e-16
-6.752756439882231e-16
-5.264056847524928e-16
-2.6804184629351842e-16
-2.0961380338683493e-17
1.4193370236245224e-16
2.0076660914303299e-16
1.7540974788837673e-16
1.0468966687537656e-16
2.7318831818261956e-17
-3.0134004669516926e-17
-5.706869924635233e-17
-5.629446066078599e-17
-3.8229132381108896e-17
-1.485628841224911e-17
4.5865810940323115e-18
1.548002347948956e-17
1.756706005266066e-17
1.3431151107273762e-17
6.6474244303256965e-18
3.0365878490034003e-19
-3.783579429649477e-18
-5.1685206654802995e-18
-4.411753970311095e-18
-2.5358246319574814e-18
-5.367200174880665e-19
9.169508536720246e-19
1.5722131914927374e-18
1.5179640612891188e-18
1.0316957533906068e-18
4.237029394099725e-19
-7.172211712062884e-20
-3.414350924750995e-19
-3.842279313110975e-19
-2.700956978856296e-19
-9.226019588772197e-20
7.042923193740464e-20
1.7280447529469715e-19
2.0509340032228123e-19
1.8296747192469606e-19
1.333105435258272e-19
8.171792000051772e-20
4.498834316331632e-20
2.9116380613235684e-20
3.1391149778441334e-20
4.443883140141942e-20
6.023452093853474e-20
7.284367102966531e-20
7.950484652018395e-20
8.032535200544645e-20
7.71941191487463e-20
7.253836285332908e-20
6.836913353083395e-20
6.580729840663179e-20
6.506127686796393e-20
6.569745145650347e-20
6.701128492833006e-20
6.834627269845788e-20
6.928034713964276e-20
6.967036765556758e-20
6.959324232884082e-20
6.924050304798672e-20
6.881687147051511e-20
6.84733780850472e-20
6.828313245904456e-20
6.825086658850968e-20
6.833937171776949e-20
6.849646475527487e-20
6.867225234264099e-20
6.882450047596636e-20
6.891660096468827e-20
6.891582775339784e-20
6.879854014833782e-20
6.856428449600976e-20
6.825408648040613e-20
6.796218433432537e-20
6.782795852273446e-20
6.799834938104085e-20
6.8561572644066e-20
6.946875760388204e-20
7.047630048917474e-20
7.115053966862865e-20
7.096942281158756e-20
6.952767473224976e-20
6.680433996626602e-20
6.339673556468943e-20
6.058565739603142e-20
6.010148044084435e-20
6.353267455901622e-20
7.146067087107234e-20
8.258867743079834e-20
9.3290376666875e-20
9.804472063549735e-20
9.105692215578328e-20
6.895530529027412e-20
3.385940216904814e-20
-4.477266912972806e-21
-2.904284442005538e-20
-1.9737885371666308e-20
3.8511415991979876e-20
1.454075376622148e-19
2.7650624421967956e-19
3.812476380964963e-19
3.927146560591427e-19
2.5111681971303927e-19
-6.260742305902617e-20
-4.937564784741331e-19
-8.980091408686346e-19
-1.0605307426425945e-18
-7.609194439033346e-19
1.2140703092853535e-19
1.489847851168416e-18
2.9521659452015777e-18
3.8421932338675735e-18
3.389132513776461e-18
1.036690566474607e-18
-3.1582655088281207e-18
-8.197836198265289e-18
-1.20886685009615e-17
-1.2246525041270946e-17
-6.4268763654345344e-18
5.971776486289308e-18
2.2657806359729105e-17
3.789655609934559e-17
4.333804216815205e-17
3.0613964241947725e-17
-4.54887348264957e-18
-5.784572689064065e-17
-1.1353646714349454e-16
-1.4556515511427464e-16
-1.244132733406621e-16
-2.963720876719706e-17
1.3478940140991973e-16
3.282614226770057e-16
4.722911269200612e-16
4.672001627944349e-16
2.289431935244291e-16
-2.603991228484396e-16
-9.054075738621355e-16
-1.4785635327522924e-15
-1.655699744880866e-15
-1.119658078052738e-15
2.793407809933152e-16
2.352731460588843e-15
4.470146659454981e-15
5.61363826032341e-15
4.654377042148235e-15
8.44601737195041e-16
-5.592686755846958e-15
-1.30101638828046e-14
-1.8321291799315258e-14
-1.768605821832066e-14
-7.966065459050973e-15
1.1321570354366033e-14
3.622490268139724e-14
5.773063377063257e-14
6.326826912305508e-14
4.0840382075811944e-14
-1.4732206444776055e-14
-9.530051059843986e-14
-1.756672703200159e-13
-2.1610927963213235e-13
-1.7352240688958692e-13
-2.0701712818637887e-14
2.31023068961569e-13
5.150043153669792e-13
7.100134756792228e-13
6.683042779614628e-13
2.7303311302171123e-13
-4.862214139152881e-13
-1.4465518756070106e-12
-2.251400390765071e-12
-2.4138762068705517e-12
-1.4810552164116967e-12
7.230953851236978e-13
3.850248587846206e-12
6.89502486177392e-12
8.30908810779204e-12
6.449045459122553e-12
3.3116774075030857e-13
-9.500921373417994e-12
-2.0357630212497607e-11
-2.7483293213668187e-11
-2.5200637410703695e-11
-9.17371789309014e-12
2.067670009121984e-11
5.766336627414581e-11
8.770066816184218e-11
9.19520422459938e-11
5.335538113542582e-11
-3.393849550207211e-11
-1.5517492644444648e-10
-2.703076701896282e-10
-3.1905441520439066e-10
-2.388593740325543e-10
5.597665306591093e-12
3.8918651441577367e-10
8.036239194087232e-10
1.0625729315798012e-09
9.48168413107575e-10
3.000850621602477e-10
-8.720534133433733e-10
-2.2947733638946716e-09
-3.4123773790520598e-09
-3.496990815133522e-09
-1.9073348586488166e-09
1.5449765278905015e-09
6.239723483135468e-09
1.0584396121907105e-08
1.2234665549917807e-08
8.813333380633443e-09
-9.372194716650113e-10
-1.5885416354166574e-08
-3.1681383487391636e-08
-4.103264869042073e-08
-3.559003102532897e-08
-9.448924834179607e-09
3.652189428939236e-08
9.11769377381012e-08
1.3262178374448213e-07
1.3276403878966355e-07
6.75602930094091e-08
-6.878468779729232e-08
-2.5037015697770495e-07
-4.1396642359902227e-07
-4.685087355814425e-07
-3.2381933908060697e-07
6.443641764588787e-08
6.462923914247117e-07
1.2473707774419724e-06
1.58260632618244e-06
1.3324853375880338e-06
2.805129625744479e-07
-1.5202988050277627e-06
-3.617126293140571e-06
-5.148430923132829e-06
-5.031310509774972e-06
-2.3666871007457184e-06
3.0109136508019e-06
1.0026007662670645e-05
1.6171880596216773e-05
1.791521343109765e-05
1.1841495532447578e-05
-3.5932793938135896e-06
-2.6215997409624814e-05
-4.904984151576832e-05
-6.096437973244458e-05
-4.9749973409345466e-05
-7.508546157918989e-06
6.295144053065342e-05
0.000143284442118769
0.00019963025513049316
0.0001902950418397673
8.175072203879081e-05
-0.0001301039903032392
-0.00040084471756819277
-0.0006312514333600509
-0.0006844016624835194
-0.00043125869636039216
0.00018118378243214792
0.0010597140801813518
0.0019261188857833695
0.002347219924001387
0.0018589941588159618
0.00017839087643500587
-0.0025504338760443963
-0.005576692900369214
-0.007557738998916007
-0.006874606233616816
-0.0022708001501370537
0.0063046219138891205
0.016928970922106122
0.025400291161328165
0.0257501476006803
0.011690741911844542
-0.021338369170451205
-0.07440548819045217
-0.14486610884099343
-0.028780510430592467
0.07396446193256771
0.15350485759174096
0.18609975001037482
0.13604774289189822
-0.03472299016142172
-0.15084462288380954
-0.20647994992687307
-0.35413950861200305
-0.10573293774874265
0.051400956867452746
0.22630045329578474
0.29219225096719204
0.46123972201294183
0.07584580341279097
-0.1791419143337867
-0.2463850007891188
-0.257724214540565
-0.2998422738654515
0.005819127178192454
0.104073887727975
0.08952011070488347
0.07908978005615494
0.18218875089819933
0.07629210281660997
0.19338347876680684
-0.08072893553218022
-0.19583594732785475
-0.2202568900883186
-0.02351282227196269
-0.0639208256040254
0.21685720937151703
0.19378102580986378
0.05634826331690873
-0.19262937430885652
-0.136931626292428
-0.1475465869172095
0.013406653274840842
0.1846862973708083
0.19599087455675304
0.06008848252477754
-0.029428289896103802
-0.09375985549464147
-0.1599622953244597
-0.05135509240069433
0.019054458115184157
0.05031809380452988
0.05094879677016801
0.03400731949442385
0.012184198563250918
-0.00551657178711798
-0.014946099177069995
-0.01617171474466732
-0.011835194464090225
-0.005351927998595036
0.0004498842478380325
0.003998383486972758
0.005006374158647293
0.004087774526900346
0.0022340007717388402
0.00036526555662556344
-0.0009308078839990571
-0.0014606234396472837
-0.0013404605632450245
-0.0008465071724084759
-0.0002700542463797044
0.00017886423489486063
0.0004071165178026034
0.0004245793299565045
0.00030322788789106063
0.0001318869919291248
-1.7654031737865798e-05
-0.0001067699250291808
-0.00012986354105521314
-0.00010398099430932528
-5.518013187011537e-05
-7.095313936703712e-06
2.5542354023487274e-05
3.822874409326984e-05
3.4335238035720254e-05
2.1165075697762374e-05
6.231999717519071e-06
-5.160030466631004e-06
-1.075918077536282e-05
-1.094699470469657e-05
-7.652281249478328e-06
-3.181412905841481e-06
6.395241121422285e-07
2.8577593085631386e-06
3.3702009091784035e-06
2.643528452522507e-06
1.3594153725937696e-06
1.2300701643028084e-07
-6.976732243640692e-07
-9.993972446051723e-07
-8.786723297319879e-07
-5.282926755763385e-07
-1.4185882130472814e-07
1.4688804753657427e-07
2.8378597421308134e-07
2.819149389604509e-07
1.9282283448084653e-07
7.632375367258636e-08
-2.1189416206633776e-08
-7.628238422231327e-08
-8.735506021999285e-08
-6.712164858273215e-08
-3.338895175552038e-08
-1.633443914268989e-09
1.8968847024426167e-08
2.6089748132116927e-08
2.2459973345761432e-08
1.3159684708751695e-08
3.1715078546741248e-09
-4.137355695448927e-09
-7.47182475716283e-09
-7.251768225832007e-09
-4.851244669845091e-09
-1.8195991686941155e-09
6.660377134494711e-10
2.031109140394329e-09
2.2614914430993345e-09
1.702072876494513e-09
8.17357561473298e-10
2.6910507655328585e-12
-5.136191835533041e-10
-6.80149204623193e-10
-5.734314385901546e-10
-3.27096513829678e-10
-6.923388407453855e-11
1.1551465840106581e-10
1.963918052505769e-10
1.863259638926068e-10
1.2185578231936217e-10
4.306533832852952e-11
-2.0217206609798803e-11
-5.395420326804516e-11
-5.847658246027049e-11
-4.310364254959515e-11
-1.9935957461401087e-11
9.393883196750993e-13
1.385479382533078e-11
1.7706397241847708e-11
1.4622228572394942e-11
8.11164653510313e-12
1.4635983470808958e-12
-3.1982045712415e-12
-5.149779289279781e-12
-4.778693851864136e-12
-3.054925920216791e-12
-1.0141720871971066e-12
5.898426708966283e-13
1.417564382349848e-12
1.497953203691274e-12
1.0841555144924533e-12
4.914207899529644e-13
-2.5770625075019844e-14
-3.3313853476927767e-13
-4.1654763252966913e-13
-3.431339278323749e-13
-2.0877778832870126e-13
-9.267491734039645e-14
-3.114110207837909e-14
-1.3974279186477596e-14
5.510534749703793e-17
5.617980298129038e-14
1.747258225324903e-13
3.3046525626980926e-13
4.493205747879457e-13
4.2824657045264164e-13
1.7791403415052697e-13
-3.212158246519175e-13
-9.68865264312803e-13
-1.5275487611079998e-12
-1.6635131070524315e-12
-1.058289033749331e-12
4.23836571671546e-13
2.5625431044552322e-12
4.684027032408793e-12
5.730877110061384e-12
4.561490251788287e-12
4.644272197045012e-13
-6.241086001118063e-12
-1.3764362902111258e-11
-1.8871942712810228e-11
-1.7643971745132643e-11
-7.007796467013482e-12
1.325593534786807e-11
3.8749037350082773e-11
5.99432031924852e-11
6.38981433585338e-11
3.865845315828296e-11
-2.028284443735326e-11
-1.0343987247083018e-10
-1.8388684644899994e-10
-2.2040496225136012e-10
-1.6949969706323262e-10
-5.514831310431925e-12
2.563697835263962e-10
5.439166180409279e-10
7.303124161728787e-10
6.649866741822556e-10
2.340261281755236e-10
-5.624096851773933e-10
-1.5439556624704868e-09
-2.334331492938733e-09
-2.4330642881134605e-09
-1.3900456440741828e-09
9.434135159554865e-10
4.166353098611952e-09
7.206730964784087e-09
8.460228274595572e-09
6.271937544623211e-09
-2.774315990350142e-10
-1.0491534176834806e-08
-2.1463796685628173e-08
-2.8226945056458962e-08
-2.5004874567910988e-08
-7.589750541125834e-09
2.3674020482339035e-08
6.141725874376975e-08
9.080028303320879e-08
9.24900690475936e-08
4.9579845192440424e-08
-4.2670665882578514e-08
-1.6743734071012374e-07
-2.821062471326218e-07
-3.24305372735839e-07
-2.3117450227021163e-07
2.993947538825172e-08
4.2785737140469446e-07
8.458831314094228e-07
1.0896771664347584e-06
9.379637768035316e-07
2.3594534943706911e-07
-9.898245774114758e-07
-2.43926555661723e-06
-3.52789191524991e-06
-3.509780462776381e-06
-1.7514718389688583e-06
1.8905715940404124e-06
6.714862131210783e-06
1.1030114140582036e-05
1.2414231800927116e-05
8.483778225729542e-06
-1.9089835033387673e-06
-1.7393225689204847e-05
-3.329327338426631e-05
-4.201463202077731e-05
-3.509253315204456e-05
-6.858422009381644e-06
4.114340868233573e-05
9.673020735104594e-05
0.00013690956808533458
0.00013293594611757297
6.113724012374047e-05
-8.247493776363862e-05
-0.0002688151357871965
-0.0004308605665826934
-0.00047465867954883033
-0.0003099899134988221
0.0001030233676222496
0.0007050873070497951
0.001309480862043911
0.0016202703106897118
0.0013150301332583863
0.00018878634929367114
-0.0016762098296335256
-0.0037836544517799407
-0.005227134212173096
-0.0048998553238904
-0.0019286449137287213
0.003746543007135242
0.010839364278273967
0.01650314817743332
0.016700138167849172
0.007270998216793875
-0.014464741750701587
-0.048097162701245644
-0.08926580972035056
0.06978654562011058
0.03815405742023011
0.023422044293826497
0.029262224074798487
0.054508018760736514
-0.10601388191021086
-0.05951706520634275
-0.013333423388769236
0.025933894080602
0.05199322429826793
0.057970582480649485
0.036244602531454215
-0.020208471951975823
-0.11518723514962523
-0.04657943630933246
-0.005177842731756917
0.024075215466529354
0.0587503831144708
0.1149497008897511
0.004428385457509433
-0.06613160327964344
-0.09398519366154673
-0.07879269240066414
-0.022358552897223383
0.06971864919638353
0.18551805236257815
0.10568903874884988
0.005961905415630395
-0.13624809807647806
-0.13320263437159896
-0.18006024384205271
-0.05374872251622512
0.08089473781445332
0.25938454158639734
0.10468670842655353
0.018342500941633366
-0.020937874380508512
-0.0509657990365633
-0.11471353813085156
-0.047987632996769225
-0.06998927133157418
0.020806166482541032
0.04496285849901227
0.03588054493233592
0.03141574165738183
0.0657873462142155
-0.03642425641412297
-0.06340043022591356
-0.016502778718420867
0.09135647668949268
0.03884699655704817
0.0006090205105833917
-0.04747181156873277
-0.12311453444564957
-0.03418976533884929
0.021685346047590794
0.05428470532953698
0.07587176225164191
0.09637366851017784
-0.07945696912599194
-0.05213412942905378
-0.025428241312414578
-0.0037100543972705263
0.01004882242579325
0.015082724096921669
0.012639347614700192
0.005302956988221448
-0.003716593882826063
-0.011136693542388859
-0.014058422358801987
-0.010504540744243264
-0.0001448807258480257
0.014907439981816387
0.029606458060528414
0.03631407180014375
0.02638334143853644
-0.007037638542978355
-0.0656810193681955
-0.14366143452936564
-0.02732923759145691
0.10169242741027243
0.060928280730091294
0.06103901956599614
0.10196315142838383
-0.02706365000582737
-0.14361366961449049
-0.06602635675555099
-0.007817684990549231
0.025338131541996507
0.035403503794258606
0.02938370200333166
0.015889717578375193
0.002248243434429007
-0.007085247069246029
-0.010738288147324051
-0.00965510333406239
-0.005922861756373977
-0.0016897058050621243
0.0015309150722144869
0.0030993399681231906
0.0031277011467280096
0.0021685405963418813
0.0008810097574948121
-0.00021316450078939106
-0.0008412667685972699
-0.0009731895106966955
-0.0007429231949740916
-0.0003491165895203344
2.700438762140798e-05
0.00026830471889308
0.0003332263023471035
0.00024329211849770185
6.0403507727523826e-05
-0.00013594940852671016
-0.000267597187286161
-0.0002737512478648318
-0.0001267280921851576
0.0001526211064785392
0.0004846469262609586
0.0007350779411807982
0.0007434050153384764
0.0003793171083979956
-0.00038152692288253567
-0.001387179944332275
-0.0022823803525780077
-0.002564118362514753
-0.0017414392884457627
0.0004179139216339184
0.0036248005490405
0.006910237659319231
0.008710405210073874
0.007295319552838183
0.001530046406958786
-0.008213856097158998
-0.01936110033501378
-0.02712526008618858
-0.025613858936553116
-0.010186976823063063
0.019286969706040658
0.0552189141228885
0.0804965858521722
0.06942452650974183
-0.007971035513317251
-0.17897155304052215
-0.06063660208251198
-0.054450886054718685
0.05486904298807467
0.09625333035313749
0.10648771646451179
-0.07589789927678042
-0.015383136959418217
-0.08257302150247955
-0.056450257229910976
0.07343976533576392
0.10494853316215856
0.022507268261145963
-0.001105351061238078
0.00020968415267624837
-0.00662525652336577
-0.04560193402938527
-0.12487048736418149
-0.03360953701489073
0.056161343590221444
-0.01711762889065175
-0.014593573079545022
0.09214099351045696
0.11220633741767326
0.03110760054864721
0.01245427578633354
0.005666877019916902
-0.042205405587978126
-0.17383002779512596
-0.2118716464694955
0.0447559972463049
0.21774487186222682
0.14128564858236953
0.05290597186117982
-0.013165461841043474
-0.22894370490298208
-0.17351596673408978
-0.034482175341692095
0.18850387090691334
0.27944023406799634
0.20463518158932364
-0.08214283184504818
-0.22759695112570108
-0.2637882359585366
-0.19652286883639186
-0.002954414507088887
0.15992406194212772
0.33932430031988153
0.17016762565474128
0.06505100876666933
-0.18571491255835298
-0.20540999501417223
-0.2189094951878988
-0.04360718025329827
0.11295899888534561
0.24916624770453027
0.16297415983008362
0.04809531644826169
-0.10446057657298259
-0.3003165038605744
-0.13510829618897746
0.008087546102400908
0.15495812929546654
0.13118973385883229
0.15294858396054203
0.02114379938293856
-0.07806879717599415
-0.16719785942282164
-0.0688722284080195
0.0013630319658182594
0.03836119751367768
0.046435609598346715
0.03560520018875576
0.017118346051578102
-4.1947771570904834e-05
-0.0108605582735568
-0.014254724387604955
-0.011897416687983133
-0.0066522114579369886
-0.001230935984442294
0.0025996706372259457
0.0042217995983950506
0.003936263732746678
0.0025302676034334405
0.0008524943469770571
-0.000474650954290637
-0.0011663430434358203
-0.001240352165760765
-0.0009004641998523894
-0.00040466289711777614
3.520197488188742e-05
0.0003025249113972179
0.00037732431654240314
0.000306987569296645
0.00016675337181848549
2.602254392094091e-05
-7.113828367209032e-05
-0.00011043311594389503
-0.00010086062572971291
-6.335279160961994e-05
-1.9865075917978284e-05
1.3845758463065928e-05
3.085847547090012e-05
3.2000639913845415e-05
2.274472809831814e-05
9.795774424299805e-06
-1.452099980631665e-06
-8.116264090999715e-06
-9.802081997609317e-06
-7.812226570314882e-06
-4.117117498305052e-06
-4.952570329960211e-07
1.95086825255122e-06
2.890296387840586e-06
2.583441278277865e-06
1.5836996253063265e-06
4.5728658452492864e-07
-3.980322004607376e-07
-8.151090421007811e-07
-8.248380676816575e-07
-5.737885706104721e-07
-2.360179861033454e-07
5.1298959814091656e-08
2.1709922066808078e-07
2.543104345200422e-07
1.9855496975198925e-07
1.0136184895637569e-07
8.256795783281249e-09
-5.322906150429915e-08
-7.553537724636496e-08
-6.60956021833956e-08
-3.9512405222884554e-08
-1.037121520226649e-08
1.1301554130135028e-08
2.1490644827452837e-08
2.1236349671515575e-08
1.4453414836234377e-08
5.654647521950389e-09
-1.6759363982414508e-09
-5.791681744849723e-09
-6.5898802302086216e-09
-5.040039587541649e-09
-2.4877831209036106e-09
-9.711757263106754e-11
1.4458329828453419e-09
1.971270261458076e-09
1.6890427478770387e-09
9.837800852347244e-10
2.3076545815729178e-10
-3.176546305254225e-10
-5.656085252356745e-10
-5.461274900752976e-10
-3.635046810555239e-10
-1.3460216651886683e-10
5.2205703548452884e-11
1.5412722736681668e-10
1.705561508602099e-10
1.2776763460667823e-10
6.085249158293872e-11
-4.626654387100382e-13
-3.911487303882133e-11
-5.1374614749179775e-11
-4.31119210535238e-11
-2.444040380528733e-11
-5.0050727332853695e-12
8.853123827158398e-12
1.4861113868959932e-11
1.4028530044182848e-11
9.127270521035526e-12
3.179939073243863e-12
-1.5747538793851724e-12
-4.092184338771006e-12
-4.4090133643410475e-12
-3.2346411694455225e-12
-1.4829271492369228e-12
8.786458201507998e-14
1.054367062218945e-12
1.3371323053339495e-12
1.0990971000886604e-12
6.057566618737995e-13
1.0471075950055061e-13
-2.4497186904374927e-13
-3.8984117016439146e-13
-3.5994321145000035e-13
-2.287861695128678e-13
-7.445666957824e-14
4.6411091263350845e-14
1.0841667841685363e-13
1.1384297018010548e-13
8.177729148207951e-14
3.59878805213933e-14
-4.206768573451453e-15
-2.8327683791713314e-14
-3.475661091845272e-14
-2.7986428327431018e-14
-1.4975771624130066e-14
-2.073577601215022e-15
6.7367565536001995e-15
1.0210726597071857e-14
9.224900087724203e-15
5.724592999243178e-15
1.724761029595084e-15
-1.3438906582407387e-15
-2.8664650349907087e-15
-2.935999013914655e-15
-2.0644555073507803e-15
-8.692251380982532e-16
1.581113232804488e-16
7.588652320254106e-16
9.023735062441075e-16
7.118152100529019e-16
3.6930094506168437e-16
3.74428784938388e-17
-1.8419083618486416e-16
-2.669703141769821e-16
-2.360785893645082e-16
-1.4289550817812673e-16
-3.9355117381887774e-17
3.845222514595268e-17
7.571496702005947e-17
7.570409924204376e-17
5.211216153507887e-17
2.0956130623636897e-17
-5.2707548717779346e-18
-2.0200570781223027e-17
-2.332679726614897e-17
-1.800959812131819e-17
-9.007953584208086e-18
-4.819585841181426e-19
5.0844530241795574e-18
7.0424730945062e-18
6.106763541436657e-18
3.631856969675002e-18
9.547793721304021e-19
-1.0154389850183372e-18
-1.9240360269679994e-18
-1.877580477715501e-18
-1.2413121231257887e-18
-4.302509361107865e-19
2.384990082125635e-19
6.086699147283498e-19
6.744896038477608e-19
5.272102222493604e-19
2.9102023826077913e-19
7.222309474450588e-20
-6.73424243178797e-20
-1.1325495089142352e-19
-8.559290426388997e-20
-2.0003097912980338e-20
4.913250741915122e-20
9.89534392084515e-20
1.2101779281198207e-19
1.1863925207796301e-19
1.0153642940411311e-19
8.045007698221373e-20
6.34184578390567e-20
5.426333121570758e-20
5.294678625032312e-20
5.70005637612525e-20
6.318828528611873e-20
6.879672957586096e-20
7.228974496633449e-20
7.335497509010842e-20
7.25518263755601e-20
7.081689625499227e-20
6.903342263220186e-20
6.777548406238464e-20
6.724251952017195e-20
6.73346770637305e-20
6.77937761423992e-20
6.834185249450057e-20
6.877501517878245e-20
