0
-1.2473377466012877e-08
-5.1281631230878496e-09
9.002118421837743e-09
2.6892066783308033e-08
4.190741218210614e-08
4.497980645606926e-08
2.766305796400751e-08
-1.3343310267234256e-08
-7.158079225503234e-08
-1.28350353892779e-07
-1.5482288035858483e-07
-1.203668834639937e-07
-6.598111344448266e-09
1.7645167715207483e-07
3.7878501511517656e-07
5.118810668868685e-07
4.6996017335727045e-07
1.7209646535819832e-07
-3.834744635289186e-07
-1.0725382583721725e-06
-1.6329949532214312e-06
-1.7139935924490338e-06
-9.973242361762836e-07
6.268164467750449e-07
2.8847464128291706e-06
5.0315870091160495e-06
5.94485580998081e-06
4.45847374956851e-06
-8.787442078475933e-08
-7.22976357755544e-06
-1.4954071294094453e-05
-1.9792169744172053e-05
-1.7684508908589927e-05
-5.638247845953303e-06
1.6178667736835897e-05
4.268565494293146e-05
6.354185384882994e-05
6.518906919599744e-05
3.566606141572023e-05
-2.8569809216688385e-05
-0.00011601029226155631
-0.00019703174348452592
-0.00022797952843035308
-0.00016453795416172958
1.6813535128128024e-05
0.00029513826426420467
0.0005895548940711774
0.0007643017341236652
0.0006637856822429833
0.00017774710823459584
-0.0006780925982686603
-0.0016966556876111983
-0.0024704797490418084
-0.002476174194775902
-0.0012649669659190817
0.0012730490655170578
0.0046585273965073235
0.007717949254043121
0.008760558173316115
0.006113821017159462
-0.0010382184359366338
-0.01175142890444714
-0.02276225535309957
-0.028753338912137483
-0.023804642822491867
-0.004029637312867119
0.0291632417153815
0.06633556410956302
0.0893095918483151
0.07377716651778561
-0.004436959843048603
-0.1607131111492479
-0.19347836311425234
-0.08018422103720389
0.019960738226268242
0.1565446378813981
0.17487641647007246
0.10409158947412102
-0.0493261692801197
-0.10089948510377632
-0.08169716978983109
-0.029266084444813874
0.02078954148512194
0.0406355127549532
0.013043980416780978
-0.06823972973874048
7.496609917234908e-05
0.028116576171243357
0.029393782008064275
0.01733087115781634
0.002610298823307302
-0.008155688838159949
-0.012407694312563033
-0.010680109493789985
-0.005266688331235027
0.0010112649179853858
0.0056816891249865005
0.0071205359059482295
0.004786074766526315
-0.0006883333173293133
-0.007510593036312646
-0.012943190596700937
-0.013867064625838095
-0.0077954592752449365
0.0057537889029344235
0.023895526538178738
0.03963450158116153
0.04240193007714204
0.020248297552409426
-0.036574817662069894
-0.13174522630023872
-0.0604217516915344
-0.009785253364887966
0.03698182574352192
0.09451670200750442
0.16950578507879663
0.05816580054767436
-0.05138660358505216
-0.17251758304155804
-0.11213538717788257
-0.06532261709295598
-0.015426755526829046
0.05999602618870418
0.17969002379130886
0.1496618416596113
-0.04143488469516107
-0.020302897510088704
-0.020925504427526633
-0.07329211454207725
-0.19285842454303273
0.02567261573645627
0.008113357898385982
-0.0059170542514740505
0.025894025866858895
0.1364190653625586
0.13961595283416345
0.026702333611281506
-0.03070301039666835
-0.07153522545981827
-0.1336379243063292
-0.24389766203575344
-0.013875418808859643
0.15770711608365973
0.27754505053084344
0.1498902578011143
-0.027098512764965384
-0.2588255585888536
-0.14745459959637858
-0.08523075081476678
0.14812502692383875
0.18277685829116644
0.05260122920529096
-0.21182508129577932
-0.1895241759357258
-0.07472726092536452
0.318206568334723
0.35248748425590304
0.17291240812744418
-0.08106420093018428
-0.2547985978467437
-0.5574600238253669
-0.3504789623487109
0.046669731571714605
0.33225769444198744
0.3871606817072877
0.44222672294254567
0.2617031440503824
-0.0496237955107108
-0.4172312285319872
-0.5561201110559423
-0.33369405547225445
0.05039208285173557
0.26158480941682494
0.4085880737023666
0.21247071949854918
-0.22231293964195475
-0.4281949917428769
0.015307737903233438
0.8801377853411251
-0.3034912761169784
0.568665084366421
-0.801904435498266
-0.6923552165958637
-0.7435012144520833
1.6386844620174064
-0.5332404456863437
1.1520424797338227
0.49552341958489865
-0.5030722841971937
-2.022972926621372
-0.0025757577250819603
0.2605385892560393
1.2834302199093752
-0.8446698692670399
0.8984047504413001
0.6495466560408116
0.07218891819807136
-1.2035264867716262
0.6757876082099314
-0.7594796383670281
-1.0707887624936014
-0.5167541687937804
0.3022268682566104
1.3718605721969317
1.3906372962422073
0.9272761065779161
-0.5689662566921875
-1.1062940671689916
-1.6630573456207771
-0.9146739208604204
-0.007690547824781522
1.4094987808221042
2.317502600328963
-0.9466383659916381
-0.33392924323986656
-0.08801221457321419
-0.319017756065199
-1.3653785338261153
1.6405947862869656
0.39676812229394465
-0.3530965402202651
-0.4074659197940545
-0.29913271765596444
-0.09701666436078853
-0.02342587521306087
0.11305125806026002
0.07555387889467217
0.35867999598387096
0.5616575542407007
0.18418247046221928
-0.1516905294801585
-0.4585610590971057
-0.5325402318121863
-0.5104944938091497
0.1510304573839183
0.4709833694697199
0.5194454916866212
0.18673810713706956
-0.24166925129456346
-0.4988640023122027
-0.14091366755791104
0.052476114227816444
0.4779096326521906
0.5107504117803885
0.11470400935053827
-0.5395054633942925
-0.45126961010632655
-0.5740934048414651
-0.21783594608053486
0.32637352717770873
0.7451580200276632
0.6618552261095293
0.21385458372312408
-0.1397478641422505
-0.38076139061981895
-0.4777142394214081
-0.5343193152619282
-0.15853677722985957
0.1379328002750889
0.31097801761195365
0.33716075730231626
0.16424291208239744
0.07361939613365302
0.06360132704955516
0.05567345409534668
-0.07990161618988113
-0.08658745429470067
-0.08166452636710468
-0.32379536871200143
-0.3967017995710184
-0.2144337244225327
0.15164471049677591
0.4310845733405591
0.7112598172811571
0.608921432831003
-0.131810429521899
-0.613706796172034
-0.7441571801155116
-0.5955797125264635
-0.18626826385481082
0.711289603285199
0.942062474691194
0.5378958230273432
-0.09726303335947796
-0.5785604122139715
-0.7146245659104385
-0.4819060102819056
-0.015594417482164152
0.37569186862679615
0.5771349589893188
0.43193507640672774
0.11908235966328566
-0.045081758378094985
-0.18164001730689674
-0.4097805284079506
-0.4079684365220941
-0.18963385793698997
-0.10195312127558114
0.15209150496898402
0.4767119417542098
0.5454498679102865
0.7772231097386382
-0.8643176796958943
-0.44891537905474094
-0.24649635837318223
-0.0983228839809185
-0.4043593891425428
0.8702581378629208
0.17539679645838363
-0.04699629678385254
-0.17964054273835398
-0.03620312476463416
0.14209941516371605
0.09659165768861962
-0.0349355237476121
-0.10315389198777981
-0.3344100887949128
-0.12421897939167659
0.16014431588828826
0.1683818089599785
0.1514219320384024
0.147282737694026
-0.02644851619479349
-0.17183600701659443
-0.10346191738368067
-0.03905879181691393
0.008057023972857156
0.032553653522320695
0.03668513035778154
0.027413397496174458
0.012890926451037048
-0.00029841547968354544
-0.008498632927403455
-0.010988185632238072
-0.009101134386959224
-0.005046019267130097
-0.0008930784952967476
0.0020205780647831483
0.0032378632799018184
0.0030001864590313235
0.0019149811005148103
0.000631423416225919
-0.00037759439172336526
-0.0008983303893175455
-0.0009477442482659595
-0.0006835177530292552
-0.0003032195362198024
3.194514564206706e-05
0.000234046238790101
0.00028893696365888397
0.0002335681705415095
0.0001257006371391179
1.8251607864872097e-05
-5.542698885256103e-05
-8.476275279418163e-05
-7.68934182537455e-05
-4.793683236405852e-05
-1.466693174352757e-05
1.0957761717397286e-05
2.3754599092176943e-05
2.444437078773868e-05
1.7258441006019107e-05
7.330002838451483e-06
-1.237788824838722e-06
-6.27299234085123e-06
-7.502886314915023e-06
-5.941501251834201e-06
-3.100845136013745e-06
-3.365332155996839e-07
1.5174902141952834e-06
2.2174072838867245e-06
1.9688246004116237e-06
1.1976037169378225e-06
3.361756029957798e-07
-3.13714990408483e-07
-6.27105218260968e-07
-6.29855589482676e-07
-4.3519443719251626e-07
-1.763236400750331e-07
4.2452610165439733e-08
1.6763950176453144e-07
1.9457232774354585e-07
1.5093765662759394e-07
7.625858969807471e-08
5.223356317145965e-09
-4.135569485575247e-08
-5.793584132382976e-08
-5.036440686594363e-08
-2.9872295538036065e-08
-7.59473075850567e-09
8.865849979421389e-09
1.6512972708215412e-08
1.6198911841502924e-08
1.0945433420109092e-08
4.20476170846799e-09
-1.3750024933811874e-09
-4.480303486348504e-09
-5.0516040090302834e-09
-3.841398140632987e-09
-1.8813369519053203e-09
-5.801000279053971e-11
1.1102403025382326e-09
1.499708128584017e-09
1.2749641228827408e-09
7.316653451093398e-10
1.562189434455181e-10
-2.6012972442683133e-10
-4.459830101621224e-10
-4.2803915788318317e-10
-2.8674029865794927e-10
-1.1145050907542225e-10
3.068685873718553e-11
1.0752536706103285e-10
1.1908655808557526e-10
8.573918535383817e-11
3.437497844366464e-11
-1.2372516293620471e-11
-4.162178384312042e-11
-5.067858063034064e-11
-4.413467827832465e-11
-2.976016206610033e-11
-1.4913250235942528e-11
-4.397078210643776e-12
9.965743569589297e-14
-6.145356615925237e-13
-4.403185128749338e-12
-8.95576939496487e-12
-1.257211696897794e-11
-1.4468403108188736e-11
-1.46850257522283e-11
-1.3771302647316376e-11
-1.2427275042964876e-11
-1.1230066307014801e-11
-1.0499069588041993e-11
-1.0291014072585409e-11
-1.0478745819801161e-11
-1.0858408593751853e-11
-1.1241170178605946e-11
-1.1506567702276128e-11
-1.1614938063514978e-11
-1.1590093114233768e-11
-1.1488581936512429e-11
-1.1370061533751674e-11
-1.1277610819132213e-11
-1.123046397778644e-11
-1.1226841151707899e-11
-1.1252246390111165e-11
-1.128859835965517e-11
-1.1321020877003034e-11
-1.1341055458090012e-11
-1.1346681816740545e-11
-1.1340434031368191e-11
-1.1327037082291254e-11
-1.1311572266305193e-11
-1.1298530494865377e-11
-1.1291532565798568e-11
-1.1293191727394682e-11
-1.1304643404711192e-11
-1.1324618656292948e-11
-1.1348434903093857e-11
-1.1367695889661108e-11
-1.1371597930113244e-11
-1.1350360108582034e-11
-1.130040979762875e-11
-1.122975946068918e-11
-1.116094351691262e-11
-1.1128546887406292e-11
-1.1169324085140105e-11
-1.1305438371486618e-11
-1.1525086396028475e-11
-1.1768562440783751e-11
-1.1929818766411685e-11
-1.1881774330653037e-11
-1.1526699134767116e-11
-1.0861402127700524e-11
-1.0033684205976442e-11
-9.357156204645094e-12
-9.252944371237265e-12
-1.0104569410645311e-11
-1.2047118519851115e-11
-1.4756472789987995e-11
-1.7342497201122722e-11
-1.8459176976547333e-11
-1.670334748526627e-11
-1.1273025834330337e-11
-2.7115870385426144e-12
6.579132763819417e-12
1.2443795511960059e-11
1.0003600275590811e-11
-4.359274701647684e-12
-3.048683149953018e-11
-6.233151383784944e-11
-8.751807183519494e-11
-8.976952374395599e-11
-5.466406671996851e-11
2.2180789202305874e-11
1.271213207355882e-10
2.2474849712745104e-10
2.6270494521550127e-10
1.8765028645990962e-10
-2.902230630929228e-11
-3.627320163490215e-10
-7.169525063286377e-10
-9.290224698007656e-10
-8.119213409586944e-10
-2.3229761404867166e-10
7.926618860419968e-10
2.016324875440479e-09
2.950981299332307e-09
2.968266843161042e-09
1.5271923790514152e-09
-1.5085313348654843e-09
-5.568427441672382e-09
-9.246165565944248e-09
-1.0507472104377262e-08
-7.328180112344499e-09
1.3023576270861819e-09
1.4294924726818425e-08
2.7778401225092383e-08
3.53928199317256e-08
2.9979071637271114e-08
6.643199542993715e-09
-3.3517003783309884e-08
-8.047521181130455e-08
-1.1503532506889585e-07
-1.1296924302802453e-07
-5.4036190090231167e-08
6.572788943264578e-08
2.2260925873978414e-07
3.608379073331054e-07
4.014655872725552e-07
2.678196002936694e-07
-7.539068100710012e-08
-5.806625037452524e-07
-1.093054124615305e-06
-1.3641820424393156e-06
-1.1203924824239323e-06
-1.8295538070328072e-07
1.3887574742867072e-06
3.188330258593648e-06
4.461157218717233e-06
4.274226092496121e-06
1.8723711141025692e-06
-2.846339725098024e-06
-8.901213554415972e-06
-1.4083847075439162e-05
-1.5333867146691285e-05
-9.752629154338098e-06
3.874405761272399e-06
2.350161743882872e-05
4.293905051590266e-05
5.249744072813944e-05
4.1732159111511455e-05
4.152083493935884e-06
-5.728672051452392e-05
-0.00012615437748197836
-0.00017282357791540342
-0.00016141037852894033
-6.382717721311839e-05
0.00012184946507542033
0.0003552435163426001
0.000549024050599339
0.0005846870402878558
0.0003528591535871076
-0.0001875049530253435
-0.0009492366685373211
-0.0016854858042005007
-0.002018660052069571
-0.0015505431076466368
-4.6387528993784e-05
0.00235490027401294
0.004993076006167303
0.006710658776024976
0.006136925522836561
0.0022429063545476866
-0.0049490024654211635
-0.0137620980117359
-0.020732279776233698
-0.021293231864186683
-0.011439072510871666
0.009844135961054771
0.0380502728918019
0.06158246322621929
0.06225805985082837
0.01855483790250394
-0.08872427075714458
-0.06991179127622378
-0.12145195545457052
-0.024646413293569383
0.05086370108147555
0.13986624387454347
0.0732553053609644
0.07174165778490627
-0.056339147932368695
-0.11310066477590419
-0.10696580438656136
-0.048987579338174346
0.04848777771229116
0.1708142399038722
0.09951740170949222
0.012643981333296094
-0.11173300757584385
-0.08972184730867501
-0.12615572924949517
-0.012317878520369665
0.07173432787392539
0.15105255120596806
0.048459220100259735
-0.02110466436441082
-0.05282618039034119
-0.05098017304642939
-0.0260298966941136
0.008524337560209375
0.03865197053191131
0.05168180280629418
0.03813159956836049
-0.006111497854845767
-0.07757303756302152
-0.16411135906173585
-0.04650087596608562
0.09650965359681711
0.08057781407438619
0.10833903932947957
0.1656580773162243
0.02407749090501263
-0.15039243778903735
-0.18483349948673364
-0.08803450787251953
-0.04491536627647208
-0.019428747226059157
0.03456742563119169
0.15782951864296663
0.17063181852526632
0.06306944553159442
-0.005876421206816375
-0.10002586403729963
-0.09093962862714265
-0.04044231194028581
0.014847158781226836
0.07380575173406224
-0.02567201379979826
-0.21048836980871682
-0.18368340434161862
-0.04289681917204363
0.09629930971521343
0.4774609136345292
0.48849352064473517
0.06237855564793857
-0.3039846997345645
-0.5179232083836353
-0.45786588349998103
-0.15199814712899384
0.22360010229230368
0.5289111912657737
1.0357535968213452
-0.7926276569232962
-0.5113276392985898
-0.29508891086554795
0.06098894599026008
-0.2643238561447638
1.2728638639160281
0.5788711064256937
-0.0643572889459335
-0.767527688188815
-0.7931428824752921
-0.5239309453789561
-0.05798676816527069
0.363173460221909
0.7025696181458675
0.6717454262008928
0.29280960769177344
-0.10699702233389315
-0.4670780786900249
-0.5434736927427565
-0.2560159560348059
-0.050381588407544343
0.11496389932961106
0.15673169687500732
0.23695296383654568
-0.07441621648301268
-0.035141069380973784
0.04165631707865735
0.17124241968781226
0.09403226876950652
0.08583707476877082
-0.01964251235647314
-0.19983999521196197
-0.21003974310997706
0.045038566081361774
-0.07123070938728364
-0.12390273378251816
-0.016957666777920887
0.18500677806877158
0.0286317353188076
0.04303910805566249
0.11609025946721893
0.07982392171339012
-0.0928802475321863
-0.08053366494379753
0.20394464188760938
0.2365293084505335
-0.09176050344508231
-0.45047513921922056
-0.45353400786667397
-0.25805633099357794
0.018431387741161962
0.6665573293848621
0.9516687117433918
0.4942053473382962
-0.3250371616505577
-0.9360943611888454
-0.9427335330018959
-0.4990379973162874
0.28402014988543856
0.7012923975453642
1.001618137117521
0.5465447351922817
0.0010529570117629352
-0.4363634822645384
-0.5741794879649637
-0.5610257613639873
-0.43610896650942493
-0.11419533230392184
0.19037871558778396
0.5097055404294365
0.4570462466851126
0.5720234659740634
0.29352306781527976
-0.2327274034081394
-0.5176551617341596
-0.679900165151464
-0.8053777247625057
-0.13203139638501343
0.735583317611926
1.5923371035695126
-0.1998297528980399
0.07751699036654872
-0.2816743257550802
-0.56765915121486
-1.2121981311094714
0.637234819496916
0.31543883821663754
0.2112713117708791
-0.07547687216476985
-0.17852057090827142
0.19934632729900534
0.4656412593470654
0.13632020064868777
0.4541665723639296
-0.9755551039704601
-0.5414351878422959
-0.18763499144753004
0.607714182017317
0.23427434126579916
0.1369350864633871
-0.20240278457609623
-0.2830685979094734
-0.40313238974367194
-0.07730680934364396
1.3463305227908375
0.47712604052397095
-0.31208450759347306
-0.6618573982214985
-0.7951297019806783
-0.4949615837396129
0.294985582669736
0.6450711431896942
0.6008970889908815
0.3500818904989025
0.010951632988101954
-0.3509187479862917
-0.2846188196435773
-0.30880948435287653
-0.27568827544024427
-0.15565036141901734
0.15341582641793022
0.19637334504306608
0.3209939537643417
0.4409477219338163
0.012672481545089199
-0.3684841354591882
-0.1546855515647117
0.5779664403819166
-1.2462722134800233
0.11449060035475715
0.625811838968099
0.2723405308991044
-0.7521393336297636
0.7463842067792997
-0.0417449216118965
-0.3280097752712325
-0.11961233672081233
0.1881168406708796
0.217928918252169
-0.1861308793381054
-0.15916981647479966
-0.22061113878206762
-0.08551069891943798
0.11808982549220376
0.4292999307773833
0.2386952610618015
0.08392576397791508
-0.13963389957994327
-0.15525512229178914
-0.2755808069356772
-0.17722200747042063
-0.08715787936299689
0.015486132441712961
0.18405376143611055
0.2816000425082892
0.15906650361666386
0.04165395799635798
-0.07308184008903204
-0.20671388900057
-0.18610314661027005
-0.030546354584056256
0.05537297215014783
0.08181952491262763
0.0683957421782872
0.03685888656871269
0.004987119196362158
-0.01667067054410142
-0.024983673621550503
-0.022270258477839148
-0.013474199206660393
-0.003619844675069538
0.003795628699462172
0.0073322881663361855
0.007297974999649467
0.005007219759373544
0.001999130446939737
-0.0005266815848291013
-0.0019604929508009535
-0.0022565150353656975
-0.0017403526491347667
-0.0008712133569641099
-4.97076868673344e-05
0.0004855295118132623
0.0006727593114643921
0.0005814248119784989
0.00034232178216355374
8.428333466351884e-05
-0.00010527084398318708
-0.00019238343970052858
-0.00018751291466404457
-0.00012595972645304283
-4.773506020837388e-05
1.664582777906006e-05
5.219158958627514e-05
5.840814983996561e-05
4.412848632602697e-05
2.1332816681379565e-05
2.570011238244175e-07
-1.3158625540557063e-05
-1.7544022474374785e-05
-1.4848165440229132e-05
-8.512361155533933e-06
-1.8490855588935333e-06
2.943615531394613e-06
5.058245846614197e-06
4.8189615582269655e-06
3.1648791161253253e-06
1.1313838680062422e-06
-5.080851810919009e-07
-1.387010534558665e-06
-1.510639169415935e-06
-1.117811725484865e-06
-5.206960452391029e-07
1.9484913988237205e-08
3.551989434130637e-07
4.5685466574860507e-07
3.787137850181869e-07
2.1117492717290127e-07
3.93133662180295e-08
-8.169254328530073e-08
-1.3278739790658878e-07
-1.2371414476374881e-07
-7.939946645160095e-08
-2.6604612074966076e-08
1.5093204191342586e-08
3.6767057754509834e-08
3.9012516867612014e-08
2.8264686932708227e-08
1.26469455964881e-08
-1.1821697950546283e-09
-9.567284388214736e-09
-1.1893079402752829e-08
-9.659669012550316e-09
-5.237909164593595e-09
-8.103133685163013e-10
2.2403409751533556e-09
3.4684862688237752e-09
3.160502274592346e-09
1.9765967825290407e-09
6.076387567079506e-10
-4.515380628002264e-10
-9.844441787549e-10
-1.0182150606714973e-09
-7.25667779183406e-10
-3.178945120799816e-10
3.5636293937597054e-11
2.4465224794738716e-10
2.971425461516499e-10
2.3434187976661775e-10
1.1827482837728407e-10
4.720716637806037e-12
-7.194200185275177e-11
-1.0161947270263689e-10
-9.269168087251936e-11
-6.24952723122392e-11
-2.84413411212209e-11
-2.357601016025101e-12
1.127422042136452e-11
1.3960832929618343e-11
1.0211356925587439e-11
4.457435226201031e-12
-9.917742991753037e-13
-6.431181547950908e-12
-1.3747934641751529e-11
-2.446932915462311e-11
-3.773506285630266e-11
-4.915849010622858e-11
-5.138261984414938e-11
-3.6676109097048965e-11
-1.1643623033686997e-12
5.0618747997756004e-11
1.0295534186938534e-10
1.3028256865816706e-10
1.0426963264804895e-10
6.375258261602314e-12
-1.5718813310017165e-10
-3.440851577835747e-10
-4.757624247322722e-10
-4.551897451854553e-10
-2.0401569081632763e-10
2.879280988098315e-10
9.180138499447879e-10
1.4559206946805767e-09
1.5830361307625853e-09
9.98245127652364e-10
-4.2350239758301136e-10
-2.4673609408471195e-09
-4.487180319934981e-09
-5.473600253277842e-09
-4.340668461663507e-09
-4.165668482657097e-10
5.984924172850578e-09
1.3146989013755681e-08
1.7981490536060604e-08
1.6754904887395254e-08
6.553670154984211e-09
-1.280402393417967e-08
-3.709304258180246e-08
-5.720560280042669e-08
-6.080571704946261e-08
-3.6534846201137886e-08
1.982306084357008e-08
9.91180976298258e-08
1.7558562691400635e-07
2.0989986504600724e-07
1.6068304482377815e-07
3.7061085815613733e-09
-2.462171221233593e-07
-5.19868774088054e-07
-6.961609708568883e-07
-6.317032169059479e-07
-2.1852275066407348e-07
5.421669337924647e-07
1.4771890316061517e-06
2.2269353184818248e-06
2.314377149529561e-06
1.3119995325886376e-06
-9.187723298198283e-07
-3.9915709737945555e-06
-6.880802926945724e-06
-8.056053499304903e-06
-5.943289470019684e-06
3.247459287230545e-07
1.007089810302647e-05
2.051089151405109e-05
2.6902434335061285e-05
2.374581489684674e-05
7.054632145059419e-06
-2.280125930140787e-05
-5.874951550155188e-05
-8.661035789250399e-05
-8.795927100579639e-05
-4.6743206165878256e-05
4.1431623556637264e-05
0.00016036684422552142
0.00026930215490103695
0.0003087457565168834
0.00021891990717097805
-3.0946487015463986e-05
-0.0004106179763342544
-0.0008083432725439958
-0.0010386112948272406
-0.0008907516128178278
-0.00021812595680288112
0.0009525018364288727
0.0023336354930291745
0.0033676349655064105
0.003345158225150343
0.0016673765981319942
-0.0017937587310689316
-0.006357923358869261
-0.010401525599851736
-0.011611086372786933
-0.007728832759379049
0.002283921017580179
0.016982153810379794
0.031609862479437985
0.03832828501595698
0.027933547974436736
-0.0070062857661942575
-0.06840495743534487
-0.14980965903192417
-0.03615430580095001
0.09290294450072903
0.05664825306266744
0.06621133322968599
0.1195939402272484
0.0010164268707394647
-0.11494789630410655
-0.05593361448396195
-0.04385394453892656
-0.08938608242093223
0.009357087464391971
0.06395132835944406
0.09023275727331374
0.10296926018479992
0.11317168529460615
-0.07076442129500747
-0.23907349846312945
-0.1768033700094199
-0.06375118587509615
0.11996311969788963
0.18417448770665162
0.3194151081933579
0.0936030423369129
-0.1420473169807735
-0.2390030336299679
-0.23466987955583526
-0.14003806406085706
0.06305987023294912
0.214286182914289
0.16052390282092557
0.14123541863826042
-0.020992064139656024
-0.1222839210680796
-0.17297216349444688
0.009586661203773095
0.007065341897913216
0.002981801000597857
-0.01765755110216004
0.1296692348611566
0.027472583525404378
0.05694850323146189
0.0017439144028210975
0.05421326214041319
-0.17792790266939698
-0.2677574789993802
-0.17141903688494792
0.16177308742938634
0.17306127099221968
0.27726221577879845
0.2524160892714135
0.04187140777440212
-0.22995578407670825
-0.23252805623223005
-0.20331793861108136
-0.1302541437911205
0.05136885886336084
0.04637087017260024
-0.0247945258988063
0.14423618529521112
0.2185058401909579
0.20408755078134722
0.045002759354485125
0.03613487261787073
-0.1508961810013959
-0.2359701691070171
-0.30205110598615087
-0.1787370461881425
-0.04284263089076305
0.16456907474386312
0.311230587641861
0.44729748449227136
0.3902664067511436
-0.07239095959430264
-0.564266618605247
-0.6944948108007266
-0.43997244231656923
0.053177191916887516
0.6471940634485088
0.7795297405097562
0.4363530707358114
-0.05194528704393115
-0.3884558619080289
-0.6691952476305872
-0.5418489242737417
0.018253068520119087
0.10486797307039752
0.2519621196652084
0.3908301280716978
0.409104640596154
0.12557446442111408
0.08808904174869535
-0.4069595227181229
-0.6830355253031435
-0.45322142367172213
0.1973265852252693
1.2129134168716975
-0.44088094963129304
0.4159802047193957
0.18049458403197666
-0.5217060082860118
-1.423248784274169
0.7887521492039321
0.2599685010567567
0.3414446857257026
0.15758135174983212
-0.018926610368011545
-0.17882323646736611
-0.3751694532662712
-0.3139308348195927
0.459488075232702
1.3773671318388132
-0.9262390205303986
0.01775772193979518
0.15138394514878983
-0.47976167227919586
-1.717790930225375
0.48297366575496353
-0.0038315689886036603
0.6401159120667966
1.6966506938934347
0.6628820403837274
-0.5411077892984586
0.6952592648627669
-1.618385906280374
-1.9592107612193093
-0.21056031366245603
1.157801531816849
-0.35524124798663054
1.0283835314332288
0.46468303708161945
0.20542600012466722
0.15484395943333687
-0.12912878357665208
-0.3962861832209849
-0.04407760834973113
-0.25487387427380426
-0.5474418664204286
-0.354172448464082
0.17181133436919865
0.32437838675142233
1.6001003893930703
-1.1408006087140958
0.30538857999190244
0.2885517967552232
-0.27551956957905804
-1.6792255662670106
1.197856387866176
0.09830635275392506
0.18538093132967115
0.2380445722578564
0.05016872676757258
-0.16370168854899855
-0.5599726616135045
-0.46282338893607294
-0.1734491023083501
0.6067054056234366
0.7458528443892067
0.6587256850611103
-0.09641719158783359
-0.7966177843978242
-0.7177983122348538
-0.3006155511441608
0.06529622493699598
0.43299054639767004
0.8727761535885056
0.04423956115311777
-0.2209647603884634
-0.32057160753486064
-0.27205225780594566
-0.5014992506890886
0.3610730919187406
1.2785032324256094
-1.1998538448995648
-0.1409259681867821
0.5764506779467845
1.27324787401695
-2.111740236529663
0.9997359268967373
0.04426820734941327
-0.6757387407827865
-1.8031066857249962
1.4421418644550366
1.815431410155125
-0.9996611001702032
0.38088663277769585
0.6455268072845509
-0.3789242755845423
-1.8765064100161777
0.8071161370445838
-0.2044385703986868
-0.11375332903390072
0.33207190964314154
0.6119041578160507
0.403459894096442
-0.2311108791443977
-0.4439653214329972
-0.3903050860520784
-0.21799699667246772
-0.0675339424320247
0.5150993469836548
0.35809538828532844
0.0461188068786141
-0.08561491446730536
0.058299546707194956
-0.04383981564345433
-0.1017126618009674
-0.1855111693713125
-0.3078410964328652
-0.22082137809012561
-0.030564040228150468
0.37410320764975113
0.48737702751663387
0.35858248256515296
-0.01903964991219653
-0.2990680602488796
-0.3569276732543739
-0.26016941459865955
-0.045770330597879445
0.08815605000470852
0.17554246678418192
0.0653363350072143
0.0016063457144895501
0.20751261949617503
0.0775121764923795
-0.020654096257610798
-0.13548363099204247
-0.11658073713480309
-0.20016302278116083
-4.135927058295934e-05
0.0934323728269077
0.10716723848991858
0.07519556269963779
0.028740756916490365
-0.010381795065642883
-0.03188036106497464
-0.03529580102366365
-0.026197822021550788
-0.012079783847368273
0.0007467172500757083
0.008705608790375668
0.011068962655080566
0.009134413721850759
0.005072245711635404
0.0009246240990045317
-0.0019865554312560665
-0.0032088181116126015
-0.0029817357774505246
-0.0019085006597918885
-0.0006345048024003387
0.0003693141672913086
0.000889217997281371
0.0009408485253741117
0.000680108738111341
0.00030303947176946725
-3.0048596410036505e-05
-0.00023143892845801608
-0.0002866986308721746
-0.00023226373428619968
-0.0001253947707707185
-1.8673169984942303e-05
5.467664507737356e-05
8.403845364820721e-05
7.641154699273641e-05
4.775868070268554e-05
1.4736547615963119e-05
-1.0753061011341617e-05
-2.3528247777683895e-05
-2.4274901792694435e-05
-1.7177811917709038e-05
-7.330734016330507e-06
1.1857992583302628e-06
6.204774272962527e-06
7.445664837812099e-06
5.909073699938928e-06
3.0942102605667585e-06
3.4828017904342236e-07
-1.4977824392889147e-06
-2.1988148544449277e-06
-1.9567425510947234e-06
-1.1934155887132546e-06
-3.382952883825039e-07
3.0825802074501545e-07
6.212311839420239e-07
6.255422783142579e-07
4.3320659924688755e-07
1.7642002085974835e-07
-4.107457400648912e-08
-1.658872758720302e-07
-1.9313678269632122e-07
-1.5015718393281866e-07
-7.614303462224038e-08
-5.571610168464794e-09
4.0815508733022136e-08
5.743559918583764e-08
5.0038370267243964e-08
2.9751095267099988e-08
7.633874941361662e-09
-8.744512544751388e-09
-1.6384521259421413e-08
-1.6113070254826334e-08
-1.0920377085288598e-08
-4.233036516494112e-09
1.314743049374524e-09
4.4115397900447736e-09
4.991844851612803e-09
3.798914169907789e-09
1.8559744862452674e-09
4.43328823612101e-11
-1.1193155339509874e-09
-1.5100984342271998e-09
-1.2900033214563846e-09
-7.520132303387271e-10
-1.8063760930820374e-10
2.336929217157776e-10
4.1945616420897007e-10
4.0267032611516397e-10
2.629580773118971e-10
8.903134235071915e-11
-5.230945817900519e-11
-1.289582275916741e-10
-1.4077280905203342e-10
-1.078801985482182e-10
-5.695636354734398e-11
-1.050281661088636e-11
1.8636811559138978e-11
2.77347765641958e-11
2.1314627579072858e-11
7.077531161750084e-12
-7.666163392772365e-12
-1.813294434845221e-11
-2.2629748395156955e-11
-2.1946898908920925e-11
-1.8199611486970013e-11
-1.3681834561817665e-11
-1.008529646389725e-11
-8.193153704046266e-12
-7.969466094175441e-12
-8.871226251823899e-12
-1.020390918369265e-11
-1.1393689333799373e-11
-1.2122045724188253e-11
-1.233132140669869e-11
-1.214689712322569e-11
-1.1770871767485061e-11
-1.1390867223262048e-11
-1.1126839946711037e-11
-1.1018526387614722e-11
-1.1042513852918219e-11
-1.1142733408644634e-11
-1.1259936965993898e-11
-1.1351339918322528e-11
-1.1397916068270927e-11
-1.140160493657106e-11
-1.1377007075357637e-11
-1.1342181340036053e-11
-1.1311743579523353e-11
-1.1293573526586782e-11
-1.1288831611469105e-11
-1.1294064849464105e-11
-1.1303977897465898e-11
-1.1313760903019989e-11
-1.1320411036423699e-11
-1.1323005199828314e-11
-1.1322224067728822e-11
-1.1319550832026175e-11
-1.131651397166452e-11
-1.1314194001956875e-11
-1.131305106217035e-11
-1.1313009272488057e-11
-1.131367725427631e-11
-1.1314586042345088e-11
-1.1315363814720535e-11
-1.1315816159231758e-11
-1.1315921540418008e-11
-1.1315774523922283e-11
-1.1315513649093947e-11
-1.1315262079069475e-11
-1.1315094842469333e-11
-1.1315033115511691e-11
-1.13150573966288e-11
-1.131512852692317e-11
-1.1315207120279612e-11
-1.1315265928403113e-11
-1.1315293879777803e-11
-1.1315293590942964e-11
-1.1315275523498065e-11
-1.1315251840724446e-11
-1.1315231989803968e-11
-1.1315220753466087e-11
-1.1315218471683928e-11
-1.1315222567314095e-11
-1.1315229421059078e-11
-1.1315235882798791e-11
-1.1315240081567238e-11
-1.1315241539183483e-11
-1.1315240807844682e-11
-1.1315238919519095e-11
-1.1315236887950893e-11
-1.1315235399242022e-11
-1.1315234718238494e-11
-1.1315234760655639e-11
-1.1315235247582366e-11
-1.1315235863931448e-11
-1.1315236369977797e-11
-1.1315236648433243e-11
-1.1315236696053626e-11
-1.1315236582766465e-11
-1.1315236402992671e-11
-1.1315236237208231e-11
-1.1315236131971194e-11
-1.1315236097860422e-11
-1.1315236119390602e-11
-1.1315236169413316e-11
-1.1315236221866008e-11
-1.1315236259500164e-11
-1.1315236276022772e-11
-1.1315236274035116e-11
-1.13152362609551e-11
-1.1315236244935198e-11
-1.1315236232050529e-11
-1.1315236225167409e-11
-1.1315236224228032e-11
-1.1315236227342416e-11
-1.1315236232050626e-11
-1.1315236236299174e-11
-1.1315236238932069e-11
-1.1315236239721676e-11
-1.1315236239098743e-11
-1.1315236237776286e-11
-1.131523623642359e-11
-1.1315236235473567e-11
-1.1315236235074569e-11
-1.1315236235148647e-11
-1.1315236235498956e-11
-1.1315236235914813e-11
-1.131523623624247e-11
-1.1315236236412149e-11
-1.1315236236428957e-11
-1.1315236236343797e-11
-1.1315236236220674e-11
-1.1315236236111921e-11
-1.1315236236046175e-11
-1.131523623602814e-11
-1.131523623604592e-11
-1.1315236236080815e-11
-1.131523623611566e-11
-1.1315236236139606e-11
-1.131523623614919e-11
-1.1315236236146698e-11
-1.1315236236137342e-11
-1.131523623612656e-11
-1.1315236236118238e-11
-1.1315236236114068e-11
-1.1315236236113824e-11
-1.1315236236116143e-11
-1.1315236236119358e-11
-1.1315236236122138e-11
-1.1315236236123776e-11
-1.1315236236124182e-11
-1.131523623612368e-11
-1.131523623612276e-11
-1.1315236236121863e-11
-1.131523623612126e-11
-1.1315236236121033e-11
-1.1315236236121112e-11
-1.1315236236121361e-11
-1.131523623612164e-11
-1.131523623612185e-11
-1.1315236236121954e-11
-1.1315236236121954e-11
-1.1315236236121892e-11
-1.1315236236121808e-11
-1.1315236236121737e-11
-1.1315236236121695e-11
-1.1315236236121687e-11
-1.1315236236121702e-11
-1.1315236236121726e-11
-1.1315236236121749e-11
-1.1315236236121763e-11
-1.131523623612177e-11
-1.1315236236121766e-11
-1.131523623612176e-11
-1.1315236236121754e-11
-1.1315236236121747e-11
-1.1315236236121745e-11
-1.1315236236121745e-11
-1.1315236236121747e-11
-1.1315236236121749e-11
-1.131523623612175e-11
-1.1315236236121752e-11
-1.1315236236121752e-11
-1.1315236236121752e-11
-1.131523623612175e-11
-1.131523623612175e-11
-1.131523623612175e-11
-1.131523623612175e-11
