0
-1.1238191419472508e-18
-9.706049322853685e-19
-1.0167488794525033e-18
-1.3552240474588425e-18
-1.9889017241869676e-18
-2.7768385341316785e-18
-3.4202614485201026e-18
-3.518199428717838e-18
-2.705770466343294e-18
-8.549493670950082e-19
1.7248600329625212e-18
4.185407424315835e-18
5.244866246639561e-18
3.5678803948519646e-18
-1.6074178388977748e-18
-9.761074848203201e-18
-1.860354963092321e-17
-2.4176918503710057e-17
-2.1837031965390344e-17
-8.143930601494937e-18
1.6743930139606727e-17
4.7059138198719935e-17
7.101199981031115e-17
7.310519935029388e-17
3.961914402369309e-17
-3.359492201263964e-17
-1.3351512373979173e-16
-2.2640000940841086e-16
-2.6239067653474717e-16
-1.9072709183414586e-16
1.5759471226505577e-17
3.335640566115766e-16
6.706791261299446e-16
8.721765514608468e-16
7.600379961500623e-16
2.0748336683876053e-16
-7.688093510315772e-16
-1.933655797025388e-15
-2.8224405590924854e-15
-2.836919335218242e-15
-1.462482423811046e-15
1.4296919976003048e-15
5.295228856742953e-15
8.79408993188351e-15
9.989141880782932e-15
6.95423881034554e-15
-1.2701600006482034e-15
-1.3643063112405134e-14
-2.6474795857177056e-14
-3.370796231221304e-14
-2.85283430699382e-14
-6.283784593436645e-15
3.196820356366152e-14
7.666754356585278e-14
1.0952781803353538e-13
1.0748311628304367e-13
5.1281175021043774e-14
-6.281519161930211e-14
-2.1218090603989128e-13
-3.4367720842771564e-13
-3.821283319879428e-13
-2.545785472197189e-13
7.246532884024096e-14
5.536225883759637e-13
1.0412222327571547e-12
1.2987055124645018e-12
1.0656132417475682e-12
1.7207234133994623e-13
-1.3249085870756703e-12
-3.037844992752342e-12
-4.247917434321572e-12
-4.066902034868762e-12
-1.7765760264326997e-12
2.7186548935421036e-12
8.483253064867996e-12
1.341309814925536e-11
1.4594154883730003e-11
9.268463746801326e-12
-3.716094459556881e-12
-2.2405933495948387e-11
-4.090187736450532e-11
-4.997624059279029e-11
-3.9688431978277856e-11
-3.870068925890395e-12
5.4645622900935144e-11
1.2019526307113567e-10
1.6455750002420062e-10
1.5357197861179145e-10
6.052701220028046e-11
-1.1635296678812689e-10
-3.385586779888088e-10
-5.228915032443998e-10
-5.565262252807577e-10
-3.354171819456247e-10
1.7933018413285737e-10
9.04475648827096e-10
1.6047757134293982e-09
1.9206885332063706e-09
1.4734161655673409e-09
4.0406355482570386e-11
-2.244279763422973e-09
-4.749046007258913e-09
-6.367238640860782e-09
-5.786787648149954e-09
-2.0175890900395902e-09
4.93367429948935e-09
1.3488260607676038e-08
2.0360930039274063e-08
2.1188467493068183e-08
1.2054265260848177e-08
-8.322275591586683e-09
-3.642462122502107e-08
-6.288771329460058e-08
-7.371857775067402e-08
-5.4506135144306494e-08
2.719434621173985e-09
9.182031119234428e-08
1.8738735320254058e-07
2.4607652034492756e-07
2.1755964564360762e-07
6.527328196574629e-08
-2.0757268598602412e-07
-5.36491257599679e-07
-7.919315638804118e-07
-8.053588424493256e-07
-4.296840211199344e-07
3.758003271226693e-07
1.4636114072395433e-06
2.461527007929887e-06
2.8255777566101707e-06
2.008437894831156e-06
-2.7279062968441993e-07
-3.743678733789626e-06
-7.384223950036296e-06
-9.49877251608487e-06
-8.159499775596426e-06
-2.0217183224371633e-06
8.67496476492534e-06
2.1305157919736617e-05
3.076674455717986e-05
3.055773414580313e-05
1.5168034884943578e-05
-1.6629341767075147e-05
-5.8687556291176036e-05
-9.623523445450817e-05
-0.00010815016907349898
-7.368261289167895e-05
1.7102468808637232e-05
0.0001521516390529969
0.00029059964999977184
0.000366184165266089
0.00030515808439182424
5.8286903918489013e-05
-0.0003606616561555917
-0.000845133613103566
-0.0011944359321148736
-0.0011579722754794563
-0.0005297048406121721
0.0007246000773615216
0.0023510953988027106
0.0037663276578474413
0.004154468095767845
0.0027360852568617
-0.0008243676828892583
-0.005992988426374106
-0.011123409334903972
-0.013625847772835738
-0.010712838752681792
-0.0007070209417747179
0.015372546897058552
0.0325039234983872
0.0413407656628166
0.029455964987901387
-0.015743147039342875
-0.10305800047228454
-0.0338109460677642
9.267142354967718e-05
0.01545807149392982
0.034629100879437505
0.08096208397582359
-0.025643661322189114
-0.0721489124128368
-0.05445964216099296
0.02154367101973525
0.13994681336021725
0.07627017664896356
0.0012894676779048062
-0.11273463801612353
-0.08487630580112804
-0.12003843542835972
-0.007588762931055483
0.07496420738338884
0.15455021816866066
0.05431334457203922
-0.012276096695494803
-0.0431647531997668
-0.04550127163223875
-0.031150978435134938
-0.01201923949935592
0.003282817654703519
0.010815911623499753
0.010922332789636268
0.006708338393825479
0.002133603657449931
0.0003021690480943426
0.002328821980070555
0.00696207194948531
0.0110120207085678
0.010525759039058847
0.002517615380160423
-0.013133252492915446
-0.032223212768981976
-0.045936558142673826
-0.04235031390515573
-0.009876293817495043
0.05803521397374606
0.15852283490978503
0.07737761338298615
-0.00880930954383437
-0.12635325264059938
-0.09604538686194138
-0.12594411452306417
-0.008477826623644604
0.07688278983709647
0.1565827191724395
0.05460180610015766
-0.013955298089727392
-0.04530896152134369
-0.0455151799906613
-0.02656220067012724
-0.0019567272384558524
0.016841594059664684
0.02263655692759799
0.013504945950085208
-0.007060010772223164
-0.030713755110176925
-0.045684883331303404
-0.039331818062621315
-0.0018203889658865325
0.06978134562176494
0.16850362027830212
0.07744827564032172
-0.026053214735101495
-0.16268869016685972
-0.14258127903916568
-0.15980549874229727
0.006881633263962876
0.1866477188707729
0.20532466695410245
0.07512846997249639
-0.01016670423254617
-0.07274957086008829
-0.14246597140373124
-0.04641107797131931
-0.0004312862451070919
-0.005179163978931578
-0.047349300843439496
0.09498183699846269
0.044985400321712776
0.02006425501097471
0.0272494823098375
0.062177201030485595
-0.08835358010841661
-0.04132436089810268
-0.011728292507337848
-0.007961071032254139
-0.02968826885899769
-0.06863033968570922
0.08814097463758215
0.053526745461677926
0.035996944672839044
0.037118069223661815
0.05195455620975679
-0.12793842622978466
-0.11043136298850197
-0.09977921467748906
0.10370511263292057
0.10116966115243686
0.09169138676971081
0.07030136014089582
0.02937626192212317
-0.2368054118571061
-0.126633145417275
-0.02809399896956402
0.0796331883964652
0.020017828943254684
0.21098812825809377
0.058318874437213494
-0.04654697544358574
-0.12347043395207513
0.003061368876929328
-0.08865217094570824
-0.012119608486769256
0.029276967447380727
0.040816016820342214
0.03279698626004837
0.016413466336416986
0.0005614133913783867
-0.009708532296335991
-0.013138365141205317
-0.01114953954832554
-0.006361404773818904
-0.0013109253655194072
0.002316788778596726
0.0039031687667208112
0.003696995934214793
0.002417270154956415
0.0008553656804349129
-0.00039901509204022723
-0.0010681077376117564
-0.001158401139206678
-0.0008543630376904921
-0.0003956265505093689
1.7959791519061528e-05
0.0002740246914344777
0.00035058279697388993
0.00028969440929439087
0.0001608292062344926
2.9138329566290133e-05
-6.327462378220223e-05
-0.00010201759239336038
-9.472017262246584e-05
-6.056663638228159e-05
-2.0070109253423785e-05
1.1812025328717969e-05
2.8301829666250245e-05
2.9910359417760968e-05
2.1601341106640365e-05
9.60806292317307e-06
-9.76584106975518e-07
-7.369375811780872e-06
-9.116384280042692e-06
-7.379064306837213e-06
-3.9788151478854306e-06
-5.866501590108424e-07
1.742636579320748e-06
2.6730683438648997e-06
2.428258089364496e-06
1.516164673120155e-06
4.6626918019497904e-07
-3.434349865680392e-07
-7.486744865338926e-07
-7.716295465808216e-07
-5.455404411347163e-07
-2.323717479702594e-07
3.8241637366961096e-08
1.9754451175966903e-07
2.367422313347722e-07
1.8772191712406768e-07
9.816840792382534e-08
1.089302927834316e-08
-4.772621124851862e-08
-6.99346356346378e-08
-6.217937419416225e-08
-3.788321356067167e-08
-1.0697143425236193e-08
9.840178396738711e-09
1.976652142360882e-08
1.9883601027980863e-08
1.3757470745288999e-08
5.591302168397683e-09
-1.3192593030185206e-09
-5.2804611172708344e-09
-6.140285472316638e-09
-4.7696329567155935e-09
-2.4150754153657733e-09
-1.7217375354575293e-10
1.3006852790671202e-09
1.82703366688887e-09
1.590359275267148e-09
9.446918490955563e-10
2.4157414288447047e-10
-2.786446508555523e-10
-5.209187937871678e-10
-5.117793515385106e-10
-3.4641069077619704e-10
-1.3375588539469684e-10
4.250753637021677e-11
1.4078131268333632e-10
1.5906375899531994e-10
1.2103165728041298e-10
5.922653031246751e-11
1.6516941369886705e-12
-3.529317881261045e-11
-4.766432534941321e-11
-4.062908465108197e-11
-2.3508436397305275e-11
-5.345011881675917e-12
7.814401201185642e-12
1.3704143381356167e-11
1.3157511782078556e-11
8.708790403395834e-12
3.178289602600161e-12
-1.3121445892978204e-12
-3.74425702284012e-12
-4.1155950914567295e-12
-3.0672086483060866e-12
-1.4474209135705325e-12
2.882368780183034e-14
9.53912472922284e-13
1.2417974468124873e-12
1.0367290141462094e-12
5.836953763309961e-13
1.1503191207193785e-13
-2.1737999527457e-13
-3.599257936079733e-13
-3.3788654413794827e-13
-2.1858034713899283e-13
-7.493227724844604e-14
3.9324728508497364e-14
9.935663563475753e-14
1.0635874813312225e-13
7.762341612510888e-14
3.523602192529984e-14
-2.572097083467267e-15
-2.5693200635728287e-14
-3.231151326740721e-14
-2.642411215528067e-14
-1.4459701802781712e-14
-2.3809385457006523e-15
6.0037155031723636e-15
9.43641555843028e-15
8.665419269072554e-15
5.474997407796312e-15
1.7485655678011864e-15
-1.1550246236499716e-15
-2.6325579021059848e-15
-2.747037258457698e-15
-1.963361895000869e-15
-8.557589952691996e-16
1.11426772049282e-16
6.88172081576514e-16
8.380266323057797e-16
6.710422012189063e-16
3.556512311105131e-16
4.4704461008744687e-17
-1.664691479605495e-16
-2.486628031308158e-16
-2.2361519526586856e-16
-1.3852165729781232e-16
-4.196849850290939e-17
3.172793167341517e-17
6.798083126478157e-17
6.923548709390612e-17
4.795184848795049e-17
1.9041983596107638e-17
-5.6792949084899576e-18
-2.003991057624786e-17
-2.3362145809510946e-17
-1.865665107272424e-17
-1.0331184453260249e-17
-2.306646061930205e-18
3.02263069733167e-18
4.9719079111215036e-18
4.1520803274338366e-18
1.808795114011437e-18
-7.88330498421192e-19
-2.7365544861844413e-18
-3.6348496502362466e-18
-3.5217107908659655e-18
-2.7143420530753604e-18
-1.6384253305108124e-18
-7.004114912754961e-19
-2.124549103570496e-19
-3.5192993918747974e-19
-1.1315044777262133e-18
-2.3702136529483924e-18
-3.680696054074184e-18
-4.507951428746554e-18
-4.256222774078555e-18
-2.5142440779953635e-18
6.628225381937086e-19
4.518318173130405e-18
7.553400942156675e-18
7.821085318603312e-18
3.61142235614749e-18
-5.5782458379398415e-18
-1.8099064220923814e-17
-2.9713713160964745e-17
-3.417855756284921e-17
-2.5151733555147793e-17
7.419310152589324e-19
4.052740806275558e-17
8.265995634283306e-17
1.0773957078360753e-16
9.35109342852871e-17
2.4172793030541292e-17
-9.808945057828549e-17
-2.437409259374185e-16
-3.5457796144976587e-16
-3.5577130296276353e-16
-1.8309298246511644e-16
1.7927789082527745e-16
6.628614374241659e-16
1.099694351829588e-15
1.2473619596701452e-15
8.652506506735667e-16
-1.6582798499532345e-16
-1.7144200016120272e-15
-3.317731441047219e-15
-4.2173817046673945e-15
-3.561579835974857e-15
-7.706845379670245e-16
4.019173811018994e-15
9.607724660382623e-15
1.3704412836097855e-14
1.3424391432277253e-14
6.365282290865485e-15
-7.928847867817206e-15
-2.661301817004275e-14
-4.3027439814964257e-14
-4.776535022013049e-14
-3.171441061079081e-14
9.281672450840334e-15
6.949820657922142e-14
1.3041551725952267e-13
1.624191812469334e-13
1.3295482519279335e-13
2.0865083855162985e-14
-1.6656848283733665e-13
-3.807070433558626e-13
-5.315195666686067e-13
-5.079264614148787e-13
-2.2032441304510913e-13
3.427899513265096e-13
1.063819361481023e-12
1.6790859958248499e-12
1.8239871014885484e-12
1.15409800586482e-12
-4.733770609582015e-13
-2.812200909134714e-12
-5.1226468356249e-12
-6.249612995001376e-12
-4.950781313221138e-12
-4.582317743324377e-13
6.86775707743678e-12
1.5061418644804356e-11
2.058838933077848e-11
1.9177045871897184e-11
7.495711805740627e-12
-1.465985658460328e-11
-4.245055629483157e-11
-6.545142216936147e-11
-6.954703472394743e-11
-4.1745805462295256e-11
2.276522205580615e-11
1.1350132685692133e-10
2.0096792855138257e-10
2.401621496171493e-10
1.8374956818616382e-10
4.038194671932432e-12
-2.8197332785499634e-10
-5.950331405107643e-10
-7.965592522233547e-10
-7.224982565001338e-10
-2.493894807631416e-10
6.212300332931006e-10
1.6910304645685682e-09
2.548405182243431e-09
2.6475256238087293e-09
1.4994291212536508e-09
-1.054004538629568e-09
-4.570097337912945e-09
-7.874811014725668e-09
-9.216830645859273e-09
-6.795575715941419e-09
3.8003582953356495e-10
1.1533306048131401e-08
2.3476453787443227e-08
3.078214467993861e-08
2.715827564615513e-08
8.046900926080873e-09
-2.6122969419287028e-08
-6.725220985948145e-08
-9.911100527073841e-08
-1.006178992979917e-07
-5.3413082415176246e-08
4.751382670924624e-08
1.8360615087590872e-07
3.082061763382868e-07
3.5323822317388476e-07
2.503259461011702e-07
-3.568505534198006e-08
-4.7011945257475167e-07
-9.250294911866856e-07
-1.188111800309595e-06
-1.0183718002180924e-06
-2.482370151420319e-07
1.0912436506572831e-06
2.6704153801571057e-06
3.85015729687875e-06
3.817229341304567e-06
1.883987818861923e-06
-2.0998310638493453e-06
-7.361146467025015e-06
-1.204858356164879e-05
-1.3518989918888033e-05
-9.180457444371414e-06
2.200593910038305e-06
1.9103069894463657e-05
3.640192775351539e-05
4.580204974740203e-05
3.808622221504175e-05
7.1223372736523725e-06
-4.5323899841263174e-05
-0.000105875011830713
-0.000149394601542567
-0.00014454983552877044
-6.56563398882725e-05
9.138531873971354e-05
0.0002945403976068616
0.00047045320821237894
0.0005166130841242178
0.00033494945716263633
-0.00011726196613765431
-0.0007742207339022842
-0.0014310369758521793
-0.0017639635560438719
-0.001420926521766845
-0.00017851904912661603
0.0018733748548210914
0.004194345568922902
0.0057988564331549934
0.005484545523767358
0.002300440403654288
-0.003836384136867257
-0.0115938437209711
-0.01805907076599032
-0.01926069721516868
-0.011530023132341168
0.006464711323737644
0.031588544993733564
0.054948574260210964
0.062467209108747215
0.037978527153149436
-0.03138520063011302
-0.14897290302147756
-0.10405049000463118
-0.07152282931803182
-0.01736732150053971
0.09108683817782533
0.2733379116018549
0.12706057226095563
0.026784190393368906
-0.06860203358803267
-0.20176951431869905
-0.2015679498305581
-0.07237942900096785
0.007612837476959171
0.07867800044754301
0.18547853609326195
0.16213114355944452
0.02181118283403581
-0.045805946991034324
-0.06921242687318888
-0.08467606207554265
-0.12500293419992972
-0.011278661084783372
0.050277025674760084
0.0663936004104845
0.05161296699319405
0.022476486975606454
-0.006914352261733843
-0.027093907442894527
-0.033475317501861585
-0.025585953351301996
-0.006257786868214281
0.018736655588063023
0.040763038098163326
0.04876441741027126
0.030758878111502495
-0.02338104316343401
-0.11848551160525367
-0.05137140011920016
-0.010382632791968197
0.02207104852672875
0.0646307864569087
0.1316452129944567
0.0296177356403427
-0.04305666889922024
-0.09314445337782667
-0.1280978174681342
0.047594233026404156
0.033558222465434884
0.03207792690765615
0.04529199494064004
0.07275525668983472
-0.08944980363926908
-0.047877300139072806
-0.009895108708307463
0.018085678742721743
0.03171331434384375
0.029221589407546773
0.011856959574281086
-0.015490265734634698
-0.04367971439681851
-0.05946842178684127
-0.04724945930253194
0.007254375974300951
0.11194820116689734
0.06362416203279489
0.04565382984599145
0.029714340217171453
-0.018274995577367652
-0.12951850075317323
-0.12375464403796327
-0.00366189542387268
0.045835107146849526
0.053372340961179904
0.053891211797329974
0.0809360924390367
-0.03932666125129769
-0.09143659554404691
-0.07168912708159024
0.012069153603600473
0.14126524122226272
0.08844227244441219
0.02116090783912981
-0.09155860809973687
-0.07132811946109427
-0.12354505307784208
-0.034417450326159726
0.02648603273688471
0.09852647093757395
0.019394619345819486
0.01483685005461449
0.09166555787515625
0.03594076829842111
0.016853182457914482
-0.0045686675399090135
-0.06416959246846202
-0.18408772989424899
-0.16644778281828376
0.006063951830370539
0.16245165872971795
0.13119900936530726
0.1285049906595096
0.15195323696724727
-0.017591905135625557
-0.20655249233139605
-0.2356990756682839
-0.10948474243766017
-0.012562631778556517
0.08486993781306701
0.21533252765568983
0.2012215887249349
0.046516208141227394
-0.06356973734281958
-0.15534858789246017
-0.2556258407054016
0.017932510850974803
0.06108694551363829
0.08107010497172343
0.09052002369709722
0.1008403788299716
-0.08204612933899862
-0.05839578419348153
-0.032541467424473385
-0.009782181575506756
0.0060805451056319074
0.013784818191623223
0.014349094730505097
0.010109258392525144
0.003690131217258339
-0.0026773671329795943
-0.007389841464365427
-0.009400603089528831
-0.008101291764004355
-0.0033737657113930243
0.004124548364693654
0.012578626998828706
0.018831957847642494
0.018728180950757782
0.008159070455801548
-0.015319809209317924
-0.05084281113728899
-0.0933769549272846
0.06561492321818849
0.03585911967908248
0.025054578402005222
0.03610339515932225
0.06602612116809921
-0.09294532136002001
-0.05058290073446408
-0.015422120575445066
0.007578418436923839
0.01771178099827335
0.017644944199055084
0.011707553643350145
0.004170966686283235
-0.001917295973185383
-0.005153375207829427
-0.005569170102353421
-0.004075029826789687
-0.0018446656935107396
0.00015063823693482333
0.0013712295855029622
0.0017186431316191788
0.0014038633392543175
0.0007675140385660047
0.0001257641474370543
-0.000319451189026192
-0.0005015452225376291
-0.0004603888734452172
-0.00029080732977019127
-9.284102525409738e-05
6.135984610045366e-05
0.00013978901318777056
0.0001458210242702633
0.00010416526792510253
4.532585602243771e-05
-6.038222338535383e-06
-3.665551701051264e-05
-4.45981704938581e-05
-3.571694350106286e-05
-1.8959979064602736e-05
-2.444978965092628e-06
8.767120266383379e-06
1.312764723199331e-05
1.1793192665556208e-05
7.271417185329279e-06
2.1429032553283603e-06
-1.7703175316998546e-06
-3.6943340222436544e-06
-3.7597467898357212e-06
-2.6287515780542694e-06
-1.093415634633051e-06
2.1900568709950427e-07
9.81134029800862e-07
1.1574197149261436e-06
9.080496797774358e-07
4.671106617311192e-07
4.245448701134122e-08
-2.394803348688696e-07
-3.431953919173613e-07
-3.018029046860068e-07
-1.8150247228059083e-07
-4.878664775648372e-08
5.04007169637874e-08
9.744418858310124e-08
9.682484865134086e-08
6.624052476835078e-08
2.6233160977114363e-08
-7.261215013073089e-09
-2.6190175044584285e-08
-3.000050154969278e-08
-2.3056525685448922e-08
-1.1473193309864577e-08
-5.663369075264049e-10
6.511452457408042e-09
8.959408335869784e-09
7.714554234720666e-09
4.521293085530995e-09
1.090939026734482e-09
-1.419761517088212e-09
-2.5656614998561046e-09
-2.490678546074543e-09
-1.6665771834778235e-09
-6.254552489298071e-10
2.2833579615085578e-10
6.973616185989695e-10
7.766774116312275e-10
5.846758751958334e-10
2.8087228784047125e-10
1.0608693680071493e-12
-1.7631747625136999e-10
-2.3357137615673896e-10
-1.9696466121745286e-10
-1.1238359628213041e-10
-2.3821820238589587e-11
3.9642898266077246e-11
6.743782605235218e-11
6.39959300966833e-11
4.186255444625196e-11
1.480410237358109e-11
-6.933124993637922e-12
-1.852518826919333e-11
-2.0083313336097105e-11
-1.4806713541735202e-11
-6.850895833751452e-12
3.193412412524458e-13
4.756649199496792e-12
6.081061726385045e-12
5.022839144563812e-12
2.787011550025512e-12
5.032553442670778e-13
-1.0986940344911488e-12
-1.769709334497161e-12
-1.6424469502691007e-12
-1.0497669753342615e-12
-3.474119276442529e-13
2.0532662942717352e-13
4.910391001556882e-13
5.187014281213242e-13
3.744596812194221e-13
1.664259275885227e-13
-1.7101141451131983e-14
-1.2789336240317374e-13
-1.5811559658545285e-13
-1.2793420539852484e-13
-6.894482067829238e-14
-1.0122422533433681e-14
3.0251516003343674e-14
4.636261385432545e-14
4.2098241124389765e-14
2.627239506986199e-14
8.067769737085132e-15
-5.9635592557708405e-15
-1.2977952569253532e-14
-1.3365905407819183e-14
-9.443154796321332e-15
-4.021363251251884e-15
6.520845913482215e-16
3.390167066972517e-15
4.050133845603476e-15
3.1971688849015545e-15
1.6686795198478216e-15
2.100696997137335e-16
-7.312590981932285e-16
-1.046384848393491e-15
-8.846324279336994e-16
-5.168254148780974e-16
-1.9995799982158472e-16
-8.171170970111666e-17
-1.6179967858946231e-16
-3.1030761870256515e-16
-3.322273670078078e-16
-5.997744674092279e-17
5.508453192539601e-16
1.353364939030529e-15
2.0024324397675697e-15
2.0354466897605947e-15
1.0462266165639543e-15
-1.0798166411799317e-15
-3.945886686726957e-15
-6.551780556707683e-15
-7.44504437686005e-15
-5.179605822463279e-15
9.661824358681434e-16
1.0214569658032351e-14
1.9803982863739198e-14
2.5201195407729917e-14
2.1308976120989078e-14
4.651561784281412e-15
-2.397138898315598e-14
-5.739797325867771e-14
-8.194154026861216e-14
-8.034921662276557e-14
-3.8234842202869154e-14
4.716729194706117e-14
1.5889474379990183e-13
2.5716573696013673e-13
2.8573952283489254e-13
1.9007969598129002e-13
-5.4779965643517986e-14
-4.1476826745058273e-13
-7.793004338807313e-13
-9.7136554331387e-13
-7.962050333880907e-13
-1.2699205638276476e-13
9.932362395376298e-13
2.2741939017243386e-12
3.1778936030283526e-12
3.0400031931934492e-12
1.3239064080459534e-12
-2.0407124661352434e-12
-6.3525604223437574e-12
-1.0036480266464024e-11
-1.0912499317275308e-11
-6.919106550183561e-12
2.8020378813562946e-12
1.678473907524132e-11
3.0611603289817526e-11
3.737804387975603e-11
2.965134525288951e-11
2.8270999660803716e-12
-4.0960016543251297e-11
-8.99766808531199e-11
-1.2310196722173672e-10
-1.1478727448352445e-10
-4.507718846392069e-11
8.730966230390641e-11
2.5351012986786017e-10
3.9124402579080615e-10
4.161106620971114e-10
2.503436453974129e-10
-1.350136581116405e-10
-6.775070614392735e-10
-1.2009924598402923e-09
-1.4364537464460552e-09
-1.100673129113424e-09
-2.7562990326556227e-11
1.6819970839123616e-09
3.554919587466988e-09
4.763014340283988e-09
4.325023305160027e-09
1.5013573409679651e-09
-3.7011484926274895e-09
-1.009935563725098e-08
-1.5234131556508817e-08
-1.5841629209010844e-08
-8.9946899037102e-09
6.259174486561785e-09
2.7282217786251136e-08
4.706250627600904e-08
5.51306150926894e-08
4.071231911884183e-08
-2.138585424105874e-09
-6.880754871533161e-08
-1.4026361398860925e-07
-1.8407049505842608e-07
-1.6259090849046277e-07
-4.851610197321408e-08
1.5568088854061928e-07
4.016777234703113e-07
5.92504543752966e-07
6.020959796440111e-07
3.205305563289328e-07
-2.82427556719059e-07
-1.0961757520445238e-06
-1.842032994890479e-06
-2.113021048145232e-06
-1.4999631740891981e-06
2.081421265544524e-07
2.805108699429419e-06
5.527026567187383e-06
7.10501090382858e-06
6.09742920572963e-06
1.5000967892909939e-06
-6.5049336490095805e-06
-1.595056177586181e-05
-2.3017966939392362e-05
-2.2843801737542174e-05
-1.1310675112536084e-05
1.2490718637709495e-05
4.395134972402211e-05
7.201214843763283e-05
8.087012566295398e-05
5.5012545984508074e-05
-1.2970106880316652e-05
-0.000114029825834535
-0.0002175681947393191
-0.0002740072289934005
-0.0002282037991922782
-4.338756919380084e-05
0.0002700726750869196
0.0006324598116503393
0.0008938269085664613
0.0008672876962612319
0.00039994928722558303
-0.0005315754042518044
-0.0017338590988512689
-0.002765428248401626
-0.0030099118843125113
-0.001879113290758402
0.0008763303762966033
0.004834491719412725
0.008689752079231528
0.010318165381189263
0.007222172837850924
-0.002685194814380067
-0.020198215412382245
-0.04426302025883119
-0.07220115967291416
0.09911733001659528
0.07159040147054774
0.044736158486622865
0.016149643104322212
-0.01621973765570884
-0.25108861964921364
-0.08222712768631193
0.09998273753115106
0.10372398298753543
0.12985473700002245
0.16843981318686505
0.00044132679129041933
-0.1952193900305413
-0.23205240194983923
-0.10856406593973351
-0.007186748275226114
0.09918951683769611
0.23568955322716814
0.21419603321851416
0.027721912835087972
-0.14680270208303822
-0.13854546803853468
-0.17015467603948375
-0.048046664929178445
0.04055612652277621
0.12317301170247222
0.03250197196393559
-0.004467666274719924
0.024880684521366832
0.11464819253644329
0.041711240164446335
-0.027902590319695705
-0.12922577740279262
-0.08807781122286308
-0.11373743609903803
0.002857736199524256
0.08485282405106155
0.16101025322167622
0.056480816394541694
-0.013745407081924817
-0.046820496836638296
-0.04973347848354427
-0.034582308826684
-0.013670261492613087
0.00394119384368965
0.013803276817208806
0.015636727414055415
0.011824999180261834
0.00566771806083788
3.416478397227403e-06
-0.0035188134036766095
-0.004536318424088153
-0.003639073459546568
-0.001859336956206778
-0.00019579518063787677
0.0007054845418879049
0.0006785353365777541
-2.3560215117596583e-06
-0.0007805155812312453
-0.0010413920708720675
-0.00035635061741122134
0.0013041251885377663
0.0034482246512134605
0.005099610661333403
0.00504746060339679
0.002312485998755755
-0.0032599419519022256
-0.010479434220793065
-0.01664774495287934
-0.018036838275923447
-0.011151922697010139
0.005365561621976056
0.028721461135379756
0.05070152388157184
0.05811204275617544
0.03556063688289506
-0.029605519475602117
-0.14151369163049055
-0.09139577355933821
-0.05702160215872757
-0.007208434769600433
0.08939934949305017
0.25422721045965196
0.09141501608582743
-0.01339363565845639
-0.08720307772045599
-0.15906639322448113
-0.2493182101939423
0.03668914546133001
0.10786840038773181
0.18061239491195286
0.06961612976499168
-0.019407948318769797
-0.09246009857750999
0.03472219944340835
-0.058316699332926124
0.009173693513113609
0.024294362233174813
-0.016155171295278152
-0.10466297246171608
-0.024569142205153445
0.04594714377209583
0.1283588938315613
0.03847663444922293
-0.01678600833395885
-0.03953702876754003
-0.03830117188261434
-0.024120151085777315
-0.006970306818707505
0.006439882554839151
0.013226325280000407
0.013610630031679545
0.009594445887188748
0.0036650853374519416
-0.0020675930966445955
-0.006202574612503944
-0.007987684064640973
-0.007123642365949963
-0.003665229383824061
0.0018755006890984925
0.00829338142132693
0.013540839715021543
0.014942736450947949
0.009974727365892177
-0.0024156004223589845
-0.020276724171508064
-0.037532787435915316
-0.04401344372461283
-0.027168702032315473
0.024576502873412082
0.1176989965659869
0.05025211356116512
0.010967087681021219
-0.018424320713103202
-0.0582650918285863
-0.12531275587984175
-0.02862685851341932
0.03136766353233875
0.060477698200017346
0.06639991165866065
0.05467852597292479
0.0269150949044373
-0.01800692812243052
-0.08042934820508117
-0.15610527587986056
-0.034356176850774495
0.1003377913554776
0.0636181669246608
0.0654680046007197
0.10612132374118707
-0.02436870252606716
-0.1426829021720141
-0.06650143705019071
-0.009034087390031866
0.024031885091145552
0.034447722546491776
0.028947889036494798
0.01591916927967616
0.0025633376715385545
-0.006687370949784677
-0.010412189746731746
-0.009476782430217144
-0.005894928500672986
-0.0017672451607634013
0.0014094821000548406
0.002987748518179659
0.0030587201014014745
0.0021517391215909037
0.0009076979222668385
-0.00016221388825015274
-0.0007885469999486488
-0.0009389855017942714
-0.0007414150901418094
-0.0003852488130754214
-3.978413352751207e-05
0.00019119404794947712
0.00027771419499076803
0.0002458553631445464
0.00014903053005589105
4.1293028025764556e-05
-3.975335145315168e-05
-7.863858046741785e-05
-7.87212814935687e-05
-5.4226287488518484e-05
-2.1818187762306107e-05
5.491166300136017e-06
2.1058587939770136e-05
2.4342109206768843e-05
1.8829239953072544e-05
9.469602540146158e-06
5.945362564061606e-07
-5.206453243068889e-06
-7.253459907584523e-06
-6.2868676081646074e-06
-3.7148624061058118e-06
-9.290666546316351e-07
1.1233209039154906e-06
2.071666161790095e-06
2.025722931047222e-06
1.3649810723244932e-06
5.212683447971943e-07
-1.7512612050889603e-07
-5.611531489442732e-07
-6.304256415127124e-07
-4.776743310576913e-07
-2.320716800571645e-07
-4.3035194550813886e-09
1.4115617808051745e-07
1.8917809519653375e-07
1.6057289704978975e-07
9.240257675266153e-08
2.045510363046685e-08
-3.1447273757298166e-08
-5.4481863847236e-08
-5.206791565502559e-08
-3.430442033890377e-08
-1.2367779462940301e-08
5.368971513368877e-09
1.4917520429241077e-08
1.6307596534596033e-08
1.2102029417190943e-08
5.667284250682805e-09
-1.7143160238883166e-10
-3.812356902265794e-09
-4.9273220106090745e-09
-4.096339717884149e-09
-2.293202369887834e-09
-4.3720876211494184e-10
8.734831729298266e-10
1.430434598612193e-09
1.336793584285372e-09
8.606971380035237e-10
2.9106525011412946e-10
-1.6012447050465611e-10
-3.956788391855818e-10
-4.2134052927783363e-10
-3.061930134801935e-10
-1.3785596652523122e-10
1.1644399552521816e-11
1.0260806112889152e-10
1.281685022536866e-10
1.0437539481084051e-10
5.6773676965737376e-11
8.950750616440028e-12
-2.4099741610858984e-11
-3.749715999859542e-11
-3.42816613290982e-11
-2.1557199611341897e-11
-6.7838579750718554e-12
4.6791868629530476e-12
1.0473210393770119e-11
1.0873500740508503e-11
7.736146180904512e-12
3.3386931750821575e-12
-4.848356248088972e-13
-2.7529470630361066e-12
-3.329630926980437e-12
-2.6562582946481718e-12
-1.4019010887056987e-12
-1.7107279487505234e-13
6.610643651434159e-13
9.814527072082978e-13
8.781325091747006e-13
5.389333391045511e-13
1.5625529702053362e-13
-1.3460479503005353e-13
-2.766705546971063e-13
-2.802886611582919e-13
-1.9517734929494555e-13
-8.046335802520956e-14
1.7210665016591017e-14
7.364560153160665e-14
8.638912370601481e-14
6.751363969506749e-14
3.4517438514048014e-14
2.8755641762316905e-15
-1.804263610781241e-14
-2.5652726438439514e-14
-2.246924016885539e-14
-1.3448931028983569e-14
-3.5481987953671242e-15
3.822311870349127e-15
7.293541038512746e-15
7.21512624661886e-15
4.915165741139298e-15
1.9267330998643943e-15
-5.654534791738451e-16
-1.966518941474137e-15
-2.240302000418278e-15
-1.715437250739279e-15
-8.489031912958588e-16
-3.638900205448708e-17
4.885821884795892e-16
6.679144375465703e-16
5.726271765201224e-16
3.3329048284424707e-16
7.743937619908652e-17
-1.0908017620889254e-16
-1.935694377179989e-16
-1.8715428156526556e-16
-1.252207823032758e-16
-4.7471109470719484e-17
1.6041750053427944e-17
5.074150509332491e-17
5.638982750366776e-17
4.189489131972871e-17
1.917442273174597e-17
-1.6658409566566127e-18
-1.4817903296337964e-17
-1.9004195794186687e-17
-1.6212105731171784e-17
-9.875166805124452e-18
-3.2712827635251208e-18
1.4422492759426212e-18
3.4898834366373345e-18
3.2121963280247515e-18
1.5497781295843524e-18
-4.704289904708834e-19
-2.087071224237183e-18
-2.9442522491270164e-18
-3.0536019220269122e-18
-2.6556716866431383e-18
-2.060850514162495e-18
-1.526929135286337e-18
-1.1980316455851989e-18
-1.1014193028419144e-18
-1.1819089623458756e-18
-1.3493592117519455e-18
-1.5196175651922024e-18
-1.6385618422831039e-18
-1.6879478703771603e-18
-1.6779218798743157e-18
-1.6334299585602086e-18
-1.5810038152616925e-18
-1.5399051830380535e-18
-1.518789502371874e-18
-1.5169022151214454e-18
-1.5277699823402088e-18
-1.5433195218791568e-18
-1.5569826595878522e-18
-1.5651916848166075e-18
-1.5673898992343807e-18
-1.5650993814686309e-18
-1.5606829102511164e-18
-1.5562984335492571e-18
-1.553301392053639e-18
-1.5521167881851217e-18
-1.5524483734431612e-18
-1.5536359136857804e-18
-1.5549947446859838e-18
-1.556038240024749e-18
-1.5565568219459174e-18
-1.5565815637895373e-18
-1.5562861187242658e-18
-1.5558802062452135e-18
-1.55553097055386e-18
-1.5553264970106423e-18
-1.5552773801309381e-18
-1.5553418793277696e-18
-1.5554581553383156e-18
-1.5555709347383827e-18
-1.5556463342200968e-18
-1.555674570506709e-18
-1.5556641600198875e-18
-1.5556325424741169e-18
-1.555597365552124e-18
-1.5555709055311534e-18
-1.5555582119372329e-18
-1.5555581870802666e-18
-1.5555661859756604e-18
-1.5555767675519849e-18
-1.5555856836868551e-18
-1.5555907657553258e-18
-1.5555918371434102e-18
-1.555590036732451e-18
-1.5555869806366306e-18
-1.5555840829884728e-18
-1.5555821891564834e-18
-1.5555815210227708e-18
-1.555581836776943e-18
-1.5555826766149886e-18
-1.5555835861784292e-18
-1.5555842562348827e-18
-1.5555845658053782e-18
-1.5555845507504919e-18
-1.5555843349870287e-18
-1.555584059507983e-18
-1.5555838321459246e-18
-1.5555837061266072e-18
-1.5555836835267925e-18
-1.5555837334117043e-18
-1.5555838136051342e-18
-1.5555838879695936e-18
-1.5555839354571128e-18
-1.5555839511307365e-18
-1.5555839417870412e-18
-1.5555839195275184e-18
-1.5555838960367346e-18
-1.5555838790919063e-18
-1.555583871572785e-18
-1.555583872362327e-18
-1.5555838781628835e-18
-1.5555838853253426e-18
-1.5555838911160938e-18
-1.555583894233209e-18
-1.5555838946866157e-18
-1.5555838933132068e-18
-1.5555838912121645e-18
-1.5555838893058789e-18
-1.5555838881172512e-18
-1.555583887753358e-18
-1.5555838880247774e-18
-1.5555838886135483e-18
-1.555583889219526e-18
-1.555583889647432e-18
-1.5555838898292332e-18
-1.555583889798624e-18
-1.5555838896431593e-18
-1.5555838894571715e-18
-1.5555838893098663e-18
-1.5555838892329705e-18
-1.5555838892246037e-18
-1.5555838892622065e-18
-1.555583889317171e-18
-1.5555838893659812e-18
-1.5555838893956773e-18
-1.555583889404019e-18
-1.555583889396248e-18
-1.555583889380705e-18
-1.5555838893650908e-18
-1.5555838893543008e-18
-1.5555838893499278e-18
-1.5555838893509784e-18
-1.5555838893551336e-18
-1.555583889359957e-18
-1.5555838893636995e-18
-1.555583889365591e-18
-1.5555838893657214e-18
-1.5555838893646968e-18
-1.5555838893632608e-18
-1.5555838893620126e-18
-1.5555838893612721e-18
-1.555583889361084e-18
-1.5555838893613039e-18
-1.5555838893617137e-18
-1.5555838893621157e-18
-1.5555838893623872e-18
-1.5555838893624918e-18
-1.5555838893624577e-18
