0
9.448023084306442e-06
9.448023084325414e-06
9.448023084347319e-06
9.448023084363068e-06
9.448023084361325e-06
9.448023084332795e-06
9.448023084275993e-06
9.4480230842025e-06
9.448023084138847e-06
9.448023084122116e-06
9.448023084187785e-06
9.44802308435132e-06
9.448023084588933e-06
9.448023084826522e-06
9.44802308494698e-06
9.448023084822963e-06
9.448023084373683e-06
9.448023083631764e-06
9.448023082792978e-06
9.448023082214471e-06
9.448023082332415e-06
9.44802308349293e-06
9.448023085729229e-06
9.448023088563644e-06
9.448023090946486e-06
9.448023091441341e-06
9.448023088708488e-06
9.448023082221266e-06
9.448023072997546e-06
9.448023063994599e-06
9.448023059777388e-06
9.448023065202021e-06
9.448023083191562e-06
9.448023112173501e-06
9.448023144245325e-06
9.448023165394916e-06
9.44802315885976e-06
9.44802311179142e-06
9.448023023859324e-06
9.448022914679443e-06
9.448022825724768e-06
9.448022812573138e-06
9.448022925704361e-06
9.44802318266376e-06
9.448023540299326e-06
9.448023880797222e-06
9.448024026406558e-06
9.448023792249002e-06
9.44802307329325e-06
9.448021942462075e-06
9.4480207179847e-06
9.448019948951028e-06
9.448020278708702e-06
9.4480221825196e-06
9.448025635779837e-06
9.448029836007415e-06
9.448033146815613e-06
9.448033420330436e-06
9.44802875881951e-06
9.448018595119602e-06
9.448004744448693e-06
9.447991892640947e-06
9.447986953075696e-06
9.447996952572701e-06
9.448025634289945e-06
9.448069707087177e-06
9.448116384535891e-06
9.44814417494781e-06
9.44812842007317e-06
9.448051609171135e-06
9.447916157261985e-06
9.447754780489863e-06
9.447631960714244e-06
9.447630605464536e-06
9.447821884408453e-06
9.448223342606713e-06
9.448759128599113e-06
9.449243165169324e-06
9.449406873188121e-06
9.448983645700789e-06
9.447841381469118e-06
9.446125658187983e-06
9.444349162568328e-06
9.443352110309552e-06
9.444078280263053e-06
9.447170014048634e-06
9.452476694729733e-06
9.458668715897394e-06
9.463208414230216e-06
9.462899483167067e-06
9.455079874856375e-06
9.439243806812413e-06
9.418542584116444e-06
9.400354265052157e-06
9.39510095629818e-06
9.412879466328485e-06
9.458296598576418e-06
9.525012264540758e-06
9.59251008110694e-06
9.627979862240617e-06
9.595351380318292e-06
9.471178211230632e-06
9.263519811994464e-06
9.026256661391914e-06
8.859132906173284e-06
8.885221297798683e-06
9.203811312617565e-06
9.827672913699849e-06
1.0626544669075087e-05
1.1308309134631688e-05
1.1469007477251252e-05
1.0727001637611912e-05
8.924008283325741e-06
6.332745772201475e-06
3.7727002734485683e-06
2.5236288953347662e-06
3.9620274002602185e-06
8.938918050412873e-06
1.7055449502376417e-05
2.6133993570297175e-05
3.2258864710268086e-05
3.0697221629875565e-05
1.775719838075633e-05
-6.78846055420278e-06
-3.757944051193223e-05
-6.306633470773966e-05
-6.761010615928813e-05
-3.681564367737149e-05
3.465184322732053e-05
0.0001351784540841114
0.0002320868871155509
0.0002755133913694184
0.00021300423242826864
1.3860275854459185e-05
-0.0003031089815508842
-0.0006501185225142455
-0.0008736264685267341
-0.0007918078182363549
-0.0002676750390571845
0.0006975418842282623
0.0018850892450135842
0.002840824190091011
0.002963415111555412
0.0017168795994447603
-0.001065030118749545
-0.004879585073224229
-0.00841276426168432
-0.009718785741921166
-0.006828436516812253
0.0012466778111587266
0.013344337936275189
0.025234668955432228
0.029451857393732517
0.016238475610586993
-0.02441478835247779
-0.10018416288686567
-0.014237623901972729
0.03565649212199007
0.0565375765741844
0.05884198000067506
0.05521396220213849
-0.13989653174432726
-0.11032008336676347
-0.03919392076881845
0.088081584368334
0.07933937884698422
0.13152484806945944
0.02939721112712601
-0.05151650309503471
-0.1382724539766587
-0.0525539425336278
-0.004433117506998234
0.009969136985908497
0.00643325586432829
0.007250819177054524
0.03437371893782981
0.10313635263582087
0.018269592152298397
-0.026818656092775783
-0.047650715081702766
-0.06447560885352371
-0.09813116106253504
0.0325137100308154
0.11119657556735259
0.12403744946937562
0.06026016805512805
-0.08491289318854398
-0.10572131127975838
-0.1820664373075797
-0.07947890458588047
0.04533340534953302
0.23417668216782248
0.11580866216195182
0.09777461214331956
-0.03492265338798169
-0.11386095114110022
-0.17660283830857945
-0.05580723127644119
0.028050852476770832
0.06858716360990313
0.0708281266687924
0.046353096770811175
0.00877400765515904
-0.028999105231941293
-0.055688368286668954
-0.061807936834975236
-0.040341874109917124
0.011363909861266749
0.08894846555767233
0.1792161750937438
0.061173862767645366
-0.08888801994095162
-0.08908647286327295
-0.14340431265316617
-0.23690473350808697
0.06228977737020936
0.19397303481599057
0.19281195659807274
0.07645070532585162
0.039532443947620025
-0.14436176418788482
-0.11435819305631151
-0.11137948253286682
0.031225271679522784
0.0930514496662251
0.06787980766152818
-0.037729640910971446
-0.006812914373576366
-0.014508155362921138
-0.030770754012463788
-0.023729023111555742
0.036104661254947275
-0.028957276595593898
-0.008382401966133322
0.09325855298584443
0.055450134328182896
0.04436141719001428
0.019223595340016407
-0.05850298968091025
-0.21549902963775855
-0.0596126142972839
0.02179235515764233
0.05733185103479343
0.0825426839430003
0.12961746870457583
0.019495956724411803
-0.041385259334461216
-0.05940975208969591
-0.04873134423971745
-0.025295240278699102
-0.00207543655430102
0.013351683135287302
0.018891049103575735
0.01641518745378801
0.009650262691010934
0.0023031007508763236
-0.003097694539055427
-0.005559888321153155
-0.005373964768676489
-0.003554338694958057
-0.0012620390064933048
0.0006060088538776436
0.0015972854422393289
0.0016853474897683492
0.0011336644169057327
0.0003264835038339564
-0.00037357475030707705
-0.0007159300568049047
-0.000602672141669575
-9.386468040064664e-05
0.0006105742384702718
0.0012109277439914167
0.0013766949994056875
0.0008497852404876217
-0.00042839448774172284
-0.002201539700308076
-0.003854124060446318
-0.004503983041225253
-0.0032719887736272642
0.0002946438829304018
0.005760189596081679
0.011502991531232793
0.014826768620749105
0.012668512174733677
0.002910785315028245
-0.013979137453836927
-0.03356961757485338
-0.04712200130497634
-0.04297316419437565
-0.00984869929595889
0.058532504654395134
0.15914456099754973
0.07774321759105302
-0.008984709531179651
-0.12714512437910155
-0.09724677140071264
-0.12706492358008484
-0.008848644545296871
0.07788854333923692
0.1592369326021096
0.05850856202643359
-0.010030179453880626
-0.043303203975880965
-0.04751883803219832
-0.03387633652869383
-0.013995483372863429
0.0033571226154088685
0.013622528621232881
0.0161109822773216
0.012675833717071218
0.006179773331243319
-0.0006820930496771393
-0.005974208260575776
-0.008604039139385698
-0.00815005843061775
-0.0047056090131301935
0.0011036181475933156
0.007953075722376864
0.013699411752157017
0.015585645668438593
0.010991281436175454
-0.001264107028251973
-0.019370576406487903
-0.037344438806838264
-0.04496597119783783
-0.029413363614271555
0.02139682147204175
0.11458335478908972
0.04873752217932615
0.012693861880916275
-0.012458383909596771
-0.048574029430002434
-0.11455453773531413
-0.021541216219867494
0.029102644967747827
0.04456226237268043
0.03699480195370689
0.019273770040247225
0.0016096729080710048
-0.010117326421355745
-0.014301860268453488
-0.012390181497939483
-0.007235642225432418
-0.0016613811334463982
0.0024196360028491256
0.004268988636134697
0.0041207533921231035
0.002749733891789609
0.0010298504702160938
-0.0003757809810310413
-0.0011448434467797733
-0.001271534295261887
-0.0009523313504399883
-0.0004505356407296695
1.0330721078244038e-05
0.0003016010336474102
0.00039474872057732616
0.0003335098227911857
0.0001937093346730382
4.783027845213091e-05
-5.637016036451017e-05
-0.00010168749731592816
-9.563174114515194e-05
-5.902065451955939e-05
-1.459687364180742e-05
2.0797755011773527e-05
3.935698246113447e-05
4.148814653339984e-05
3.271917730845767e-05
2.010145801695137e-05
9.386664044155585e-06
3.5637977930953374e-06
2.7378460037382616e-06
4.962500132590643e-06
7.5182731444355635e-06
8.179135112529584e-06
6.136397874039046e-06
2.3754761961244893e-06
-5.93045254530374e-07
3.5959586630944226e-07
7.58594081093803e-06
2.1124448086441137e-05
3.75662517388787e-05
4.999091307336587e-05
4.953301922389716e-05
2.8716513133907314e-05
-1.405303820311888e-05
-7.034643067093562e-05
-0.00012012394718806943
-0.0001349375836440352
-8.710796545788184e-05
3.618015177170924e-05
0.00021794715432403903
0.0004025140837036171
0.0005005000099731543
0.00041332120510336715
7.643636243618494e-05
-0.0004890909004435098
-0.0011372899529761586
-0.0015967177155094072
-0.0015313783230208541
-0.0006687691843418405
0.0010291299777009312
0.0032113368410765326
0.0050856332659362955
0.005553878141396827
0.003577190656857857
-0.0012755021837553633
-0.008259832460184184
-0.015139393378999728
-0.018425809958646757
-0.014389157494521495
-0.0008061927349602687
0.020952166750341842
0.04426466047933125
0.05700163698046937
0.04345778099145966
-0.011385759945938084
-0.1161641515754684
-0.06790328054107746
-0.04956444537612893
-0.03200832687286591
0.019523259100645195
0.13611735522606389
0.1361173551919932
0.019523259000193624
-0.03200832703022224
-0.04956444556336681
-0.0679032807054285
-0.11616415164085678
-0.011385759832720955
0.043457781329433884
0.05700163751116527
0.04426466105953693
0.020952167128821184
-0.0008061928580300212
-0.014389158348374507
-0.018425811547430015
-0.015139395348105772
-0.008259834061838662
-0.001275502416707113
0.0035771927012542446
0.005553882777539317
0.005085639713848044
0.003211342975290639
0.0010291325935470788
-0.0006687734179229834
-0.0015313912952282115
-0.0015967381056809992
-0.0011373120182445078
-0.0004891047390677831
7.644234529004617e-05
0.000413355565946303
0.0005005622866340008
0.0004025897883473309
0.0002180067723702447
3.618496522063693e-05
-8.71921390353223e-05
-0.00013512091278535017
-0.00012037363688205857
-7.057794696194947e-05
-1.4141737192975374e-05
2.8897239527449214e-05
5.005048853928628e-05
5.078556290812385e-05
3.840734814914906e-05
2.162444226622472e-05
7.300440094375637e-06
-1.0266252960215908e-06
-3.0357237216430924e-06
-5.330630535357642e-07
3.924979707643428e-06
8.159296498528096e-06
1.0971851715168838e-05
1.2203587674311317e-05
1.2396288449207458e-05
1.2282843727789441e-05
1.2324150628426345e-05
1.2453938446607595e-05
1.2111618288922573e-05
1.0553911926289945e-05
7.347087035067868e-06
2.862876481440655e-06
-1.4485886421111359e-06
-3.2273904151969346e-06
6.290298451454762e-08
9.908358486831729e-06
2.5360078799132327e-05
4.208246863483403e-05
5.254311296392481e-05
4.789822497054661e-05
2.1616001504060153e-05
-2.594618163057602e-05
-8.371426685901264e-05
-0.0001291385029535084
-0.0001326536720224079
-6.8185794270434e-05
7.196564628184527e-05
0.0002626653485578385
0.00043927015473085016
0.0005065558340285687
0.00036789607162770023
-2.793207132695833e-05
-0.0006351514979144977
-0.0012772416675771265
-0.001658034499630506
-0.0014381952015112178
-0.00037732485866109596
0.00149029908104622
0.0037134981478342028
0.005405135206419552
0.005427247034203894
0.002807789001060445
-0.0026819331931943213
-0.009980850542007907
-0.016511521893559103
-0.018574571346921098
-0.012539153593358901
0.003277014139831273
0.026529969987028827
0.049423134663369964
0.058915933483709215
0.03927249414393006
-0.02311846782374622
-0.13383897578676499
-0.08563768471188997
-0.057142868855211
-0.01655046250798169
0.07018078675380546
0.22916197750130815
0.07018059186581477
-0.01655053255876586
-0.057142333778470375
-0.08563617696650976
-0.13383654019887728
-0.023115766773453617
0.03927419821834935
0.058915109705939814
0.04941862732189645
0.02652180870113146
0.003267088998638099
-0.012546955797556936
-0.018575140825539987
-0.016500349176963178
-0.009956606196724319
-0.002648971089076463
0.0028382811947528386
0.005438799688205194
0.00538105228131531
0.0036449571682833515
0.001385270333212396
-0.00048825963802914444
-0.0015037911571093117
-0.0016196464107175884
-0.001093431891152727
-0.0003121010361146589
0.0003559635678323959
0.0006587420843630302
0.0005069721185613663
-1.9584404289684498e-05
-0.0006959969064977648
-0.001204287147120127
-0.001217535898685067
-0.0005150533987116264
0.0008893490287928006
0.002648094247414877
0.004070684718359738
0.004263920580709902
0.002445299108272328
-0.0016177365804097192
-0.007181648803204275
-0.012330547185130157
-0.014243881125632178
-0.010075735254010112
0.0016125111148282383
0.01921469582576006
0.03686312530725452
0.04437516746129532
0.02891526826899057
-0.02163963426821124
-0.11446462244303468
-0.04822989861972434
-0.011880402873072243
0.013358259534719806
0.049212176728147934
0.11452441891399272
0.020522615288786218
-0.031148058892024523
-0.04721171624417978
-0.03930285572348425
-0.0199315656685633
0.0006216709872876606
0.015752452807026147
0.02245337026276307
0.020398194652010464
0.010989915491007632
-0.003091242768398816
-0.017760546957899657
-0.027173829820607506
-0.023714284610608125
0.0012066443732603527
0.055440294435493725
-0.056140143318838875
0.06626896611565466
0.01615035166826534
-0.019287016148438505
-0.057669141702035576
0.08109202183339458
-0.022027761992249942
0.018160508609228992
-0.005920261299514819
-0.0925075918848499
-0.03008348381696503
0.0007430895800126347
0.023119749322814343
0.05863582308396874
0.12259611737147423
0.021709657547570628
-0.04483923550975456
-0.0814754560250445
-0.09146495083949867
-0.07385858000574844
-0.02399976563499241
0.06227769148539234
0.18262955775884482
0.12358439167207587
0.06048423518910226
-0.03663531316290582
-0.19270628634081924
-0.21691474862901586
-0.09662316916367546
0.0005305100084782536
0.11622148942279478
0.2863771151270694
0.12746927430113258
0.02984660385098699
-0.0391058840420204
-0.1233058806114703
-0.2625472606607581
-0.07932960955296717
0.027271322421249168
0.07905131073588408
0.10939907533967319
0.1516353867113259
0.029584634273415067
-0.046643107470096964
-0.07926738564720469
-0.07778458670283048
-0.05327178685621407
-0.014641093427068595
0.03204552115883853
0.08181252262109813
0.1283860669426927
-0.03676117262127609
-0.022765379754175846
-0.035515690317833304
-0.07337174410324304
-0.12475686974564129
0.030615521111294036
0.016494255930308052
0.05215704548035474
0.14453321145964176
0.08356936950771536
0.043226115476986335
-0.011385297093439597
-0.11261536389819274
-0.27857494636167485
-0.10580987093953337
0.03017030853148471
0.16609397614097138
0.1370855741983961
0.16331805693960716
0.04245402569368889
-0.049382895368152845
-0.148893503667469
-0.09286448532760881
-0.10630882166409755
0.004485290677558819
0.052283845981511506
0.06351860332728715
0.06993224852924469
0.10051988442262998
-0.023757463382984942
-0.0916269466633867
-0.10040112567416154
-0.054037125580160814
0.03795385924747628
0.16042235820912773
0.09255515888442525
0.009725283103764278
-0.11191017207395673
-0.08910691694220668
-0.1261282069897548
-0.012942298942939778
0.07175476218813426
0.1537083740389628
0.055249858449488556
-0.010477777197341933
-0.04134514043846221
-0.04420052673210602
-0.030566529625346166
-0.012086993749629361
0.0027622292169871016
0.010070667156230353
0.010154852714367753
0.006089367697265721
0.001816577907063547
0.000422070977556324
0.002961482964184723
0.00804678489718291
0.012273811663357044
0.011462072649178217
0.0025254890875534585
-0.01442757076360338
-0.03440984971635636
-0.04707432451801756
-0.03810574880347288
0.0073417237450164805
0.09980568712272975
0.04075082423514818
0.01970553799497155
0.014670784212244617
-0.0039291587320394086
-0.06669035620665385
0.0021696664748522086
-0.008957595367394919
-0.09573234608896411
-0.03849334358682373
-0.007049379411326681
0.03126625643423585
0.10238277502264859
0.2180745341872793
-0.026822501669336224
-0.0511524718402091
-0.07912741017269592
-0.13019491918731183
-0.21120265796391613
0.08599349180886769
0.18077121251197428
0.09596607597549082
0.04995439140317694
0.0520827170290815
-0.09724487295144166
-0.20308226674796587
-0.07192303886002964
0.09010699609445989
0.07585778778802417
0.07387737446778303
0.06590875404734407
0.027481580897850966
-0.06766522639016856
-0.04046224105816879
-0.09915644077629293
-0.03451950142665616
-0.019662145629964618
-0.015015352364424984
0.02262528509343939
0.1294410450057635
0.1254528620293657
0.009798633755613776
-0.03800054934171282
-0.05128014348861218
-0.06640193602065673
-0.11318366153541279
-0.00852222870414506
0.045249864702819026
0.05754155262692071
0.04398088824950322
0.020547865190428838
-0.0007246107660937222
-0.013608077529679288
-0.01726273416418733
-0.014374131286828339
-0.00884997659551297
-0.0039039846634130026
-0.000997203844650122
0.0002597347951543356
0.0014211049495798662
0.004083739208268122
0.008745727957380477
0.014058651665236437
0.016805530703051626
0.012764125215071262
-0.0016627519452796088
-0.02752292058006614
-0.06189578960580592
-0.0978825872066616
0.07343749499776966
0.059407643964616855
0.06195241651247604
0.07548693047816776
0.08813856213328271
-0.11354534558787308
-0.13803414308611908
-0.1834380666313897
-0.036481195215346346
0.12267791338511494
0.11114747412929916
0.13344887062527125
0.17581261732566295
0.00789187074121341
-0.20785371528216529
-0.1021832534926561
-0.08576904698224266
-0.14179723875731598
-0.027563349919205095
0.11506766313944211
0.14356757747341084
0.09827566496824998
0.19104327514492744
0.002733290523463527
-0.10982289383848726
-0.20022096894327654
-0.11742036825346616
-0.09467286868222777
0.05415088483921471
0.13080082170320861
0.14450881128991888
0.10398533468900673
0.01335633733809523
-0.12656234358310903
-0.11313151046689227
-0.13630419499827248
0.023929440505373448
-0.0046880605138492504
0.20708784185156565
0.08257752820365218
0.03384479901900104
-0.13951992925113352
-0.04772811442652919
-0.10629902343477705
0.06783784887350777
0.05833757203151109
0.049825233049775854
0.027935750023729593
-0.01988234218611078
-0.1026451993752348
-0.02402350993808928
0.018397257351782645
0.03214181849682086
0.02745590587670221
0.014493220508136324
0.0011158834757738435
-0.008114886089517045
-0.011765729436174675
-0.0105939597198331
-0.006395697920649361
-0.0010822032210508067
0.0038066472893459585
0.00718594412806206
0.008305189608287702
0.006665589331778859
0.002140375203834631
-0.004696391779776408
-0.012208001117756944
-0.017604032997100613
-0.017430226912494472
-0.008790956191602072
0.008858769599182737
0.031905604381826824
0.051621716197256196
0.05496865048634149
0.02767415336110039
-0.040766526861281495
-0.15162309991526354
-0.0932986349424332
-0.04176229327499743
0.03405760472533659
0.16320942846177586
0.1632356840674176
0.03413062390688383
-0.041660388628130186
-0.09319850003998838
-0.15156569517339832
-0.04079427847368637
0.027533626997868495
0.05472314156462072
0.05133141888109543
0.03168524920186355
0.00885439069752607
-0.008454507710636626
-0.01672241949581498
-0.01665837422894615
-0.011351817294337834
-0.004402598420434807
0.0014011450111869447
0.004657416329714413
0.005278141294611123
0.004032817338594206
0.001992391439507456
8.371005102512824e-05
-0.0011471256579255662
-0.0015655140551511086
-0.001339342719022157
-0.0007756256834657951
-0.00017375911699868556
0.0002649102462574877
0.00046368584685636073
0.0004484812332029106
0.00030195436079997253
0.00011696020780410868
-3.5849229188958924e-05
-0.00012138267072811838
-0.00013738105819105766
-0.00010260882775666569
-4.329637903652085e-05
1.7031102188144472e-05
6.235349092960909e-05
8.436049971582201e-05
8.040215579727358e-05
5.167429898043342e-05
3.119565258643534e-06
-5.508134672530607e-05
-0.00010606972698647311
-0.00012733642817563116
-9.619993749873403e-05
4.6084297893248305e-08
0.00015183216136804658
0.0003181819684954732
0.0004276219586158494
0.00039489016940258734
0.00015454441423478482
-0.00029530651031751113
-0.0008549576251706943
-0.0013129585995653927
-0.0013851785933907447
-0.0008124559047325559
0.0004973003561934503
0.002326857868274881
0.004077389895037631
0.004842565190792698
0.0036775972682660356
4.395529243124561e-05
-0.005687470497626776
-0.011889223940722081
-0.015749308172383396
-0.013974073542995544
-0.004150428083978802
0.013503626398375644
0.0346043021180845
0.05010701324785054
0.04760577316001501
0.014695063079057274
-0.056223814381865786
-0.16333325946909988
-0.09325640834248683
-0.02326450258223437
0.07192367682076539
0.2108476605964831
0.19741390427191843
0.018345957415462216
-0.15220739443822362
-0.14249740318267237
-0.17185928109008594
-0.043283881312296255
0.05700985456022088
0.15317116660625862
0.06956660251652501
0.021181874903926687
0.008110710280357059
0.0157081347841107
0.019987869400873978
-0.003538868836505232
-0.07017128612999922
-0.17845116797111887
-0.10757807271917341
-0.021621211260022054
0.11982950757248444
0.14764765109007352
0.2708395649294
0.0709511421100301
-0.09409465394531032
-0.2779520193855991
-0.13045857863081323
-0.08512313073591399
0.04596321163020567
0.06893754900732103
0.19947291424079105
0.05329387339602418
0.040313804620782635
-0.03525970347033568
0.03074245720876253
-0.14902158651905972
-0.14590318840384428
-0.11257611649586889
0.01246244213476364
0.0933699960786827
0.18143646163703916
0.1004640848146275
0.037893860116756134
-0.05546289156314908
-0.057137905205552286
-0.05867971233040886
0.05107987668231451
0.0017623988835870853
-0.04635832573163957
-0.09548846191326596
-0.11010009340505925
-0.024028839893975695
0.04580315448400053
0.18161012806774138
0.04707940745709087
0.07433662536537129
0.05879862360120772
-0.03715938864294199
-0.0732657054206729
-0.11652665842675473
-0.02664304995737908
-0.04526414681402587
0.008883942035564607
-0.061114921082880844
0.16407608742264276
0.11262262073168924
0.015000778807600855
-0.09970998770969744
-0.004537058551080933
-0.07379721486066274
-0.08285253503223919
-0.009952927382475349
0.15966191920782472
0.028668649101638348
-0.016323524728615257
-0.0058010807381075075
0.015330891098280933
-0.006233354569626438
0.07618555304925351
0.01877675984394383
-0.0036502384865881336
-0.19110932003481804
-0.3171289374199866
-0.13504771086943423
0.20791030471114613
0.352578128512
0.513477719277768
0.27664220696475766
-0.18593581226030292
-0.48878634878350935
-0.6041149117087553
-0.6470858733982082
-0.08701008522604618
0.4143056154953722
0.9490257318965981
1.1163117215190628
0.004222864048522819
-0.3877167817023489
-0.49094217154946557
-0.8965832243416899
-0.897930993459879
0.33179781667335806
0.5195206394039757
0.4402350068383625
0.4544414267703867
0.2580211380239408
0.05988941459417973
-0.20893961785613518
-0.26204293023008596
-0.41407112549197056
-0.3426404991312417
-0.06764268417493896
0.2473401609040409
0.275224618767211
0.2972015354529766
0.17778294700697964
-0.04835757488312409
-0.17533158505660615
-0.21446678071222772
-0.17954589494236511
-0.07617736381816274
0.10047144356188198
0.15978149812526796
0.1055308871187799
0.12684872972249495
-0.005450125973339477
-0.13564508197247893
-0.11449471579473523
0.011422140881215488
0.009014285564941259
0.06463168744851334
-0.013692628300295334
0.002815010808726365
-0.039954052394815184
-0.08518839683439586
-0.0739682699903598
0.04374719080817167
0.09750068281522785
0.08689834612099989
0.1777872865269178
0.1067836839301088
-0.005247189271025137
-0.23323343568610946
-0.22692413477877826
-0.19583676960966512
-0.10585336860385051
0.11066302784057136
0.33442511669591435
0.23571973202291135
0.056246895230309596
0.002206033770402022
-0.15036968326857228
-0.24188072727380355
-0.11350664903337601
0.004317575216669646
0.09612376688876469
0.15887698866289057
-0.004106064467727653
0.01094527718413603
0.00495977014475458
-0.02418558604249935
-0.07975829750679753
0.03629440048753376
-0.07504731989595279
-0.009914748948747535
0.03682443586534768
0.06924387938054838
0.08878987288638071
0.0948848394855742
-0.1117654906728666
-0.12420433586855374
-0.12513341662763003
-0.08661171569542503
0.024856806706128998
0.23879516574326223
0.17022709157994917
0.012575681628144196
-0.06288865044644551
-0.10088752543854877
-0.15197343259724214
-0.06227085437433397
0.13388038307578767
0.21756583913238206
-0.013630677333344636
-0.14561966638979854
-0.14875839622879602
-0.18132883435088457
0.002824074431945574
0.2429708059608033
0.36005621273344474
0.15056658898703154
-0.010057608481816157
-0.3545357926375945
-0.3067144889161058
-0.2687120608883997
-0.01921642305349955
0.27538348467042256
0.44193366210756024
0.28281625234798413
-0.03135913894869752
-0.1546339926910628
-0.34715721781629116
-0.2535334270173013
-0.08733414740643394
0.1724252890452592
0.17278304017934878
0.17121080468408337
0.01970067085547242
-0.046073991681472505
-0.010471637427065172
-0.07554662918573121
-0.05542592960757231
0.029702229682400078
-0.04206588754488895
-0.09253785768296911
0.056096201503700885
0.179681234891604
0.05129015515691043
0.04305827577977357
-0.06865719914235001
-0.09612790946993417
-0.2341802883520725
-0.05860989131902051
0.06896952777688302
0.1907273114468464
0.14040856319582593
0.1342960585840214
-0.03089864618256867
-0.17253617722730055
-0.11160510994562944
-0.06193051923701663
-0.02333213886499335
0.019068892864124762
0.08980521988619969
0.014625204703808918
0.01174293034376775
0.0855042367623554
0.024209482365287697
0.002643173046822987
-0.011351616699057097
-0.04804386616422637
-0.12730702500836785
-0.053132772684992995
-0.01312421979218847
0.016607934282455536
0.0625891659778258
0.14408714053667168
0.0655937348393047
0.014357755695030174
-0.0361424741648708
-0.11807932700052291
-0.059455994839028026
-0.07594928107724327
0.033157364068604464
0.0843028366851837
0.1053498635404066
-0.07033121579771479
-0.009699397685967682
-0.08519724999892349
-0.07953615985513976
0.00957760965920733
0.16542509359193627
0.15088900476584008
0.11219353202669818
-0.01073799070019582
-0.06837813758839803
-0.2842598996129284
-0.24230225867469005
-0.08454995046636787
0.07792293727811671
0.14293531160309417
0.19040793438565679
0.25953779605834704
0.3377051590793095
-0.23486784955090692
-0.34619862761120157
-0.08617984779875329
-0.12220087797195156
-0.2847376046157035
0.2335735437020278
0.2670439269314844
0.05984356075350697
0.04971471392975571
0.05786967724388896
-0.11300272523565026
-0.07401503155171348
-0.04194126908766195
-0.03121934063268144
-0.04864305320126248
0.10831597145908162
0.05009804601916516
-0.008062680244035716
-0.049623315579199245
-0.05995090092692366
-0.02933275248047939
0.04413821032788824
0.1523881633760884
0.07720323959710615
-0.00667348927917528
-0.1251760233351852
-0.09710905218157226
-0.12798363297530596
-0.00828960158787236
0.08282903257462697
0.1699882794521194
0.07337323570531848
0.0034322087818281447
-0.03959523467409623
-0.06172876946743825
-0.06918928577968597
-0.06319101932972279
-0.03791863228838487
0.017419150618985395
0.11326442320043324
0.05328733069147047
0.02954426738448188
0.021299199816922996
-0.0018066366575546485
-0.0730862194340014
-0.020589519379284132
-0.05968355630561521
0.011560269699225169
0.013037633026098687
-0.020758589744914374
-0.04743298820115995
-0.02549929486061186
0.07626762555513227
0.07096200155769328
0.14951288503426605
0.08251227013899667
0.02853171835179233
-0.25277936509262083
-0.18694699400665624
-0.1755989927486077
0.003774820128066252
0.18850763904279325
0.215343811561329
0.10514745109596857
0.05386424537810141
0.03311055045481463
-0.20016204255196787
-0.08880812254838433
-0.0608919954392307
-0.12029816976634711
-0.04534691244431451
0.2046319194536774
0.07739941072496445
0.014713756815990424
0.04201715503528232
-0.03672199144779548
-0.03865561398885728
0.002720348652129433
0.045123988448071764
0.046268688527820574
-0.027487814987302593
-0.1940757076550325
-0.05194806186338092
0.018893272953151023
0.05086092070317965
0.07942272328321508
0.13355062610570237
0.029235935715704625
-0.0319093775763526
-0.05897150842979273
-0.0649084399901435
-0.059526156825461994
-0.04497986926267632
-0.015326673711258667
0.039965058580544
0.13015726852614465
0.05756745880358119
0.014545894470576042
-0.015562096964027798
-0.05386861524640304
-0.11971294305353386
-0.02525050504340646
0.027149775454996052
0.04405170925969177
0.03747499642110346
0.02050044788085835
0.0036165319010348
-0.007226338045780792
-0.010720528034443748
-0.008935668163298107
-0.005407793364736289
-0.0032726386124311245
-0.00394168691498935
-0.006594253535532917
-0.008561287857087811
-0.006507889350762657
0.0018467208457609424
0.01591434325598121
0.030928075548094416
0.037777815810678794
0.02443855962236807
-0.021048141278756264
-0.10677106278080926
-0.033642288909782984
0.00604780593988319
0.027547220821337016
0.05049242322254276
0.0950336250810637
-0.02131106058791518
-0.08532448810398094
-0.08863019832517549
-0.028189186393667014
0.09239922040379463
0.061066870717012556
0.05633618370822262
0.04893981947606565
0.006789410445439287
-0.09745141140443597
-0.07838870998010264
-0.1324455004484806
-0.03744585049705338
0.04185758406031938
0.14367879814255166
0.09786608421918302
0.1174048848999823
-0.004189922316194262
-0.08888072828328966
-0.16543674430155478
-0.05973827026297601
0.012275644039474802
0.04696695104820029
0.0508793987530464
0.03601956980850849
0.014849443937062426
-0.0033020888788074434
-0.013730216031243362
-0.015980334672818453
-0.012358401187901885
-0.006166394443915884
-0.00029457133650702595
0.0035321121382389468
0.004863977443307545
0.004197502782420337
0.002471973914201506
0.0006131564618128032
-0.0007509538151883016
-0.001376921788222345
-0.0013407297039324984
-0.0008968682288760113
-0.0003334641268598389
0.00012990190574087553
0.0003854891438391534
0.0004299215674281966
0.00032691457463078353
0.00016276630980652606
1.114762837700555e-05
-8.524486821943519e-05
-0.00011664176622920046
-9.716558536823776e-05
-5.165249386822161e-05
-3.955191217636528e-06
3.0171247968699098e-05
4.505830200451309e-05
4.323246096127731e-05
3.163312481588797e-05
1.7788705989604122e-05
7.146273004600333e-06
1.9772657239059796e-06
1.66945385875767e-06
3.88339283822546e-06
5.98344657790572e-06
6.256474303117309e-06
4.602386587360421e-06
2.5513885793261407e-06
2.613092569517926e-06
7.1073312939579405e-06
1.678255526620114e-05
2.968250009109141e-05
4.081644404991622e-05
4.312871600934575e-05
2.9960955920100866e-05
-1.3649669846994622e-06
-4.593937037772875e-05
-8.935474848230273e-05
-0.00010937755444313234
-8.24270324195511e-05
5.554210299375932e-06
0.0001466437278031471
0.00030210413162352575
0.00040361230192453846
0.0003697783947945971
0.00013868306997949002
-0.00029030487156999626
-0.0008206487871565729
-0.0012498249819563694
-0.0013076082564466608
-0.0007499223668915489
0.0005057657881224517
0.002246156261592771
0.0038958112865611853
0.004591060284727886
0.003439184739219644
-5.7215065702471364e-05
-0.0055239805390873324
-0.011392358666739091
-0.014978840668240059
-0.013166217998465131
-0.0037075758339444815
0.013111113589300524
0.03303013857951499
0.04738286853067306
0.04438572066709734
0.012400685568727936
-0.055419913118769815
-0.15665590876731686
-0.07742945922726227
0.005767771017592521
0.12002991933218697
0.08761758508885778
0.11838562501736685
0.006108919863291229
-0.0699134178250482
-0.13887325226573138
-0.030695681403873742
0.030578990301308243
0.030451563247844468
-0.03553765518355873
0.036503294637636956
0.05628376194593983
0.03712561083847729
-0.005183550482446753
-0.05246172613376911
-0.08394235553072481
-0.07713445467907146
-0.010750531187648514
0.13042995209545996
0.15038881140944702
0.03892115365817009
-0.027047385947845278
-0.07768263574868081
-0.14197971712665744
-0.04020661391538932
0.02014168134574921
0.04373862981915236
0.04300427728396411
0.031990017473822456
0.020884975182840708
0.012796660846799379
0.003459826645228028
-0.01640794197139691
-0.057062428255947706
0.07470541696690511
-0.020879333320372027
-0.13496851381876235
-0.05120831440131354
0.05009742518158786
-0.014597670057228345
0.1608298792403083
0.16741356112480166
-0.018724800177350093
-0.030233338286474273
-0.09786042938979925
-0.23889694662146077
-0.049128867148484565
0.0985028309596657
0.048007347643061804
0.04949340289130422
0.1471843107352687
-0.030110818656284177
-0.07397843989612851
0.003382576364825961
-0.027490138069878545
-0.008069169862036553
