0
-1.0972573830667036e-06
-2.1871655578613032e-06
-2.8311578966339434e-06
-2.4530397138718366e-06
-6.458900145298297e-07
2.5291486248459973e-06
6.301323637336292e-06
9.158233925345075e-06
9.160693251969189e-06
4.650677710790654e-06
-4.7683741126848796e-06
-1.7303936330150062e-05
-2.8587171261640197e-05
-3.233060161382385e-05
-2.231305652409452e-05
4.515936039416741e-06
4.469245150624727e-05
8.616410175630307e-05
0.00010924467063833255
9.188494147076104e-05
1.9167402334470073e-05
-0.00010520267964677366
-0.0002499141019520252
-0.00035545728361227374
-0.0003470848396367646
-0.00016280474200836521
0.00020866379632063467
0.0006928939606983004
0.0011166786137297917
0.0012360484456805842
0.0008154239182672925
-0.00025142422151924965
-0.0018139422055519707
-0.00338991268919153
-0.004210488366752561
-0.0034324623864438806
-0.0005100768333234176
0.004364531223855744
0.009929881611963468
0.013859877084271385
0.013298105858758218
0.005966019647707561
-0.008369276796335881
-0.026587377143151528
-0.04181846082877004
-0.04471530450214309
-0.026801812248167294
0.014418561550203629
0.0698625352507567
0.11487530631613321
0.10919389107026073
0.002479012325423829
-0.05471051929728105
-0.09683171602788626
-0.13020760486365754
-0.1252512871394912
-0.01729245789959264
0.08320454541605996
0.07306194127814283
0.03561940406829296
0.02165170192565844
0.03616580347712725
0.033893582682414394
0.12489597100866495
0.19040641072417908
0.10749672516752373
-0.22112808394300784
-0.438797403832912
-0.3167805648959127
-0.15453936997787457
-0.0017439604878415342
0.3020123977582615
0.48103110213273603
0.385805952061427
0.17722427786977704
0.1395059316699431
-0.08079921928459052
-0.6217260031058754
-0.9568423515108934
-0.468922601622348
-0.05823785069022071
0.8161475351376393
1.8788702663770604
-0.2099649614160932
-0.2725100296714166
-0.39520642959195584
-0.8882604727522555
-1.2453539472254964
1.0770504672506194
0.6549030228746827
0.47595761133189746
0.3214535986095857
-0.03552951948602687
-0.6129045592803217
-0.5939788713719157
-0.5100762692703982
-0.24552884248581733
0.13084953081126113
0.9170284180464311
1.1318810154442422
0.6953272780942178
-0.1503099142871446
-1.179991870797961
-0.9083492582448524
-0.9274618139018003
-0.4887731004582727
0.459742036585425
1.5933355763668398
0.7180280218068991
0.5023284788080083
0.25909249525292133
-0.6177647920616881
-1.1789440843890024
-0.8387490146137253
-0.31892215558735915
0.163459058986534
0.6645743506900258
0.8576953005375053
0.7799100865355496
0.20594146033239843
-0.5403825310761267
-0.7441868170690678
-0.6482341874461343
-0.4171710523772492
-0.1347865789230638
0.362944227463892
0.8315617851494563
0.7610871654044415
0.3416904333993845
-0.13328459472871515
-0.4273753537518241
-0.6994529473113303
-0.6442029409951998
-0.2569241563059498
0.1650016579795761
0.38586441969989793
0.5753023424335947
0.45307013915171057
0.25424256326738043
-0.07450688216043735
-0.24876898630589087
-0.6022241417204509
-0.4419811315131042
-0.22000508125427998
0.0700019322121296
0.27155831846802353
0.6313683832800897
0.5686749869505018
0.6627345465211313
-1.1353073836979288
-0.6722604385997688
-0.36084669731507385
-0.16374241026044525
-0.20293327941643627
1.610263973671109
0.54037269492665
-0.19340488080895582
-0.4140758716656877
-0.5630508728670899
-0.6707816470964602
-0.1389134839630585
0.4567995532216043
1.145833861879359
-0.4628811523877248
0.0023363200654340287
0.2760309320751609
-0.12870241348023523
-1.0962140594589813
0.7150676548216737
0.28837188291515947
-0.1459267937956865
-0.3139544506037964
-0.10959634828514425
-0.21317922129495462
0.08325917855315089
0.4484829674593895
0.4906791093597613
0.35165907062961504
-0.07758240425594176
-0.5222592695350617
-0.6814684540437912
-0.3944830592602693
-0.029536388219433024
0.5004259130353799
0.502254032164344
0.26254501052852697
0.01862775916752285
-0.05027807769622544
-0.21167380678373748
-0.15527263429956847
-0.1654467460904172
-0.09968486514077601
0.021439733013311507
0.011712175596043387
0.1069480802571447
0.14817282846093602
0.16622781046079824
-0.027418296340804907
-0.041418150613357886
-0.09770904472987485
-0.020373763645509024
-0.02437171172224052
-0.10771265507741498
-0.049256213257817524
-0.012717953377789193
0.04420293844610496
0.15826203570080555
0.15041527334644303
0.0204575938039454
-0.05151212986417207
-0.09749802930229791
-0.1509755911688989
-0.03727593526017696
0.03181561101957943
0.0581552282892545
0.0531547049154627
0.03191981042963349
0.008007749161874488
-0.009724274345774869
-0.017867015032592082
-0.017369888096184737
-0.011570453611013814
-0.004244213483309153
0.0017456687825384942
0.00500924947797033
0.005521865146281935
0.004129161175669946
0.001962548844789896
-1.945648382518318e-05
-0.001267218419052478
-0.001661556095092365
-0.001393011419132427
-0.0007887826968035706
-0.00016055345640058778
0.00028698120723089104
0.00048064458978528166
0.00045329403537352
0.0002946337629808018
0.00010236630079144403
-5.1210142050053035e-05
-0.00013241539159427975
-0.00014250631321688096
-0.00010445363590252553
-4.780432802178333e-05
2.947126662885088e-06
3.41411432866163e-05
4.323319231865284e-05
3.550513128893809e-05
1.9543910818748943e-05
3.3502065038590313e-06
-7.940964164416887e-06
-1.2608934279113198e-05
-1.1629967567096886e-05
-7.382482275450058e-06
-2.3907200080040365e-06
1.5155523855697507e-06
3.516201756932093e-06
3.685526344619837e-06
2.640863907795409e-06
1.1514318046143152e-06
-1.5610838028616578e-07
-9.394189490688516e-07
-1.1420359379407015e-06
-9.063921663479527e-07
-4.5843509979493473e-07
-1.0196943974600667e-08
2.9677786180903014e-07
4.0627027108577874e-07
3.334649063920532e-07
1.3914268969500898e-07
-9.508125473705623e-08
-2.851686920166649e-07
-3.5837074529251e-07
-2.670456047500547e-07
-5.588220527351694e-09
3.7222022035623213e-07
7.448434518035259e-07
9.368166064162037e-07
7.652668892645084e-07
1.1857694138621999e-07
-9.51233779224516e-07
-2.1598981804497927e-06
-2.9946368018335106e-06
-2.831714112216075e-06
-1.177084851740028e-06
2.0163541496280727e-06
6.0666313267663946e-06
9.475322541769607e-06
1.0191410593966256e-05
6.300583805227223e-06
-2.9525419553647937e-06
-1.61197169847767e-05
-2.898370140756234e-05
-3.502920953944508e-05
-2.7319680441001298e-05
-1.6710384715925676e-06
3.968878990366157e-05
8.549613305024199e-05
0.00011575785564675233
0.00010653743503961711
3.94624047316814e-05
-8.599184036402798e-05
-0.00024188408837207408
-0.00036905487970032475
-0.00038816152235291
-0.00022706509176288978
0.00013943597888358753
0.0006499404682533969
0.001136434018823467
0.0013452031850834168
0.0010121204765315436
-1.3242189466584689e-05
-0.001627491933074336
-0.0033770377408839512
-0.004478319932770696
-0.004012306273080603
-0.0012984505149048187
0.0036322006077182884
0.009640670316683995
0.014400841336134288
0.014861108436382818
0.008333943802320382
-0.005959029263212053
-0.02538529085457384
-0.043214886521521924
-0.049578093261374995
-0.03458916733070567
0.006565235283924813
0.06778761439054921
0.1276552979416868
0.148999496992828
0.08437493953634749
-0.11261907616262709
-0.2729534785977737
-0.1998282140394352
-0.06382623612311007
-0.0086167159018804
0.2340296876487459
0.3252774949368492
0.10358479049802732
-0.02170734642487311
-0.06575903003268126
-0.2556803686105489
-0.2164362513929633
-0.16191125207556226
-0.09512436189674534
0.38314544825741725
1.0629044193369304
-0.6815300945927895
-0.28789385280380864
-0.193674338422289
-0.022039751123620416
0.4270650584021754
-0.42205033474621567
0.07366181080272427
0.3667134073394126
-0.09135076635534994
-1.0595028032258629
1.485630077147605
0.14673983966379053
-0.4909027361825931
-0.44947964789319445
-0.14597746884064353
0.016352695364852454
0.44834656682818813
0.36894443331054094
-0.0015360310793972325
-0.44472228699453087
-0.5450038372434224
-0.2927901855009437
0.3059750508798399
1.0167551438466798
1.3697355384351804
-1.1296134856404563
-0.770758831495154
-0.6012569243158153
-0.6034599394389314
-0.5007945025202495
1.8056714122454367
0.9867123506936762
0.24607458650416883
-0.28580674014218077
-0.7213319254694999
-0.562987927559535
-0.252435850303245
-0.14269005647091346
-0.10349516711332232
0.24285849160772138
0.46796763182940754
0.4837411452576103
0.3061456347630371
0.0477763596540403
-0.25891239068094635
-0.41605649639331016
-0.40770102054881985
-0.15622939105902175
0.10062742662995723
0.20887415797363362
0.07787345702518247
0.049336969340355946
0.06480957358200976
0.03847255713575845
0.03920540967177971
0.08343404283005047
-0.06158375785182778
-0.06593874075042419
-0.01981045602147763
-0.0143847537457608
0.07573906653219585
0.006118701032920039
-0.2298993728231997
-0.20115464062173916
-0.047375261313342035
0.10410078091895254
0.317426748438787
0.42986346793254415
0.04293857606671053
-0.27318403427698384
-0.36437147110531265
-0.27366130177659104
-0.027430958393628885
0.36856654560632895
0.3245097167695522
0.058715293267245366
-0.20774806203174456
-0.25242181781176143
-0.2515550297210535
0.016885487944092545
0.16561503078165138
0.38870972639178203
0.4568637438272127
0.5231817354150479
-1.2595993716959337
-0.717531800616056
-0.242347697438393
0.20258220231089305
0.4575174411538825
1.9361056331849216
-0.19110691232866836
-0.5861953031072024
-0.9089741851119705
-0.9762814034621423
-0.5392873904403345
1.1066398172757583
0.8831078495949383
0.48027178270337634
-0.07782405583246368
-0.43994418713190625
-0.307223661081602
0.40239825202910084
-0.8100750283372111
-0.20046834558799628
0.2251832705465511
0.29980623327023564
-0.3267075580753072
0.9895459234371425
0.2727081095391973
-0.2714298650858662
-0.6400306906804841
-0.41287249593197634
-0.3399886156023374
0.25329802629616727
0.4438397388479711
0.48009813234634025
0.15750561017581527
0.0110654459888836
-0.2713125847380618
-0.2198355944113188
-0.14866367257962768
-0.12753110547161778
0.033246032916334475
-0.01823393041860244
0.009455528800547591
0.026809857525142422
0.1362881391674541
0.20891434897302266
0.2703101424233977
-0.10029945613334132
-0.1582308423200079
-0.17297845233886464
-0.20654463575769164
-0.09761809154486163
0.14415359823481846
0.13382751573133586
0.10044328876349606
0.07507319093637745
-0.11820238105301928
-0.06667526127569644
0.0307412750782652
0.16593627325481594
-0.0745537527398317
-0.10520923466824214
-0.1378852501290111
0.019656213176680704
-0.03777722064312947
0.28358756648241784
0.17342779528212302
0.017739046811382678
-0.1961260245454746
-0.2718066813575949
-0.19818132408631564
0.050165022479483734
0.3051250327453521
0.193112889139884
0.12481472993624877
-0.10833145235581365
-0.1295758900146717
-0.16695414781422271
-0.042918052414559205
0.03223610180787551
0.06136608273641303
0.05683336353403484
0.03470725402038176
0.009407845341192315
-0.009578734703819609
-0.01851144815456262
-0.018279334566143956
-0.012343041758583282
-0.004677355017388085
0.001668686127327798
0.005184712192736912
0.005803711086772938
0.0043909510060561605
0.00213015443789615
3.6283562647231145e-05
-0.0012996905271134768
-0.0017397672248730164
-0.001475812379212895
-0.0008486927504603595
-0.00018731260918890787
0.0002895340735791531
0.0005009441536162715
0.0004784907775756815
0.00031507135105955913
0.00011341934938793947
-4.954174124266245e-05
-0.0001372052681717793
-0.00014988897433804082
-0.0001111747389473002
-5.201100422157221e-05
1.6432240404714972e-06
3.50806130688626e-05
4.5299290927603705e-05
3.763993340661692e-05
2.1056544667417423e-05
3.997426644005082e-06
-8.043353856266062e-06
-1.3154035592247116e-05
-1.228557554958575e-05
-7.903808280450793e-06
-2.6644283889864532e-06
1.4844230496944253e-06
3.6492805021801687e-06
3.882247947374684e-06
2.8174999460444236e-06
1.2603829838033375e-06
-1.2530272524784044e-07
-9.70636530267113e-07
-1.206841436475229e-06
-9.760586769659308e-07
-5.109764751070509e-07
-3.266614754592236e-08
3.0870512587773796e-07
4.491907659958127e-07
3.964278868904709e-07
2.0353124967496022e-07
-5.421449433710594e-08
-2.9424065839273246e-07
-4.3592311689029947e-07
-4.113837707967279e-07
-1.8386587068359256e-07
2.2675427792673228e-07
7.207602075002715e-07
1.1144736385211012e-06
1.1729798939027472e-06
6.885705914456404e-07
-4.053930890866676e-07
-1.920624499199653e-06
-3.3571651814831294e-06
-3.966246713554997e-06
-2.9724098523356735e-06
6.143101617228999e-08
4.822736887066005e-06
9.967982502401529e-06
1.3185631073105082e-05
1.1772661399726147e-05
3.738868051816422e-06
-1.079884808218846e-05
-2.8451044053257447e-05
-4.232644332293474e-05
-4.339527504744452e-05
-2.3697869077331686e-05
1.9111660169654234e-05
7.735092462502529e-05
0.00013127452593687748
0.00015180314536702093
0.0001094366163812417
-1.1452158621232173e-05
-0.00019686355349045313
-0.00039287427478991275
-0.0005090389668957688
-0.0004417651751519692
-0.00011773541133916427
0.0004523865965478195
0.0011304631841446433
0.001644965267451204
0.001647355743779847
0.0008391487215596976
-0.0008519473787337776
-0.00310511115664754
-0.005136307992956188
-0.005815706461679332
-0.004023498027953698
0.0007930209140986641
0.008019103463507177
0.015500124468895909
0.0197134916435055
0.01671676197718904
0.0038555044446888613
-0.018171016683000016
-0.0437019110058094
-0.06203702135378582
-0.05984939511960906
-0.026413603944903188
0.03915943299210357
0.12084552991739411
0.18197905372472942
0.16807733799222566
0.017897124037244746
-0.11861536358886973
-0.260426002935211
-0.3811005695376657
-0.4075357392211133
0.1644579975615952
0.8405515014154143
-0.10595938916940159
0.34072031339342373
0.332616905989507
-0.2266694800514965
-0.8505015455152876
0.16692660096851178
-0.22141681466970972
-0.004321455580677734
0.08014810286823834
0.1231966819690958
0.21807041530406904
0.2358611055215659
0.011339538586602166
-0.05794172479893573
-0.0006584176852827421
-0.25414059422843804
-0.24745933931474573
-0.19188802076466835
0.11746072193496124
0.0896575936265216
0.32124977645827596
0.18324639781989807
0.4196696569576632
-0.03839137779449944
-0.24555747469266073
-0.6107986578660748
-0.2753513412586633
-0.7126866293094717
0.04332710050184387
0.5469209506237772
1.2820231833400932
1.020281023592854
-0.5841991842332758
-0.557145627963036
-0.5360071045691374
-0.4970412410719014
-0.7039187507231636
0.7059298537044102
0.09558700309859006
0.07468202417030192
-0.16489956840437317
0.49454945098501
1.2628332607602921
-0.15912535173655665
-0.3451442901546188
-0.48357401374608333
-0.7111313427767875
-1.0649294179749074
0.5292168554158979
0.4280457328310578
0.41334015732209595
0.4279499462709674
0.5285356065853325
0.07039398552194512
-0.27239177135325626
-0.4603085457780755
-0.4326394211671254
-0.46218131295154286
-0.1353286118472465
0.23739926707852738
0.5864618143304969
0.4384783537335397
0.07818276585497189
-0.07085321677634526
-0.24372236648469306
-0.3154467394231892
-0.1758548489641342
0.29294462350451
0.23182630635043858
0.012507788320828744
-0.36031543886922285
-0.2521232420097773
-0.20823146298426368
0.22985638817998807
0.7053553509142043
0.6325703182060428
-0.20293958617797694
-0.6282196859488249
-0.6583191494937711
-0.4774071066400332
0.16204110569104077
0.7195687524291174
0.6362025565282289
0.30942506933591135
-0.11263871526136182
-0.5144315928703248
-0.5819049348957116
-0.17207222026340588
0.10358215767186144
0.27656460027113594
0.2036109566725849
0.14311308507688078
-0.06477647407973883
-0.008605084832588334
-0.10544934056271452
0.20793846473363037
0.08949895402530776
-0.09169469072377327
-0.3409598766061904
-0.2304586273443918
-0.3033014509739687
0.10899873115048564
0.4596130585544484
0.559698687405446
0.3641395166806107
-0.021240446561226763
-0.3104862896916276
-0.5960292692505239
-0.7114179993290728
-0.21456881086657317
0.19993667419682196
0.6633782906885947
0.6855612070859906
0.5176850584511649
-0.25913576008537187
-0.3161598182070948
-0.7398375728867376
-0.3929484934702982
-0.09108543195499161
0.39702701984280997
0.3284430203269494
0.3559363327588255
0.10294756815398798
-0.04678303520725509
-0.14280686669965967
-0.24969391683158065
-0.22560578632076395
-0.1062488138328799
0.10068806727964874
0.21049985231812507
0.250103375762531
0.04643626945100046
-0.1807371800478651
-0.2205678994661938
-0.06968857152712082
0.06924065856165285
0.18769446293081551
0.2716025262929446
0.10455197765381401
-0.32489384676351124
-0.4140347627461537
-0.14028570749231004
0.13621538061742328
0.26085894114348485
0.26830273353938766
0.16927663031519422
-0.053336532751413326
-0.23758276274286919
-0.22827841220085168
-0.06214015764915934
0.041847921976281344
0.08418283725626595
0.07987433975098149
0.050244523791503126
0.015170039819921571
-0.011853073524179466
-0.025164960335324456
-0.025616303085189217
-0.017810317548176163
-0.007245540636297513
0.0017432345872788967
0.006912758303223713
0.008041713384365625
0.006255096881708664
0.003177102551345397
0.00023997197688970962
-0.00169297955187904
-0.002388126067008236
-0.002083394327598897
-0.0012410265976503802
-0.000321122524579648
0.00036101919878807386
0.0006800311426607578
0.0006698146131939673
0.00045447659095084695
0.00017650276878435655
-5.442144578832629e-05
-0.00018356636605801522
-0.00020804042181948962
-0.00015865335297802403
-7.793158779728087e-05
-2.554251808684982e-06
4.593686474526806e-05
6.229524244358116e-05
5.322101469516279e-05
3.088415541042496e-05
7.120712228494987e-06
-1.0135336278670947e-05
-1.7893020467019684e-05
-1.722166903325466e-05
-1.1426281205513875e-05
-4.195874901458089e-06
1.6878749772118029e-06
4.884804559384662e-06
5.3847578736255496e-06
4.022311133067725e-06
1.9063131048918121e-06
-2.6598459183641678e-08
-1.240821338590292e-06
-1.6215467562821188e-06
-1.3560721540578579e-06
-7.645122859294235e-07
-1.5125600740701676e-07
2.841648761327161e-07
4.708523787203183e-07
4.4156408939597695e-07
2.846490246168761e-07
9.629230641489709e-08
-5.226218511608712e-08
-1.2790531962052898e-07
-1.3241704913206925e-07
-8.978928278098937e-08
-3.1341962991758815e-08
1.625111804200155e-08
3.775738169616373e-08
3.108135208316716e-08
5.199137207200771e-09
-2.412477842475809e-08
-3.968441186242124e-08
-2.850287117868676e-08
1.2883249990791146e-08
7.46570532435457e-08
1.3316783420158852e-07
1.5542687595018004e-07
1.0962787356069295e-07
-1.9461083711855493e-08
-2.1445015119710365e-07
-4.157758488760871e-07
-5.269667073461813e-07
-4.407652637234482e-07
-8.548101310591912e-08
5.19359648291647e-07
1.2199650818662886e-06
1.7262943608449524e-06
1.675944767502885e-06
7.706947161420834e-07
-1.0393676285013834e-06
-3.3872082289947772e-06
-5.427776684909353e-06
-5.977025452363918e-06
-3.898653290919683e-06
1.308219570529719e-06
8.893417965795993e-06
1.6499271226275416e-05
2.038945069800375e-05
1.6489994396325517e-05
2.200849270766569e-06
-2.146768909126545e-05
-4.829808170182003e-05
-6.690854931797319e-05
-6.336685626440252e-05
-2.6579024861146644e-05
4.459240400331599e-05
0.00013498641756717593
0.000211158727178418
0.00022727251671263643
0.00014055638565585189
-6.569010010005635e-05
-0.0003584189701656314
-0.0006416293861407036
-0.0007660219409433794
-0.0005697639751533538
5.190236753722376e-05
0.001065737786130699
0.002240662445023711
0.0031475786535657946
0.0032455668120772
0.002044341253307927
-0.0007286911893242054
-0.0051034033981550864
-0.011194787318642306
-0.020111715150313347
-0.035598407387438656
-0.06633022338832126
0.07166830540844371
0.15367431011823499
0.14771203960606205
0.020242434362212236
-0.05406649540574608
-0.28122740245322886
-0.44036938814561016
-0.08461042730810199
0.8478657785219771
-0.38409109264852276
0.25798191712221985
0.38248903355777514
-0.03044887183990494
-0.8168569856244354
0.3883341164891345
-0.2335466711553747
-0.07744459781530219
0.08351956153198827
0.28888566758993195
0.17862558837646383
-0.21792587960320883
-0.4897693782815902
-0.04898912942523759
0.26651635458415257
1.3941018636426734
-0.7440008541031667
-0.019329240640652723
-0.26806838943834976
-0.6658248536773204
-1.320112316456791
1.311200095773547
0.778684691276386
0.3926933344897868
-0.012530541625961317
-0.28810166424011163
-0.15222899846467117
-0.1543009065875118
-0.2349363062069095
0.10648698847180936
0.02998113552751945
-0.24344032639980462
-0.24554211666584125
0.11340878851616737
0.3128054398609864
0.39232476943314015
0.33492759675540895
0.06979286355163902
-0.10362327011131764
-0.47733109211649816
-0.4956824484509872
-0.33041759024831496
-0.08071909564131494
0.19979200628691363
0.45738714027342653
0.38959708698092205
0.41111666548779674
0.8472235637997452
-1.0418615902368282
-0.614085361331777
-0.39422860228820333
-0.2384737971510791
-0.5279781882128416
1.2085721837497791
0.6560961521666727
0.2772724377387768
-0.10354162808306944
-0.2908138467274248
-0.49015870987548715
-0.47821847965372694
-0.1860652297213204
0.2946187842215814
0.08328433241475655
0.06971037214242895
0.27468843883115285
0.6259800308439105
0.5596083148327735
-0.5499965842534805
-0.33662513936376137
-0.38062943995586745
-0.5587295939398249
-0.6223084865271437
0.5880694352986563
0.49651577194516294
0.3295562807142266
0.2581011164121634
0.16070098033796468
0.016149498170988486
-0.27652143175426
-0.2602446572921361
-0.2776735935195878
-0.23725630902290443
0.0040539935616886735
0.2397957897777297
0.29955869964046733
0.22994520833269153
0.07969976194136424
-0.10615925795697803
-0.28412210079465355
-0.4075464579693172
-0.22666772618566036
0.10251207135459382
0.6023425545651483
1.0588083450829033
-0.5817627832617235
-0.3991540855522543
-0.27309724486964104
-0.25645319948529466
-0.5601211830879086
0.8444066676219807
0.40781826510679603
-0.01942335372128015
-0.20434271427033238
-0.13803467582610893
0.16774919848615089
0.09003420663616053
0.006110004920641086
-0.29616415782062455
-0.4125937121787341
-0.12463089323440608
0.3901573599140059
0.9432667751888815
-0.2756672829441349
-0.09838097063448978
-0.164850800021306
-0.30386446081111285
-0.7173358085098436
0.42357778171396604
0.9686560425651308
-0.6298846459248916
-0.136167869913389
0.25679066257513694
0.323263889531968
-0.38996711775983717
0.6502116474845842
-0.2163779164156923
-0.6212107769721326
-0.3510201564301293
-0.14556345594055817
0.28697242405836143
0.4406926850123156
0.3796675744651509
0.11546293227629037
0.0033155035761117074
-0.2421720040315734
-0.31865276244856755
-0.30608242250249273
-0.045821656705762964
0.06514212220938889
0.2652637829488895
0.21071559306788293
0.15705540524789027
-0.05308915388491581
-0.1938895403444307
-0.25381161724207774
-0.03132430196419039
0.06721046883067719
0.22654482898034597
0.22081735242447684
0.014727810627226848
-0.23036306139157886
-0.14677861580264176
-0.15148974916629226
-0.04211658987843121
0.20007593001295063
0.20178947905837305
-0.011992819807890909
-0.024812610080789957
-0.030567125705980015
-0.030895472965423075
-0.030272556625318775
-0.031205062373954914
-0.031314045159301404
-0.023181080803199177
0.0031243504942575994
0.05582987748824573
0.13725831352943563
0.04154384327390399
-0.044452420839277446
-0.13717597735339354
-0.051067638140138316
0.005712432333309439
0.03283156366180825
0.0364210087023244
0.02592192889184465
0.010700477347131414
-0.0023681065832746166
-0.00985762832423702
-0.011449821823002682
-0.008822673999460674
-0.004363450613008021
-0.0001523010458006498
0.00257658770556592
0.0035088887965838912
0.003009158147939233
0.0017566874414558608
0.00041724066435723864
-0.0005601359117065399
-0.0010038763245381643
-0.0009716677554472031
-0.0006483593406400288
-0.00024166343570654008
9.099295994719969e-05
0.0002730839092399805
0.0003031343754194385
0.00022761762932713953
0.00010885528933315218
-2.3559946819027583e-07
-6.918874398283958e-05
-9.124300060021596e-05
-7.674450504643043e-05
-4.363774088107094e-05
-9.079743028127785e-06
1.562026374509653e-05
2.6379345776766238e-05
2.4960074586570882e-05
1.62746212405789e-05
5.6974328100498725e-06
-2.778895555648351e-06
-7.279708291743967e-06
-7.854515760431357e-06
-5.756056268655077e-06
-2.6110017414810363e-06
2.196991148263448e-07
1.962475669396166e-06
2.453679157402279e-06
1.968558455481126e-06
9.829726617582872e-07
-3.351710460587434e-08
-7.439226933130773e-07
-9.8694132926511e-07
-7.631916459460143e-07
-1.9750230368767392e-07
5.005365715837719e-07
1.0736091611756211e-06
1.2615996455909245e-06
8.673780053116286e-07
-1.5549180749736617e-07
-1.6147048132258382e-06
-3.0357706325845493e-06
-3.7184201570308485e-06
-2.932416682295829e-06
-2.445669664160004e-07
4.104268456236836e-06
8.928587283565837e-06
1.2131139381703446e-05
1.1202026790326807e-05
4.2110964585143e-06
-8.907644493856478e-06
-2.5242676194288507e-05
-3.86110537217461e-05
-4.070519906424162e-05
-2.3952252507569572e-05
1.4328596873470136e-05
6.776601000397915e-05
0.00011882225074298609
0.00014095442161098575
0.00010646794837306394
-5.038929763508848e-07
-0.00016931557173581146
-0.00035266724293903014
-0.00046863988474861744
-0.00042097293086760753
-0.00013818003646573544
0.00037683933440264014
0.0010050494002980608
0.001502526424731807
0.0015481725733646695
0.0008571571138589492
-0.0006576647039469573
-0.0027280421041090664
-0.004656169506855251
-0.005409050606636343
-0.003932568500476483
0.000342217246694171
0.006938840933354119
0.013966561725443607
0.01823630077693881
0.01608601987295863
0.004919902313274737
-0.014886488094396863
-0.038452064435772
-0.05622359349592947
-0.056105802653899556
-0.028275686574985127
0.027944986076233466
0.09703508868275355
0.14292584775827802
0.1104313531975539
0.13444125725405576
-0.04352463784741292
-0.254941140263213
-0.2864342661152547
-0.271848526091332
-0.09964636841323944
0.16388015572766992
0.4413938232875185
0.41200426642553245
0.29107084957807466
-0.17032208695088275
-0.46683336339439496
-0.5098878746693497
-0.20060839158160612
0.18575116803670813
0.6020314933921785
0.8241953261851153
-0.5517891023100374
-0.5065589839119103
-0.3913396171015878
-0.32888444592106714
-0.22890673795488936
1.1831649756344786
0.5350697198831039
0.1899090726552156
-0.14672258757465975
-0.39433781239900123
-0.651600913232542
-0.15469463471747066
-0.055768827346708724
-0.028990800653245302
0.0982342366445286
0.2990302181546625
0.2997255686788872
0.345168127730184
0.18669804968989365
-0.1037694153865284
-0.2980023080549626
-0.3653195628410606
-0.4305375026132492
-0.14860684146182596
0.2978813605391848
0.3806933164416844
0.19682281772269702
0.03987343327812706
-0.019437228014088342
-0.14090460682684988
-0.11309954131371594
-0.14733143589132147
-0.0720571417877838
0.06986064151490166
0.22178744728324795
0.31515673550316203
0.07643555210370856
-0.15902264689427545
-0.22875212802139192
-0.3272371973685445
-0.4003360649629496
0.04450805658873059
0.31291757368422085
0.4908749320849056
0.41720709264383143
0.2732567660535966
-0.20465957388965952
-0.49415657333816276
-0.6499403481810947
-0.4775715009232599
-0.13008804830539586
0.6707776744150746
1.799416500269188
-0.9047189150171145
-0.04875687468197859
-0.07520609335933442
-0.43720039821202794
-1.3750663383641928
1.2939666997903791
0.36985514376907797
0.254405858050297
-0.06181819445197928
-0.20214218215545557
-0.19608502322372098
-0.26794170585136373
-0.22950840346906867
0.11846756975952923
0.37705617550162646
0.33826941806966265
0.3809116210249998
0.07905477089468595
-0.5776604180959919
-0.7606685350758663
-0.3896419830832605
-0.14157948441698498
0.5162607177000732
0.88018246653039
0.770009710891786
0.11428196358979709
-0.43039462479530455
-0.8324164890746276
-0.6300660020672596
-0.2909584301143029
0.1987752392497846
0.5144914936075635
0.5544553921378553
0.40136033848779035
0.10007619429646777
-0.34166985702633823
-0.534434017494188
-0.482987308703147
-0.1713967173486076
0.2341879182074662
0.3663714260531819
0.431222345169602
0.3907564340274137
0.16404969117125057
-0.35031504936049174
-0.43753306766816724
-0.5299649883317278
-0.38650144328138303
-0.09842508117812836
0.4780088662948038
0.6731837615604787
0.5580157963451037
0.11785288360581106
-0.3441451110994148
-0.5769330979868684
-0.33766251362560185
0.6501784103017524
-0.6752085202618064
0.09559753073718352
0.23526426685517607
0.05838251376279616
-0.7073740273414216
0.8489989493137996
0.3979712210468599
0.157965340353698
-0.2998329134773518
-0.43224703914857765
-0.2989542479748978
-0.1423861975685414
0.21985885977222544
0.38973955117275283
0.17653712829400545
-0.01438893216023479
-0.1866103610759672
-0.3511809027884883
0.07775122262345954
0.2864963303292347
0.06334300567380949
-0.0005763274274779161
-0.10948571203133725
-0.2605644449633028
-0.04306992866447058
0.15911502998366392
0.161835673579967
0.17473924374472402
-0.0013934312843611745
-0.1723012027695591
-0.14423662378883237
-0.1180132081658265
-0.08690916490030351
0.15996911738903571
0.23046018005506475
0.12226609307994635
0.020236780110905885
-0.10000710187573861
-0.2636080763507699
-0.0872998089206751
0.026053447582791087
0.08694393997786073
0.11365566103630771
0.12486276458962205
-0.0661153430283868
-0.05342058489088999
-0.03728801664191878
-0.020874892084294765
-0.007214733317998486
0.0024811283778985635
0.00890644878859077
0.013567262020921874
0.017288311119683153
0.01910987462911711
0.016146397062687435
0.004596173865045828
-0.018377309920618243
-0.05261809136418327
-0.09378237361506285
0.06620522987026214
0.03689657950892225
0.02605196035508404
0.03676457789917995
0.0662684337207233
-0.09304362216565876
-0.05086609646998908
-0.015734022945603186
0.0073455946055631174
0.017601583285031724
0.017646693468747525
0.011779587762429468
0.004265009476834707
-0.0018386526860713136
-0.005108998624846236
-0.0055603128029479715
-0.004091408472699714
-0.0018719043856905543
0.00012502212694113279
0.0013546283331700249
0.0017129230489068194
0.001406812284563708
0.0007750290779826013
0.00013382536954819542
-0.00031355765286198215
-0.000498860603422675
-0.0004605713772528389
-0.00029274664857632956
-9.528680473472022e-05
5.935668090375239e-05
0.00013869096046142536
0.00014563848754012992
0.00010461934880361872
4.604157116788078e-05
-5.379723630810772e-06
-3.623814241267907e-05
-4.446309691078307e-05
-3.5802196541306756e-05
-1.9157641697270763e-05
-2.6517157363953804e-06
8.619523253327225e-06
1.3063910279429723e-05
1.1802807573958374e-05
7.324862038604566e-06
2.2078311034913487e-06
-1.7179545477776092e-06
-3.6658338725790382e-06
-3.7548171014079117e-06
-2.639857487502267e-06
-1.1107892354959408e-06
2.034993533094749e-07
9.720600056662957e-07
1.155660722692982e-06
9.118832395828512e-07
4.737029941816404e-07
4.915229467532496e-08
-2.343887860521104e-07
-3.402923102445172e-07
-3.007742563724118e-07
-1.8156506010749344e-07
-4.910463735648967e-08
5.0435831169725555e-08
9.810732495839878e-08
9.80941254690613e-08
6.791308664808479e-08
2.8054898939853166e-08
-5.4976024620633395e-09
-2.4597730625287113e-08
-2.8597377211649614e-08
-2.179517206841772e-08
-1.0279316382633471e-08
6.281129887601035e-10
7.749354315467256e-09
1.0254343934081506e-08
9.057332724469107e-09
5.8911804333816785e-09
2.4663627759075497e-09
-5.4177487202035624e-11
-1.2165779832209876e-09
-1.1571648069041073e-09
-3.431892576388141e-10
6.944089562801938e-10
1.549952466359607e-09
2.0235227380984564e-09
2.1077325026461546e-09
1.9193200295566443e-09
1.6171606785498494e-09
1.3372502143451976e-09
1.1587006657667436e-09
1.0999623782211705e-09
1.1353494111379558e-09
1.2192586113524877e-09
1.3077046523918746e-09
1.3714416098439854e-09
1.3996693717339e-09
1.3966269560107348e-09
1.3747473882336873e-09
1.3477714277522539e-09
1.3259825705581466e-09
1.3142701131373033e-09
1.3125856260399525e-09
1.3177714905905504e-09
1.3256874090530716e-09
1.332862354362507e-09
1.3373311272421954e-09
1.3386941230608855e-09
1.3376669565370968e-09
1.335447738148225e-09
1.3331662709506493e-09
1.3315568360064802e-09
1.3308744847824017e-09
1.3309915100020376e-09
1.3315778403471319e-09
1.3322782854227881e-09
1.3328325183385727e-09
1.3331214126023674e-09
1.3331523315486454e-09
1.3330103777832734e-09
1.332803305784853e-09
1.3326196024308755e-09
1.3325079707432737e-09
1.3324767536150422e-09
1.3325061540146165e-09
1.3325647416543197e-09
1.3326235251319032e-09
1.3326640962345193e-09
1.3326804844651605e-09
1.3326764537388139e-09
1.3326607576907792e-09
1.3326425815520334e-09
