0
-1.1764092884386926e-08
-1.422086511508249e-08
-2.1314084259768685e-08
-3.223921842728405e-08
-4.3836321992266245e-08
-5.078016001741413e-08
-4.694778134311994e-08
-2.7973002772132304e-08
5.582172643381731e-09
4.564404903667663e-08
7.62460848143813e-08
7.681624691352807e-08
2.9642118607375824e-08
-6.974028447824479e-08
-2.0265677965966664e-07
-3.2306788996543647e-07
-3.6437428364151215e-07
-2.603045778242838e-07
2.2234548345261758e-08
4.4759177836358523e-07
8.890392670045273e-07
1.1383628222135559e-06
9.611765022961275e-07
1.9724144145707385e-07
-1.1175282165531832e-06
-2.6549111828630934e-06
-3.7864684018316526e-06
-3.7189937090633566e-06
-1.7897845041124738e-06
2.1310179281071525e-06
7.267152668793585e-06
1.1792855181825743e-05
1.3123463705729631e-05
8.748701289181235e-06
-2.4870376431849585e-06
-1.9028890130535854e-05
-3.580455103225502e-05
-4.4682370654119556e-05
-3.670305542734455e-05
-6.014610355130557e-06
4.5440061117078885e-05
0.00010435614803584602
0.00014602879594426737
0.00013991086832890716
6.127564486123128e-05
-9.32196072225581e-05
-0.00029147480674608227
-0.0004611942028278067
-0.0005021817557052236
-0.00031951747488086094
0.00012662154625214927
0.000769398496548244
0.0014064320789455229
0.0017210171902367298
0.001372115765426574
0.0001487259825781114
-0.0018500685049355047
-0.004083296837074781
-0.005577899866433764
-0.0051585443556602046
-0.0019143005865894479
0.004185379143987665
0.01173289703137343
0.01767506323275102
0.01773459414300102
0.007578432146157037
-0.015458156751684746
-0.05065816202559648
-0.09304549479242771
0.06593593415822821
0.0360734292870533
0.02513455068958413
0.03607342928563168
0.06593593415534842
-0.0930454947965989
-0.05065816203034493
-0.015458156755530337
0.00757843214531459
0.01773459414723093
0.017675063242996978
0.011732897046245395
0.004185379159009479
-0.0019143005786179607
-0.005158544362712958
-0.005577899893767049
-0.004083296883034488
-0.0018500685577350863
0.0001487259449489807
0.0013721157702973393
0.0017210172598738983
0.0014064322166340956
0.000769398673947355
0.0001266216989988916
-0.00031951743636395133
-0.0005021819167005182
-0.000461194599799296
-0.00029147538103119447
-9.322017872562964e-05
6.127535939933299e-05
0.0001399111756151205
0.0001460298885920154
0.00010435794341751108
4.544208232531192e-05
-6.013228331312769e-06
-3.670336467675035e-05
-4.468520044031949e-05
-3.5809969782330526e-05
-1.903573009966173e-05
-2.492752888190919e-06
8.74758017112117e-06
1.3130155795929344e-05
1.18085975229612e-05
7.289440190707198e-06
2.152665954313533e-06
-1.77981570376323e-06
-3.7323959281377535e-06
-3.830202043336931e-06
-2.7250287983583405e-06
-1.1947886265525185e-06
1.4676769444272221e-07
9.779116223475306e-07
1.253069542711723e-06
1.1020537513281321e-06
7.109974280676704e-07
2.354687892074199e-07
-2.3144855821738964e-07
-6.41136098969934e-07
-9.464442705808531e-07
-1.066622170295689e-06
-8.88161904667367e-07
-3.134674284738494e-07
6.539953494532649e-07
1.823433364311646e-06
2.780902342090565e-06
2.9544326914174104e-06
1.8051972474360635e-06
-8.804534357585029e-07
-4.688016185961276e-06
-8.407290265162173e-06
-1.0163058896116922e-05
-7.95267800197536e-06
-5.607729920780798e-07
1.1382223113390085e-05
2.4637017774208786e-05
3.3436099855300836e-05
3.0858169724013694e-05
1.156973163176e-05
-2.462411403104831e-05
-6.970026766831746e-05
-0.00010660106298685842
-0.00011239647431315319
-6.617609537320107e-05
3.947317597826432e-05
0.00018697894277347604
0.0003279400649111733
0.0003890844239247524
0.00029394115902774815
-1.3318659797284331e-06
-0.00046740497919865254
-0.0009737590931172751
-0.0012942659176932068
-0.0011631054371678518
-0.00038265757382075757
0.0010396780851093233
0.0027764432875337433
0.004156310543894702
0.00429634023269384
0.002415876774406353
-0.001717118823870483
-0.007350723090452845
-0.012547000971803305
-0.014452027420595813
-0.01018764223543315
0.0016955413032560935
0.019559489833993304
0.03745089333176134
0.045058167504395875
0.029412396421299423
-0.02168301916906701
-0.11534483015724857
-0.05000449325800023
-0.01420040702931812
0.011313183398268058
0.048603710439303664
0.11648182252673334
0.025568268718074747
-0.023706614942277462
-0.039642258236599594
-0.03523916336422481
-0.023365740779360617
-0.012887668733669543
-0.006887786381205182
-0.0032651230202077504
0.002721449571318358
0.014893699072483755
0.03277254783992743
0.04960778493035355
0.05281739171528818
0.027249846067523797
-0.03926220573704274
-0.1497065817721518
-0.09353029745266848
-0.04650696913939432
0.024097300787905798
0.15018106315389332
0.152438401978273
0.03288010584154583
-0.0268496662688869
-0.06079686196212694
-0.10955439860689514
-0.009924209830444942
0.013478191781149857
-0.047240640049893916
0.01699085908659828
0.028859173600685028
0.019057387725823372
0.01998141694798333
0.060156669015645516
-0.039652916635798265
-0.06838215149608425
-0.02500412549683997
0.08214125730175825
0.03675375218027503
0.01692689110533965
-0.0012847531157325672
-0.03939858794329216
-0.11224209559666605
-0.025395351748689652
0.02453641312063257
0.046779480503238914
0.05160841715837229
0.045901306980329126
0.03085043667431685
0.0027230566877560858
-0.043677428127561986
-0.11030856659415546
0.008021980110701894
-0.07502469465031038
0.060616252534444685
0.03653024298940961
0.06979673856556355
-0.03209663795247757
0.12628596849968718
-0.07078330626071624
-0.046376203965191994
-0.025540373233329004
-0.03024554887375491
-0.07628043661325633
0.027098111446500015
0.07507092272993206
0.06403510694788521
-0.010921260960145906
0.043666743092490516
0.022056732082430086
-0.07621856566017325
-0.04139433674042107
-0.050079628444670676
-0.06526213755810238
-0.04065535773590403
0.07104677659375783
0.10791522118314917
0.08948881009257847
0.011464948129869281
0.04627585215158388
-0.05047410458532747
-0.12963634842103997
-0.0373138059829557
-0.005996425986665662
-0.05019002059921354
0.03292923624499176
0.058833020800295566
0.04890726441081041
0.02389999148780884
-0.0006823767942012693
-0.016439361084470513
-0.02145387548831965
-0.01812894731349266
-0.0106145420795149
-0.0027234852812516863
0.0032033370919426467
0.006463424762689851
0.007481594159332316
0.007043100015703185
0.005662656214895082
0.003342262103964441
-0.00021838521655723477
-0.005083900503284425
-0.010489867453329417
-0.014536128701763249
-0.014469574849178091
-0.007692829549058873
0.006646360801789918
0.025964670952001893
0.043199051419378756
0.04720009799884311
0.0250350371080523
-0.03404199194187637
-0.13412956361774064
-0.06962643152217571
-0.02543198872836178
0.018864845474459737
0.08188060169321545
0.17312301359151464
0.0887781193316811
0.01304023591314314
-0.07475941436321322
-0.18964147902206505
-0.13140332798783058
-0.08039526164092473
-0.0011386425010351166
0.14691417041618696
0.19526913573330196
0.15434934066054304
0.008311896680092423
-0.08121776419968374
-0.1640562891937374
-0.08738150733597816
-0.08376245090465495
0.03502083577466269
0.07732867699126235
0.06567737584067286
0.02831727910676723
-0.008766684616122119
-0.027632702411274985
-0.021411868756540893
0.005117313263951897
0.03694373284090408
0.05197766871054225
0.02584752399285974
-0.0620071772321164
-0.021933978123985922
-0.048982632019944225
-0.12090889810519638
-0.0004542677909138245
0.15812915679999376
-0.00021295752126313316
-0.04093184241598785
0.05267012842571577
0.0757512617012939
0.0026896388297192493
-0.0078380358831972
-0.004442947258807773
-0.033146247175273424
-0.12848088026769464
-0.10799133760357749
0.02823375514458918
0.09292543849308949
0.10374237102428402
0.07529214329379674
0.014137417038481228
-0.08162617707587753
-0.01864644837851302
-0.00238130846973646
-0.03135608958044461
-0.09359621463245907
0.033587657226733396
-0.019791409094534706
-0.022656760433582283
0.049659915367261304
0.20900613018169223
0.051393114770116065
-0.04108881328845955
-0.09369754758115131
-0.13025659892285768
-0.1658968770135583
-0.004560540733836323
0.15767148233700967
0.12521476991942648
0.095422034985206
0.05478267344236635
-0.019041477682049824
-0.1500724536816614
-0.15486343860799784
-0.035354990327665585
0.023165258792408622
0.04821270228909954
0.0720780231995966
0.12283711583208307
0.01763846801379237
-0.039718345732401704
-0.056757136099924874
-0.0473747777818923
-0.026273677279719587
-0.004780495682252511
0.010947220629498487
0.019423116940233617
0.021905318925317496
0.020185912572446233
0.015091927773255014
0.006258333002232319
-0.006820408153560336
-0.022976555260144537
-0.037670237265198615
-0.04236641893469168
-0.025671925269235715
0.023723193194041585
0.11310510233198279
0.04229637940787101
0.0022888139739054483
-0.023252711895454702
-0.054101648557116876
-0.10875702464016845
-0.0007368562926263236
0.06296330671356404
0.08134235475152732
0.05798528423282724
0.0001591303241263129
-0.08106734489140313
-0.17049088548970312
-0.049856929588344936
0.09845632294374643
0.08563248975564847
0.11085347231002313
0.15912253288509906
0.004642948068156395
-0.1804622659043612
-0.21505249857619535
-0.10017929620378752
-0.01681462612664997
0.06840680870229907
0.1915366693931357
0.178495953967779
0.036280210793586766
-0.04850125944336583
-0.10370397032779047
-0.16135030240428233
-0.047385728553998065
0.024756426432757588
0.055194949487582905
0.054075603887350575
0.03582758452446005
0.013723560611927772
-0.003562821737430725
-0.012873108067037092
-0.015391807902873506
-0.014351656534011891
-0.012673029002303687
-0.011376499546424886
-0.009233468897989913
-0.003703929217548878
0.007180423200871783
0.022650586703233413
0.03760832085936595
0.04244304222135714
0.024767394400549394
-0.027072610749968976
-0.11970136769813754
-0.05128881504801916
-0.010662244329128164
0.020274401640587462
0.061505238553842496
0.12921212043629104
0.031792612311713125
-0.030756909537148925
-0.0639800881473031
-0.07415481177957517
-0.06396624764807834
-0.030778482547794094
0.03166412379355318
0.12892857440544667
0.06109007556291228
0.019852358757321917
-0.010875103785457325
-0.05104802552445894
-0.1188459225287489
-0.02565716555815185
0.02637342102644038
0.04355646001308728
0.03738936994469305
0.020428214416497382
0.0028820026346588964
-0.009170022687688538
-0.013858480438116796
-0.01240680494995803
-0.007541058008491697
-0.0020572194251617677
0.002087078106805579
0.004077226799275741
0.004074927175650721
0.0028075855246268494
0.0011323089471233054
-0.0002800051155202244
-0.001086121479386079
-0.001257528662054896
-0.0009739425866146573
-0.0004908918947726404
-3.2239634968282246e-05
0.00026797550387211335
0.0003743415543287818
0.0003248937192551053
0.0001922813011171635
4.8403147291586416e-05
-5.7735302915333904e-05
-0.00010689467666299072
-0.00010466922234259999
-7.062277415763073e-05
-2.7058922683575697e-05
8.939080766046154e-06
2.891806478925426e-05
3.252284242430341e-05
2.463605153317944e-05
1.1936234236082725e-05
1.5963449823357854e-07
-7.341023451435691e-06
-9.76983862438624e-06
-8.205838949030569e-06
-4.591521141909616e-06
-8.242597566242995e-07
1.810516281660619e-06
2.8206939662908104e-06
2.3936535382771537e-06
1.1302006042369597e-06
-2.451700659742418e-07
-1.1186354037748966e-06
-1.1387467026166762e-06
-2.900741041445987e-07
1.1007576107232805e-06
2.4278407823347485e-06
2.9506298244492527e-06
2.028017461594771e-06
-5.828056828139862e-07
-4.440954761276691e-06
-8.281408825201512e-06
-1.0170343315139517e-05
-8.058761654439415e-06
-7.041442988429416e-07
1.1270140407390095e-05
2.4613335866640865e-05
3.3529910623033424e-05
3.1056976909952274e-05
1.1812425846572577e-05
-2.444166204716662e-05
-6.970091291164626e-05
-0.00010688175864687661
-0.00011297082732105038
-6.692318282780861e-05
3.882554677361796e-05
0.00018680804678847878
0.00032860463435160784
0.00039073872959239405
0.0002963416365649234
1.0632232918111394e-06
-0.00046619919510365506
-0.0009750266930472054
-0.0012988169399667207
-0.001170601966694389
-0.00039111423950245554
0.0010338718314007907
0.002777687189433958
0.004168083473238652
0.004318951374150081
0.002444473568967401
-0.0016931552391569338
-0.007345891654562842
-0.012574787501184376
-0.01451767053951308
-0.010280764792937172
0.0016048820273822859
0.01951740220584295
0.03750631120737131
0.045240374395953305
0.02970518769232239
-0.021359754384489768
-0.11513272426302242
-0.05007261378210084
-0.014677866456472559
0.010424041551636832
0.04750204278628
0.11558710013243974
0.025441465548871663
-0.022557245017123445
-0.037042010688105954
-0.03162605142518915
-0.019929230111779935
-0.011416748890599664
-0.009234091224484813
-0.010461818994533164
-0.008549426430065909
0.0028088568878544933
0.02545505349058769
0.05354036759910371
0.07264795722547807
0.062262241230917864
0.0016945881556355517
-0.12177589914248657
-0.10518718454080841
-0.1259720732333945
-0.14459710805642212
0.08552397934682873
0.20308292424953936
0.22385646328651412
0.1316537549590163
0.07976058333368524
-0.19638053873805714
-0.1589911192084723
-0.24717364117654103
-0.06284799434937381
0.03174082222728778
0.10429812704773762
0.033954288621370114
0.08973072823754734
0.11204574273497704
0.10199259793044023
0.020966372904877736
0.0006579031181592718
-0.03916930345319195
-0.1698165915089835
-0.2354448217234711
-0.04279524515588196
0.038080250511326505
0.06245087702745749
0.09272538384045184
0.1793249054524218
0.146483691893341
-0.01296559651996623
-0.13279440805288958
-0.060829576675166815
-0.043206982065969575
-0.11041911720952494
-0.06891064479693304
0.10009466848792194
0.03501172791809467
-0.016262952269761894
-0.00810902528763734
0.09228647482203192
0.09784325319921734
-0.0005638800179802521
-0.030840467486449006
-0.031890588437800106
-0.04352117716425947
-0.09684180731418093
-0.007657783265476611
0.02567476079275922
0.019831374786652655
0.0006697296759284424
-0.004242257876541523
0.0271637726161371
0.10614042479193707
0.03094572825894472
-0.011603293799184929
-0.04131094676558219
-0.07820780822486778
-0.13704968877435575
-0.02499132249225138
0.056546523865637285
0.10673258235420377
0.11956274656190527
0.08073112935214952
-0.03060732413969967
-0.03509093449678911
-0.14366980014934158
-0.1490982518690569
-0.022040457519260124
0.08620604591323056
0.03489279379349578
0.0816797783593412
0.07089897169815851
0.025418170921822174
-0.05619218596744705
0.00277486128619275
-0.03654078522528224
-0.020435481141628926
0.0054023104777816515
0.0024458535632547775
-0.056422229660129136
0.014698674119459484
0.013753436396773778
-0.05238586023793606
0.02763697934806796
0.06501472213601052
0.067212971535345
0.036653233941973375
-0.027844584777589772
-0.12749007060410641
-0.05955695484119279
-0.015096088682677315
0.020393539697753277
0.0635946382399982
0.12897291076334003
0.025538174854610494
-0.04369231548053646
-0.07948603971508045
-0.08294940754447855
-0.053039945618428896
0.013348027824817092
0.11861251215130073
0.06045798099309204
0.028950734952777783
0.006432448262585263
-0.029262613424399786
-0.09935785415878036
-0.018456742768881335
0.00933718966185669
-0.008741327645542918
-0.05644622105453185
0.0868184568162774
0.04042010999420032
0.017645806922385602
0.02300559490339653
0.05240860677129295
-0.10406386557703946
-0.057975296840238284
-0.01861317852939123
0.009211914670134894
0.02508348077808777
0.031137872694882513
0.029676336427201935
0.021474915351902567
0.005548044847696567
-0.019614162475545916
-0.05402618861795892
-0.09452869034229025
0.06550011255498064
0.034653885847183714
0.020793776298379276
0.028352959449978978
0.05681905733974824
-0.09909615919450047
-0.04792987208790678
0.0005176853786933478
0.03677471586134961
0.05267290869083802
0.042172694358143296
0.002637688641427823
-0.0634157917946769
-0.14694525127052735
-0.0327389736799214
0.0975787353894364
0.06033731406949931
0.06432972271204129
0.10752091248200434
-0.02236086920039423
-0.14338296611430568
-0.07293682432168647
-0.022011322322116143
0.007436609610819107
0.021192500617332282
0.028451689473729034
0.036367371284317024
0.045602423976452984
0.04856316203046746
0.03113965516766245
-0.02232961553799278
-0.12233023929989938
-0.06804883675007564
-0.04437477621511252
-0.023653396119600552
0.027887143178942215
0.14094242755268724
0.13429270497201198
0.009495618153477495
-0.04900349543639357
-0.06865277714430448
-0.08080911182489492
-0.11318784708593195
0.014671421360376465
0.09202511683077824
0.1146894005475079
0.08229110860322339
-0.0027556552953065354
-0.13379330713861182
-0.09721482361333567
-0.07098197785716659
-0.026539689655760364
0.06541397700502216
0.22702518669530353
0.06644673022977954
-0.024848542932693642
-0.06931845348352761
-0.09643080130279325
-0.1346586030037426
-0.005623988133001665
0.07782241997627026
0.10997808716840396
0.08925994839780939
0.01628783197260247
-0.1055462186191334
-0.06754554333412262
-0.05319828059481937
-0.037868494578734375
0.008197688245379439
0.11407969124455768
0.10151387496045691
-0.020256288548820254
-0.05637838161553713
-0.0247373641006841
0.04824511944163084
-0.06713803188587365
0.001160442356014351
0.030964241008287575
0.008458881051026351
-0.07080118192798421
-0.0024586779758712144
0.02461025412016203
0.025134127237064263
0.013863940991774796
0.0024571473554781398
-0.002473989077452598
0.00013417699989915966
0.0066460449962948
0.010612975986779313
0.005273271587007371
-0.013853211070548958
-0.04692180463567352
-0.08898478239497422
0.06900505111571408
0.037495034262870396
0.02483702984022391
0.03439737183811199
0.06348023766938442
-0.09551956013708339
-0.05229960854746065
-0.015449300907885998
0.009790857323543376
0.022111625873401562
0.02327042639357411
0.016583941941532145
0.0056214500603535555
-0.00642474488517941
-0.016710255174337645
-0.02245758133132864
-0.020970406476376623
-0.010340818293240624
0.009142323613102975
0.033370508373417
0.05346753789078467
0.05649718515685637
0.028419372113106293
-0.04099810596605426
-0.15275344472527957
-0.09499002136908093
-0.043444753982395765
0.03310764780252072
0.16369837076009172
0.16557976387040355
0.038133948568878605
-0.03704983868549817
-0.0898796141766542
-0.1518641956639942
-0.04658669512747978
0.015993237977630397
0.039869048521710075
0.03864966986849223
0.02876992149402414
0.022828100272037997
0.02510139092861827
0.030377551761008367
0.026293931174290963
-0.001506047106213819
-0.06290277806695513
-0.15766774676088588
-0.07297768851410283
0.014368330154252306
0.13122566173903008
0.09917033732045608
0.12692824320091153
0.007349588137048089
-0.07984044922304233
-0.16082633942448143
-0.059195049051457345
0.010438234496028608
0.044642423598913406
0.04930671275433685
0.03539333087747582
0.014439402475516106
-0.004624602682821298
-0.01675893381586803
-0.02049447979151992
-0.01677791738238775
-0.007783837007739443
0.003798976606378209
0.014930230929226542
0.02212581219782068
0.021576394322603002
0.009841324888815412
-0.014864723597462522
-0.0512376991879742
-0.09409850719617437
0.06498759083957345
0.03550649611492885
0.024906402412113355
0.03593435793615109
0.06561184103863775
-0.09366966989446113
-0.05142062377280368
-0.015919994444984275
0.007991068640043054
0.019462819794880726
0.02070478701011552
0.015341512135202573
0.006911278123215625
-0.001947805822764357
-0.009528660158295727
-0.01458845534093249
-0.01586563358442546
-0.012035375172409048
-0.002334680228174476
0.012255938637540249
0.027737046926671324
0.03640106187912339
0.02736269060154322
-0.011433718898966376
-0.09010291413809046
-0.013584216300277698
0.020539964033295496
0.022400513082240607
0.008328854757639396
-0.0020448398792466405
0.010450829015375508
-0.1397947637293165
-0.04792551812164934
0.07665473530157767
0.20693963486388461
0.09870902340306212
0.09698699199999372
-0.050822857995598
-0.17749691458263592
-0.27940418867454914
-0.10698862641113632
0.032979931400190274
0.06239835167230114
0.1073653220734305
0.07052588558376319
0.00722584351528285
0.3113382415992672
0.11444339569854327
-0.10078718912987754
-0.07560002969269158
-0.14462884351614283
-0.40800160506425714
-0.11383338226738068
0.14431777575767607
0.21550041090419475
0.17035068747658105
0.0789171280261318
-0.0058188685037655515
-0.055380053711605426
-0.06462556009344755
-0.04486324623573359
-0.014793619498711014
0.007834038280783908
0.012194840561690595
-0.002575576198346141
-0.02721799703900168
-0.04477699791213297
-0.03523109969143386
0.018370343393057594
0.12356623607449761
0.07386532420695556
0.04785340110677697
0.013132020316320474
-0.06552248330320168
-0.21620269779346815
-0.05155542998236371
0.03487817620319023
0.06651810743406038
0.07704204470199497
0.10196655570897745
-0.02860118738949043
-0.09442446537101723
-0.08687527024517408
-0.009081574509070576
0.12453813814988647
0.08945645473216599
0.053973385925471504
-0.015255592304316551
-0.14565988763629378
-0.15139604968472556
-0.029163615399316323
0.040720994617950756
0.08809193154432915
0.14391605173107305
0.03194827571039228
-0.03609991560115914
-0.060887099196105944
-0.05225970360396185
-0.02466135852125004
0.006893289221695496
0.029261723686119134
0.03208355887506694
0.007846369671633695
-0.04816225238848667
0.06234648101524046
-0.058941469427979995
-0.006625934542926153
0.028368871711958895
0.05825117813651394
-0.10269820953080773
-0.03970986869848936
0.060291186148892874
0.005990236317322081
-0.0009740002393881197
0.0323092491880567
0.09022014536370238
-0.04884023876622877
-0.007748493813689913
-0.004811283639878022
-0.04841716229882878
-0.13401304929355773
-0.04482864460944834
0.04324201560885197
0.15373756455340115
0.10136930490194514
0.08661781915981334
-0.10464467270849558
-0.0965701010745775
-0.11602074877493355
0.014388706070855416
0.0806555631865689
0.07873586647864028
0.013934917491450486
-0.10032232774398397
-0.04378483711435518
0.008948992906586968
0.08593724533196126
0.014750998628382365
0.019414310128492932
-0.08194563066985626
-0.0787496787594922
0.030592441604418794
0.03719849040783701
0.1207632153189668
0.05041047794525274
-0.011564300756951952
-0.10314816364345317
-0.054875901174772486
-0.08344572278509799
0.0110546024235289
0.04338409523974631
0.037584497641769986
0.01955667194172622
0.010044324089482356
0.01985341368191817
0.0483615535558067
0.08559103454036375
-0.08266061797175674
-0.0680354711485237
-0.07342717313386117
-0.08990823300090564
-0.0985262574476872
0.12300177091738757
0.19079855340130572
0.10629578639905636
0.05260463512242692
-0.0020108167657134357
-0.09433767312413276
-0.25368048714274644
-0.09153922375014518
0.0022577803537046533
0.05531860787253599
0.10206806225438869
0.1710147868057508
0.07485094990454488
0.007035582160203412
-0.05409540846668884
-0.13550453611517108
-0.05769513921742147
-0.02517959845921799
-0.02218250661254777
-0.0146405915881796
0.04231664021437332
-0.006469911986152006
0.07240483166062407
0.09180940204344736
0.03969566483269325
0.08081989308478857
-0.03562153260673837
-0.16444956304874803
-0.15255130958167332
-0.030412750645185147
-0.009812517252233994
0.11215472546897814
0.1451821944814464
0.09788387177889596
-0.02652579079715796
-0.02943710180641169
-0.11187194938088893
-0.06810002864774582
-0.08100615454897843
0.07865733696667337
0.04882491129934918
0.06989044086914226
-0.022074250477053626
-0.0007567225639639308
-0.05280947550156747
0.021137945685496266
0.007256832844976625
0.08081906382427193
0.009962494294480604
-0.0392713994174491
-0.09738974064364508
0.013235771347935372
-0.11925970209413247
0.10309429277700455
0.08487245582061273
0.033008399189038896
-0.046637674757059586
0.049252795424249485
-0.07804443813208763
-0.027712612207344035
0.0021419585316637853
0.015164471526680788
0.01637461826684521
0.011117206059744181
0.003948146489205655
-0.0020716422824439704
-0.005508297364207266
-0.006222944816988496
-0.004829020349280949
-0.00219373405475616
0.0008592187903710607
0.0036228513494874198
0.005447138495211125
0.005692831533214883
0.003826507955109682
-0.00030120909217887877
-0.006076963919524328
-0.011846857328565632
-0.01499951686692446
-0.012619763244356302
-0.0027398250578033285
0.01407599014670289
0.03339025063486579
0.04656456146915346
0.04212525700618446
0.009022649349271815
-0.05885259270906768
-0.15846048486452455
-0.07578593790329674
0.011994120103718331
0.1303308593897962
0.09914301640801829
0.12600874501243534
0.0036971407187985604
-0.08688251314538752
-0.16973324935853926
-0.06603204681549671
0.011066471075536492
0.05732042542621673
0.07450591681331249
0.06593710388202893
0.03291299107784498
-0.026340577779734888
-0.11519633819531186
-0.03589330684529697
0.01273398487593667
0.03594415270825872
0.04223507053282629
0.04189040987985416
0.04598702757108963
-0.13370353564912982
-0.08440581973382404
0.007326971005506468
0.15391080195175927
-0.036004904010146783
0.03993127136957611
-0.023361297049953118
-0.03776782230221417
-0.02006418596846381
0.010492029075450705
0.034488677660759644
0.03446071782494102
-0.0031207983217822963
-0.08600764654975744
-0.014920718703407304
0.016459074608117817
0.01988894101753999
0.009624790417873865
-0.0010750473482469373
-0.0031340104440416867
0.006129010806269239
0.02217064601644449
0.03402575795520787
0.026811525754942347
-0.014334712578801548
-0.09967945616052219
-0.030976402731920285
0.00041779737020279813
0.01261854646110468
0.029736697207849553
0.07700383969627178
-0.024042293855233664
-0.059201586551516486
-0.023668670889830764
0.07738249818880083
0.029543519508230757
0.01135057436199111
-0.002028733695825912
-0.0340538229310915
-0.10214440341419309
-0.01452474466887237
0.030349694458333822
0.04166945094388913
0.03240550075497856
0.0152201734779079
-0.0005173907276856822
-0.009977004337971884
-0.012482902575102092
-0.01008652521602451
-0.005819921964980251
-0.0022250758382082684
-0.0005011526965257737
-0.00035504269890329935
-0.0004487544999308069
0.0007764113654673631
0.004173378450288435
0.009151454441715584
0.013398462364116454
0.013256722972612234
0.004783016554285158
-0.014730411777115
-0.045280738613630474
-0.08340351260950192
0.07731938277835254
0.044514791978134315
0.024787106134321477
0.022116563570671054
0.037659610724903717
-0.12913488045152682
-0.07903208011084807
-0.012397694674389514
0.06983365667073466
0.1641632987490761
0.06316358791439333
-0.04364733858550711
-0.16650183551963338
-0.11134463164377881
-0.07766386120783214
0.14011183880240716
0.14820028310463995
0.14866919831803924
-0.06267690768414694
-0.09425357063180878
-0.15358940148197014
-0.042046211578307506
0.04783434896454365
0.13128290026449124
0.027513786248558488
-0.044848964401080424
-0.07161929471409538
-0.04578083140342344
0.030631658752527078
0.14554395944587675
0.07755045670014049
-0.0006658874289576564
-0.11611084712693287
-0.08801630345247102
-0.12192832927309782
-0.00796529698352132
0.07576569333339776
0.15586728790561205
0.05543601167269608
-0.011880935250400324
-0.04370653299808904
-0.04680047669921877
-0.03266101064156554
-0.012949571997702924
0.0037314029478136244
0.013121953341656169
0.014892535136790879
0.011239330975297949
0.005258103961662087
-0.0003368567599121246
-0.003894647363695268
-0.004936467209860597
-0.00388503009920106
-0.0016493998745477946
0.0007543190436577082
0.002462282742720564
0.002905441412035541
0.0018840643023364182
-0.00038222793984200615
-0.0032278402493827914
-0.005587677982405358
-0.006191904810229452
-0.003958063582949287
0.001455501236062257
0.009095385726618128
0.0164339777701081
0.01968100628417235
0.014901900675971939
-0.0001071062968000712
-0.02362944213712367
-0.04835839534262525
-0.06127549655433325
-0.04589499552979948
0.013033971739783679
0.12340156320404665
0.08031280892866222
0.0638990459284475
0.0421631823537011
-0.021100680587979637
-0.1553725922561329
-0.1731112207306936
-0.0640991507056475
0.0028883909172986704
0.07110203154028424
0.18248690246111365
0.1648129522750978
0.023962252635284075
-0.05601506859143917
-0.10563205216798434
-0.15883110514770918
-0.042473439733906555
0.029942709042833447
0.05898353636352722
0.05544159749991489
0.03442055599020221
0.009865984939577122
-0.008851159908716596
-0.017889163721529308
-0.017951519541195483
-0.012324738464201773
-0.004872577728737594
0.001392879883547556
0.004940805137768542
0.005654656595179837
0.0043478582752491425
0.0021673944177715157
0.00011273912205722203
-0.0012222213263646002
-0.0016857715165065085
-0.001453476360831625
-0.0008533365353300045
-0.000207571849906778
0.0002657128325014577
0.00048229440735603646
0.00046892377247812953
0.00031422854695534197
0.00011835294314545162
-4.249837985937262e-05
-0.00013103012409606022
-0.00014619565609992635
-0.00011021040562543925
-5.308114992079648e-05
-3.876167985878234e-07
3.3068067989072376e-05
4.391887478538286e-05
3.7083131195052825e-05
2.1187972516746694e-05
4.5170800704945125e-06
-7.446244351046465e-06
-1.2700441009328476e-05
-1.2071121002109222e-05
-7.915309902027005e-06
-2.824038441966808e-06
1.2715475076815984e-06
3.460017039834617e-06
3.759359712388232e-06
2.770035861574833e-06
1.273818930128564e-06
-7.657056627574757e-08
-9.136036866335654e-07
-1.1648080832904076e-06
-9.670038730161497e-07
-5.467746806149813e-07
-1.168465312009261e-07
1.8515606639520355e-07
3.120429680034023e-07
2.885604045792934e-07
1.772551004680085e-07
4.508815251815714e-08
-5.906606744159156e-08
-1.1301730419272565e-07
-1.183786566898398e-07
-9.132160747757992e-08
-5.218711384090206e-08
-1.7612405552783246e-08
3.295577994816575e-09
9.033496623392716e-09
3.377797293965498e-09
-7.730721112668844e-09
-1.8831606156644307e-08
-2.646738506360996e-08
-2.9522660515650993e-08
-2.8710423891099323e-08
-2.5680825120596376e-08
-2.2169970918664965e-08
-1.9438631160489868e-08
-1.8066050768939263e-08
-1.8027075364857583e-08
-1.8917958383498942e-08
-2.0201156165738057e-08
-2.1386366147884738e-08
-2.212333486668508e-08
-2.2226888665192323e-08
-2.167320669122152e-08
-2.0597996859430716e-08
-1.9301314277000218e-08
-1.8235317476528798e-08
-1.793609386896313e-08
-1.8870393198978673e-08
-2.1205539865466654e-08
-2.4566888024685427e-08
-2.7900565194402062e-08
-2.958026101620133e-08
-2.7856850454077218e-08
-2.1634831453598826e-08
-1.1385128152570595e-08
1.7729034830607103e-10
8.124138032486048e-09
6.451930243068139e-09
-9.588329268703433e-09
-4.042526665518784e-08
-7.944865716614728e-08
-1.1218038765953751e-07
-1.1884103161455028e-07
-8.101887353166176e-08
8.46360240914041e-09
1.3549214232994667e-07
2.592578703423337e-07
3.1687378476107723e-07
2.4155129967417204e-07
-6.750067750123675e-09
-4.060647364513553e-07
-8.472558427465445e-07
-1.1372028606137106e-06
-1.0452280880865966e-06
-3.949794063214164e-07
8.171279522618025e-07
2.3198652461474476e-06
3.5413464470848387e-06
3.716353380818218e-06
2.151233363106953e-06
-1.3927171425977087e-06
-6.317548426017057e-06
-1.0997718680521448e-05
-1.2984744645546508e-05
-9.736198499280567e-06
1.858653668704721e-07
1.5765188968781536e-05
3.2607646398673406e-05
4.3146132200496884e-05
3.8528076630950034e-05
1.223203382838153e-05
-3.536537239143984e-05
-9.317120675733652e-05
-0.00013862296347872606
-0.0001421505361935174
-7.76815849462985e-05
6.247911412406801e-05
0.0002531902807273083
0.0004298042044903384
0.0004970944597137974
0.00035843479137893545
-3.7396163403744e-05
-0.0006446191621847015
-0.0012867117862361995
-0.0016675049060006664
-0.0014476637525454228
-0.0003867904492565341
0.001480835832536112
0.003704034778526967
0.0053956680189059985
0.005417772455304203
0.0027983054538581746
-0.002691423462197519
-0.009990340519001497
-0.016521000640311017
-0.018584027209732637
-0.012548579560987842
0.0032676143074894947
0.026520577407016976
0.04941371590634757
0.05890644863994981
0.0392629127450059
-0.023128146311795703
-0.1338487043377745
-0.0856473643244835
-0.057152367186364884
-0.016559659747834493
0.07017193156206647
0.22915336051139976
0.07017193156192156
-0.01655965974677147
-0.057152367182166534
-0.08564736431595132
-0.13384870432579263
-0.023128146300119116
0.039262912750131176
0.058906448631686606
0.049413715880524046
0.026520577365863985
0.0032676142622895844
-0.012548579590249645
-0.01858402719924346
-0.016521000572018083
-0.009990340392901722
-0.002691423306834178
0.0027983055788999124
0.0054177724707651165
0.005395667853517016
0.003704034408787046
0.0014808353220283899
-0.0003867909306532526
-0.001447663950683911
-0.0016675045588083685
-0.0012867107482746106
-0.0006446175440245563
-3.739442572869247e-05
0.00035843586159237643
0.0004970939476459886
0.00042980144411602927
0.00025318532744772937
6.247313618030447e-05
-7.768623633506591e-05
-0.0001421507990449614
-0.00013861616175704682
-9.315659366756263e-05
-3.5345619033608995e-05
1.2250169657376326e-05
3.8534706892941156e-05
4.3131292574657885e-05
3.256616125827217e-05
1.570200405436135e-05
1.1949867158526292e-07
