0
-9.498513281048818e-05
-9.498513172522726e-05
-9.498513079946121e-05
-9.498513058200041e-05
-9.498513159113587e-05
-9.498513404150149e-05
-9.49851375620465e-05
-9.498514103894658e-05
-9.498514273338831e-05
-9.498514077572543e-05
-9.498513401093564e-05
-9.498512298262684e-05
-9.498511065107467e-05
-9.498510233705293e-05
-9.498510446976426e-05
-9.498512206177678e-05
-9.498515541647945e-05
-9.498519724521272e-05
-9.498523185259441e-05
-9.498523799197143e-05
-9.498519611403312e-05
-9.498509898626275e-05
-9.498496240630425e-05
-9.49848307840106e-05
-9.498477186286114e-05
-9.498485687828391e-05
-9.498512747835642e-05
-9.498555802544856e-05
-9.498602917621009e-05
-9.498633230647308e-05
-9.498622050374085e-05
-9.498550802649321e-05
-9.498419734656868e-05
-9.498258717586374e-05
-9.498129720250549e-05
-9.498114900165169e-05
-9.498287832957072e-05
-9.498672271742192e-05
-9.499201522621794e-05
-9.499698814416703e-05
-9.499900522503474e-05
-9.499535675466157e-05
-9.498455230508102e-05
-9.496776295644353e-05
-9.494978898889614e-05
-9.493880071604264e-05
-9.494426807538812e-05
-9.497304801024495e-05
-9.502448857861664e-05
-9.508639185247534e-05
-9.51343236337842e-05
-9.513655276812861e-05
-9.506545346392572e-05
-9.491350267250211e-05
-9.470865584048354e-05
-9.452116276784795e-05
-9.445349616305282e-05
-9.460855437545183e-05
-9.503919824520292e-05
-9.56931569869083e-05
-9.637776654972105e-05
-9.677342942681845e-05
-9.6517442112542e-05
-9.53577220526683e-05
-9.334124643692681e-05
-9.096448453237033e-05
-8.918962756137048e-05
-8.92407223896285e-05
-9.215242727764279e-05
-9.815018502888556e-05
-0.0001060694244740103
-0.00011312267077677903
-0.00011533127247549834
-0.0001087947444639456
-9.165834784705788e-05
-6.621452582725552e-05
-4.018027083193778e-05
-2.6042622287729517e-05
-3.7673590853526414e-05
-8.429796360252046e-05
-0.00016325057037573664
-0.0002543902374130369
-0.00031988580219400285
-0.0003125991389805231
-0.00019392580023155996
4.220721806066754e-05
0.0003474380730212059
0.0006111740394158401
0.0006789480380565466
0.00040310346438291616
-0.00028030658980401153
-0.0012708759805157286
-0.0022566168554029415
-0.002742076304213074
-0.0021804424000043733
-0.00020302773725030285
0.0031128894905163894
0.00704996312411765
0.010268976932395505
0.011145988962269805
0.00842009593090566
0.0019419094122826001
-0.006946772564024309
-0.01612700800967711
-0.025402429750057506
-0.04207004354883187
-0.08999173675935201
-0.22218701328697
-0.13577286525668236
0.01405764064659461
0.2074820958053878
0.57073203456374
1.6153179430395064
1.313590886291663
-0.7935608929208561
-3.281987553412448
-1.7692675500141741
-1.732100198211957
-0.6464541832381526
2.3656676023233527
5.249749061755799
1.5897319690459766
0.3244461496451819
-0.752657407212138
-2.541671307885244
-3.1179391582300346
-0.8500838654794699
-0.034515290956510736
0.5220148791524517
1.3924743219431144
1.3483913182416603
0.773404372141591
0.12435647486179069
-0.33377303731635993
-0.521313388441878
-0.48853022751002906
-0.3421828727237771
-0.18123781834275343
-0.058705819161587125
0.02530912586389107
0.10418801911870529
0.21024436381080797
0.33900216751218937
0.42563627738435716
0.34314125867244677
-0.07493868290761384
-0.7931614865822195
-0.7283117160660455
-0.31639434940699
-0.10509799838351151
0.627622645470352
1.84162407763978
1.5092258031891035
-1.3893048018112037
-3.654209127715526
-2.8647021851639525
0.5836596985083887
7.202286637968605
2.937772689670523
-1.6291394761841032
2.621716073200242
-8.272196205411282
-10.40200131044129
3.4354677099568147
9.18210977340678
1.0440456134810672
5.840179702047681
0.7113120583399505
-6.359886869888499
-4.877442996604071
-1.53849097014869
0.955782913481699
1.9239356227246036
1.785558077655285
1.075565281366136
0.27187782785856196
-0.3119007237158639
-0.5553585360326512
-0.4976708887578475
-0.27094611723063844
-0.0290213867111897
0.10897185114400793
0.09168806650701727
-0.05552945645546595
-0.2432816994966546
-0.34904389088289384
-0.2626676596385965
0.059954918664207324
0.5467651314741792
0.980415679840525
1.2097750675560728
0.8159286473195305
-0.16915540686877883
-1.1163103189446668
-2.6731385072883995
-3.5175182449251947
-3.038426024520739
1.0485875019346511
9.407392708954696
5.825418998969146
2.127854033014227
-2.266670344300797
-9.996617429168195
-9.174159793906558
0.4394667093582184
3.982888196326092
6.396689809687835
9.237522989314366
-0.3992703592467629
-5.523124899295222
-4.4637514537031375
-2.1758954856408157
-0.181502575109186
1.153038589575967
1.5899785226220924
1.2929594614832323
0.6716398026695108
0.05808302958804512
-0.3550426967884604
-0.514732694264158
-0.466751431377888
-0.300585073819707
-0.10287282086115046
0.06835004085466206
0.18735240373802445
0.24936050149177028
0.2549286358115751
0.20003484846084904
0.07768591364587113
-0.10928970983972486
-0.3307557268085624
-0.5179285925482251
-0.5697564546390246
-0.38444484531873585
0.0855314626554443
0.7687910631117375
1.4258832552607854
1.64525723252499
0.9064300099383822
-0.8893277831126036
-2.051523617395838
-3.1546496405098328
-2.5808080587359377
-0.595426645233555
1.8496068423831844
5.852210855300755
7.945793676591405
-3.5600552929614646
-3.0422875120817836
-2.887193580653393
-5.406382272056097
-6.088150377476166
6.735184556346702
4.42498637335372
3.494356645175299
1.739986438589577
0.36236788664553965
-2.899858486408887
-2.6836710638801087
-2.4760299146960554
-0.961875090818345
0.08204476575615499
1.5356997090142719
1.769215277446372
1.2337058979486912
0.4814836003706494
-0.13722768200890084
-0.48909470561630386
-0.602670487567619
-0.5793946578263967
-0.5086721245777976
-0.4162544449445815
-0.26041671078420636
0.025824865600517055
0.462978062224057
0.9513195889838383
1.2273062704575493
0.8780897605254518
0.4274335256038996
0.0830281081828867
-1.0912385008057521
-3.0362479864912513
-5.05828534287911
-1.9404384146402298
1.7909559725761819
8.91275743495006
4.598902186354804
4.311389057637491
-0.22554353435269014
-6.605720236407699
-15.439875832219858
-2.998875618584534
5.021765583966804
5.989579362663148
6.421352703721167
7.107264334607374
-0.7211251116451963
-6.501395709478775
-5.401549513413913
-2.5029152918624544
-0.0811145780825483
1.7143242200539517
2.183678214244589
1.6800515650213617
0.7898526215928477
-0.0324069348860504
-0.5399370588881108
-0.6851994306951696
-0.5572178993037844
-0.3014565620018651
-0.05181259081641498
0.10952233568103201
0.16214767617583034
0.13452270330767474
0.07881562091134592
0.04374334091369536
0.05272626481224625
0.0913254298278638
0.1050472656562905
0.006237239291696465
-0.31337809655207116
-0.5697225407292401
-0.47831327469140733
0.446964414198615
1.2935687208769464
1.3611290916408147
0.39619974114689166
-0.5485802982918936
-2.652504107917681
-3.7031727205985825
-2.7531484093430456
2.9308367392901937
6.6694228964608175
7.8195763652440355
-0.6242427308455974
-5.4349479837414485
-7.032731108421412
-6.399368481278801
-3.9919101003790822
7.4709000496165885
9.818413960863392
5.2175213972144965
-0.4568986473194835
-3.5619879448364853
-5.975511297553536
-3.4841422675318614
-1.0467732372252334
1.5516607801893891
2.4383110626339444
2.0482294208492333
1.0798736756739575
0.0994240176101463
-0.5591586280419519
-0.7973046795497818
-0.688614873801019
-0.39034677122867645
-0.06429870546400651
0.17355592236513723
0.2713075310144368
0.23488911431596132
0.10919212150438085
-0.04341457736187712
-0.16191972814549865
-0.202462565621469
-0.1532966178338905
-0.05064156877901142
0.005911016441703055
0.24387596187907049
0.6230178193234214
0.8646986838233054
0.5112358696443674
0.21138757071212547
-0.9868647895238317
-2.7707397473766444
-3.166551848345707
-2.6444245742981303
3.0817631236106915
10.221279119888594
4.949242253657557
-1.3720454259802632
-7.970793192326771
-6.938605921193862
-5.97165761526734
2.27119417559214
6.361792201604295
10.756351619827418
2.697925057285214
-4.873564620250226
-6.166017786115557
-3.2310563353042148
-0.6708948067673276
1.3182732272721742
1.9307461459625423
1.6099004504981311
0.8638197708946368
0.11216337199740767
-0.39544796017926725
-0.5861352668138804
-0.5175750529354237
-0.3102714825479781
-0.08562760414368409
0.07399583458416331
0.1391427574743801
0.1258518618666406
0.07597965823861044
0.034391764868458075
0.02992285297759137
0.06412065771572764
0.10928274312536274
0.11532472308301406
0.02316586705190076
-0.21981858929454376
-0.4488848080621403
-0.6830425062924993
-0.5433244721911803
0.3139130874618484
1.362156992767874
2.1927161458129922
1.551815535579321
0.038353887857810076
-2.7578806904201074
-4.934331071978485
-4.445873026476433
0.577699293398315
5.97614191759778
5.256889956979768
8.18985090711751
0.2196421502642557
-10.483198700269618
-10.040841117564149
-0.14910279344558341
-0.7882645861628601
5.5943125279437815
9.935506227511956
3.8294719636066916
-4.013391397424722
-4.866554023198
-3.9200868099545625
-1.1917399322276954
0.8547081445935546
1.731604608342842
1.6181076958195502
0.9918024337395056
0.2747767764710668
-0.25961982550245055
-0.5080689088792146
-0.5024095374990674
-0.3470134863058807
-0.15610735421634314
-0.009802796640933196
0.06376975085405072
0.08237561308549804
0.08759724828711868
0.11682692871473016
0.1788400517679768
0.24030447208149772
0.22734894114581627
0.04202563695626066
-0.41171669838116565
-0.8029917381093712
-0.9626528072726032
0.10514815910288333
0.9902964160196863
1.6393064516136024
1.1389012252373363
-0.058429699951927594
-1.8661252609285164
-1.6778463994926807
-1.5057012802455934
-0.7774416898400928
3.20053149943642
4.743361418117232
-0.6990469299063394
-4.3785529311108355
-1.239169589344619
-0.7031286925176189
-1.4958749466114576
2.882304310578374
5.67538444536647
1.0434923704648111
-2.8642010051636615
-2.7377284682377216
-2.0955235055516295
-1.1197163024619585
0.7998939926833649
1.6021926960643749
1.4091553359828792
0.7599509646062436
0.08077187397683383
-0.379243325015744
-0.5455608910331683
-0.4701302384818703
-0.26599117158271235
-0.04882091497258556
0.10076794340463299
0.1512935434700817
0.11561918305580757
0.035250310558694264
-0.03891600056622746
-0.06442649787991189
-0.021102572477428416
0.08049469045343677
0.1972685998637723
0.2599735602320606
0.18848459518790317
-0.086101087783484
-0.599021548905395
-0.9397443278094962
-0.6613906329601068
0.28349937156656485
0.6893860190847493
1.450025627404969
1.7487363672393774
1.7129462624689087
-0.06319033965053544
-2.7596591466479703
-6.002588988892407
-4.8512664454262335
0.041876580115432716
7.714530348910946
5.332223339334149
8.15163261438012
3.1569374124934355
-5.995371122946401
-17.4419908071752
-4.824815196283606
1.3109847298085076
4.725022427624595
7.785092108621353
10.100536609558084
0.7385410427090605
-6.028318791307223
-5.4592778117593355
-3.920725274360166
-0.8967775379753292
1.2240111328968486
2.149633607582109
1.9277979990890228
1.1276763019066862
0.2492233458002454
-0.387993678651314
-0.6673579937171262
-0.6315056694887965
-0.40802521150760707
-0.13741827398219764
0.07602623266062486
0.18410310529762045
0.19006437635182286
0.12981701657845185
0.04961097915288157
-0.01210868005475797
-0.03508481298011014
-0.01968414443826943
0.01682871253987092
0.04777782612641916
0.046008055763645694
-0.007991421189228855
-0.12138018849734983
-0.29085051816688046
-0.514215753846821
-0.21285728692514005
0.33869558316794107
0.7870084890336363
1.0950638499484342
1.1761484641928601
0.5738948183580335
-1.0240032025398107
-3.0755609317339823
-4.932577927800057
-1.2967596787957716
3.4054218021617273
9.183299378604383
2.687031028411864
1.164869588056882
-7.793191580322931
-5.999278917973343
-5.244466615588083
3.161876228536365
5.057638733472473
8.583750447148494
1.3801832145795856
-4.45624234920721
-4.431002897224164
-2.610971085107152
-0.2092349217314705
1.1124405320858988
1.6047422987366422
1.2991807638763877
0.6523110673566731
0.02389674817659404
-0.38199853209373985
-0.5139838607277019
-0.4290191862977022
-0.2335393511102284
-0.032067723119646174
0.10468366436295992
0.15037113370350197
0.117248904918976
0.04166451905948357
-0.03246547948647713
-0.06804700359999784
-0.04538998038305494
0.031396724175785366
0.13257650341298105
0.20648539316325357
0.18973837948065236
0.02338990299341116
-0.32872672410203596
-0.6670245009919546
-0.5579592121617594
-0.3571783062122383
0.34810053473019575
1.0920346096143885
1.7035413876306278
1.3267903458452217
0.5026640713495922
-1.5017684767531194
-3.760942264552921
-3.422427489858944
-2.162738542266107
0.6156986518649133
8.498973295292263
5.404328936496372
3.6852837459448944
-2.9222040729167036
-6.347483227281501
-11.375266237311145
0.027764243201190753
1.3115431584902455
6.061404888630532
6.9693152215567835
4.6555111382447905
-3.297482296492737
-4.047223345887891
-3.0013501033144485
-2.0775403766760125
-0.6491770316598343
1.150404311835942
1.7677840954849564
1.4704361607955725
0.7650634779333133
0.056583652566025155
-0.42052129823885764
-0.5999885140901228
-0.5345536063689312
-0.3308350853604949
-0.0941415215544244
0.10293103607388421
0.22687293570024106
0.27249553040339913
0.24673425476467292
0.15745039815039955
0.012780630530973782
-0.16984655357061432
-0.35175951423961027
-0.4682543648711127
-0.44050671734640795
-0.20862513959755022
0.21868839906209878
0.7129643608921049
1.1966801647622676
1.4607688256093214
1.0447113378154698
-0.4258911826280737
-2.4783016923863914
-4.468693652541386
-3.563446575177265
0.33248041981085336
6.919835895059299
4.814278848174576
3.752103226533424
0.9953086168433057
-4.853432028976142
-12.92555674470758
-2.2177997295854994
4.07557036839348
5.394300566530381
4.506033915099458
5.433420476362349
-2.0433420630261274
-5.467974884454619
-4.644786583790959
-0.9649039486919583
1.1570112586277843
1.8866321314913872
1.6456774582998028
0.9354295101817441
0.18271590306044183
-0.34763380595812143
-0.5664996445258527
-0.5196059054381928
-0.32223088362465013
-0.09693775551657158
0.06862247807260977
0.13864607668566006
0.12464909117640174
0.067679911378841
0.015789292577909786
0.003192621565573512
0.03487217358463452
0.07820470958812656
0.06177984488329853
-0.11950367403246911
-0.395033872722098
-0.10731277683451806
0.199522424238566
0.5931703525779138
0.7736480527735781
0.5055446561751937
-0.5399535881118033
-1.7474216825592446
-3.148998577758036
-1.069627727060973
3.171919325208123
8.341676785817022
0.6130738714806726
-6.615334239618425
-3.4163582786338496
-0.8195506926284993
-3.7738824182211044
3.5750086534235113
9.334750763776357
2.741561495973581
-3.84352010884959
-4.989777590559271
-3.1676528903670103
-0.1496928544740811
1.4684651421954065
1.8088803178528199
1.361385645621134
0.6167052274271504
-0.05683943571297556
-0.4656464798126133
-0.57733460169661
-0.46651058896951103
-0.2496583995233187
-0.03239486519482998
0.11946631236766025
0.18497779514081375
0.17667985761174623
0.12281481878597866
0.05172719872974957
-0.016687343176672927
-0.07180854928528121
-0.10799305122267941
-0.11938267406939042
-0.09788895647541274
-0.03674135770832944
0.06064032201294532
0.16946252845437657
0.23505158678763916
0.17227507313714793
0.07616229414870966
-0.15695389103532792
-0.4030970780788823
-0.6877115726884468
0.22555879025651088
0.6309387638684893
0.6654168704431317
-0.10873355964626485
-0.7171469324781478
-0.7832982386183334
-0.3423606219461511
0.7357703343701635
1.9187339141905746
-0.2069314467365545
-0.7320443112367881
-0.7977543838764162
-0.5592320410658349
-0.7592263334763779
1.6778359471141562
1.0360206793968396
0.19845133735221443
-0.9469443296747476
-0.8850475400666223
-0.24762811775412924
0.19894245077179462
0.3436294671484303
0.3026138072050129
0.18577188119333415
0.07076567788396804
-0.0075854877597656785
-0.05186530718355388
-0.08525623888233641
-0.1310693741760494
-0.19691395588719623
-0.2705014117907657
-0.13116479549788923
-0.17680251282804765
-0.060463878560538004
0.2750254121907113
1.3808403059188585
1.1223303440055423
0.5481875238199568
-0.5939707126823831
-0.9207132000171799
-2.5004762173100294
-2.419215106791791
-1.0637503345928514
1.073142989955764
3.3104321959060603
3.905886369292387
2.091714703944202
-0.311575124131269
-1.897199700057898
-3.754592394537229
-3.1418788730780407
-0.6572410185462526
1.4265423190060351
2.0669214714438024
1.6557490631394256
0.806473901367793
-0.005849520221299031
-0.5182198090062791
-0.6711894023597207
-0.5468623958104962
-0.2890785698897288
-0.034773195163384285
0.1277779827286489
0.17123256080873078
0.11815604100273913
0.016219054105915842
-0.09170763117440969
-0.19655275437205832
-0.14730716512585768
0.1330495415296999
0.44533403721381926
0.9331840866132323
0.9302672723193766
0.035982402769550614
-0.993759438171887
-2.370909487549456
-3.6552773632686852
-0.8222121507425119
3.3837419349191755
8.86111177086314
1.6181038813776654
-5.63148875223324
-2.9379490959757795
-1.5281032814711109
-5.87240030751952
1.3166420870912623
9.156347908513935
4.015148343094437
-2.2052165649387185
-3.051736700347419
-1.7750698731089598
-1.1353455423357712
-1.0493244649359845
0.6664989220058339
1.252199542701825
1.0936051323173868
0.5941830954913675
0.07393240250296507
-0.2806606666266482
-0.4149624812284086
-0.36893232411241317
-0.22648749535354407
-0.0706998541116538
0.043963018554349836
0.0998250321323696
0.10856245485852445
0.09522880198724964
0.08096985937620921
0.06981928137285032
0.04225045012923437
-0.04465074238051124
-0.252936257366078
-0.4594685989985623
-0.15509460818304913
0.35232515018279703
0.7362517737573802
0.8612599307771388
0.8138700212715898
-0.4449994723646195
-2.4212875444579414
-3.0530390098741833
-0.7312513582613875
2.414397863573978
8.19639502379742
1.2806633179888844
-6.617276358816861
-3.4540957642792147
-0.7657987602837325
-3.643796294716094
3.5841769679979514
9.208860412997891
2.4253750164584433
-3.4578681851691164
-5.062703939016382
-3.303191536674171
-0.18097155605214688
1.4958199298244272
1.8518347423878807
1.3902046367164191
0.619841740621862
-0.07357870590952809
-0.48454396859871257
-0.5772183043197029
-0.43237160270214603
-0.18125365088168455
0.050702412408870245
0.17888388572370179
0.17208511485629027
0.04748001840948779
-0.14613365455156319
-0.3528851436537787
-0.3403587735700998
-0.13394571277437378
0.35101725929508626
0.6914813077312428
1.3701554742461652
1.4355862272812079
0.41259492774496065
-1.5555301472399614
-2.7789948139935126
-4.772381153911434
-3.542622986020174
2.5710988070660066
9.964394898760384
5.271288881640457
2.251169724225034
-2.6618974596396487
-10.996090708827849
-6.428232609373052
0.2871692874172057
3.730118487877282
5.791557908808667
7.954067851158314
-2.953928765943371
-4.026555548827722
-2.777837958459555
-0.9588823665492393
0.19932800557258623
0.8557567705055423
0.9388181958185609
0.6708546345501324
0.28192558656663036
-0.054126457752975754
-0.24744638357367615
-0.28680056909447127
-0.21381561443080027
-0.09148605166984525
0.021972954832355784
0.08866175879953687
0.09584593511893777
0.05301131006613077
-0.015483016146621216
-0.07994734453758118
-0.11652664017436831
-0.12034834631015012
-0.12057804218075478
0.004549498041864803
0.31742464476619664
0.6227546270690135
0.48907860084718924
0.2943756919158262
-0.10851826891113928
-1.3226312641416107
-1.159552530697672
-2.0416324903167924
-1.6692068498601311
3.6586715505441103
8.716104912548012
0.08164108895357691
-7.225079681003398
-2.6205845475200085
-2.033845809452793
-3.876968975938502
4.051481442903243
9.578354911879417
3.193665814386905
-2.975259520332604
-5.014570008627832
-4.162955445641678
-0.764356542860153
1.2570733627731001
1.9644422328390414
1.658569079269501
0.8902188351968746
0.10681503315080076
-0.4267760886353589
-0.6310453598412816
-0.5617106904795782
-0.33938158010711994
-0.08707428557440122
0.10851832530520289
0.20916728913877586
0.2172784703401286
0.15874485328506321
0.06623048717555766
-0.03135611161719033
-0.11232714381575618
-0.1616868135855558
-0.1715457751182613
-0.14686843345380493
-0.11828390953721675
0.040333190467582256
0.3961770189288385
0.5537500150867726
0.4736088108403191
0.5201506974834226
0.13579152246825538
-0.4738729572981737
-1.672119402288513
-2.775995464699602
-3.7244122547665834
2.5657165317741053
8.795845395976597
3.520257840351155
-1.0896437988748606
-5.516174191624639
-3.2595101375929336
-5.8192807970638
-0.009941566469004013
5.5502063761393945
9.036281025658543
-0.17478800486678236
-3.7717750211459546
-3.0217784804769567
-2.3904753224260555
-0.17330957108747602
0.985536341973795
1.2690848889389288
0.9914877319328527
0.4830960713556599
0.0015036910541762493
-0.3096921776204952
-0.4160855546110074
-0.358234022886851
-0.20885620241183217
-0.03809288399396754
0.10493410360303831
0.1945105161707354
0.220650396799919
0.17916453424829737
0.06546920976509085
-0.12611964730544212
-0.40073680895697483
-0.5655128539567215
-0.4427685528488622
0.10464035714933315
0.743530518976256
1.2537281135622842
1.5466535776360237
0.9346333445232592
-0.7535631815683477
-3.6442032220234766
-3.934908113621189
-1.5156159232170383
1.0797435307916718
4.427800676425792
10.575603658949646
1.7250812060740224
-9.088208729987567
-6.558470439931284
-2.2497485668662223
-2.4635223034447042
4.296424697534687
9.914007396690504
3.8434957346431387
-2.976518063390259
-6.222542847628021
-3.5579443413882617
-0.40464798344808484
1.3741860476009078
1.8451121825747288
1.4691142929867256
0.7350895870939539
0.028217096700520194
-0.43331573303998616
-0.5940117202917664
-0.5123548088812735
-0.2977098228382392
-0.057307807200159155
0.13401198898707514
0.24071214451205386
0.2578323528806945
0.19728556433143898
0.07790229543719232
-0.07706688985814698
-0.23710987769168784
-0.3628603144747663
-0.41377424924342365
-0.37057492852043067
-0.07152801451450333
0.5475289234640374
1.2286197394914353
1.606520719132225
1.2822920349475668
-0.043292840477396316
-2.404283885085666
-2.6302824869077788
-3.3070350408765257
-4.296295772263148
0.3746571652260328
9.918084839213597
5.622990178341269
3.2908248330319974
2.384985950457596
-3.9133561411032036
-15.690426512292682
-4.362254833405705
1.562274430894228
2.515958858087265
4.576869188706768
8.84511002028335
2.929216037746033
-2.88800461092041
-2.959305407624807
-2.5392353628731876
-2.159936886913451
-2.668669837112021
0.37483240974571286
1.9154664362823384
2.0729565370539413
1.3426452090642444
0.20818557651949587
-0.37932821700304775
-0.6406017786849407
-0.5427888823712452
-0.34144922479483486
-0.12013948670008845
0.0530051181769598
0.14518317617856566
0.15862647049651002
0.11832229034701941
0.05648665058320529
0.00013561766919555182
-0.03532833567415525
-0.046628710418922886
-0.039186662759740504
-0.02224728603070151
-0.004602960456413479
0.007974242107984489
0.013418138812386857
0.012648742249383072
0.008187101638812077
0.002780442471791181
-0.00153786014801265
-0.0038203157797859527
-0.004102119780334272
-0.00302951561720581
-0.0014341836026971926
-6.101705562035786e-06
0.000869433101358895
0.001120260603685941
0.0008955033567752868
0.0004388249521178854
-2.1148710264682282e-05
-0.0003358752615982769
-0.0004540687457564175
-0.0004036687857541633
-0.0002571518761017779
-9.64086050763144e-05
1.3176718438594027e-05
3.669721263955217e-05
-2.6470402205654384e-05
-0.00014591160032394906
-0.0002684562360277378
-0.00033127233331372614
-0.0002801977114995364
-9.212245690691585e-05
0.00020349291978856047
0.0005131392677571628
0.0006891360751802702
0.0005693905344143501
4.621420671313088e-05
-0.0008515999552060765
-0.0018954418196639512
-0.0026541787094684316
-0.0025888090046633774
-0.0012547228106433782
0.0014252943711040337
0.0049106167597058855
0.007951485489376896
0.008794591569921748
0.0057571760691549545
-0.001898472579810025
-0.01304565735382846
-0.024155214629837163
-0.029625636082232846
-0.023326800017935946
-0.0013144368408194054
0.034909316630768
0.07580583852173611
0.10339965798331734
0.09426540871810392
0.025931937142590598
-0.11519887355411916
-0.3284584073474347
-0.4013262585672327
-0.3238779987022445
0.08488051723905574
0.7461377843400303
1.100420308501042
0.7138062840737042
-0.2781840738752903
-0.8936809624117495
-1.0168692743587269
-0.7323932468413025
-1.1109594900514748
-0.6584948274688834
2.183304918793096
5.121147943650428
-0.47367760855747576
-4.584683997975563
-0.9116775286627513
1.382815796021194
-3.3048365047773847
0.3512811691272093
5.344298798954874
2.8834043677031054
-2.998593944017848
-2.1588065417924063
-0.6048149939480979
-0.3595002724365427
-0.7823467204269712
0.4310052949668868
0.9810318091721483
0.8588195171407663
0.4397824410095845
0.0071630064276245195
-0.279975465128107
-0.3772897664457282
-0.31946276323981604
-0.17704668371565374
-0.02082506312578397
0.09882875203106885
0.15761659604952466
0.15299807468627505
0.09641570743610753
0.007124858140093616
-0.09047791170779904
-0.16745021249575537
-0.19233925195245977
-0.13819026718725466
0.004136995509004344
0.2087402549129015
0.39975150726552705
0.446935571948044
0.17848735746405817
-0.1879390152471796
-0.6031888067348398
-1.3479769665047592
-0.6135354936583399
1.0903676944362908
1.9075696459795992
1.8100347490737987
0.7978341982677505
-2.872248938888119
-5.85873245803113
-3.3586572290832786
2.983541173272814
9.306485601305555
5.9957161311628795
1.4946978089960699
-7.688854499178512
-9.055132116898626
-7.033642144630392
1.677494150020524
6.696662805076947
10.365672286144175
4.378694471350168
-3.379816761505266
-5.920009315893654
-4.432815838392984
-1.3415321815961756
0.5309890889982501
1.8126853902059914
1.874620928833314
1.2436534336712135
0.41978586222087266
-0.24484793952578343
-0.5870875045914224
-0.607598086886967
-0.40942200721781874
-0.13076740811004983
0.10707122345580422
0.22857922839390563
0.21189415157011973
0.08285258804289725
-0.09794110560431157
-0.25160882289664993
-0.3012156030411779
-0.1970720109400388
0.05379740553328646
0.35996079417760546
0.7309359396631995
0.8891777465188186
0.5184920124558973
-0.452456785428832
-0.94911452731956
-1.2650878486226296
-1.4296009040036666
-1.4576182000517892
-1.087916352542533
1.4200807992415694
8.896212676725309
3.36313387240295
-1.89758081968452
-7.316792649115153
-2.5376705541591384
-5.388102869631318
-0.04370483278873982
4.192547077128484
9.375443303593862
2.216371731603268
-3.0646141433655116
-3.2774156515336554
-2.0412456174064117
-1.1182495616826194
-0.6093770380014242
0.5304091785095105
1.0575777184432056
1.1254133572396732
0.7438619254230524
0.26226115942828665
-0.29666172347647607
-0.4471283979147116
-0.40931425863492366
-0.25978191113401017
-0.08438762759500251
0.05328077231759465
0.12425408392508525
0.13082227239065544
0.09446608991677816
0.04214851822905241
-0.00409684751218002
-0.032213242572302694
-0.04018793675008805
-0.03295038751261239
-0.018248271006138413
-0.003186746027242257
0.007709763537566306
0.012856714222281488
0.012871130665634063
0.009415323361059954
0.004211353198891745
-0.0014464745750685816
-0.006657453155527959
-0.010577773619272002
-0.012118808492614675
-0.009988393555537184
-0.003217728679704159
0.007939691539770704
0.021120887201963937
0.03154330166920416
0.03282098266434322
0.01916298762338381
-0.011360554064409674
-0.05352374704645067
-0.09327845615781526
-0.1095310682928766
-0.08054752890349401
0.005375817328180188
0.13755459343541632
0.2736153359261913
0.33900292176394325
0.23976396727806276
-0.1110693202749132
-0.5594470160361082
-0.6805424648712795
-0.3672825719973741
-0.04672709545362961
0.476571953784378
0.7631614246692838
0.6879343321108423
0.2159539680448599
-0.18491681969760249
-0.6989615577663323
-0.7024485942976919
-0.3110139452062185
0.24723585651880664
-0.17369864429109644
0.5306697944067776
0.6720679844056574
0.13100960999983852
-0.4648893928144884
0.05759727876344706
-0.3690156421700307
-0.23319183189643622
0.1736777679312302
0.37060718598555203
0.29741321790475717
0.12599198273070236
-0.3260169270416967
-0.5830439088226681
-0.5093393497598808
-0.12490173405392996
0.3586128661251659
0.8902624642454683
0.5368585247288552
0.06188971097300108
-0.2644034690577719
-0.42739689860571173
-0.6174217229278488
-0.18435252570781174
0.18862607338504883
0.28755195219822294
0.15144710463395217
0.04740641391353212
0.046775936649431554
0.008409302403386597
-0.029222915042912932
-0.04824916909486342
-0.0465952218761333
-0.031153079614900672
-0.011414858557776656
0.0049155869651658505
0.013895541558455174
0.015297522957700134
0.011368773206882335
0.005252803703697265
-0.00030309004578264807
-0.003661623996201714
-0.004429308683227845
-0.003184669831665686
-0.0010245847811507535
0.000889843645500438
0.0016864681882398157
0.001003027474985591
-0.0009212923878917469
-0.0032823775138610192
-0.00489100037147925
-0.004513050170722032
-0.001351411971445055
0.0044264442591746235
0.011305738552645392
0.016440276897694332
0.01629276050456083
0.007961141930145205
-0.009047497583024708
-0.03120036435451023
-0.05037374715802518
-0.05525944641985104
-0.03526567514122928
0.013426052205754617
0.08114378371447223
0.13988855556974208
0.14328212900436224
0.03337689587003984
-0.04571139230827514
-0.13022738784058888
-0.22056540648417008
-0.27256805908505605
-0.0010191913855429637
0.1036260584392959
0.14893840351549664
0.21217114169470072
0.31872375839559997
0.03445096637737701
-0.1254647151458002
-0.07377162699371928
-0.32179509015377433
-0.35265288273958817
-0.0047280728884088455
0.33138990155328707
0.3050584877304155
0.39359950444392267
-0.10709397047313368
-0.48725661983563406
-0.6275087257875909
-0.41046329103862267
0.25527590367465103
1.0023641278855506
0.7765138503831738
0.22976297321352768
-0.25442300582417204
-0.7080946268120686
-0.9157140429037368
-0.3648125377839214
0.1711145583848156
0.4126468550201939
0.7274711638154693
-0.12463994103434939
0.163719606486551
0.025021399314079824
0.01838607376901691
-0.3491553213923133
0.410340949911755
-0.19845925328932812
-0.4241064740479178
-0.4516249739849849
-0.004605972770277195
0.03292900367790841
0.5809962878514887
0.7270015725603651
0.30231679859668037
-0.518622323549618
-0.39771385044625546
-0.602347435199484
-0.17971790598042886
0.25261252536020584
0.4985299853349955
0.3654346136752579
0.04817896315740117
-0.2766454087755133
-0.24482440339185943
-0.09218433784111565
-0.042998706178521987
0.09598808593443024
0.13518324514258612
0.09786706296551524
0.015361591228439097
