0
-1.4099687252776507e-10
-1.384540896931082e-10
-1.3093521896718422e-10
-1.1925742305061418e-10
-1.0676176634117134e-10
-9.913162747165964e-11
-1.0295137714540166e-10
-1.22984442382519e-10
-1.587688695632835e-10
-2.0181201081900275e-10
-2.3511459388410246e-10
-2.366107689354751e-10
-1.8710176822755676e-10
-8.138155668832359e-11
6.107572210802933e-11
1.9138782288008806e-10
2.382850980992073e-10
1.302391542832031e-10
-1.6943681893568566e-10
-6.242849764041819e-10
-1.1002144916335686e-09
-1.3749147838802192e-09
-1.1962087980576178e-09
-3.8899508707504975e-10
1.013721889560196e-09
2.6663058544617245e-09
3.8993634556913e-09
3.861715031521263e-09
1.8343572579991502e-09
-2.3384794917625345e-09
-7.845646703631152e-09
-1.2747597431230518e-08
-1.4277273424415252e-08
-9.723449325439384e-09
2.200718264638905e-09
1.98967551569505e-08
3.799389941616012e-08
4.7806359295267926e-08
3.96896857590741e-08
7.237300671350615e-09
-4.768286256035439e-08
-1.1104612809513572e-07
-1.565265468036002e-07
-1.5133076987153372e-07
-6.860533746329821e-08
9.588174469320808e-08
3.085252006125583e-07
4.924818602327596e-07
5.404437788243755e-07
3.4983887436163146e-07
-1.2387081473771892e-07
-8.115551974006174e-07
-1.4985082545736198e-06
-1.8457623498332861e-06
-1.4850124464409414e-06
-1.8309529501684875e-07
1.964662928399866e-06
4.390759677015151e-06
6.061125966041738e-06
5.713925040799222e-06
2.349205357214064e-06
-4.126298535679955e-06
-1.2326934336150634e-05
-1.92125972949486e-05
-2.0626654411801765e-05
-1.2696342151451084e-05
6.09389789326067e-06
3.278732957279518e-05
5.8816199093999744e-05
7.096727547694554e-05
5.519719816745876e-05
3.071473935217303e-06
-8.082328795889315e-05
-0.00017358189569160397
-0.0002346360256980718
-0.00021549487278222808
-7.90439980552529e-05
0.00017556051083650125
0.0004914230661177705
0.0007484330260469005
0.000785763904285829
0.00045749660721149495
-0.00028681907185027167
-0.0013218909007844497
-0.0023064228723295678
-0.0027259243665790716
-0.0020456931550322413
3.750408164962435e-05
0.003311857284025675
0.00685638058300327
0.009083958749534403
0.008138225848700371
0.0026542693523331313
-0.007280500262738806
-0.01932317675040293
-0.0287192201617507
-0.029251174836786117
-0.015478096440631557
0.01406385401708239
0.05367170611555615
0.08879157601971872
0.0974080922757435
0.05540744383776215
-0.054668707028124444
-0.23402353706447723
-0.26129841207270016
-0.09375581771168688
0.12212268351458787
0.23280635103610456
0.25882300699627314
0.1825298572239143
-0.05168363729915793
-0.12361968631705972
-0.11390409200656536
-0.07840214458258625
-0.2283991715784464
-0.12270562991136846
-0.07455890003969225
0.027825206181808462
0.2923041744811063
0.39385633268938136
0.15478432149388655
-0.05937499120077175
-0.12721282033717118
-0.3472281105002923
-0.21106377733945758
0.016837232692148443
0.10786551919581858
0.06608035370443822
0.11731884525170573
0.0962063039486963
0.03576706461576626
-0.037977236886491204
-0.10662320015982187
-0.15739933972642764
0.018559510736440174
0.025704054390697905
0.06130964594533285
0.11234529732968322
0.15467001793880084
-0.04340612729687008
-0.1130280408641555
-0.07429566430071813
-0.12706795577374247
-0.04675725075287074
0.012830782572465947
0.10999221900462176
0.10153318942740934
0.02876000712246514
-0.09367204164058703
-0.08422477519168167
0.004146886590806461
0.08769759363619357
0.26126378635767594
0.21444560866389803
0.054834381602517725
-0.2644725103761655
-0.5199836236596306
-0.4053420514660986
-0.13995667230063244
0.0986338158075357
0.9250527794206475
-0.30684765879448483
0.6563949122241487
0.35410082005152077
-0.1721416905975404
-0.9370388476629801
0.441879400255044
-0.60664785151805
-0.3767370623184325
0.12035388102620989
0.33804504854821904
0.3610346799223579
0.2698622360325607
0.11608786821466564
-0.08473159551226703
-0.1427291872114201
-0.2729798462155729
-0.27432317703768627
-0.11694277819155924
0.05618817309749369
0.11464292793142516
0.31862187303672534
0.29862479559709487
0.044921544803039226
-0.08893538045021016
-0.17005025940548962
-0.2641242434841955
-0.21614246735680676
-0.041141677893738376
0.07183408710983512
0.1447469142346575
0.19096465133740767
0.19920629128427683
0.1280045527912837
0.11412667438648542
-0.10638644563394926
-0.3706687567288932
-0.4643849295893652
-0.10969235084069098
0.628181084949762
-0.6837791546781854
0.31732443831436297
0.5521577201012996
0.2692799317150939
-0.5682114630075595
0.7244109649216813
-0.22086017265539074
-0.387476059808316
-0.33520025699764827
-0.16958517205859014
0.07203762858927636
0.2158879715160156
0.13265054105612853
0.11211926847139979
0.03977279917287925
-0.019276037215431807
-0.02710534704354999
0.028382099083564538
-0.059620628830391306
-0.10748229266155764
0.067710145917155
-0.14572928066762017
0.04816400247659713
0.05150140719717498
0.06852862942345374
-0.09899557281624793
0.14482832477282168
-0.010830084946836483
0.018560509737267666
0.017592630461962196
-0.022997257022222103
-0.10088578745021237
-0.19979979829090722
-0.09232890625101428
0.05147897628932348
0.25171932813692366
0.3070844113782507
0.18982481019501232
-0.14912107689353504
-0.36578743761592397
-0.3054734808889813
-0.1895753987498346
0.1875584130517276
0.4520284968477324
0.4399768332417341
-0.008837026982900802
-0.249186724018132
-0.6228993165410113
-0.45418040677194343
-0.05654011698778534
0.6459985406134529
0.49006809136102736
0.4498680114542525
0.0326022109622489
-0.30273743964800515
-0.7093055816518665
-0.31300538038264936
0.0154221059958088
0.26824948079619115
0.2894576263058689
0.1524494727427839
-0.06325023325488953
-0.0894209209055432
-0.07858921838951506
-0.006799084408824972
0.1280812997070574
0.1111018354311155
-0.08255239897140289
-0.07866852749395112
-0.09532909811309949
-0.1371270907560639
0.005581754739055331
0.15210492488380056
0.12353812002394046
0.1350999370781424
-0.008108728910634024
-0.11079305580090121
-0.18425524685245193
-0.24383946572440188
-0.1103653622060988
0.1837402440652437
0.38700502505846257
0.42702746370122363
0.4213161102108327
-0.09634921086600202
-0.7394781312305554
-1.0364331282749473
-0.4199010586631915
-0.05099127802631789
0.7231152882564574
1.0953056794206384
0.9359142600702648
-0.03325669517390835
-0.41701480590429274
-0.8853955636237548
-0.6967843767964716
-0.2335481058018644
0.23002884479847635
0.3227493739844864
0.34374178319226223
0.21850819150215847
0.05967465371403256
-0.057661038893924405
-0.10346115001719404
-0.08635124733895531
-0.03921903918050308
-0.0027289884880660623
-0.011098302994240252
-0.08259155035406832
-0.015698022756467547
0.009129873868519064
0.023266701070301182
0.06122335063958686
0.1519995815461157
-0.08718295275670701
-0.05341897069569915
0.04301255242818126
-0.017691394906494524
-0.06010124668047051
0.0911557349079353
0.015299425723331928
-0.10205973732250324
-0.06830922430356748
-0.08574815992109898
0.043861731093009386
0.11323777499923901
0.10462645498813207
0.18930064274717026
0.13403840902583203
-0.08530202309952421
-0.2664182761859441
-0.36584415675339566
-0.2943518449003379
0.07248877732121284
0.6692148339183623
-0.3921857942993895
0.5480724353258454
0.28058127262644633
-0.0722836742767807
-0.6379055686272608
0.4364998012128436
-0.38395893098693884
-0.19629636693393468
-0.04646048136249683
0.06967478156533875
0.19330643380030202
0.18322949940835198
0.09683414595686173
-0.022835177060017267
-0.1516978539263765
-0.08221483229227629
-0.017290513079766756
0.036177453216809596
0.07229891474894322
0.08958308040746796
-0.10675624650281858
-0.10351014816328283
-0.07998560230735745
-0.011301631529902866
0.12555957341068386
0.14468451981152655
0.046062542601825476
0.014926825732078606
0.02640323119871585
-0.14611254145585567
-0.12228684671424998
-0.10994355529785939
-0.10706628931147895
-0.11152605114706302
0.0638546997182614
0.37659983086178367
0.5483119764302673
0.4747911106698503
0.05620230320672784
-0.5577077562053107
-1.322611537361502
-0.8764152190331768
-0.15619394845884235
0.7409732668851181
1.2698815086650999
1.3541292201445168
0.3420801705719931
-0.5788972789303657
-1.115183764522528
-0.973984814563886
-0.3806659362323408
0.16580972185613643
0.490402881391479
0.5027949407998726
0.3428722231720379
0.13256648455395645
-0.052082459011991
-0.18540880187551603
-0.2787390228208364
-0.1592286681457458
-0.05079857109783846
0.03659769068772194
0.10809835393830446
0.1782736931729089
0.06339960502660633
-0.02416081169584812
-0.07754513063523925
-0.09365393639923565
-0.07045055096430634
-0.005688157774922848
0.10186649458218013
0.04939886200300436
0.027070685106667
0.017007114587345912
-0.004800976512394945
-0.06399887563771046
0.01794730530885809
0.029230576080890896
-0.028680153311478607
-0.14049708754465778
-0.08052335525564026
-0.02027763217077149
0.06072229776611722
0.1639325916669073
0.2649086542474248
0.11495823435579951
0.053551415109408855
-0.17023811524622182
-0.3733815863070026
-0.3205945815349104
-0.1205891879546331
-0.0411188046464432
0.2597004199576272
0.49487980480481675
0.31554013070693365
0.09491597923575695
-0.064901304464915
-0.3059957457931171
-0.37706529878809486
-0.19797776645530327
-0.03723095615002778
0.0926404067601035
0.22355516437529002
0.21126782651368187
0.11431499611463398
-0.020647455979799723
-0.16433178061094753
-0.10254593850172582
-0.0300849318494594
0.055229260707196734
-0.04391985915881764
0.07650073137918252
0.02101120964583423
-0.006696874954112868
-0.004650165114185514
0.02719199890613796
-0.11291653661279057
-0.028580837595714177
0.07403283455481989
-0.014945632782527267
0.0902744848698086
0.17233526115981257
0.014603189629150753
-0.19281324949871884
-0.24736301252209772
-0.1324436592674388
-0.02295701574268311
0.10197731699901762
0.24328594844660278
0.3703429699261301
0.22088837140573037
0.11663224816628971
-0.20730411597592338
-0.5678532378569527
-0.7079952851229437
-0.29283974313910677
0.06516672753951787
0.7563617885523156
0.715428350530144
0.5762766171748129
0.058322011281036895
-0.40999241406514897
-0.8396110750506839
-0.4211407149076515
-0.0784707363918787
0.150490297795289
0.3044953147158341
0.27007561482094494
0.1466531140158723
0.017588940371016812
-0.06618771993114873
-0.0891910650765888
-0.06439944203365496
-0.021251011194780636
0.006921698240038478
-0.006934198561124164
-0.07724666636204952
-0.0036797064977033204
0.02714767436814583
0.03711243001379894
0.05084929169931882
0.09067386352429269
-0.026440201395215975
-0.08949002331928378
-0.09255829984290392
-0.03400048393013939
0.0830592461160328
0.048951916032537846
0.04575251290758408
0.047444892401960356
0.02315288266562742
-0.056653765589292214
-0.012404684139136994
-0.04847664485925264
-0.14964043120275988
-0.08297455062520416
-0.006003965642330995
0.12017460346339122
0.11621852728821877
0.17319123567988856
0.04919643724926305
0.07662152200593689
-0.02055713180347281
-0.10324596002783051
-0.1938125213590828
-0.260114015675125
-0.2133542727953955
-0.12296325016955481
0.15335451566979105
0.5319296851024758
0.4695024130571721
0.1456294119085257
-0.1318232504640581
-0.29967339048247005
-0.5008360849806638
-0.2481231630900372
-0.0023686874790385263
0.2299843511123207
0.2828668476701748
0.20887308300203303
0.05959824034802626
-0.125558075763096
-0.12096747284913413
-0.10996757474495825
-0.07868619151873382
-0.012560255698452817
0.10289880732428056
0.0781700333380214
0.11531977965541122
0.005903934952131581
-0.06740288317846216
-0.126029655258886
0.0102737814249869
-0.07223900838515371
0.020054930753560907
0.08662494638941454
0.1297762986873318
-0.047948809018195857
-0.044634486209419594
-0.05811500466065399
-0.08452883791955365
0.0823158225940379
0.05017475898215576
0.02670274696540556
0.017942204511643835
0.027679265165957003
-0.14252852638420563
-0.09369284847883531
-0.03133091961818671
0.030601409638909793
0.06505262501989004
0.22947458803773219
0.26934724058970155
0.13017994764466756
-0.22265325826047053
-0.3814568102710131
-0.48023112937247014
-0.19475575322944913
-0.1639338294748773
0.5706334549151627
0.7185838444724405
0.504928694666598
-0.14102422236717926
-0.16658330814884784
-0.553227292410269
-0.4666262232935807
-0.2167132201143763
0.16016450246651143
0.2946600044523021
0.26023945896605066
0.1430489888529223
0.016700166835620797
-0.07186700460341595
-0.10485015786722184
-0.0877487542588631
-0.03999694185106169
0.013952983498414588
0.0510230434038463
0.053184941293945694
0.009289032585178778
-0.08404586823187567
-0.022192024209787442
0.006801777195704529
0.020337745622448153
0.038482974191123655
0.08106286025401553
-0.03455264203990163
-0.09472481282167404
-0.09044452331295481
-0.018798967161161063
0.11460705249032423
0.09319953791353594
0.08898642200019759
0.06607272540435104
-0.01137384827862508
-0.16847777669991024
-0.21011935646565963
-0.11703626430960366
-0.0508437939266199
0.03187517749018396
0.1601609057437526
0.33080969876713306
0.2999217130726005
0.18986318087792206
-0.08717495553585314
-0.39448782961666307
-0.5365533645134256
-0.43911627612819837
-0.15454917386410247
0.10505717499272553
0.7155086734323302
0.7861492700543997
0.32347712048327837
-0.17305696524129874
-0.2811605447677856
-0.6030767368864689
-0.5095955473095791
-0.09969889102457914
0.21285512104314738
0.28573078939486096
0.2160972979191728
0.10380436266868713
0.021264625223480035
-0.003265981468056833
0.012442119868982913
0.015274712679134867
-0.06428605881094189
-0.09005401194295852
-0.10002397092292645
-0.09278045307075833
-0.02348132897249281
-0.010259427528990952
0.05054910090839053
0.06395954862345087
0.11539909196157064
0.05398582250980557
0.08364702056145513
-0.03620914744248027
0.01900165995980503
-0.04478392717109937
-0.12149158532575431
-0.08780834391613285
0.008488234164087649
-0.04753353176057152
-0.04210040479568329
0.056595654233955905
0.08415862445950129
0.06593142562219292
0.006888169046236201
0.08837897843094282
0.07311825709206522
0.11805673021910197
-0.007070297361875249
-0.09976233237311675
-0.5095694019184277
-0.3348462429793049
-0.2368613080348845
0.32864961464257897
0.6701620376793808
0.6235076484667053
0.13472724730654037
-0.1286017317184183
-0.5403016712647594
-0.6663539967052373
-0.22171350733460712
0.15217319330432794
0.2841378206691474
0.24983045730844902
0.13975224284789547
0.03060493523503409
-0.032497741288512065
-0.040828606410651336
-0.015849580559918156
0.003962275100139536
-0.021116349990603717
-0.11763596831183869
-0.0891888824951329
-0.11363606629248595
0.05176587590314274
0.0585837431938392
0.15221755911420023
0.1584493955132155
0.07594564573146219
-0.12291409479484076
-0.0835295155913073
-0.05623006453605471
-0.08356494011243515
0.00847534513837137
0.013326408442473644
-0.05922459734868962
0.009386803303895968
0.03677188649500551
0.030566296148696936
0.18321660617977817
0.2733845969216691
0.07545362957865777
-0.22414816475684046
-0.4089195983884918
-0.42074722653722296
-0.16285957363778203
0.07946846273633114
0.6051018385284864
0.6621100600898763
0.2263333960016494
-0.19629973292108946
-0.34338928987115
-0.5558098808713633
-0.33936565603171387
0.05773763137260342
0.2454851445709292
0.2740713900432785
0.20733117588156827
0.09884803289041662
-0.021479194939549986
-0.14826277409969885
-0.0917294893561074
-0.06472699115178691
-0.07136027611843959
-0.1011839815805058
0.06969399379046741
0.07173797073536477
0.13239312159466418
0.06766797893769813
0.07816682072600019
-0.04905777024858356
-0.13392241265781216
-0.19512219024037344
-0.044137782256610275
0.11590019775041306
0.08636555893646287
0.06670821003700954
0.04890879544910562
0.015515645796434259
-0.05787222209966367
0.0033346531791216957
-0.020083517779863405
-0.1352707961998538
-0.13495571489757585
0.00012055381298531599
0.09451509554516728
0.3697987739071223
0.0388283058445381
0.10615911760581186
-0.2248183348610341
-0.34153228336196384
-0.4149747466356406
0.1987268206962595
0.34645708514531065
0.2604243366617853
0.14287264809284966
-0.039464753408683315
-0.14866569197186294
-0.2597553821416776
-0.04211151108162718
0.05547643821612927
0.01237343960272507
0.035909703306158045
-0.04469239033248007
0.012295026772019697
0.050791923267842355
0.10774428387245367
0.006855091303671338
-0.043707450026647346
-0.049677017824718596
-0.0263202603587733
0.006989129312628891
0.03190618482461779
0.035334609677709496
0.012615222775183614
-0.030448680170569214
-0.07729018262168694
-0.10297640095924944
-0.08015672642739627
0.011582167429459628
0.17486127076592733
0.18590343100185266
0.19273952011463663
0.12361501420391369
-0.09429974069249904
-0.3102116701167745
-0.32709766628574244
-0.2904074016630868
-0.09461651936658837
0.19189425523076017
0.4904398381814362
0.4763194333715171
0.156768274893956
-0.12929738903016147
-0.29024753883372567
-0.4483111160242881
-0.3068164465595163
0.07057882835122424
0.2637733115244632
0.28607141947660175
0.1680371403424121
-0.05621332862524343
-0.15558065107335298
-0.10172735502835185
-0.06567232885831122
-0.015351143168120586
0.0835248452138132
0.06335692396837134
-0.05104415766121382
-0.04773111748690358
0.06906404025902944
0.07854020827089768
0.14656382490404926
0.03279776219388821
-0.09925251192148683
-0.2722062101213197
-0.289302429647009
-0.13763657119520692
0.19869923341782117
0.3194510392976561
0.39149670223781685
0.3444070572720214
0.08466548370184461
-0.27239512185216713
-0.5623738203967642
-0.738738134579113
-0.2625703668130875
0.07610771458138037
0.5086766347413212
0.8252826784492914
0.5210332874898012
-0.02976166708174012
-0.1628279023244048
-0.4820956911402641
-0.6030082887367917
-0.10050834177131758
0.12322224160946336
0.04541796170434827
0.10727062567189054
0.1856115772103419
0.16232212313613795
0.10025000957959525
0.030947939398908365
-0.04458121922796266
-0.14482692751618806
-0.0917592815318231
-0.09603313551406145
-0.14849819591830807
-0.020640663408050198
0.126524651549205
0.12857355832425135
0.2042432270050418
0.14800158727228915
-0.06791424609923112
-0.08214500465146782
-0.12746373756497623
-0.2149263689473704
-0.12525596194441838
-0.011585081150640959
-0.013992951835683208
0.11772730546383829
0.19974131642808926
0.19627743973501854
0.21528540121402084
0.12173666783035676
-0.032057726326861144
-0.1650953499407506
-0.32585830720442777
-0.46285218244512494
-0.4190860768986342
-0.15676218943263737
0.1903121915964977
0.8491261673592205
0.7448738558870872
0.46472128104425725
-0.138266147203325
-0.5015201910703319
-0.8851569467206157
-0.5041186309959259
-0.08284396604324147
0.355768919567634
0.46983884838213313
0.3603416084259973
0.13257602829882817
-0.12994086434566782
-0.17482503877823874
-0.17686746765297273
-0.1281447761934179
-0.029170849588518857
0.11517565424095905
0.09510921245765043
0.09370371286404468
0.08660430821463183
0.04608730908832098
-0.05049953463607972
-0.21040263044501828
-0.21747573116457256
-0.030917302688605347
0.006853690827991358
0.15428669535633596
0.2513368561632514
0.10294551695994922
-0.12924772899003759
-0.12457520524058596
0.008623872140181522
0.15174277038406048
0.19860062709875614
0.07982980095406587
-0.21399435665591462
-0.4156583445122729
-0.37825067223206404
-0.29218804999981113
0.07617265706484246
0.530952202350066
0.7927745526592362
0.462577023740166
0.017594248190388573
-0.35689493413076967
-0.5098446734297908
-0.6602463794350995
-0.34767312313845944
0.18790652801442193
0.3943794369473361
0.37291909151722163
0.23637586830233384
0.07575237154819546
-0.056402663731092345
-0.14489462172678602
-0.1986172762383383
-0.2335536849301453
-0.05981625165365302
0.12284736147403418
0.12117808165016483
0.14006888182932029
0.17522737109378114
0.011166951573535212
-0.17416087626044097
-0.20024017818140885
-0.07481522821771508
0.010930939901683893
0.08074649114195116
0.1662356367847133
0.09742702055836891
-0.1058557228893561
-0.2403201925736495
-0.12372860291276402
0.0012903414444161562
0.2647006639064302
0.3712081224302948
0.4121663527630371
0.09053256482996364
-0.4435140444558977
-0.7562464760410064
-0.5086574574177282
-0.26357593261852963
0.0727863835432107
0.5824787483822376
0.8602460261685335
0.7557641089220403
0.15464804541538144
-0.3935683295503842
-0.6090717165305556
-0.5992671404253702
-0.5870312416733678
-0.07091391129860415
0.37439194392510344
0.463462973927222
0.3480419834764479
0.16687607548626163
0.012302561108451916
-0.08034516476138091
-0.12295759284723927
-0.15245332699262742
-0.20594783846575618
-0.10183487651830171
-0.03207030856103888
0.03329404530035765
0.1324068806506793
0.294744247632634
0.12793628330848697
0.013599625261029423
-0.08616158343330745
-0.21430364533737434
-0.20236712983099034
-0.0585194825274547
0.035489388327022545
0.1178776377259605
0.233965494510651
0.02182400923827023
-0.0992473348765373
-0.13552870230211878
-0.12163971690066996
-0.12087470290537283
0.17650291401321513
0.45920337383526577
0.40930161398606485
0.12850445441621047
-0.22511990929041342
-0.5990229424371895
-1.0223611449031218
-0.6131601552292785
-0.025634529416386942
0.8681866121374124
1.4853470436038358
1.0604689843115613
0.025386349817412432
-0.5487113318503954
-1.0601601938321816
-1.2697937168941849
-0.415875854216021
0.422608230603767
0.7093888196242485
0.5969731747974227
0.2618757406777703
0.053039243794526
-0.1338993514774658
-0.25671032663580384
-0.31012790310350025
-0.1049211955866843
-0.05236004882656996
0.04125777867153629
0.17106450342566237
0.32621110485828597
0.08505172999339745
0.017687549293920593
-0.10338561373967106
-0.288401286591618
-0.3181691090611859
-0.14159459759731413
0.11355212267568829
0.31863660481474987
0.31828568649264094
0.11031478643787553
0.03909879617284699
-0.19530019780649058
-0.31580429715329117
-0.04199685684458361
0.13392510863796925
0.1645296670570837
0.056941695271786844
-0.12422680702898746
-0.2608537094795671
-0.1937958382561411
-0.1455373324017178
0.04796692720046407
0.5017157010259865
0.45196224183772105
0.24307953294768556
-0.062074232390164796
-0.2492162995207183
-0.506635490662323
-0.38081629774562104
-0.14771851090677987
0.19247393165453014
0.2983132987255226
0.2567001096821668
0.1513901651264227
0.04072918866606125
-0.05037666722760772
-0.1251582246992288
-0.2015238192810153
-0.09724064053198754
-0.019547861371885286
0.03787711305584271
0.09111245599507635
0.15848081130771532
0.05340179166012872
-0.019198483065846608
-0.06185496282905474
-0.08018797989526778
-0.07794482112865146
-0.05427670860685502
-0.004868975441998655
0.07330614225454886
0.17560774419517253
0.08466001769669107
-0.03087668117005097
-0.21296192990005927
-0.10773600098748799
0.04139349722210402
0.19930469910672488
0.14349803969702155
0.06864749884521713
-0.20797981553266823
-0.24201321552183147
-0.16229280489070225
-0.07978073746937468
-0.10587225285615261
0.2237197194403028
0.52770017628227
1.370868001797905
-1.3232309242307223
-0.038496182947716964
0.17827121708612823
-0.8447564689463767
-1.5900242204518804
1.5308617827541813
0.32788581490740665
-0.03228226884951814
0.715638151680496
0.5043528583249014
-0.26013081759344053
-0.25747495644969026
-0.3895009578861488
-0.5134817784991222
-0.3915593944219644
0.13084521198551494
0.31501994695892366
0.294923021926921
0.23298549772848923
0.07995502922424112
-0.05168313087984906
-0.09776543101577982
-0.03857644149452326
-0.08655173342067692
-0.07140678348042172
-0.027234316156293167
0.015850012014024868
0.03490754865436661
0.013174963005716493
-0.06333809589739277
-0.009684744970757957
0.1555988257495294
0.21125415505721107
0.13863241211591698
-0.0685167676897232
-0.39283139388385374
-0.5868173074183199
-0.3778672710168673
0.31219000032696337
1.3381210544385145
0.1061190024091354
0.36746281310713874
-0.1616364899032643
-0.9602416847238496
-1.4609135249149086
0.37309917405314663
0.4392036321530333
0.859088122699616
0.7328742465847554
-0.09434373913364642
-0.44044858535063475
-0.5701287351239898
-0.3672417084052065
0.0892841944853892
0.33714802820331957
0.3304952287750823
0.43489661466772317
-0.575118399048263
-0.3134356459262865
0.022091328644133004
0.05040481982468428
-0.19862467778891393
0.5050045314421324
0.18073224853978692
0.032337775141391883
-0.14854640732508764
-0.1716596686900865
-0.23538307265798217
-0.11858492246130933
0.018516466819150257
0.22420618619803953
0.13979921074887092
0.1851355474433828
-0.04921247222921653
-0.0002555507873373284
-0.12245418404504926
-0.0730575016975538
-0.09789374699883725
-0.02185214019891609
-0.04638322901851896
0.04596652056934189
0.0820194088236544
0.08678133937228623
0.07424083505866534
0.042940044261432435
-0.02263402350634048
-0.14585128085288748
-0.1495775611399612
-0.048754483510953045
0.1540838177235975
0.27057631377666147
0.327638029394202
-0.23036575659123235
-0.5396987355826245
-0.5208762087205072
-0.2942873946826252
0.19019714018258727
0.916859677570678
0.9773169367329445
0.5722482856624688
0.05308695780547771
-0.8013393784016147
-1.4965967132233677
-1.1573068766636507
-0.3159363846861204
0.23128071068744224
1.314749125758321
1.6647292354711742
0.8127021953229299
-0.14370645801396334
-0.501643674967663
-1.257653129328839
-0.9931674851404684
-0.18068543272191742
0.26261753409200206
0.3682377682328251
0.47013587233981935
0.34221080968257744
0.14187901589143906
-0.02567416089774481
-0.11809767154031486
-0.14538757422791979
-0.1472604335703114
-0.16831080375887167
-0.03886701450697304
0.034176367768694635
0.06624550523523173
0.08657897058469984
0.12681968540834423
0.011036296325430043
-0.05003804524722545
-0.05989803688039064
-0.033441939055394124
0.007656416223661421
0.03980979527570748
0.04189940256436049
-0.0009165630798563572
-0.09404791088916123
-0.03145958497356324
0.004447490788785704
0.04063903462206887
0.1092980369716809
0.042686143617045556
-0.13220733182957334
-0.19938587148373677
-0.16091741093816098
-0.045833456720719035
0.281057049496402
0.5156786926718036
0.5237188486341232
0.16741617784065596
-0.451520887593953
-0.9442497930568606
-0.8013774997989239
-0.39268175937521765
0.19125561889834647
1.063532818715051
1.0553135564267264
0.45046559829927935
-0.035858197123360504
-0.42812529660099985
-0.8234763014960852
-0.5120645848701842
-0.11103020380561258
0.07038033895167174
0.23057172331455114
0.2481758731114659
0.24164116506627367
0.1301190194697108
0.0057379079793102436
-0.07860762915611692
-0.10734490456857884
-0.09114197899115438
-0.05266508656111772
-0.014144207537499414
0.010414574801536186
0.01772516659081509
0.013366916871862094
0.007294876885085905
0.008547127094681103
0.02073827667909238
0.039567070421029596
0.05316185079119691
0.04555676390586459
0.002805157831302513
-0.07981150849226773
-0.1920634960994847
-0.10758854794422186
0.010469993607225518
-0.003125097883706706
0.06749926971838145
0.2034523608876793
0.1422278064206946
0.18116309533697791
0.19591404765073336
0.07259977166952758
-0.2525939726666385
-0.5571993807750856
-0.713138854202255
-0.29613472930310236
-0.028239508606178257
0.7541885371271685
1.2268555072796195
0.6240314904748037
-0.17377783347559425
-0.40498118816109097
-0.757540854229966
-0.8908070772532644
-0.1757378458587823
0.3290550137600171
0.4636526618873303
0.327884647050082
0.2359357192498938
0.08099923475635244
-0.08142990692956713
-0.231779063862144
-0.17257361893229808
-0.11142971562770594
-0.04845903995789959
0.02797708671048334
0.13741236857274589
0.09870453577403955
0.1213857895463547
0.0008335257454468647
-0.08102824995939777
-0.15038406672569057
-0.03423812831204716
0.04589916274258075
0.0777013145538958
0.059174052973535084
-0.0016949573576485822
-0.08803294637892119
-0.17618613937630542
-0.03975585194694098
0.14404700540964888
0.18702870379142217
0.08458150869627175
0.015288610447170678
-0.05322011496310096
-0.15382049658894364
-0.10874468096415991
-0.1221016350508521
0.020986309912684395
0.14837397689193066
0.09054683471070488
0.07011687610072727
0.09511631551541352
-0.04180290767111536
-0.15867088876024354
-0.07652032941564561
-0.01210310178798918
0.026348255661183578
0.03946729537584351
0.03412231847846664
0.019582862146450823
0.004130844742850074
-0.006934173254085193
-0.011729794040564534
-0.011061043466155532
-0.007153893435962836
-0.00242773427240042
0.0013337607297673661
0.003305775699048011
0.0035267540195013606
0.0025685868748677116
0.00116177642959736
-9.094680459820945e-05
-0.0008557882699780256
-0.0010732453424718731
-0.0008759693885310184
-0.000476973077479415
-7.39833001426327e-05
0.00020618938493882242
0.0003207306101896456
0.0002930957565537066
0.000181539023621555
4.890728524453991e-05
-5.738706414750918e-05
-0.00011302629125686789
-0.00011483546228505752
-7.410979018671722e-05
-9.655660646861756e-06
5.7074461798323014e-05
0.00010476575323311498
0.00011459357092356486
7.402887766685967e-05
-1.726141383833276e-05
-0.00014098370915976058
-0.0002570090689146993
-0.00030809576578419575
-0.00023591669090602073
-7.708631500523989e-06
0.0003532550991495765
0.0007463567688655096
0.0009976693650307483
0.0009024087557785861
0.0003074200870130539
-0.0007836197955686271
-0.0021209661863328864
-0.003188861538027559
-0.003305004994256645
-0.0018597452376657407
0.001341860076567894
0.0057441804555298445
0.009880781489482581
0.011571152495570258
0.008585022146998062
-0.00028172510716982394
-0.014012144559968041
-0.028578657240943713
-0.037194797133258885
-0.03211448871728025
-0.008042747398610956
0.033489589712099484
0.08021282918486096
0.10759056522582411
0.08142433064461982
-0.03475380673861348
-0.06869984444841438
-0.2280338262376039
-0.09256833654396308
-0.01394216292688356
0.07623997951337354
0.05165847581497071
0.17423089693155716
0.07981328793698349
-0.029351101369587587
0.016289313234508926
-0.0378659477629458
-0.057232821799066996
-0.10360925721100837
-0.023171397932474774
-0.03942233532443347
0.047941918268905453
0.05894619955603585
0.02592929995718421
-0.01492049515011737
-0.03125785078240692
-0.000441662001107966
0.08693589990430153
0.026184563780933773
0.0005428206131173228
-0.014130609381610587
-0.04302500895685576
-0.10612660139818551
-0.013898992166906337
0.03387381868662611
0.04603175363223797
0.035916377453710145
0.01691730976749386
-0.0008234566074328169
-0.011843295780887013
-0.015045265564153398
-0.012283131349004548
-0.006626884773870263
-0.0009279964059562421
0.003000215540030994
0.004568883465438091
0.004146581387899322
0.0025911461537030597
0.0008010776831407149
-0.0005805773218635218
-0.001273562109439651
-0.0013149315285398114
-0.0009311597506993291
-0.00039805244360442503
6.33290495971511e-05
0.0003354769653332341
0.0004030424351412642
0.00032010229387781467
0.0001678003980241705
1.910562612123321e-05
-8.093822864925138e-05
-0.00011900172355391408
-0.00010597832897393075
-6.469118174688144e-05
-1.8394818199165762e-05
1.663467902663103e-05
3.3612088154786255e-05
3.3873237459311944e-05
2.3475915962141104e-05
9.576707867468571e-06
-2.20415780828594e-06
-8.97109464205145e-06
-1.0455421598041321e-05
-8.13438512901743e-06
-4.129305744749888e-06
-3.0755376883438874e-07
2.2064777839023255e-06
3.10912118810928e-06
2.7107060481388605e-06
1.6132952065668252e-06
4.158059769855308e-07
-4.715911507728246e-07
-8.860555851835887e-07
-8.720233713975704e-07
-5.912323086815266e-07
-2.2921462115703216e-07
7.129044041099671e-08
2.391306962869032e-07
2.7064608575151547e-07
2.0604091866889343e-07
1.0076100043134131e-07
2.6270288099038903e-09
