0
-1.6836438763437535e-08
-1.6852270862124025e-08
-1.6871382027417023e-08
-1.68862571960229e-08
-1.6887106906377715e-08
-1.6865371594839146e-08
-1.681865377759523e-08
-1.6755476237088813e-08
-1.6697420298445255e-08
-1.667606973682553e-08
-1.6723251441788477e-08
-1.685549164949361e-08
-1.7056990534851548e-08
-1.726864560921269e-08
-1.7392044310137506e-08
-1.731514674433154e-08
-1.6959591290920245e-08
-1.6338860568507732e-08
-1.560494619504551e-08
-1.505383942794646e-08
-1.5063243060302365e-08
-1.5953860417279605e-08
-1.779826257709443e-08
-2.0241100356498235e-08
-2.2425848767464412e-08
-2.3126020377905124e-08
-2.113486329851765e-08
-1.5871525919931024e-08
-8.030603234760465e-09
1.9863661767527536e-11
4.434081968320751e-09
9.260519979894196e-10
-1.3373722746060057e-08
-3.768191234929476e-08
-6.582818626520494e-08
-8.616928402077428e-08
-8.415037083366175e-08
-4.778796100710043e-08
2.493190830878065e-08
1.1927453896674695e-07
2.012966612113697e-07
2.2342505352201596e-07
1.3999025825929977e-07
-6.91616626578707e-08
-3.7392689647338853e-07
-6.79608438129164e-07
-8.360926322699643e-07
-6.796624133109303e-07
-1.0578425781605274e-07
8.450238024639961e-07
1.922967796409997e-06
2.670610653807632e-06
2.527783150539926e-06
1.048016720658772e-06
-1.8154332032846095e-06
-5.454538406409486e-06
-8.526095007809602e-06
-9.186960396946853e-06
-5.712208019281344e-06
2.5861806935360563e-06
1.4418394522711124e-05
2.600444152350315e-05
3.149162076616888e-05
2.4635776883745595e-05
1.6513228712369325e-06
-3.549612336000497e-05
-7.672025391909714e-05
-0.0001040712888818162
-9.601775493919881e-05
-3.597866426880731e-05
7.663165866730235e-05
0.00021683077962602462
0.00033153945057270246
0.00034943180164758635
0.00020549516384799323
-0.00012326610001863643
-0.0005821099722794818
-0.0010204134845254627
-0.001210250696399693
-0.000913850867370105
4.935663708489049e-06
0.001454551976231871
0.003028679682188316
0.004023769850317834
0.0036132237414715517
0.0011833092860070783
-0.003240848207143263
-0.008636830769203385
-0.012909842430324244
-0.013302311821453154
-0.007367392260223807
0.005646570966808147
0.023445167790405255
0.04005713881638318
0.04665423162777619
0.03426152289663219
-0.001879427403101088
-0.05748903151563677
-0.11609503272632561
-0.15010881631903555
-0.12815488252750287
-0.02887252581588547
0.14146851179856965
0.3333171031415455
0.44787492622869185
0.34769161963034945
-0.11393119215483118
-0.6502462943545136
-0.6985472687884396
-0.5949174992559279
0.02088276296580281
0.5691042507555921
1.074944269474957
0.5165101472488096
0.19640209534008515
-0.6541311812615997
-0.8457330282906472
-0.7954919104064242
0.09383960792927708
0.42919669126421195
0.8016177928851345
0.3560470317725999
0.17498217951575593
-0.1132440238837165
-0.5030591689330798
-0.5690457151532182
-0.02817572423945965
0.08024923419299468
-0.00783392950726893
0.1975628580744916
0.2095638481320323
0.13394835995212978
0.047258687051915584
-0.0121609543700156
-0.040177213666700066
-0.05346679460790551
-0.07221731800741292
-0.1048166009549063
-0.1395620139125558
-0.1466745676077459
-0.0913847689578008
0.04435033138467619
0.23745620104069876
0.4055177151364033
0.4043914699983466
0.24873790198888
-0.04380419306181064
-0.1929124017261828
-0.5969646552682754
-0.8970800833293248
-1.184115937125663
-0.25977277128520415
0.4539890046605463
1.5841483519204504
1.8985945531397759
1.4685220980458842
0.3327205690034474
-0.5380906883984014
-1.818049724045767
-3.0153958465366286
-2.3534927674151027
-1.0021814198751613
0.5287804311817816
3.0816115846820944
4.9248711738412725
2.5252739294310067
-0.09534506021318696
-1.9971952067512477
-3.812695035412372
-3.803974163145585
-0.6080355293398225
1.4542471081575816
2.100250966881324
1.6970029877284996
0.8478078429376243
0.027550876058742162
-0.4966092066900105
-0.6612098467477714
-0.5467602272654193
-0.29793984528673545
-0.053302270245553694
0.09886952311282689
0.13500177969420915
0.08647445831352622
0.015095063197206418
-0.01685467373088594
0.025391456648050325
0.12841607714969344
0.22120975890938777
0.17968892155275076
0.04570108332455803
-0.14237359103215858
-0.3144342934906882
-0.5389094545038178
-0.4083460407765272
0.1542680367064427
0.6713469756195065
0.48049248235287007
-0.08534747795969973
1.1063940960420484
3.220569331832168
-5.295055637583345
-3.0699329221742864
-0.42261801491703355
1.5463759702669218
0.392596444725279
5.756079208856085
2.0617347575820886
-0.446470828763106
-3.5310286737804906
-4.505664548292651
-1.199758138506026
0.9674629201474043
1.7680277081134734
1.632253068358846
1.071939838454238
0.33005992232772496
-0.30112925414943403
-0.6879329018320882
-0.8115222006668402
-0.707685160048437
-0.4219011119509759
0.0025717979758092904
0.5046607702110362
0.971313028205036
1.216265851329382
0.9968611283942115
0.07989075221760956
-1.4558265562373405
-2.1169781196093256
-2.1443726036676405
-1.356707779621159
0.29724324552122633
3.110832646670409
3.192081152248032
2.7316354001334946
1.6421451040451478
-0.2102532091431855
-3.2345805952364293
-4.319871007346533
-5.362161640610438
-3.8388647802436235
-0.08247297102038
8.202994804816944
5.545484799364611
4.845895634872066
3.243314722958178
0.38101504190715807
-7.195272479298082
-5.700014552356058
-8.484911885140317
-2.5543997721555436
1.670931966772793
3.993768799117165
8.477736847463245
9.351755321230858
1.222122314776031
-4.287133405332666
-5.913136682631216
-7.14214585352059
-2.2480673949919807
1.2324428033346528
2.924801057055484
3.0015995790339502
2.060275521739996
0.8288644993123346
-0.2118418730818297
-0.8659255099666741
-1.1498907244323116
-1.169531304972635
-1.0086400590106532
-0.6752313757447308
-0.12293652952944531
0.6654621683281883
1.5714539746598362
2.265178758075428
2.2127206312217695
0.9957055725604526
-1.0687890777803513
-3.6700816072714257
-5.709521525719875
-5.278989955437214
-0.27844516513893824
7.952081391533683
5.71734534493549
4.967218795918947
3.7932725623042978
-0.5010834066673253
-8.023962263367542
-6.204520348812631
-8.238000382136285
-1.2758951695711243
4.55610855819047
4.793497959759201
5.932967160067159
8.251200679523416
0.13936612888057295
-6.379026664938386
-5.628583279296933
-3.749270219982582
-1.0556866706984696
1.3787829451852065
2.492054448314685
2.2293639437031323
1.2774471019566287
0.23749437678570137
-0.5057910977723056
-0.8108186384617773
-0.7287247252744784
-0.41752305558794656
-0.057960691167388355
0.20649930856264667
0.2993540156859146
0.21553497075560293
0.009938855528303018
-0.22265702308494753
-0.373564809679061
-0.35275722998119874
-0.12836552259133086
0.23128882761467376
0.5246384054256513
0.8101705836992689
1.0441859383206002
1.173972061720763
0.2815531695215392
-1.049648736264281
-2.997390804879293
-4.060239162793677
-4.774827880827323
0.9902202378992395
8.218617768870555
5.944138300494891
4.436166559816568
3.5066404447645785
-3.0452752560933956
-11.580093347071445
-11.595554320721671
-2.190949487256462
5.227802207893693
6.435172475757032
6.875740395498654
8.643140143325734
-0.4204463966065888
-7.021286589290034
-6.394632735231654
-3.571996766706009
-0.5510905295929305
1.8991470453881074
2.5870406039546547
2.082502026107598
1.0540050885140422
0.055705096340525874
-0.5853851772955683
-0.7808194481784844
-0.6213660473306599
-0.28793015598397864
0.03272086054735688
0.20752798329501457
0.1864506169588522
0.004941626553719806
-0.23432680322196034
-0.3957490548517799
-0.35794333101178977
-0.06932753616910779
0.3975009954145025
0.8092755267999917
1.1749553729667719
1.4072815271267882
1.0497147656107237
-0.3477465597867606
-2.850229431796088
-5.2297131782128945
-5.605035748127382
0.3247122130796325
8.08485509011122
6.193665406985663
5.678574831932309
4.097171408628457
-3.293925110861537
-12.333178052391286
-11.74565034036564
-1.193450273184298
4.8538301041040866
7.45722802680676
6.561425635986512
7.4396204859815525
-1.7550562562707224
-6.267136855992866
-6.742747321921492
-2.757089448412563
0.5397016560050527
2.15257580421571
2.356710761184194
1.6867360720379547
0.7084438757764013
-0.14695781405698452
-0.6537322836688703
-0.7777387959866482
-0.6120446482941818
-0.30050286868883846
0.022335129699483796
0.26275909553824506
0.37344861226700143
0.3443485577124945
0.19157537895937735
-0.047612095417501214
-0.3134975054106113
-0.5232493333184433
-0.581533012152235
-0.41089533020758673
-0.0023499321603136134
0.5254823971045364
1.0823457481323595
1.807744855025358
1.7441031473731032
0.5899167777156484
-1.2905084675831318
-3.4616463620148314
-5.504094289173929
-4.080797393073721
0.3780771818234724
8.018027477905159
5.47133149408998
4.7273369577165285
2.720874598112786
-0.911610789495944
-7.79902375820781
-5.930685464750709
-8.32770903145613
-1.68939546769099
3.7173963412535844
7.422850161466994
6.201751197680858
8.075260746356715
-0.12779832465503896
-5.990728800886755
-8.414918692598812
-3.8291745302916778
-0.3293139185028171
2.314804268665619
2.979244441512279
2.3301730830353753
1.1252905505924977
-0.019803688199050224
-0.7486570751142716
-0.9678975457408968
-0.7763483506139304
-0.3672352285229432
0.05844226346057966
0.3481660028250337
0.42249293775257796
0.27733422300073657
-0.025095357005266623
-0.3707706476188795
-0.615139975131609
-0.6169695225802915
-0.28868412091152723
0.3415003298134186
1.0728686506656797
1.5086294376091216
1.4946975987327982
0.837606197088344
-0.7081323090323418
-1.8266825660335237
-2.873746832044929
-4.037216080329982
-4.28645110836701
1.483300900859882
8.58444503239921
5.299144871455053
4.251894422222465
3.7256611903957984
-2.266056536694036
-11.28399543733285
-11.587473737958964
-2.9433056171231553
3.3097113616553444
5.552642504063389
7.931873309986429
9.851252514466522
0.5714126579971193
-5.5607149953670945
-6.3081317467190345
-5.362467581848811
-2.022673833962435
1.4946570853596755
2.864987428807216
2.6509472369342513
1.6073594892648713
0.4165572741150869
-0.4721773654955065
-0.8827800415237174
-0.8597926663527957
-0.5703677672119674
-0.20593110827289532
0.08719924559828494
0.23815354082171958
0.2480175893960391
0.16569670115942128
0.05725747996652334
-0.020774953191504398
-0.03885434561173854
-0.0016182398233051932
0.053620474444278844
0.06472082456722507
-0.043621122108193154
-0.14716759543969024
-0.11161795914667372
0.012541639336216272
-0.21219457921576354
-0.6196547660407155
0.14727470513686255
1.2286641833283314
1.5571721762343096
1.2981021032154787
-0.27875634859891263
-3.1181693923937543
-5.138334750166913
-3.486679513433833
1.0799642792473085
9.93175546987946
7.135362076057608
3.600582494239386
-2.9132059256992764
-11.782104639959316
-11.878113334204455
0.0681440488675855
5.963373536104792
7.544634246170873
9.868799376039991
1.7455404607671843
-5.725858082626826
-6.917781922402884
-3.478150846953334
-0.36995961680323775
1.5158924762232189
2.14375286173599
1.7718924407828378
0.9433211138865947
0.11240362519043344
-0.4483104111404523
-0.657848554046082
-0.5779192655567775
-0.3401051211942264
-0.07915082771952732
0.11020755789034974
0.1888663896785102
0.1670817585543631
0.08612450031679895
-0.0028619313232967534
-0.056701445214325664
-0.052179401637197795
0.007953076886690768
0.0943079922852128
0.15511220584160876
0.12517041021380051
-0.061501412581020626
-0.2584712047820181
-0.49852555808665966
-0.39618021608843546
-0.16412660776021104
0.36036393727672816
0.6921428551827934
1.8978808796953444
1.8377984223781845
0.2551090556621077
-3.1081063136818017
-4.822220827530112
-5.179661889479645
-0.15264923222755325
8.318639140849498
7.013213658861159
5.25089454157862
1.7770577825061251
-6.27696272151543
-16.892235216311207
-4.149584780638968
3.685290083472113
6.713574380225768
6.713430997412574
8.046247107192897
-1.419433625775316
-6.069300262626023
-5.84894948760737
-2.2788987982775057
0.4466722239231251
1.7781718404729048
1.9480365559925448
1.4001863934780874
0.6022288520881593
-0.09194018091140656
-0.5010438601738146
-0.6041152839537257
-0.48477986003073215
-0.26425276199609216
-0.047749459722006136
0.10360498396934645
0.17533923407546417
0.18469854854130932
0.159302485404228
0.11936462781243116
0.0697187256223384
0.003196639737437
-0.08753873691271541
-0.1959629157186075
-0.29340155921013905
-0.3339100880601707
-0.2766386632953141
-0.12428940524858262
0.2313144020456012
0.7732710924965897
1.3550572111011057
1.3478694396381936
0.34903158866152345
-0.6613177909517529
-1.5555910172173122
-3.1487460602434085
-3.8097948024004005
-2.838604837113339
3.2012102304633925
7.274796852461233
4.737301094685955
3.4182401525929635
2.22113001630063
-4.387492340914718
-10.351015346577949
-10.488443820445834
-1.2737018565212488
6.964675100478455
6.6951429966290865
5.9108197781173315
7.20361763554765
-1.223299860795297
-8.367322798401599
-6.181454232277444
-2.2813861731814673
0.8009685262212407
2.3224096889980297
2.4155687188576733
1.6579413212632719
0.6351517682782826
-0.2230571850516803
-0.705960188583651
-0.798616046312778
-0.609760013998605
-0.2909200587990314
0.02464071090818269
0.2515455734443957
0.353980217012731
0.3317531601530563
0.2045460470327682
0.0036974306245910007
-0.22668006273042748
-0.42481768144831206
-0.5125343557733613
-0.4118740917891649
-0.0803870594594107
0.4417323143886716
0.9901913072844951
1.2651010074669284
1.071596505722199
0.42104389015344673
-0.7224848302766803
-2.292998827183332
-3.432870613093164
-3.524550383535608
-1.975763629841557
7.269236592458131
5.391052881551924
4.2735949132634135
2.9261090743813947
-0.013489073021729433
-11.181406808445068
-11.989574005080602
-2.1484703970139294
6.245882928270886
6.6839029325458945
5.861031203052904
7.397752893703992
-1.3447446747144272
-8.104021937973693
-6.115229614284328
-1.8640665613234877
1.0232223025115454
2.265048656348642
2.210157804348547
1.4190406512516185
0.4449923503509723
-0.31523132949727106
-0.6781537085442444
-0.6523295231459961
-0.37228705119007377
-0.021246092438784853
0.23448440622670283
0.28978808565973113
0.12348225166536338
-0.19768236286656513
-0.5330103462154807
-0.7022667546802199
-0.5427699976758278
0.014865999500720784
0.8682929577228712
1.691239992411444
2.143092886586509
1.7681289002526526
-0.01368173057573551
-2.663282697791271
-4.907886688667259
-5.458535166876738
-3.3433050712835533
2.531296438711221
10.883171537894082
7.8074615452014635
4.588094706006914
-0.10519210877683068
-7.671399380412726
-17.891530705950903
-5.995955184517513
4.670444560889737
7.923714126239094
7.915625722952346
8.900397793649738
0.26533469705591073
-7.2498053684314545
-7.206663314143874
-3.390266744849669
0.18456986207678414
2.0490301016468986
2.427817941560226
1.8403793959304482
0.8673684513251165
-0.029493794135579305
-0.5934779326742811
-0.769162320075024
-0.6410813398746292
-0.35414186369961353
-0.04708712329740807
0.18525711261322805
0.30053639624100253
0.2979594305826077
0.20095168464174193
0.04374345174149167
-0.1338403641560692
-0.2857383096373664
-0.3600617576802122
-0.30827438386011724
-0.10747353049193341
0.2065798738186744
0.5058022687603337
0.7513587532693728
0.6069377512047072
0.49382234419994187
0.08490175625625389
-0.9817615369617546
-2.6040810109878114
-1.5721342262187086
0.19061942227558945
1.4998411066730581
3.332266701024698
1.0579137792671625
-0.4603739371419806
-1.8753206078957312
-1.4887236774309582
-1.1534867967887614
2.4150129699008263
1.101580883716191
0.035892837471139895
-0.9660858077603234
-1.3617886057781248
-0.8567656538196783
0.7888141163467712
1.3186890861220915
0.7197319726479497
-0.23309896603417182
-0.6076379319521443
-0.31882578978350995
-0.11715623201016785
0.025255489511251516
0.12306920951131263
0.18018350529856525
0.19055398217348113
0.14230107329877892
0.0275351007012194
-0.1438585011060282
-0.33248142017624555
-0.4683575426134464
-0.46857188204810324
-0.2768496130156114
0.28044790706081024
0.8381140358584354
1.2604682852070304
1.2604709692899843
0.4858398419370323
-0.5328941416429903
-2.204543081562347
-1.7237915749381616
-1.0012931956240785
-0.5186233380129797
-0.3135707687056464
1.1392292753652074
1.8194939299350954
3.107249896386665
2.2606570288645504
-0.12760173628016494
-1.2998714696908438
-2.590457553024335
-3.871610926614941
-2.095451588019672
1.1957193950041274
2.3803866968336354
2.1435745034169855
1.2274875255777034
0.2322574668008228
-0.4848982997794567
-0.8093586304386754
-0.7986929723137113
-0.5867139455732246
-0.30159961818529535
-0.021680393778381508
0.22651746920967245
0.4391998463211495
0.5956316646724882
0.6297382250845652
0.42896259885854743
-0.13532963221433264
-0.9561903105871585
-1.4412191233061875
-1.0923423709983837
-0.3349502024904415
1.0049953801439375
2.4038865565680814
2.1705422041272953
1.2493659581245677
-0.6839589207062874
-3.6585628838954922
-4.441345779810855
0.3547019869302841
4.435498209659932
-2.9317374508655836
0.05533096310602368
6.113006169677842
0.12130339687560053
-4.312509703764818
3.0319664210502397
1.5681794091317007
-4.274708528048836
-2.044031864306931
-0.7251265920641305
0.8903043315279501
1.5270522810695115
1.2784293478423085
0.646000983381765
0.018317665037712576
-0.385560191067074
-0.509923158550533
-0.41468392501994134
-0.2129167409654398
-0.015801924143058938
0.10276797874069322
0.1194788819230033
0.056858689234074646
-0.03297762526993505
-0.09014530861068283
-0.07003176457414094
0.0357418169486452
0.18393188485173173
0.27417977984549674
0.3578116892785434
0.263222311506641
-0.16477060493092846
-1.02103506777305
-0.7069720780729137
-0.5238299907297381
0.09991722498693795
0.954772968302626
1.9932650849754474
1.1001219731171175
-0.08852533463471703
-1.5187804680044457
-2.436570892554315
-2.138503644692421
-0.5988397694121516
2.217165353887981
2.9884139060411754
2.2904475326380243
0.7359903975471795
-0.960149172288528
-2.809610985161543
-2.3364970908550404
-0.8008993323671385
0.48045366266979095
1.3011282918786675
1.2488335979462661
0.7601720389320463
0.1985375177640538
-0.21329754701776177
-0.4005772854117927
-0.3990038916985744
-0.2966905627670079
-0.17917240591431585
-0.0936585125712198
-0.03921681975068187
0.01896172323383589
0.1192618898175848
0.26894207543973864
0.4177619094762618
0.451082424001427
0.20886613744548585
-0.070853205103018
-0.49512653294061326
-1.0654334580169107
-1.0560611774716553
-0.4389651857275437
0.24250418705130114
0.9698293108940139
2.1536672872566753
2.392339500830381
0.7195356093332426
-1.454950549456751
-2.9507189487268763
-4.24359141789214
-1.1954995944856284
3.863897160411153
-2.6840011022465373
3.963120720963665
5.569442862926928
0.5249583962635982
-5.117304249332133
2.5561756684349892
-2.794339281695717
-3.2832585508832763
-1.0120013296466135
1.1817174536459847
1.8396883420746877
1.5111636096775787
0.7632753869429207
0.036049003643678336
-0.42609353936978955
-0.5680216359869158
-0.4672009438768957
-0.2584586238885075
-0.06714157022879864
0.033443307242760685
0.03577711960849101
-0.013255100934684452
-0.04091560366682614
0.01507893877809067
0.17210834558104307
0.37953477379607164
0.5155542644164257
0.4097239874371205
0.09057277133552104
-0.5518383586282739
-1.3087251746599864
-1.4269534629267329
-0.43713739004617447
0.15904226667556373
1.1623830540813056
2.3549832597922125
2.6397555789981615
0.8850254469302694
-1.5157612822074946
-2.2073641725077144
-3.2390230062951892
-2.3272924583089036
-1.0846206799625455
1.3724240077179848
2.287274929139343
4.7035925193214885
2.602117543056957
0.22698905942708242
-1.5703873399066295
-2.4190852518112815
-3.854948490792816
-2.2077943986693715
0.3585574944763773
2.023407794038721
2.140525304927365
1.4049238992911717
0.44154740169328877
-0.3261125324319316
-0.7116010357886404
-0.7247904412840834
-0.4919684202514487
-0.17333520238309955
0.09765075249581216
0.2443110804655308
0.2500590841435554
0.14527656985269974
-0.011787707760011331
-0.1534776614082316
-0.218697452853916
-0.16761108490523968
0.0036636107724030927
0.24980635089085826
0.46961254501272914
0.513081183202476
0.2076173289301172
-0.39789270037415386
-0.5818395588890763
-0.7101627071899627
-0.8284724425678595
-0.49922230604114837
-0.08226661268303402
0.7616859948244825
2.1824809510327627
4.512941735422284
-0.860957081186666
-0.7287711384022603
-4.030292291562107
-3.8673713186189196
-4.852660893221887
1.945353078286258
4.281335924992731
7.142754622496744
3.0448937237954175
-0.4572715417194695
-2.5978957940760643
-4.637120688513391
-4.248347401109149
-1.0063010928314566
1.729107099449193
2.5252100135275977
2.0539306830471933
1.0367594574332994
0.0460022335475667
-0.5926155829157183
-0.7975028972173979
-0.6614925723204794
-0.35732749272662545
-0.05372091675442927
0.1381238315713882
0.18334872106710043
0.11420882470492803
0.0037573705870056853
-0.0670633417139793
-0.041103434189763595
0.0899479041334146
0.2714487553395657
0.38653762604198433
0.27431373134103326
-0.23569233784324967
-0.4800406021810851
-0.7222143471000337
-0.7330661214100347
-0.001083788073414476
0.8292306157646019
1.3068122422651514
1.1362100044167425
0.17404594136287257
-2.1355117915175215
-1.3040670446903389
0.04683438438879182
2.192908098171069
-3.3329181935274277
1.1830781751417752
1.7442383134427657
0.763678574298969
-1.9778116947193272
3.2824296064297838
-0.03768030867417634
-1.746777501920849
-2.1470673437277212
-0.9272992126667281
0.4814275397874747
1.073608698144786
0.9791380393448073
0.5536546538922744
0.08815912137869096
-0.23928093929672295
-0.36725945609699734
-0.32281752241657075
-0.1797744234463343
-0.01979837127639657
0.09434739491523529
0.13119481659316096
0.09139029264258076
0.0014724481458296503
-0.09577324334144445
-0.15280089387667659
-0.13055218079574565
-0.013253436933031089
0.17732139033367442
0.3728196429761456
0.460774657452967
0.30345419582896366
-0.22732096087480647
-0.8080171269304963
-0.8301173083707152
-0.593995927842222
-0.1412075637382676
0.47851112489407116
1.3264815382760748
1.3132958646810564
0.7884658513227846
-0.20077062742077317
-0.38907311103788256
-1.3449712071996798
-2.54576674249885
-1.1255760746057117
0.4731154357646388
0.9492053909921438
2.536726066907755
2.2084883159342854
-0.448099755735033
-1.4503931597935444
-0.9435223083428528
-0.6668307861637282
0.18920607681397913
0.5025679883906932
0.503529854564909
0.22448888421888194
-2.0799276045373007
-0.3426031673936556
1.4744258123718172
0.3112237280801955
-0.26986902277205815
0.8458152104642189
-0.11938802633025165
-0.650029591964344
0.2736149834451002
0.0028706249529635666
-0.14621541435346924
-0.26228654350699654
-0.21642921417742503
0.14840308413257655
0.21632565451741734
0.18969734057671137
0.07860854214751058
-0.10620039461343912
-0.15522341445341784
-0.058547503730139984
-0.003896714336667805
0.023195641543496178
0.03663672629272374
0.045756923328853186
0.05207280399996324
0.04860221664159401
0.02256393363826495
-0.03897688465402093
-0.14223746036318893
-0.08119373617937191
-0.03589204056409562
0.024176207140852467
0.13243298721356828
0.1159238208366851
-0.012336865330677673
-0.05693867556359129
-0.038918693668818956
0.00912609909080512
0.04999580372993923
0.049478627287336194
-0.016498132020647534
-0.15632801480868727
-0.16038340582212315
-0.0034044839764729522
0.14809949502093975
0.12537124024084023
0.14763322837873216
0.016890873227681024
-0.0807616367453908
-0.1683199486971172
-0.06882824636412874
0.002045015749883287
0.0393090997441232
0.04755661914156508
0.037011164023716826
0.018901911668701688
0.001932290758177932
-0.009319013140888227
-0.01413650216743881
-0.014209339379285512
-0.011839014395338797
-0.008556613408986955
-0.00458635228938404
0.0007745996135555562
0.008123664951823492
0.016771882876655625
0.02402168816351365
0.025437299659779544
0.01636392737865679
-0.005518587592947503
-0.03739984968824929
-0.06959649223554253
-0.086331175602826
-0.07008443770919599
-0.009437145907548744
0.09138621219519348
0.20483567606670652
0.27877719686992475
0.24550700416394178
0.04185408407713738
-0.36390750817926343
-0.5481874158631048
-0.6243791046833327
-0.46260176472689324
-0.13997515995407
0.5883742864744845
1.2207831455726164
1.4743636145342651
1.1127806761916428
0.04853774054370331
-0.8959338522664795
-3.0138944253083872
-3.390689105842336
0.11051501980479005
4.529130746555309
-3.8206657875517673
2.380032274472832
4.821428157843848
0.8351521940509714
-4.593586266790283
3.5247523506146226
-1.3729059860861417
-3.3375546279574153
-2.0931348736126814
0.2738705997917047
1.297469909792097
1.607903925168006
1.1552850083717654
0.4452124910959565
-0.16760046574630696
-0.5124748908565471
-0.5751653291426579
-0.4372370267823643
-0.21153833331047725
0.005571714153779032
0.15689666232972052
0.22459826659431614
0.217113168203899
0.1534610421745399
0.052976597656875575
-0.06639008911755116
-0.18319891537334593
-0.2667698407651662
-0.2773842737705482
-0.1773329440422957
0.04697672957290621
0.3578495026553819
0.6456620088704631
0.7286341384488259
0.38346379276572334
-0.19261939395891206
-0.7020063779346346
-1.2759305220600181
-1.4454035987683045
-0.9798440293799126
0.20078339146850074
1.4637560403341667
3.1030584111421677
2.246155797008656
0.6818691866263318
-1.1759092781212355
-1.6272586857916873
-3.4115282158304066
-3.118600839153767
-0.7650459827003597
1.0384671114836017
1.7693470651035919
4.02274785432221
3.810752202042528
0.6336620070530168
-1.2321550958377352
-2.662326368446042
-3.9261071085936434
-2.3651237662142264
0.39054815420863265
1.8289017595149493
2.0139131476125627
1.3706885642475044
0.48204255553264286
-0.24468239430690433
-0.6213915365942404
-0.6486347099930032
-0.4436850612003934
-0.16154237220950665
0.0669206068555233
0.1691761972153953
0.13855237538844525
0.022164983312642033
-0.10246053720923258
-0.15558303272547444
-0.08379189055452965
0.11508904187472163
0.3760256714640853
0.5665802024364848
0.5087474895131543
0.024195852541321193
-0.6049845754262295
-0.978663797444416
-1.1495479336649852
-1.0451362795390629
0.05120554807951055
1.1755153685022586
1.9548089004990568
2.1293559928942423
1.774613632134406
0.24329267355020703
-1.7971417047546618
-4.503206885492539
-3.670776924714269
-1.9193979883261167
0.3135177091811948
4.0078714554478605
6.94113556880718
2.9656512419458068
-0.29191361845348607
-2.0680306586301613
-4.299778071729401
-4.599405364635063
-0.9153237118751008
1.4200957960006442
2.038031191033063
1.934325388959522
1.2204692186134916
0.3131014231338558
-0.38660167358206987
-0.7158370067666547
-0.7000669693171928
-0.4687834474356214
-0.17336892317491584
0.06975630704121787
0.20323066368934603
0.22513661212850875
0.16924607299537223
0.08133670695478983
0.0004574695068579141
-0.05081622473837945
-0.06739851812206725
-0.05687186494270293
-0.03247906963349626
-0.0069197097486659075
0.011408158877395038
0.019445977763231984
0.018467081564738343
0.012088623632831695
0.004282881857269264
-0.0019917774334900977
-0.00534098205398952
-0.005794730669325168
-0.004274903379506042
-0.001980231583934409
8.917963736997546e-05
0.001370764942392097
0.0017542308907441124
0.001449846876186794
0.0008051476853956518
0.00014615111107022077
-0.00031640032722513457
-0.0005104181354250783
-0.00047402464255135064
-0.0003031893530262488
-0.00010055822612193271
5.900590081701124e-05
0.00014156373399172174
0.00014965298480615238
0.00010810044364752932
4.8094475773041296e-05
-4.876570962339599e-06
-3.6878747050019015e-05
-4.56338351506745e-05
-3.694897645512897e-05
-1.9936474070101043e-05
-2.9587330901183865e-06
8.703517636364068e-06
1.3365614122776285e-05
1.2143215747852315e-05
7.5759819585068e-06
2.3132796220659423e-06
-1.7509868275187486e-06
-3.789833880460236e-06
-3.907769004978297e-06
-2.765660844215243e-06
-1.1717290897120404e-06
2.2098495928133193e-07
1.0559306243906182e-06
1.2699153591585688e-06
1.002172646724362e-06
4.791252691505595e-07
-7.839298519571573e-08
-5.053763599461378e-07
-7.045680840384816e-07
-6.383692841982486e-07
-3.2046729349010516e-07
1.8208706306892715e-07
7.396852439518156e-07
1.1595918941222702e-06
1.214254853585443e-06
7.113679137567338e-07
-4.00785289391424e-07
-1.925462094608004e-06
-3.362920743344174e-06
-3.971702547003156e-06
-2.986286446602737e-06
2.3678654955779443e-08
4.747400240897261e-06
9.854216611739024e-06
1.3054738847425206e-05
1.167018358814461e-05
3.724969024002239e-06
-1.0672010576744937e-05
-2.8170825596708423e-05
-4.194947584811573e-05
-4.305982519637145e-05
-2.3602779397913964e-05
1.8770239393323766e-05
7.647814826807284e-05
0.0001299826277559226
0.00015047638516329492
0.00010869973819581334
-1.0902352953744165e-05
-0.0001945599051140498
-0.0003889428808882343
-0.0005044814401180616
-0.00043847324343939173
-0.00011807533546615419
0.0004464646403592835
0.0011186275506952798
0.001629605546360328
0.0016339845046148716
0.0008354977578043128
-0.0008384479812240226
-0.003071165999107427
-0.005086771265129521
-0.005765900926857075
-0.003997703010806859
0.0007684026680788368
0.007927435747939903
0.015348572442760474
0.019543524683078094
0.016603837969333974
0.003891614837956236
-0.01791377974021316
-0.0432209057255824
-0.06144707965679532
-0.05940876557777286
-0.026509087150390187
0.038073686391860095
0.11833715501153397
0.17770979876967594
0.16180400512573012
0.009384226502535982
-0.1296599052225403
-0.27400827897569213
-0.1953527168121937
-0.2145387984543224
-0.013250191191912236
0.1400915806593397
0.35692044494579267
0.2978392103732259
0.15492447213634916
0.053463210645121585
-0.12688157015947157
-0.3180972559558771
-0.42802065146069285
-0.1142122684935304
0.024655782809155005
0.23865246193211673
0.2031853222311231
0.19181642342250457
0.05460660376909169
0.0077775447719741165
-0.16437671314263116
-0.09855035469257621
-0.037815948834784195
-0.01852176100865523
-0.06206110548916656
0.027402461136437354
0.06005197602840513
0.05437310018761377
0.03040759627858899
0.0044325521232948415
-0.01376691788911783
-0.020996330597790557
-0.01891749181427893
-0.011590039866005814
-0.0032523600690954313
0.0030953647627657032
0.006181565173979687
0.006226243677816091
0.004323093552578203
0.001775644405369281
-0.00038787189693592183
-0.0016351424802486113
-0.001914309820360502
-0.0014940768281145249
-0.0007623938785747971
-6.17912071048918e-05
0.0004007053196677272
0.0005683478384308594
0.0004971662481510608
0.00029707824909249857
7.782520011976868e-05
-8.518142044273965e-05
-0.0001617659458920015
-0.0001597841958011375
-0.00010870653232390198
-4.249073964747413e-05
1.2654168762692041e-05
4.359442506171248e-05
4.956552398940443e-05
3.786971544871425e-05
1.8639303637309183e-05
6.409771766427065e-07
-1.0954254953481235e-05
