0
-0.0030125664125948124
0.02332851079511078
0.11717532353785709
0.12763180235680527
0.07097923173658166
0.1256372273706896
0.03791527166247832
-0.0627491042596176
-0.24322723404380292
-0.14691720737896447
-0.18099862537303066
0.0851416979391514
0.11000929949391956
0.16228212460632233
0.10126809489148683
-0.03861813469387686
-0.05570558246342072
0.019608393399478813
0.13287514550349896
0.01889232570456214
0.01781808694117827
-0.30910990773499425
-0.1684090995705079
-0.13186946063786897
0.05520724658118728
0.2569055558030512
0.32652886213389026
0.09091448933127957
-0.05490818664781936
-0.14133426510414301
-0.2096428631528265
-0.09577743255361931
-0.018676663639302482
0.0233507065176502
0.04827314604575289
0.08087937979415669
0.14235869842228702
0.042772931778811335
-0.021228249529733432
-0.063306111103943
-0.10094977045721668
-0.148832135277117
-0.01498798746566511
0.09881406164023308
0.19342212047827737
0.06807374017566838
-0.08155388843378014
-0.06179274309166899
-0.07699299558354812
-0.12553595562488729
0.20196015759376415
-0.07851163561560817
0.05232641878742388
0.013027306926352672
0.0180148055000193
-0.12455003485012706
0.18649566908439316
-0.054162654740793605
-0.056788839336753084
-0.03449610043858198
-0.001248940401403434
0.029450597716852017
0.04515362141895272
0.03485488073918287
-0.010219402512755724
-0.09531547907868794
-0.0209073827324798
0.017634860011561594
0.028968440575665305
0.0235702302230933
0.011259196309898445
-0.0006647186657098175
-0.00819510341443306
-0.01034764420230799
-0.008225595383889337
-0.003897886060067876
0.0005394688190571545
0.0035439337510641614
0.004357690709045833
0.003003759194322368
0.00017168798614432658
-0.002943650875616982
-0.004873165191580696
-0.004260978237307984
-0.0005030820370239331
0.005316612043136135
0.009221298566252806
0.0029429381039079187
-0.027617611393319856
-0.10408590641849448
-0.057412046904578545
0.0707671915198739
0.22873941886375285
0.3597874373875911
0.21384057864743497
-0.4350097102741674
-0.5707736184225349
-0.527496460017304
-0.4003970870912463
0.32121555498546084
1.1081305729673985
0.9516639036880928
0.5518937162319498
-0.05385311364571616
-1.2280447061687936
-1.46019657238412
-1.5182777173496973
0.1490654988163451
1.3559673895321767
2.4941207298255117
1.6636813599750315
0.060900410105865804
-1.7658460056917473
-2.41964808045596
-2.3743775063264447
-0.9648029877500404
1.7297414879226651
2.734338757103361
3.027271198785188
0.8661560480721501
0.041112095341470756
-1.7490623712956248
-2.4559635423178463
-2.8652870997726274
-1.2906794904098444
-0.42631017884401484
1.4500609519550958
3.3882736364516655
3.691486038220948
1.75623511454094
-0.7134270588795849
-2.7251665165824086
-3.9250955273595047
-3.1415224669905375
0.35802763023920153
2.8562478073323088
2.8524392597575954
1.4854958477126625
-0.002963681152896218
-0.9188260785305778
-2.6839825732880134
-0.5647185570699601
0.591477336676497
0.7817516612614916
0.03643048835979415
0.9899223581876103
-0.14387306566548955
-0.5791611713457866
-0.3490579103355444
-0.08854329547903564
0.18018565171120407
0.25468806675105826
0.15258862587196187
-0.09082280190791814
-0.22508383064905227
-0.18777612936725652
-0.11108537518885754
0.06666228479036854
0.386206385776872
0.2544677714982269
0.03979306253124959
-0.12097680681759705
-0.10492430576904796
-0.38098068265924095
0.008682593819537761
0.05736615616572514
-0.009901341910525203
-0.1509717959771873
0.07236363804094387
0.07266928695881955
0.22105505856566163
0.6439597597406369
0.43764504652123426
-0.09929936672259819
-1.0234520546818129
-1.1110670563007785
-0.8502852446223732
0.12541185989715445
0.9668013572282037
1.7267731002529452
1.3042453707780517
0.4475747119556421
-1.1710554653105452
-1.4292748627468208
-0.8194650221561203
0.04570299544423098
-0.14871411113357705
-1.0908820698723434
-1.3926465125751657
-0.39240200675807985
2.4346259012371965
7.722702747696815
1.7891563144960754
-5.422033367115705
-1.2507620278907403
-2.382847926827727
-7.192863248477507
-0.2673847604589695
8.066946291391744
2.874293561635975
0.922623922448924
-0.10242719883551996
-0.42788951695439975
-1.89120580702927
-2.5791356586129934
-2.092696769122414
-0.5013995631670426
1.593985704616913
3.32224573556436
1.995781961003525
0.6326726075821263
-0.6094088998802609
-1.6946784453272636
-2.7189089274445513
-0.9395806807270203
0.1137992401204582
1.0258348184351327
1.1961002582084301
0.9008218397887292
0.3660010026948232
-0.11274699320432988
-0.39241402828098654
-0.45708975062807383
-0.36693514544639955
-0.20516659947224766
-0.04004230735614847
0.09106394832361688
0.1776636108303681
0.22047011627614269
0.21432151412640255
0.1383785878547816
-0.04194207534390551
-0.16216464685056775
-0.24068046477173852
-0.2635347703285385
-0.17954839151388233
0.09048034193872452
0.2322809285476746
0.31132101170213894
0.15034307750200318
0.11961510530416221
-0.05625981843408612
-0.07696200511194637
-0.23737699381418723
-0.200196067368284
-0.37917681323412716
-0.33883105924118906
0.5893162378805202
1.4804922241749465
-1.0083881734091187
-0.25316850104649213
0.13538259456022125
-0.4842353194429207
-0.9809330339489825
1.7492003141084855
0.9852800097157465
0.19609439755236122
-0.7273101003478943
-1.4283475593494523
-1.252462818208601
-1.249291478540664
0.5822221172945797
3.824977742128452
6.9953981917628205
-4.638607010161534
-2.964111968819984
-3.1055486281535485
-4.776272051683415
-5.977757497341941
8.948005757212577
13.007192881854202
5.152236815086981
-1.8551787738109302
-9.682268280962075
-7.098800101334226
-8.12586437755576
1.1275137775798605
6.468037534037556
10.963809161141777
3.047039956999627
-2.415768944680752
-4.987167356773312
-3.699296756027172
-0.8027656888386187
1.0483313542221797
1.7125807355429492
1.3868605193822572
0.38705293234012167
-0.8729148098652582
-0.8855970018910085
-0.44511148779755577
-0.05008553816794039
0.4741589028799005
0.5363649894027452
0.3358561388464265
0.029538094512648466
-0.28202141347088966
-0.350205166140863
-0.16348208120143945
0.06850410743461302
0.1258620595273399
0.1836109946665831
0.013945004426091286
-0.01102074881007274
-0.11457518277842348
-0.10980575147706564
0.004630416715852377
0.0454376049064238
0.041908459541895836
0.030549269971173146
0.048830066288297294
-0.07059072587277693
-0.10469884317084317
-0.04424556840618006
0.10265923596109587
0.1081779615446101
0.1253101707251632
0.09317253982199816
-0.05266537393013387
-0.16696864364032368
-0.28334206544036455
-0.20995610740329274
0.06359547967379967
0.14836253005343578
0.03186530817459124
0.2559042244227962
0.10522154434031347
0.013957174238920832
0.19336092267976743
0.2802069797413041
0.4012879579356423
0.44478941185585824
-0.47679394680089077
-1.7951566697893377
-1.9146132069305195
-1.9251124483617854
-1.6038831664676472
2.528475084301824
9.77717932959598
4.376268181441851
-0.1861266431275531
-4.416314185870551
-11.952266767331519
-9.587730638365166
1.2350906981910028
13.010684507354211
10.55750349058729
7.847861384901271
-8.311120670699772
-8.704450487470263
-11.394244542895418
-2.3001962612701776
5.556665811379789
11.753506321099582
6.078735761127249
-0.9198197920208032
-4.3145083466219205
-4.922730354652279
-2.9182331639289254
-1.5001419239211868
1.2650753344249503
2.2060086111195325
1.8687627723671847
1.0915551793796605
0.21558572705727755
-0.4199110622713638
-0.6925148327628813
-0.6459678729376029
-0.4109259511561543
-0.13031051941004398
0.0904472568702275
0.20271341294016396
0.20917357967190697
0.14464524906646511
0.05423433592636376
-0.023577866299145864
-0.06586670838434873
-0.06688683435426548
-0.03502030031675028
0.012121674426142025
0.052553067414172205
0.06401548974823873
0.027293125597712783
-0.07147168487769195
-0.2404673285681977
-0.285508544111184
-0.017803693065516657
0.335729514636441
0.7255614645353766
0.8845080446338127
-0.4496516077241917
-0.6972508401064518
-1.000908721400949
-1.0133934526950181
-0.7274465055070536
1.0505849413024875
1.403961203984219
1.6246004079179694
0.9906245667164625
0.02917645043878392
-0.3393162215562548
-0.8125157698613489
-1.9340122503784911
-3.0052960964368305
-3.136278304035266
-1.0534865409451442
3.1708921426032632
9.969781843748805
5.053971524142725
0.23068000423664628
-7.500589837504912
-4.472988503961458
-4.689522937710548
-6.7656329573604905
3.0192563673816184
11.593320988535126
4.640762067303506
-1.7705234142811657
2.6675097406165973
-3.583583054865106
-5.42727223814409
-4.230850694098107
-1.6435640190281688
2.993287713865632
5.267178165016421
3.248968695607028
0.5075510201779009
-1.7315196461894453
-2.0778658727909756
-2.181396177003351
-1.140005787121189
0.418537366136657
0.9519914071087986
0.7317611577578215
0.7261018661211974
0.48496712116583546
0.060148833788024464
-0.22545938604769383
-0.3639570070270723
-0.4204120899641591
-0.283229625986088
-0.024112398777116212
0.12304728512609611
0.16376105426714435
0.13086094176083327
0.06703568632297055
0.009158423059497408
-0.021444114214430543
-0.021759976308968428
-0.0040352689640024125
0.01100967419693485
0.002477521215795532
-0.04290185139145965
-0.1252590260063088
-0.029884096248616897
0.06982969894460545
0.005185050165500709
0.00242877317881761
0.07290785051531425
0.005544028435662813
-0.03653992929746594
0.08582608944770295
0.09524213482867491
0.11023383035490555
0.061405807091506615
-0.09189111451925083
-0.34969049077464365
-0.6712197789858151
-0.39242054401485427
-0.06217190061020841
0.5111589530334606
1.6219572083175742
1.663718758595203
0.3799101570970095
-0.4296263372722358
-1.9748815922383964
-3.3688556756163845
-2.2096024845036353
-0.6916844117961541
0.7611121214912401
4.810306883192348
10.179017653061726
1.2073480647756214
-7.555461117670062
-3.9735710707452725
-3.514633390741821
-7.188240953174576
1.4502883940522402
10.232756430417282
3.765854135419385
-1.9489013451148551
0.48627036745222796
5.3070314148876925
-2.967037421252395
-8.78094764915626
-1.6181270787682394
0.1746722052469686
-3.4587688180057556
4.270179409034116
10.6568424421775
2.4205725275772076
-3.7996173669275812
-4.937450259687871
-3.6547345539938583
-1.4937944536364425
2.2624646433207185
2.5901693778412684
1.62643610271025
0.14900989142218304
-0.7060146099273165
-1.067818667628282
-0.5108175042186781
-0.02049276346674553
0.23113683563195636
0.29173324110755555
0.2208598964237436
0.07778855401460252
-0.0873398774905843
-0.2363654658404708
-0.14199937798892043
0.013322404807661033
0.035941135275127004
0.1171713031608542
0.2302351447446467
0.1318396686839032
-0.029117722727398515
-0.09640206961878135
-0.2891701786988006
-0.18924776865359635
-0.1393386669009109
-0.05540516579048012
0.14849694258973065
0.3296147700271359
0.28994198945941085
0.16343726767148953
0.023071965621160054
-0.09238895894705546
-0.13834456531761619
-0.22193431328386445
-0.36942425921282507
-0.11374221056474063
-0.10798767361008099
-0.16448774306212202
-0.11230835746237564
0.3397333088546159
0.5518822382633644
0.7333345605470138
0.7699909022206757
1.1080816132956024
0.486126106690896
-1.1131418185684436
-3.141203171332987
-5.056760578590336
-3.248867452522505
1.2783648410179709
9.524212861851863
6.5546125315752235
4.778191964408896
-1.0583458841556797
-9.783858856064164
-9.796258066474557
-1.776497500316478
1.0835977259696605
4.287155391509099
7.97391895656148
0.3875896349314773
-2.3521087601223334
-1.27561922099487
0.815720409578064
0.6834115664882353
0.2799319298875362
-0.9793515026537826
-1.1471548787208388
-2.3268090227995786
-0.7502897840079704
0.6245851793317105
1.4071514954391677
1.3991660452502948
0.8113286253963302
0.12369500280132942
-0.38153756538826783
-0.4151374578883254
-0.4253911173513237
-0.32216395604780673
-0.20775848068438127
-0.13271083941254366
-0.0838795041826099
-0.0026297579433370286
0.1762563646085542
0.27888306245666966
0.4555057680421722
0.5670933826071153
0.40431073833912
-0.06104250969898242
-0.8038013006346177
-1.0749995486401513
-0.9607612406238173
-0.3924662631561655
0.18642682137853203
1.3138897364399922
1.5993613475214177
1.2535293460429524
0.29069865010206136
-0.5893912259102164
-1.4655971240309658
-2.0555512564113925
-1.42901888132271
-0.41566700558772757
1.0854519321793987
1.5271824268842986
2.12849368874165
1.3509121914417945
0.6876020738738585
-0.622294214959103
-1.3847683554579155
-2.2120952189702
-1.931460165600659
-0.9055316146631414
0.1059106159532062
1.360665891214222
2.6842670084467803
2.0368020493434176
0.7711435261539241
-0.5763620110579968
-1.3698440888720327
-2.0824574947853636
-1.1000953925801726
-0.3832004336976293
0.5798865035399877
0.9315083809596514
0.9475642309206261
0.5284019154776439
0.11482671776165035
-0.15166233029012935
-0.4253966508412127
-0.5255587963813532
-0.49929360304051545
-0.1975800933800199
0.12674190861923848
0.4012494702098393
0.5090541040626768
0.4739047068638359
0.2699301039608968
0.062078629620300696
-0.12837866348870178
-0.7499558921247484
-0.8623171310807085
-0.7167270305113861
-0.19126126810191543
0.11907861566296399
0.9756710369190414
1.3660535511818017
0.40799852943189224
0.11747864711081796
1.4510593540537502
-2.989872357138453
-0.8249724285336474
0.428640007035517
0.03584019124891488
-1.9353685257545652
2.7559774051737516
0.4639859149567355
-0.20610071542986405
0.36098891486616375
0.37957823942714686
-0.9252400567412283
-1.5024635291965243
-1.0795089488038845
-0.402025843785562
1.09354845638175
3.0027226945349708
2.717302579361847
0.8739209976973034
-2.102996284453691
-3.204097659555666
-4.066945650211623
-2.7278077107068457
0.45434134724088565
5.122406253865222
4.790613025628544
3.3940401552035135
-0.1695678454646997
-2.072002454706352
-5.223085401066251
-3.5044981249475624
-1.5056937925781604
2.153099664837867
2.509387441352053
2.6309472898923434
0.976189672434895
-0.17204851812510444
-0.9625105454663669
-1.1355567690838606
-0.9331540131231167
-0.6103070736828538
0.015563635654388038
0.36521058464343614
0.6591753795232803
0.6660952750278315
0.6663794256915255
0.25223646319333054
-0.22975212601288394
-0.6041248564595771
-0.5840891249232444
-0.710603032841849
-0.9382376301510981
-0.2803446448201035
0.49210793749154674
0.9231001679227805
1.5554735230549108
2.0697883523667984
0.3094971097059533
-1.203836713184791
-1.6968852483679175
-2.1725825080666654
-1.706784151300722
-0.06000327834153821
1.190092003521821
1.2347898001279012
1.6102824106883569
2.042030050717019
3.2178654887163183
-2.087929253114928
-1.7669161449591373
-2.0800532215311573
-3.413404775956314
-3.376665317003517
2.5106921802065902
2.9676412286326186
2.8196193283494235
2.5032056459372187
0.10718157888644345
-0.8065162874772247
-0.625474227882402
-4.227216597517942
-1.3307353237905928
0.46218989076266553
0.8984987360994493
-0.20892560121840983
3.0719931473389313
0.6441057524408812
-0.3187053345530228
-0.7996468276739093
-0.7037455055945125
-0.38887923765688676
-0.19668438491822868
-0.006577035672266888
0.17900834495508086
0.2225312006639705
0.22363929329335394
0.08839163346439224
0.10516760219229357
-0.0678621205676388
-0.2038086335872365
-0.10035281045940342
0.02979817246485425
-0.03263441168322204
0.0923143213228014
0.1876706936822677
0.042892546113368846
-0.14235127075182505
-0.15499221001398708
-0.16877941383467202
-0.1509824965528892
-0.07664424093019997
0.25227824094228385
0.3895291804662042
0.43793936754929325
0.26148255773671913
-0.08153554119146553
-0.4902221401484434
-0.5721293139747031
-0.4119596115808428
-0.1735614375475237
0.0581758176978657
-0.1993009429961328
-0.12186142605859204
0.32954445120322334
1.1480268232290796
2.0785204413074503
2.6956661979343477
-1.2358091784070993
-2.5497946618182126
-4.686565112515489
-4.80910144470022
-1.694840134713552
6.199688479851031
11.395490233016083
3.9257504435778943
-5.513574041203782
-4.366613323188571
-4.877452548442065
-7.383962877903452
2.2068955209249173
8.921669496684599
4.881138809188168
2.8661216421293765
-7.191530680941919
-4.770694656387571
0.352086405137149
1.7929164820997427
-1.222651983936988
5.300350960195594
1.284160288743152
-1.816932947959375
-3.1523636698402426
-1.182086011776445
0.39429350234091415
1.049646544148813
0.9824680994901303
0.43994691419885806
-0.15386875300620492
-0.24223123774588268
-0.14752627231874327
-0.0586237830573583
-0.005575785532529824
-0.031720099717560346
-0.16983392205404474
-0.026192305928929016
0.02566788593802754
0.04160607754043981
0.09590974653777214
0.06574806509851377
-0.18599673924960317
-0.22753281430938818
-0.07335924786625939
0.20409182601708808
0.4706767105417898
0.5411300640975955
0.4096639194293531
-0.2996152831137385
-0.6724881003395771
-1.0542244060334012
-0.8322212754343871
-0.2683144147563005
0.6189190296545978
1.1419184561700995
1.0376083184587803
1.8051799911663755
-1.0859207372462465
-0.9165655166811977
-0.7923694489023166
-0.7131259472299286
-0.876400173105819
1.5623022593670333
0.27190916604764753
-0.11403000467773647
-0.27936126192585437
-1.1147627622082092
-0.8062287140169809
2.0867511459008505
5.181333883534166
-4.326896167001233
-0.79952406339024
0.35408608086228516
-0.809471733760454
-5.289156237561833
6.685993526249022
6.0402943525648825
-5.976918419061913
-4.610432181047068
0.37638068801077357
0.8345124431433394
-1.6953948117870097
7.269419858796227
3.053572215326671
-1.3643951993743455
-3.8089552067612136
-3.4813130188918597
-1.3434035817204135
1.001051376711104
1.6943019190355584
1.5085807409120169
0.6894770512006884
0.020758073738579658
-0.45323485344650677
-0.4424800606209933
-0.17964992394655674
0.03466832936242517
0.08987682683308981
-0.08653488798065775
-0.29795836817339394
-0.2690303253567907
-0.25969406280299323
-0.10174971306591307
0.3490070367891693
0.5583128692067485
0.4739986401437566
0.5179719756056482
0.41877971720350154
-0.11823775416765858
-0.920111769267012
-1.4631342783747865
-1.2297455900551408
-0.32917928033040367
0.6158681204206977
1.9421671256174897
2.626129708016298
1.2224979429590943
-1.3081097604924867
-2.0920458057137252
-2.404719820575864
-1.9679942598299003
0.2676016916314226
2.649489143840534
3.100342331924153
1.6158306385498105
0.24366219560830307
-1.8378254756879782
-2.977250735768478
-2.916518281800822
-1.3390772667668358
1.2639867761644654
4.233111645587378
6.959616100559015
-4.2256307305553555
-2.442620374835363
-0.948946644665755
-1.3937991925250441
-3.9154588044289866
6.078097202178451
1.8554061564399424
-1.1205898779588117
-1.2555916660736544
-1.0477059694593018
-0.08179193030728346
1.9877058692537348
0.8597220742949433
-0.77835021981653
-0.7998528614815476
-0.7827904669529739
-0.5697399170910038
0.33789864998466257
0.5473783479827309
0.5160267648030659
0.2878656259520774
0.04541861303399883
-0.11218571534152855
-0.16455358400334494
-0.14656093035538134
-0.11711069657799314
-0.1302840634329652
-0.01580471337333615
0.028264307344472103
0.03130798761631348
0.03774952222882082
0.0910155875342194
0.018450096949203937
0.02087078473361096
0.06911478983844596
0.10843819114167183
0.07016380884281415
-0.11161911899174384
-0.2822667430854085
-0.25299019334812384
0.0036230524050802917
0.1469087758165828
0.25261088824710365
0.19456399549708056
0.030291750880602264
-0.20533693350133592
-0.0984480969970559
-0.0498875037167788
0.13143495302286776
0.03268959676296179
-0.1623086184829244
-0.27624715356098206
0.05503674676086784
0.17372243369977122
0.3925885291473399
0.39447227849799343
-0.15693076423806393
-0.5951207882194568
-0.4239779536596596
-0.0955532880452816
0.40078354826636303
0.9383302181283266
0.44886721431342985
-0.6794665397568105
-1.0040401199494726
-1.2408773834881452
-0.5027939285202223
0.8345893944156042
2.456221653374712
1.6551658381256988
0.3401625668611604
-1.682279103605918
-1.3716784313043522
-1.5123838081034549
-0.4222563892191696
-0.14692324558544748
1.0572061213969972
0.778259490719536
0.08680255450985333
0.6013813333019439
0.8153143370469146
1.1016871177147434
-0.6041940959820068
-0.8640107677890237
-1.573420871655749
-0.6216328548421771
-0.6120556939493075
0.5381236275494928
0.9279761901481205
0.762201920928221
0.4378173181064922
0.059995697045632373
-0.19684465116904673
-0.2839112678700068
-0.24229964961815106
-0.15467882106506467
-0.10055874443361126
-0.12586810769507462
-0.03137257846271375
0.02089960687972943
0.08810169334712342
0.22138867159074904
0.243591194440523
0.13716294763284007
0.04661794516272551
-0.1051036548959248
-0.39185649595218686
-0.259906561638101
-0.11283251822043877
0.08896396267534148
0.2147010493912055
0.34167382198676705
0.13430654879146633
-0.16910455250891152
-0.15931445611856634
-0.050894984855440834
0.12637081158976213
0.3349117425267692
-0.6675608707228082
-0.5318653189575308
-0.13008625097593463
0.22387342142035957
0.5539929293387046
1.6175042820974346
0.7329637436272572
-0.1507140177077353
-1.1548256505657422
-2.1732879957812634
-2.021413485440978
0.5319544204716821
0.24039918781339678
1.59372876153081
2.2297241882681886
2.4123724786478777
0.6273332480709696
-1.0941125509656018
-2.760515946589826
-2.792813694109583
-2.2730251851685743
-1.3324566414485735
2.5123206141312417
5.331102030391803
3.5592629676737038
0.48489017163735476
-2.9069800595004347
-3.7635226348598048
-4.561321782563647
-1.1781124519814123
2.501241856666336
5.6645355438571094
3.8261868175037046
0.3607340369340752
-2.0252045018152294
-3.906516429313128
-4.1334543730493145
-1.9202782950855293
1.095977863236523
3.027531587852942
2.8150944708209082
1.9305647917519602
1.208811310191213
-0.5359312116623596
-1.1174374996957506
-1.670009585683005
0.48481887005473995
-4.091690341371127
-0.816741328539542
-0.11217922194563298
1.8136487435577884
-0.518907614469983
4.034360130039583
2.605006207991246
0.21091610514189865
-2.3854801627570996
-1.6898887559053875
-1.031921181976366
0.8535384381738701
-3.4419557483452463
0.6180645118838234
1.6276115064422265
1.280402474687748
-1.0046315257948748
3.3809576119888574
0.3776494634140442
-1.3081873900312488
-1.6953138365747304
-1.3845220144121595
0.5690817178538413
2.9324131184589795
-3.0922270566214913
-1.3117001064857603
-0.03593484783709493
1.390492533592937
-0.7551621851998428
5.114304573359581
1.4642621137008451
-0.8834292382606432
-3.3726572674451187
-2.293876183076168
-1.6082334049838345
-0.08640870725997771
0.8133491327742645
1.5583719265419838
1.9146375773370865
1.358701432972705
0.9902814358676278
-0.2287506101248292
-1.72571663342702
-1.7110908130781672
-1.184281226567075
-0.8129433100957355
0.28081788651522055
1.2311518587982464
0.47156425494026893
0.5621264197624524
1.4507981311272165
0.4036899226506849
-0.18293986313716956
-0.5000490001809228
-1.604541626366521
-2.1026912515110157
0.12266108181086924
2.7227629814198124
-1.1577932409325706
1.4594848351807403
1.3446651366296232
-0.5438521451057188
-2.2225686616156723
1.5753880627693038
-1.3488812244301962
-0.8430182830687422
-0.23488929490119637
-0.21256106350301981
0.4629459647643594
2.4429570690243674
1.9138274208773747
-0.2096998547070251
-1.811124373319859
-1.643446219749905
-1.5951148306933396
-0.6011878575070086
1.5752206458312688
2.7028149682210207
0.8224073139222919
-0.19058126359361613
-1.8229771269195278
-1.6952617458595125
-1.1438778658965107
0.7538753500302054
1.106979553290915
1.7154342807049177
1.1953723849424165
-0.2383686773921905
-0.9198719593717916
-1.0279611583957458
-0.8690217888400019
-0.5881305069500574
0.46454887897050007
0.5074676584323843
0.2567838275460171
0.03654757209281004
0.09541487163314213
0.3486553757271508
0.756498498477746
0.3429238662636508
-0.548875323699482
-0.5781155991867531
-0.7281170820130315
-0.8539587618189892
-0.2751602589837288
0.5826299390228453
0.7110087340711224
0.6354219162003858
1.1573618267256611
0.9467044179798013
-0.6089289607613381
-1.713553628250636
-2.066735650957704
-1.0047328401659001
0.8923940395033789
3.9300592749599708
-1.2017753806058509
0.2845054461709661
-0.1696836322227924
-0.8679211171535587
-2.42945831796226
2.8489693101939837
1.2321095456928133
0.19202783386358532
-0.7296964091789037
-0.8470556265835698
-1.2646332056341203
-0.4535087915148558
-0.29003948615868097
0.041338107473173596
0.903225165624323
1.657387517156419
1.3587363826593837
0.12718152822968046
-0.5894678136612777
-1.0780575336435065
-0.5887926659224941
-0.5795119303716348
-0.8169822120365583
-0.3582267001132892
-0.01330390971982595
0.3293929663477015
0.9506590347354463
3.1652987088346305
-0.15391477575145548
-0.9693015536556574
-0.9949800769763907
-1.1734940288544318
-1.7613742146336322
1.5374093993170679
0.776473763836946
0.32323727802022145
-0.2067442054039019
-0.4125898971146891
-0.15446517922494885
1.421256153755349
0.28029646242146616
-0.27667959398406794
-0.7715880103003449
-0.9015298357278131
-0.9069327430784448
0.42937408739331856
1.1518689984027504
1.0877891479202368
0.41422932655856187
-0.3428688798092659
-0.6750442746555931
-0.8390416463038132
-0.6118737468929575
-0.07581657140971929
0.35764242939325325
0.6925912319440656
0.28224913751916064
0.37464023757014436
0.08800432590267832
-0.1773104757261131
-0.294802707814241
0.25233130262222675
0.040309788438468414
-0.23588570339084206
-0.7261486795464464
-0.623427253128862
-0.6040618640012891
0.0911098894818754
0.9500937890974778
1.486706514292315
0.977150178638117
0.6656598432923928
-0.35176283717022194
-1.3842937342159978
-1.5866750984649252
-1.035570382210437
-0.4847432687371821
0.38415907983975256
1.0306776965495315
1.2858951854126466
0.9961869972376705
0.3251870666224962
-0.2626483924541323
-0.5403148381487985
-0.6040672480885662
-0.5433952498638877
-0.3302163029386613
-0.15166266839716566
0.0037102899358781596
0.11029267442766758
0.03460526261261057
0.24923082175036496
0.552994392124888
0.8170659771455236
0.5712204651108251
-0.5654822712447892
-0.8191232516155053
-0.5829787380771957
-0.7551050845766388
-0.31332871418906655
0.6655749736563152
0.9533493211923462
1.5078890555880644
-1.3738372748479066
-0.6731876095949351
0.3607145284755741
0.6375840123392792
-1.1428510462674972
1.1388184882130832
0.04686678005411882
-0.7923455234344338
-1.086675555514972
-0.09452383777786477
0.7365752380246617
0.9175472403018107
0.6709049884529629
0.11070284083964618
-0.3393680985516509
-0.4946881765702203
-0.5437547831572681
-0.3909795216054231
-0.027091598599821437
0.06464713635537231
0.07009894812824033
0.1865506567955005
0.3628771717779035
0.654788081725561
0.4085978375217485
-0.12050121514266339
-0.5202426167299656
-0.5585368238151016
-0.7278200882184681
-0.21630472583758906
0.28389856493153676
0.5356812061502084
0.29878667576181756
0.2757768473303541
0.2803852956581014
0.4380602108518722
0.018152406381147873
-0.9127791537603968
-0.8351441204435633
-0.5397255134661184
-0.32672722685767064
0.5570288956868901
1.657450896127501
0.8559423063151053
-0.05762873584946496
-0.5691098000993643
-0.9903324724491034
-1.0014462523436372
-0.4145856065748847
0.2232662920123291
0.7901478881280125
1.7322805348617156
-0.3803180304005262
0.9376043735015186
-1.080228909369232
-0.7908670847826028
-1.6815768670711089
0.6622901062824466
-0.2541246811391494
1.5154478277385843
0.4944033027246037
0.3335375513013254
-0.003725951092258413
-0.4169723861727656
-0.6173458380537279
-0.27038979676683284
-0.1547093951089297
-0.3507513885123012
-0.0633423112996388
0.3287425768611391
0.6109441216575554
0.4779361679500926
0.5035286383012478
-0.05393497404235113
-0.4120693617480457
-0.8044699399809679
-0.6213787956115906
-0.17115638712757467
0.3268129911037329
0.7211384461694009
1.2943103739063204
-0.8665371639031839
-0.4832314420506337
-0.2864899937741094
-0.21327997051211411
-0.8123331522905578
1.3397957808135788
1.420023500301729
-0.8488145427287362
-0.3838084262848119
0.09296718146070673
0.09778699019391335
-1.3793022469546568
0.5401055618128828
0.010410323723424127
-0.17520597355837128
0.16309800370834396
0.7395121988696975
0.3655026586321685
0.14023802507197575
0.07360139077757283
-0.06326411536780466
-1.2746643263740554
-0.4845546711533029
0.0932230842207073
0.9495518361382124
-1.156297272688648
1.150512347681357
0.6087704352639619
0.08598678282159974
-1.0316165572595493
0.7760481053072846
-0.20481086512236665
-0.283813621501046
-0.33298474341697426
-0.1662426327626926
0.06300129708116965
0.04596261697424528
0.2899378825981242
0.28663289150268895
0.08734682440624553
-0.10799603832223534
0.053964916934168466
-0.10244390126622172
-0.057895874721401425
-0.07465876694474367
-0.18029335898839033
-0.3632848171784993
-0.18278942011045915
0.20935326174450977
1.0413928351403816
-0.0994697120756958
0.7289208343780267
-0.7587662590545317
-0.6423259837857538
-0.9621928967919778
0.6994464812518252
0.014785559593798155
1.2883301753583483
-0.17023487248452848
-0.4659687578258989
-0.7278512778125725
-0.3128219757237683
0.18765219738788128
1.337257837579823
0.4485522588125094
-0.4084428954849349
-0.5787652503549869
-0.5842716997250561
-0.4907216039780226
0.5058366360885586
0.6695336365059508
-0.10093215903942251
-0.10196756346278527
-0.24931229609899566
-0.09298833957859252
0.577470838411284
0.7381544699072717
-0.25265745936427225
-0.6287716380075223
-0.7904194851894125
-0.6929158887433767
-0.06091134129190773
0.9724247025661786
1.4171530332536608
0.5945308222895462
-0.057052207930577165
-0.5329855326710852
-0.9863990015983944
-1.2562610858770593
-0.43179791819470364
0.1276534659938957
0.5200017729088863
0.9991447672278566
1.2818799127416052
0.8985855712218719
-0.3915237218540482
-0.7235020849549404
-1.215079208499696
-1.2614552479240564
-0.6753443843843264
0.7067785494328112
0.9574767708448291
0.9588201007155335
0.7094927871043262
0.07102849732595204
-0.4329925157282559
-0.5722683595968868
-0.5422564124863747
-0.5007770096051888
-0.12960339105580818
0.3706036153533246
0.457201765988159
0.40913719682136757
0.2944993002158227
-0.0454868257708439
-0.3929014566890958
-0.3361796313100838
-0.25125388113268193
-0.09169736984500257
0.20673974207264617
0.3090931204229293
0.0590326793569689
0.06050516429315288
0.06974304193932464
-3.214478489498105e-06
