0
-0.00317924459632505
-0.025630216520728624
-0.0617439487508631
-0.1219934472446418
-0.012095322673336495
0.06557897059673988
0.10875137154685402
0.1122788873265282
0.06787269163242467
-0.03231907580663935
-0.18926091437058912
-0.1907798051318292
-0.009312407115300672
-0.00614434612317776
0.05824157168489096
0.2111100825378701
0.25681163905063514
-0.026792855922967075
-0.08266078760560497
-0.16125777763519694
-0.10445648409175932
-0.13257060052145006
-0.039023742294637155
0.00587201302849979
0.24389742658933466
0.11506698989212756
0.04612536064767445
0.045262321825114235
-0.09595593864829911
-0.19545251315574813
-0.072134472478136
0.060215181659536016
-0.005344027705505945
0.12886774773054596
0.06118083453199965
-0.012660920126902243
-0.10051320524363817
-0.012596362445461992
0.04100585535802804
0.053072123361889
0.021673735329126444
-0.04791051125041896
-0.142297994091796
-0.041056818588791504
0.07955036632720369
0.0404956299746759
0.05335998549950446
0.11565830380687704
0.010180910648702494
-0.090959769888286
-0.01859034544015955
0.002623828082370086
-0.03810970913600062
-0.13369305585277336
-0.060218064071635526
0.01664893752310221
0.13135440194914294
0.10726890086838978
0.14857286173504855
0.03851445573938988
-0.05485802080964188
-0.16729712411984612
-0.12548780354665157
-0.13766551000411784
0.008638610341965657
0.1409621340467834
0.0907975083490626
0.08147304846960023
0.11961180959403962
-0.006933162140791172
-0.124366941772116
-0.06365226755929754
-0.05031207752931364
-0.09703086680663904
-0.0014048369548550163
0.05081562241433892
0.07858217437432301
0.09738704180132382
0.11318062126954921
-0.07954960696982268
-0.09535615907765334
-0.15282557884696227
-0.06968005745633327
0.14006078630394236
0.266930967136107
0.10682850631718165
-0.13618468606864903
-0.2452128603704015
-0.18698776748993481
-0.11363717519697585
0.02792137238879456
0.28071240514362206
0.46234409609135213
0.15696803955607716
-0.0802724780500838
-0.30679350177780507
-0.3709944195254738
-0.4959340880237321
-0.0769856094044495
0.30434420322934663
0.6570144820821125
0.7608132088112877
0.36435844205237417
-0.5928615012073578
-0.7409007181840929
-0.8404417361526965
-0.5661975961060387
0.07365189696319331
1.0843517292291622
0.8167345306829451
0.7123151532937001
0.08491637578058696
-0.4527972182250157
-0.9284100115044744
-0.5386700919601659
-0.39507492771655595
0.09567072200496024
0.4132269031191183
0.47862312688696995
0.4023311947543095
0.24485114213893808
0.0020586978859257698
-0.18296699032392297
-0.38969828814633245
-0.48549521142127483
-0.30101072334572815
-0.025175408903728637
0.3795016408646497
0.7498368880183125
0.2972175213733797
-0.001797745690403188
-0.194268906163278
-0.5243090936984591
-0.6041804432418838
0.002682535571508529
0.17806584449608837
0.22565610542077333
0.43751405464669796
0.26356315909848754
-0.10493572098148389
-0.13332690071606956
-0.12555458779823933
-0.1977892009483094
-0.05237659633013835
0.04132664462183571
0.05625682908009893
0.007413114774769589
-0.05563866916417958
-0.06077077756664192
0.07277169692589135
0.22107040562285205
0.045588323542277674
-0.011180395187241251
-0.12391579632920315
-0.07828144150610548
0.3363483542553259
-0.6682311447455844
-0.07921506443959951
0.3109064177251737
0.2934393284609125
-0.3673848646495427
0.6607702954680216
0.08401519418062775
-0.20077624259053575
-0.2812357454916501
-0.20468926960138836
-0.1626965279359099
-0.0923297313665281
-0.09653712745226493
-0.0800988857015648
0.20736511769066424
0.5335150221363743
0.5642493280063516
0.2752061677360491
0.39872652706693684
-0.2997288744776596
-1.1338176437143688
-1.0241547084785825
-0.4694835347534649
-0.17871390650338345
0.4377442791004616
1.339623361558707
0.7273967974357485
0.5488755073990995
-0.33327232253578637
-0.5081957666832461
-0.5318568498125384
0.3851970984011674
0.6929193023234184
-0.7989376318956578
-0.6514764568978332
-0.7703373525873318
-0.6331116205117697
-0.5718906562478924
1.9040451109484653
1.777956238796291
1.2296363491252906
-0.392280337102326
-1.1212789949050914
-1.470649465362058
-1.1221514393361722
-0.24899075162911508
0.9040398665284768
1.188548851014987
0.6954119213987784
0.10439822254299262
-0.538900561283946
-0.6173340948112834
-0.5213827719598015
-0.03132394926804762
0.28593487722004185
0.46498519372797964
0.32388184827324246
0.05146023160390118
-0.19262916147752648
-0.26533060383680956
-0.22153573730421558
-0.09797010384462566
0.09420015004084371
0.16672143177809015
0.14477687501435887
0.05601766350839569
-0.07734118070625964
-0.04142436228464611
-0.02935039056273707
-0.037816919791156076
-0.06375040946169877
0.09778262012725027
0.05433515862102868
0.016246937318921975
-0.0029485051514581855
0.014290999432976874
-0.11007624436116338
-0.15117298309331034
-0.0860134802552992
0.09811265821561413
0.1935076878296022
0.16409431809124522
0.14415814989730333
0.046679117920575164
-0.2194270782702546
-0.32774303524478016
-0.11541107416938877
0.026829926371980437
0.15282487569517253
0.14919217741277477
0.1184263263194673
-0.03794626374368664
-0.23315209619951607
-0.2056129353221596
0.0729062072635908
0.3914533813682152
0.29883314756407237
0.11105617742147664
-0.27118486436149286
-0.538571267315641
-0.3508866497928669
0.6750232994193103
-0.636965716391543
0.36377345457187077
0.7360698467966111
0.33210222402280976
-1.0081318449557168
0.14665167590563197
-0.3750689108765723
-0.3476270730035048
0.04180632769621354
0.7765685241085735
1.197300993145814
-0.3957642145161604
-0.3187734660157186
-0.6642445374417355
-0.6618049726117666
-0.6587067543566765
0.8689149514350337
0.47713745941277413
0.503561561439067
0.22548431473281141
0.04231817419671307
-0.31380172928215083
-0.34661479347454743
-0.3576383623462071
-0.2159684159344068
0.0543948905118695
0.26799432885495783
0.2580003134311964
0.25308801669678643
0.060907726315817264
-0.1363185107840826
-0.17438418650921084
-0.09288944648121554
-0.12104438475295252
-0.06902607624082108
0.07267522152690208
0.12689252182990574
0.11990271915339662
0.07242343100690599
-0.005099718037279091
-0.11179524951908407
-0.05159035700310285
-0.027170621942260893
-0.03550078183928005
-0.06660462441230755
0.09423214746810847
0.062039652546012666
0.04759269850777669
0.054831726864928716
0.08156589609653675
-0.076759605476069
-0.22210375915150532
-0.15070915301047297
-0.05470885625230946
0.07063034372723624
0.2163923315264958
0.3515086486551722
0.22230496980129202
-0.03627953120450155
-0.2793196482516879
-0.5276998308885137
-0.3517918466794417
-0.07225841207516782
0.219254280976641
0.42560355397648325
0.6088467227829703
0.3687237834048776
-0.15553369398547695
-0.46038337645954747
-0.840812879725256
-0.3570683522068197
0.1811902522812581
1.6096344850543909
-1.0097567494226414
0.19063403326093167
0.2702858690153786
-0.12481389274196338
-1.1621427494701497
1.3788999870034748
0.10793894850294998
-0.3755589747027865
-0.48067900839961347
-0.42441907032391707
0.1645275784048667
1.0375386203723258
0.319859405968735
-0.28405208051240444
-0.0685900590946903
0.7071535031408002
-2.1469095852453357
-0.534534609065285
0.9152774767904245
0.6059472410784826
-0.687357888245855
1.5249281635471008
0.6135433963807134
-0.5666955810589206
-0.6385553065892307
-0.44234451313638395
-0.17553308548649046
-0.15124614989901997
0.2149037103336857
0.19116367924793135
0.09810912448168034
0.07069870682837769
0.02396028841912979
0.029004129518249808
0.10269480432129051
0.21177039363986155
0.09016882784974053
-0.13397872352067894
-0.30809344981006814
-0.4305204416526803
-0.24058796237196525
-0.02882723671957714
0.3340777254753597
0.5586604086629154
0.5021239352769298
-0.049368572636303974
-0.3757377334479151
-0.39921552900627844
-0.252874221494881
-0.053638899955951606
0.31298275201222664
0.3965039746058541
0.1785942760626642
-0.33074395864861056
-0.4964527476426807
-0.2643382725410125
0.026160193160640395
0.4224002605257345
0.7390234837702941
0.5495897106559917
-0.0019512370427135967
-0.9705818351056652
-1.1727919854780782
-0.36163843549150326
0.37083483569080633
0.9636318584300557
1.5455174628782418
0.40573469069582163
-1.4079085195450962
-1.2672301288186087
-0.9392561326473171
0.016880433368614035
1.0227876939566314
2.037437057978051
0.727090951814065
-0.3246624687663428
-1.360477250359268
-0.9663764957963966
-0.7982879932920957
0.04944415005342415
0.4198207644017617
0.6223887765416359
0.34122304568473133
0.1514735221266236
0.4684585732651473
0.7422457472846433
-0.1014440432609953
-0.7850843023081152
-0.7899252213044965
-0.8816084550577284
-0.6760368740076864
0.54292083280154
1.1620089212274891
0.9590163058445645
0.43736680417331103
-0.20071467969105694
-0.6365024841056087
-0.5857386014488597
-0.34219793741426147
-0.13680201544803797
0.07448147006659914
0.19314992125947006
0.1401873684845338
0.21161516706897054
0.24168464860668204
0.18455112541064453
0.12012429278381799
0.08380287446437686
-0.08622540479969355
-0.29561760124460745
-0.7492251144024916
-0.3299901363940001
-0.2116577412230447
0.09373288655848437
0.46427888471323314
1.0930109462130184
0.6331273423995575
-0.01732744145510729
-0.4855819621526059
-0.6598760402137241
-0.6138782872918096
-0.34503565073756265
0.2559361204205554
0.40080011933715554
0.37379459141514626
0.09139194562785134
-0.13379195183724155
-0.016697274598287543
0.0904477130837569
-0.0001533613943601381
-0.10258651307840001
-0.04445837617946543
-0.25460304381922877
-0.1545288186429357
0.245070857270458
0.5444385252229009
0.3557184607626905
-0.2915546741946977
-0.7415123922494613
-0.7068910752688383
-0.07740802766888356
1.4543359932867166
-1.0441126919973536
0.8216862447786957
1.1592931927527794
1.005118860979715
-3.2306262032832276
0.6967499042179041
-0.28065695153868786
-0.5200760327850303
-0.6832130847958461
2.0172703933149103
0.7586374197044847
-0.14085032812723394
-0.6440281294473048
-0.7882843053300649
-0.06224845005471754
0.41933264661464426
0.534824490911623
0.17058506065777104
-0.1635647068547286
-0.5172314878596007
-0.48617377596688277
-0.21137857864900456
0.40441597988504036
0.46578497773714966
0.25003941682099684
0.18224489996547533
0.02896834308084953
-0.28805252921546337
-0.2647122885853355
-0.18443241452750112
-0.09553905322084254
-0.0025641913411929614
0.12769434883160893
0.14945258455767077
0.11739604498647206
0.06925167478702017
0.016363304584797497
-0.0559599333962819
0.020481311038886126
0.011085412828254365
-0.10591667596396588
-0.1266156066397263
-0.014978126406282042
-0.10526832272413422
-0.11391408732657611
0.040977121495690154
0.21668598860383528
0.22574575032283264
0.22544942608307086
0.12215710934818917
-0.00857093567247944
-0.2904149070960037
-0.4124905842061083
-0.40457592438558504
-0.030585864974130135
0.19668871768383797
0.384737192003247
0.42603430622170246
0.37158694368658907
-0.17752468247057887
-0.4596254027978506
-0.5303764537945067
-0.04094221629401198
-0.026008447559375876
0.49600624615401656
0.5160369608468067
0.22994726357085354
-0.3568026033275799
-0.41616782624856813
-0.4846007200926666
-0.2614212502594133
0.1743516625944271
0.330339040625721
0.4608361059089966
0.33563351586474593
0.23091002918208822
-0.05174806730794553
-0.34177133567351553
-0.44348173272087055
-0.2836845684871065
-0.2778213187777576
0.2769348400186377
0.5820040433176404
-0.3012894344952551
-0.29918156157855763
0.026828551881097028
0.23798022314114686
-0.012417477868153127
1.0086157956868633
0.3261818275309815
-0.30330552729159144
-0.9333271775490212
-0.5657088449735906
-0.5072180182104867
0.24057607409244147
0.5565554034966628
0.552892461220974
0.3256134341629781
0.12126869395606886
-0.27103242078341705
-0.3042772989164308
-0.24529860640713283
-0.14662799424239537
-0.028575970028551508
0.12429781448437209
0.15417795043314456
0.11420764195707182
0.05262821298363874
0.0019451296347598609
-0.024674248337146286
-0.030351916008893004
-0.02717271113687702
-0.027584518690125577
-0.037296594017089596
-0.05174656330517526
-0.05729166110504794
-0.03720996203850239
0.018650561852060044
0.10308016910812702
0.1831751973697301
0.1983258556501772
0.06718657543803228
-0.09655061347493175
-0.36355212657402475
-0.37046624307300724
-0.11120942244024348
0.0580674941422124
0.40256201361340377
0.5892838929710321
0.2752148788527915
-0.28916816896458314
-0.041197742509579936
-0.2811316934333361
-0.8554508355969964
-0.5623706947036022
0.012675578960547879
0.43506697658348187
0.5491894420404566
1.2230549246776976
1.1363824300808316
0.22892622276952412
-0.9938997467628617
-1.3245032923084803
-1.5294567155712102
-0.8840451976321143
0.006870208172583806
0.9035259402077953
1.5739614289553592
1.4362229589452056
0.45114849953976416
-0.10269958126338714
-0.770667148664924
-1.2072529911514713
-0.8475898884074745
-0.20626542971835424
0.1711782318924874
0.5007076433465208
0.5116500741580218
0.3825494533726466
0.08418795384003257
-0.0558567634870854
-0.16383431370058857
-0.21130427896672457
-0.19764756641558884
-0.13367863317746692
-0.03304967743532677
0.0867744172653438
0.19693941160330208
0.24914592899166424
0.17382452529393372
0.08900417733408687
-0.08011334177918672
-0.37603207428479096
-0.38737287086091726
-0.2406622626864469
-0.011929912777431701
0.24229225764985743
0.44255914221542175
0.24562358384002903
-0.18192392251640874
0.03301809562149389
0.29193402404354996
0.5687111032169841
0.26901769073756376
-0.5062990673464636
-1.9117109587176622
-1.744241220416923
-0.2856419269262536
1.4020182221154487
3.3588258535909246
3.4422691569869612
0.1268471385698048
-3.1976021124486738
-4.0711885273658766
-3.6381343178917933
-1.4329586605844193
2.8916626100779195
6.145740838117313
5.405568181063874
1.5621508948148721
-2.7242663903788276
-5.706397983455945
-5.604603591244045
-4.000215308832078
-0.08291598828094594
5.0417929630911775
7.096915521558513
5.013467794072373
0.3178407506287681
-2.59017321926442
-4.510546325928026
-4.2073404281513405
-3.0332075717043088
1.2609925435170442
2.8950048564814126
2.659519635875487
1.4533531435259113
0.26149734314869416
-0.7642979767838796
-0.9149988607978037
-0.8566249216201326
-0.5335008556449782
-0.0838067702176601
0.20965900804155438
0.3303867621263191
0.31161880040210926
0.20874711508408914
0.07501446968522361
-0.051467250995520374
-0.14858884545157036
-0.2037031224993218
-0.2067988280344774
-0.14969099031372365
-0.03408703175232459
0.11348467153525453
0.4266752796197529
0.5939940391266927
0.4722793610131277
0.1225698601950138
-0.5380437362426572
-1.286487806729182
-1.570927299360353
-0.9373206611560752
0.8892953235663001
3.090285725404886
0.45176869326394814
1.728427943371555
1.3060345859409865
-0.8424891133173881
-3.9552524062460592
-2.3132295158209355
-4.19083416933122
-2.1789231051889586
3.1324770993973163
11.005736264717903
6.295016184562478
1.0207692622678957
-7.566622946201141
-6.524499752373509
-8.760000067245208
-1.1893062599203466
4.575165942459524
10.056340596696586
3.6375361679392317
-1.0131968146605057
-2.8885050475740677
-2.150233455102094
-1.2901325096153353
-0.45885632393148673
-0.05046656679187075
0.4183739118419329
-0.06491714226602459
0.34664886656494015
0.27442409609355595
0.41750302047035753
0.46858757465285067
0.2584792013154269
-0.2643914768460126
-0.42355281564882624
-0.3860232431995192
-0.3321383735810181
-0.03697126572594963
0.3313091136359264
0.39977422624520415
0.17537334740748373
0.03604273515725281
-0.06598358387164545
-0.18945227345774582
-0.183929758043554
-0.07210209825671803
-0.04111676275811946
-0.04620328985276526
-0.026016783687474933
0.07395183973590684
0.07558937818611203
0.14667355021565137
0.19021024552608126
0.24962161994844131
0.13184523762958836
0.04605937928636509
-0.3494453416978252
-0.7044488182741349
-0.5522654841054275
0.08532001159347738
0.06118217197417051
0.643234604946929
0.8505611343293079
0.20616661614867018
-0.4788137026820824
0.11355079246470344
-0.1478494084285756
-0.38933323263091485
-0.6854349234600299
-1.0313460555389706
1.8603539337889228
4.344272812393383
-5.580100279076926
-1.8928061169991812
1.809484478753747
-1.549496719640785
-2.006014667202338
13.18588678454799
2.1759547934830197
-9.145065572677565
-4.121486215919799
-2.5266790795138516
-5.300937762206019
3.7038775078354087
11.019996484315538
3.638033346204637
-1.1824740471878188
-3.477682635300152
-3.9479937338880062
-2.8502952497886516
-0.1492507836776452
1.3887757923708535
1.7519834943593662
1.1418127227898747
0.607772924856372
0.11861670915241644
-0.30112359418875007
-0.5709262177646933
-0.5119068135186154
-0.3902883895314729
-0.07023499389919259
0.21130343598064566
0.24709349397274552
0.24753912766984965
0.22520982261947398
-0.015038380819526373
-0.2767324249370276
-0.1653226521225682
-0.08016407718695533
-0.010486064405792991
0.06199468682540415
0.15484674752035407
0.07461195213686843
0.008404333334787907
-0.07989818773488529
-0.04828147156503176
0.028898309388369132
0.06897525969085416
-0.00955930830924494
-0.07690318462452433
0.0181601108347585
0.057341647196400676
0.05990973194169024
0.08682680655940375
-0.15927305565332367
-0.540339550796993
-0.29783934438454
0.12308650087698032
0.6448103088639673
1.1346303028811995
1.201730552127597
-0.7794800243448426
-2.8286256377839796
-3.3270260307313984
1.7781148814755965
6.52736989623881
0.49002876889732966
-5.463139803481213
0.2656784180967883
0.26135472959490785
1.1564051634227632
0.8743196895697264
0.2583492050561373
-0.509218969724477
-2.1058992063200024
-5.907892566430798
2.1128903640214913
9.045971605932392
2.110366828567633
-2.1902297623576232
-3.5860446186495456
-2.868302981552914
-0.9112938865238437
1.231290470242208
1.7279756057555156
1.2957948855128898
0.3043322160210679
-0.4967128663133969
-0.6072874822391211
-0.3709641338134482
-0.15284103924268946
0.08042246753368616
0.16941863276247726
0.15995531724691986
0.0956429228899798
0.011073907292418106
-0.0709299377194232
-0.13778474262649493
0.01661128803905417
-0.004735092064067531
-0.0005432543082889382
0.027888973419475074
0.07445439941288874
-0.07420430906379738
-0.040415114612180315
-0.055970989059390006
0.03898833419741759
0.19954753397129565
0.1835038214614091
0.16402652926668704
0.14680044873095235
-0.21275368380145862
-0.8009776879130159
-1.0577620862938573
-0.618043491781391
0.2174628287627385
2.199548834890768
1.6695753159471942
0.5588964087065296
0.47243164129905885
-0.3511433282066973
-3.044740465561
-2.1489176526314133
-0.7445765179162739
-1.3227644316167495
1.0132053745020582
3.267029436046465
5.877814676588848
-3.8512056105501644
-0.5662194509693842
1.8817686933503557
2.290771253516057
-8.801431109595047
2.533350466594173
-0.04588758516113669
-3.5643411106027787
-3.705312459154492
6.698453924183987
5.338760491727005
2.3818661009687796
-0.4068113126000806
-2.3293898631381538
-3.868743413573222
-3.5651683358251844
-0.3779570691768324
1.5948264732166324
2.0375935350849823
1.639712209102601
0.9034337209992535
0.006002131107446221
-0.6532523298067484
-0.8287415543969989
-0.7600043951616746
-0.09734199633620917
-0.4512123193324624
0.22179249640930412
0.6000520239308562
0.5601489097524374
-0.058752418750322576
0.32595451727776437
-0.15599279017415651
-0.4047269303939386
-0.3183709532030211
-0.16486534405406703
0.032665915606987554
0.09339153606166058
0.0622254152790531
0.18693309740302996
0.2978828217388463
0.1979389006958234
0.06636270501258557
-0.12460985126790859
-0.3874752592768227
-0.5025025378697369
-0.41756303298045533
-0.2716900977299709
0.1596711682605124
0.6107972899060787
1.0854689841651528
1.2556248044634022
0.7172577099063899
-0.09568274670537834
-0.963546307684286
-2.947601948793589
-2.9312815835082735
-1.88587388529341
-0.0727333473074936
4.064257682002197
10.41963749506198
2.28814050308659
-6.144303820755043
-2.490967166091517
-2.3548887465302
-6.989972723028203
-0.37321594349607096
5.057368082778997
-1.354750589583117
0.6623571506499838
7.315856021499095
4.354950563300983
3.168313538844081
0.5807960421740025
-10.75096261763459
-11.946638297559801
-3.954706257954592
1.7804974794708337
7.434312030746693
11.68251293900164
4.4334524806253635
-0.7347301008345054
-4.1236456190483315
-5.520332975603282
-3.650027387403148
-1.687930324951304
0.4238556448627397
2.212029065038792
2.1107133173039605
1.4038419250195957
0.7746850266225641
-0.0664208443438193
-0.6504670005789238
-0.7278258672371561
-0.5920618440776207
-0.38996180498879135
-0.048954622911952815
0.16256530007655565
0.2416409612210022
0.2337245982335678
0.20584368252172255
0.02185724759573874
-0.07324652548718436
-0.05866017303795154
-0.135546930583638
-0.1220053397519465
-0.04937940842486758
0.038046468581319985
0.0807055649042491
0.20189151350053547
0.31055972866913883
0.11196452035472758
-0.27389965493033985
-0.490676179765573
-0.32917190252685163
-0.12431528483273847
0.4311184606960493
0.660351700671553
0.274118308245005
-0.6501943605708147
-0.6778413016652425
-0.4173500675543408
1.2834517612577163
2.947521561868773
-2.5091053691932923
-1.5429531408964272
-0.9522140937926821
-1.0733122350632085
-0.4163816245279936
8.87795432177634
-1.796905474070624
-1.0877461162821394
-1.5924469624977187
-3.1567453928035376
-7.232353763958341
3.848474447731332
5.088396576861251
8.410747426958602
0.13477487128958923
-6.374941313103389
-2.0950746340134403
-0.6672589842169646
-3.7875639221355955
-3.5495665779388834
6.044860740737205
4.666418162532616
5.4398193356108315
-3.566102044750039
-3.6926731741144496
-0.7312075802316275
-1.747719492878834
-5.789803946920537
2.4762714243266752
8.21750705296092
2.453588343507866
-1.2566980146608968
-2.600634512147623
-2.583415522330498
-1.162381528137038
-0.32754610155908953
0.3243415713500783
0.9252223409763889
1.4217984325470427
2.668859970120281
-0.2211286551837571
-0.8497029041883979
-1.2390998498360275
-1.9183795466479836
-2.043515098850067
1.2092988411054624
1.371586738026293
1.562857381825274
0.9757184154158867
0.21411090873445252
-0.4926440185882928
-0.6093205122606051
-0.9812331328245555
-0.730076236889676
-0.3954684197131309
-0.34188480086312956
-0.029701131223801656
0.47060466401847495
1.5564760486899172
1.6050569526063254
1.5546505256255987
-1.2282240281308476
-1.411741665625266
-2.138427988946897
-1.503127005397204
-0.9192910284426854
2.010799138722389
1.7486681265334987
1.453295979653263
0.6598034533111276
0.045759387915636135
-0.7088926582953416
-1.1968733387444335
-1.3424571295055376
-0.6946032212838998
-0.1891093275689431
0.4116755140871497
1.020345196834895
1.1048872056894952
0.5906882391683455
0.21678277496996182
-0.04113022167950194
-0.4909921765323048
-0.8156241977527455
-0.7705058772633298
-0.7210105308348648
-0.23982606767237322
0.23315905127872857
0.8858393963313812
0.815925889937271
0.9372414568492919
0.34054327548059876
-0.07779745629774461
-0.5272195709948563
-0.601060076355108
-0.9579938764609996
-0.8425608936081295
-0.2692136066860988
0.12424923125742542
0.5689911991015103
1.2356646927912083
1.3236023680525626
0.40425857444839364
-0.3629800899534198
-0.7494092063315583
-1.1396682357880963
-1.0192727337526013
-0.10318551302756442
0.4760985368401152
0.7251956130394711
0.5134418662495648
0.2920766218444994
-0.368107854313624
-0.4100234753633645
-0.09508238679506416
1.0147070467450738
-0.3075903772418512
0.8965096700724523
-0.7693228015173951
-0.798814542908307
-1.3459783180213167
0.3741243377319038
-0.36037163292437185
1.541598194745635
1.0958054528302863
0.3786690438048353
-0.2892887718034281
-0.5084588858034689
-0.7298492897066454
-0.5770695535600082
0.013051285598259946
0.21575155260276646
0.10819534085912556
0.23370593885692245
0.15503983773360383
0.010484772313475813
0.08256657562887323
0.18446304038510566
0.06511513948172791
0.030634544472059384
-0.023496707259030157
-0.5777909097819582
-0.26172120759373935
-0.043323025209493056
-0.039904496433137114
-0.147307009618621
0.9216636496063539
0.40307576534444406
0.06497616130632629
-0.18504701647137792
-0.27022883997592023
-0.5041314964266108
-0.15416565575451766
-0.021350681019880975
0.15841586012880018
0.2940644079814405
-0.09218947520167388
-0.09856969354499064
-0.0723447491984504
0.1716634979278613
0.34662341466519647
1.107000565470158
-0.7187379997709068
-0.48045751376885826
-0.4566666902632546
-0.6210840104438667
-0.8408925109267613
1.0888927501344705
0.9852415723208607
0.41327425351246144
0.24329557068309307
-0.15623220961686793
-0.4907451072526675
-0.6915175421996854
-0.2682131962766663
-0.0795531816278595
0.2701658758116171
0.41248156647196893
0.38602175263740945
0.011306344496668045
-0.121518819247582
-0.2500295519462217
-0.026413640000704085
0.2988719674393688
-0.5097475888521737
-0.2671907099940416
0.028791272585581874
0.1859817577308825
0.20331189397151692
1.462773632198853
-0.2636367060803552
-0.7897647299659605
-0.8829418785806357
-0.6416629477920454
-0.7010122419507219
1.5287261003865467
1.2026915134619154
0.38659745327431644
-0.36899579874405736
-0.4151829412262595
-0.7606831166135029
-0.21743534157183395
0.24465547933785162
0.3235195590148775
0.19154704690360916
-0.11073503201600544
-0.2879769168747194
-0.207931166507742
0.07591416070015598
0.0978350127223178
0.35365201904490906
0.2816620875096097
0.057277272400671896
-0.1958908503037493
-0.1814719311745284
-0.20007457289352254
-0.12266906216812905
0.02508569105365896
0.06448511768819142
0.05260317387428921
-0.13763757013675
-0.04102907079032788
0.17790101157122423
0.30963376449356683
0.2963218547675263
0.24395826113526184
-0.15060305001603708
-0.764740813089629
-0.6198587019234865
-0.26952456808697794
0.1863776371660368
0.6653254976657522
1.0589062660857456
0.4026085562857928
-0.32684135355698324
-0.7858653829004644
-0.8243187301075408
-0.45329178235817774
0.16240185989508557
0.6835288267732227
0.7590736156126905
0.3921372593666395
-0.07331201788624116
-0.3383448355314383
-0.5145725113171661
-0.48508839770006795
-0.07747722947590054
0.1410643703707616
0.24653567315975522
0.32767888779633697
0.2550737715231267
0.06103528846353929
-0.06394926251001594
-0.15931844273588852
-0.2736304472614865
-0.243808903534994
-0.08218651358902239
0.2250467469539328
0.30973184905312146
0.2098052173923531
-0.03992820822433945
-0.21083505775071817
-0.27859167274555147
-0.22102963937589817
0.17994191950207514
0.3315104172252788
0.22174928679879188
0.015531818864323763
-0.1418305656972045
-0.3140948023807992
-0.16148516691462292
0.06852655654668026
0.14424393996848528
0.24787932376540775
0.17290869082354157
-0.07550010403564476
-0.27617984909282084
-0.18680165075212618
-0.14296060299519958
-0.06544139904236215
0.32429684783220636
0.284857455344887
0.038911784998124845
-0.03325342702105287
0.011903028452752174
-0.10302640404050149
-0.05543367992193939
-0.10248633367185533
-0.06689851046299847
-0.13221640215999617
-0.0488739161045244
0.05033071514773641
0.229296403133904
0.12814842672748436
0.1495677070026609
0.05650739602812354
-0.01760592324559699
-0.14909962851964537
-0.20080652100163604
-0.20277167108526625
-0.14329698745229388
0.026603428224433304
0.17690462705738738
0.3763774203282503
0.2727560334352309
-0.1175747197392011
-0.20762710808217555
-0.22851955191686427
-0.21558368421216714
0.00149402716566647
0.20146128847074724
0.5689411637185702
-0.308711648316802
-0.04093248494284867
-0.02922861132680863
-0.06137833922399311
-0.5091325307659852
0.26722018085748894
0.10701447477906616
0.03331322144047618
0.23892470038992542
0.2806438863898353
0.0857332612289925
-0.22947631112472475
-0.33383898276511276
-0.257258306550103
-0.17744929261611786
-0.02329702001510795
0.3057839471000352
0.311305605506121
0.2682713813502779
0.008367677714604596
-0.08136954796598454
-0.24588363158713372
-0.14191193081937695
-0.21850018025049042
0.09535812020476143
0.19354015505802255
0.08783400682287461
-0.0006268377953620092
-0.04955834009802474
-0.041332939362608144
0.033635034834715895
-0.02491878245390277
-0.028049571266649295
0.0020987350084955363
0.03284576998879679
0.022922916588788003
0.12655315477278958
0.10019724557079888
-0.08835935181873573
-0.2504085160127594
-0.16952265457329088
-0.0010712287340424406
0.12036927623449242
0.26748707918368053
0.10509176676443137
-0.12185291069070774
-0.19448971262936446
-0.12114056510227024
0.06476564521800447
0.30882728497236306
0.3429539149166166
-0.10226257663626986
-0.2802828922906678
-0.41085124571112935
-0.26918548316617735
0.011445361450788389
0.5226968292771129
0.3553970885332605
-0.025218658729278275
-0.19489299552400693
-0.1733607073558762
-0.017413226302422917
0.19147974136926588
0.16166360834246937
-0.19355904821031678
-0.1412623337444222
-0.11686184609401841
0.282582660248268
-0.3018929036701458
0.20194517205261647
0.08568334847774824
-0.15447975363162011
-0.4335730228494334
0.5068189594827671
0.2860372000959922
0.07821615251555249
-0.1840665368472468
-0.19597155786584244
-0.0600775796944849
0.13480650063177296
0.13110600310397266
-0.08616429058713145
-0.28538998917307995
-0.1931220762400786
-0.10889075095625739
0.07087704961490768
0.6248643855321316
0.3834929860156475
-0.08080364619438628
-0.24509299298249249
-0.21209979916125002
-0.2799892953559458
0.08376433289612335
0.05706470454264516
-0.13592596340309063
-0.03590946006744589
0.03255322474143855
0.13947196071261533
0.5313208964389048
0.22218706822057685
-0.402640647685012
-0.3726559870786193
-0.31508366248165304
-0.24387274015162563
0.44003483491633605
0.7391748565109215
0.04866625972152625
-0.24781148072672948
-0.37255414180818364
-0.34360166044060625
-0.16788233056786625
0.35688322104127823
0.43271467909622446
0.25131439158801483
-0.008447703349409882
-0.1715576151769288
-0.24922151662711511
-0.2206896186175867
-0.22385494307015394
-0.16098628798326087
0.0796058417768539
0.39139779702505356
0.41733579491535094
0.32936630714496656
0.028768092791336197
-0.2309460141635969
-0.40533180068466224
-0.4174150291067971
-0.1270204145835652
0.07973991935050785
0.2794803585691818
0.18521875309251076
0.1148060793130855
-0.03641588672440801
-0.012971564775607859
-0.005168443499255054
-0.045122197058353124
0.004310264625593094
0.06482874524979527
0.0597194943301864
-0.06968324540365547
-0.1506527306859685
-0.17181308382239416
-0.08468107865296706
-0.015008847896693258
0.11809216850298287
0.3804694816657259
0.20573094230133465
-0.011292129552558474
-0.1080076181942529
-0.13726838103854871
-0.3473156332348948
-0.16662160908845808
0.00045479144342585595
