0
-0.00019649308911360956
-0.0001964930890661276
-0.00019649308902888312
-0.000196493089026173
-0.0001964930890793777
-0.00019649308919473163
-0.00019649308935145958
-0.00019649308949633794
-0.00019649308955109002
-0.00019649308943642097
-0.0001964930891105045
-0.00019649308861134372
-0.00019649308808437793
-0.0001964930877731667
-0.00019649308795631132
-0.00019649308883049418
-0.00019649309036600182
-0.00019649309218996118
-0.00019649309357091767
-0.00019649309357117783
-0.00019649309138921456
-0.00019649308683370947
-0.00019649308077202238
-0.00019649307531722994
-0.00019649307350981502
-0.0001964930783575561
-0.0001964930913342556
-0.0001964931107630558
-0.00019649313081408445
-0.00019649314196698494
-0.00019649313356065264
-0.00019649309838509833
-0.00019649303823779867
-0.00019649296826607863
-0.000196492917250896
-0.00019649292133643666
-0.00019649301049143845
-0.00019649319015562197
-0.00019649342432149412
-0.00019649362922225804
-0.00019649368689265745
-0.0001964934834545875
-0.0001964929676106374
-0.0001964922122481761
-0.00019649145059980617
-0.00019649105437137364
-0.00019649143093262522
-0.00019649284325830727
-0.0001964951965180209
-0.00019649787712919725
-0.0001964997540420803
-0.0001964994357879399
-0.00019649580506531412
-0.00019648872850198357
-0.00019647969348629327
-0.0001964720158943753
-0.00019647026727614148
-0.00019647875074304424
-0.00019649922450528436
-0.00019652855825378888
-0.0001965574383862246
-0.00019657136894716472
-0.00019655480750426074
-0.0001964982173382882
-0.00019640625321654085
-0.00019630370461618676
-0.00019623496582181195
-0.00019625353684001216
-0.00019640094285143248
-0.0001966793192747544
-0.00019702749635422151
-0.00019731440045956387
-0.00019736307521620643
-0.00019701125710778477
-0.00019619987012417007
-0.00019506203273764
-0.00019396901029682944
-0.0001934854764361145
-0.00019420349164545508
-0.00019646662110741763
-0.0002000563850495661
-0.000203973701288792
-0.0002064781655210507
-0.00020551546830591144
-0.00019954759630010706
-0.00018861046765397896
-0.00017520978908269842
-0.00016451973846506098
-0.00016338189678354343
-0.0001779014018366178
-0.0002100107680630975
-0.000254095588320926
-0.0002953809556407274
-0.00031189578971778224
-0.0002811237526531644
-0.00019078332716636722
-5.0821172882117415e-05
9.8587495757736e-05
0.00018929180212706373
0.00014251232567397576
-9.850540567979947e-05
-0.0005277387801066259
-0.0010429191560864313
-0.0014400652729841647
-0.0014549611490019157
-0.0008583744078898087
0.00041073869097558384
0.002117675855075527
0.0036762801875501808
0.004234326865782117
0.0029399316006927354
-0.0006371481134987371
-0.006047089396366719
-0.011669316166092895
-0.014831712780221202
-0.012522757991982492
-0.002698173320617031
0.014100046001673708
0.03339789266433536
0.0464858391529772
0.04182911453660782
0.008376341951479876
-0.0598897325463697
-0.1597440697390696
-0.07694323229955169
0.0115097406168566
0.13106217586972516
0.10134840328521635
0.1293604299841283
0.00709623269358188
-0.08521438566409076
-0.17176801260025237
-0.07305866482535621
-0.00047953358759052916
0.04438911302538358
0.06622235819033262
0.07041150945341801
0.058402588185761384
0.026051235639193867
-0.03437703501005647
-0.1296030007017464
-0.06037174136580954
-0.018580994636828073
0.012010330246528863
0.05167240919794808
0.11890057450673802
0.025296688928543122
-0.026917886484994897
-0.04409274524965928
-0.037826605999095805
-0.020779424159818656
-0.003219882224638426
0.008779689490393587
0.013417405933723626
0.012012976898506361
0.0073683951631984546
0.002283066038909251
-0.0013904642313779083
-0.003050270036032138
-0.00312489978423523
-0.002555787489685159
-0.002223058750035898
-0.0025092256573983622
-0.003123075339082229
-0.003228936998452001
-0.001849819677813638
0.001565098009207044
0.0065936919266984684
0.011554142189830379
0.01371644359490062
0.010157116760968045
-0.0008004643358146237
-0.01790123714580556
-0.035646033824422066
-0.04409670001486823
-0.030377708762829882
0.01808065818419365
0.1093126042649181
0.043077057985681774
0.009240918034786641
-0.010760879636093065
-0.03967951279476488
-0.09885532502975339
-0.003173640506670884
0.041902951906224215
0.040679297589656736
0.005390340664834632
-0.046953176429045826
-0.09837769407498005
0.06591790787830534
0.053571412227661444
0.062253280076427116
0.07948696247089888
0.08610981626038815
-0.13692965930510756
-0.20047997978235613
-0.1011230335426583
-0.020294497045034367
0.07025409360645399
0.1984769960622458
0.18169059960511608
0.02034963506733886
-0.10149986347939621
-0.20976665618816542
-0.13127754785088094
0.113771358751514
0.11548988278531279
0.0743513563968942
-0.00047369614765721557
-0.09291845011223546
-0.18189083058154654
-0.04433295896556893
0.13970070860836084
0.1807920229990249
0.07534872280874594
0.00513193677283251
-0.05768669663484778
-0.1414174209766848
-0.06519822739454197
-0.0326733293301665
-0.03163585111984975
-0.040153111040999445
-0.03758030149567215
0.18278602360352983
0.20373695487562626
0.18134467228901308
0.05238579914257088
-0.04819313718355756
-0.3641814683922645
-0.2971865954334052
-0.19638510243350366
0.03551513676636009
0.12036810770314321
0.3732854632484967
0.27248881957087223
0.240888601367236
0.04589347884639344
-0.18278297692842607
-0.5245424849219976
-0.4402996346482526
-0.15746901875789165
0.1262761137985412
0.42311807251057987
0.7299029988401473
0.41176418672191273
-0.19511918762326733
-0.7610425558351791
-0.5308786057557321
-0.29873797237584937
0.598050532858082
-0.33718282867546095
0.6088036776176995
0.5267249424758367
0.06276947010504996
-0.7864372470000047
0.3368029238319773
-0.22993542422784546
-0.3512348787656818
-0.08289530856597599
0.33037168939359945
0.4516112730663766
0.24885168575674432
-0.1012997229554273
-0.4026295445820428
-0.42629055290230516
-0.304971555933931
0.058370851529580374
0.36662128332131916
0.4969009394625965
0.27356737162903927
0.05708209515335552
-0.24649079341605185
-0.35912850003492547
-0.19770488748673953
-0.04546593493604492
0.06393845176209317
0.14768086782044793
0.06297287306954405
-0.11075251776679718
-0.09201198002202518
-0.01641168841249188
0.14798375897588006
0.39224141183372596
0.2686639752582964
-0.09460548920591513
-0.3687713569712831
-0.39706727966619615
-0.37580963813740553
-0.05293554218190506
0.2534681571395834
0.42265773044439947
0.29715712496727753
0.2607906870019837
0.038168258291148324
-0.08287300316295718
-0.21251679199609078
-0.4163235399008675
-0.48295978179087057
-0.11395221533861448
0.05955365643290353
0.23702820394267599
0.5979657560671802
0.45677042421106534
0.03762520274133893
-0.12347438616836615
-0.3523716018191547
-0.3973744478725246
-0.19147652827360562
-0.028172532567416947
0.04384259766375666
0.20939806727989974
0.2668715108054908
0.2093833759177824
0.21532502261660189
-0.14819070844942908
-0.311271626326568
-0.48396112793976853
-0.04498296519113762
-0.1430967089693294
0.48870109318837285
0.5127993455539851
0.3707824848188186
-0.3201576723851826
-0.35687302855423164
-0.532945430882644
-0.2257038687622469
0.20361369690194725
0.39544549585498
0.37034476708841846
0.11138239768084829
-0.04047975547099498
-0.17544209035164549
-0.19257536465410635
-0.17440805307349547
0.03330662766283227
0.03124929632643938
-0.1358199737612901
0.008412639391458462
0.15295360860074508
0.17919295044801292
0.1442867613188729
0.07227666945294882
-0.2457558544817122
-0.24470956286083853
-0.17628101059732393
0.09810618102872914
0.3110545945432042
0.39236449587799405
0.07618942612101309
-0.285373711054392
-0.5049645810111567
-0.1463489563021698
-0.12261096224698802
0.2901257498191033
0.22652621756735508
0.20174106508037562
0.2863576917452045
-0.7071127671386747
-0.02498456159032819
0.4370781261539569
0.3507891280435264
-0.4222063279334771
0.3966351737393972
-0.47006736192588927
-0.6356736393805894
-0.24489519104115076
0.21095428273465247
0.6616428028994762
0.4194977674661741
0.14917129443511729
-0.14351323544277272
-0.3017822456228989
-0.3942073968234329
-0.08833364548999345
0.1687002854970167
0.15834988338040848
0.08914127177895226
-0.010217600142261918
-0.09930364984948863
-0.1345253535398129
-0.07802469195375118
0.0927701594483584
0.17617902005493577
0.14093755015808643
0.1280839480862476
0.06209657012240371
-0.12992318413047854
-0.2958553650154856
-0.2402379762263927
-0.11722799948739557
-0.03896026264812007
0.10179705574560852
0.4011067512267472
0.3151772390296075
0.04312992903360327
-0.07303582946494726
-0.13170949292467574
-0.2443198527097141
-0.10636456684629852
0.02487603699881183
-0.05917807783942974
-0.12091209239581352
0.11008760160648137
0.11705992058669637
0.17511596943948013
0.13504662831482545
0.016143457943978333
0.20924184108990213
-0.7125185218305716
-0.1807305439325546
0.17728622891266962
0.34014537310406306
-0.31181880685807983
0.5984187787466396
0.043877086228136214
-0.20046199680425816
-0.3467684568189833
-0.18393079215804423
-0.07397597872757139
0.04099409151224934
0.2228500725630785
0.31866269012877124
0.5471780062170208
-0.5033706511320444
-0.2653581008612254
-0.1751579774819858
-0.058398363543140736
-0.32386911336641455
0.6323527017044698
0.21640061523895643
0.026491748876729837
-0.15108065201255833
-0.13836279751908298
-0.15767413389870888
-0.024089868958979424
0.05780725714096266
0.0921593884578662
0.0869673814395301
0.04915625947182732
-0.01802434927890599
-0.11455737439518632
-0.041187104572138276
0.003217009387223288
0.022939589058627315
0.024915522493997713
0.017039863254635867
0.006286788850658604
-0.0025743095817530393
-0.007352985431476659
-0.008021619414056408
-0.005865635900008024
-0.0025859361053743365
0.0003730002316999127
0.0021602999081793265
0.0025542645137486973
0.0018091176085237325
0.00043774616363543987
-0.000980931780418535
-0.0019357210279602882
-0.0020685380460332236
-0.0012398996539043131
0.00040900233830556184
0.002412920820931093
0.004005411890619949
0.004266304493796169
0.002424955412708295
-0.0017179034361339282
-0.007380205945801884
-0.012612811077301445
-0.01457173971457512
-0.010398462698195254
0.0013469861275116264
0.019046937226908842
0.03680735172904467
0.04440497095853858
0.02895615030066099
-0.021702438451011476
-0.11475621241843775
-0.048833738491795516
-0.012775822669438018
0.012344967211242515
0.0484110084020558
0.11435074661162611
0.021323554794082655
-0.029302548488664308
-0.044722053757585416
-0.03711264693296206
-0.019373627414104276
-0.0017377577131027777
0.009906479655087437
0.013968593141795044
0.011936827478346075
0.006727619276594939
0.0012294278830611866
-0.0026074547458358015
-0.004069038245035726
-0.003498645960240093
-0.0018601117452475063
-0.0002492390695611261
0.0005062218262380174
9.060870888376256e-05
-0.0012281835951226546
-0.0026932635364146423
-0.0033045319716984317
-0.002186840006803946
0.0009831445584794294
0.005608871039288395
0.010032463228774408
0.011796272286732551
0.008411852840885478
-0.0014288511259518619
-0.016506517167290843
-0.03213004341433225
-0.04023089415310361
-0.030965974967843667
0.004199881285140248
0.06871872410505091
0.15801627754931796
0.059144010054950055
-0.04594440399992941
-0.17418213820128212
-0.13483267292667317
-0.12596058634415092
0.06385873265253135
0.2491172702946796
0.23960342826626158
0.03576278768659179
-0.1699468755062593
-0.18646593895250468
-0.21641670295016585
-0.05221461579225192
0.12125962521634837
0.31862473153531423
0.1451032993762029
-0.00805951140357819
-0.1611202120801075
-0.1375660532355121
-0.15436603836608465
-0.015474202952295776
0.08879724195974864
0.17708982720586558
0.07000830152635626
-0.01561937727950588
-0.06910702270526564
-0.0850686815282424
-0.06121918158746349
0.0031119858990896823
0.10674338737781185
0.04515126208438548
0.009122468962869907
-0.015200514196759343
-0.044609046228447545
-0.09621390367972739
0.014899568111459996
0.0769928573050723
0.08214668138695323
0.026781324350915583
-0.08701263557715352
-0.049541272783707666
-0.04221602217843537
-0.038405130960986585
-0.0071983110000225885
0.08041488460856615
0.04463050792569821
0.09144854460947219
0.010816704522781478
-0.02081821680330028
-0.034203460849848134
-0.05921117595840472
-0.11763378482253116
-0.01918031448784062
0.03812719398020982
0.06359421040610022
0.06746430710562797
0.05509402415685634
0.023819339105292586
-0.03667250671953006
-0.14119844739076023
-0.10499105825942748
0.05944915167177313
0.14382668827637698
0.14480871096518247
0.06594690033115284
-0.07818516961754304
-0.25687544859885736
-0.220668941602852
-0.1052303065301043
0.1565720426138154
0.2167047055891893
0.2942988690275521
0.16568949213399647
-0.032712035074002145
-0.18851823660026099
-0.18955886153037713
-0.3005687656756221
-0.14861691236877528
0.07794403094446378
0.21759750852697735
0.3165432459578863
0.21061665041546127
-0.08468013375388284
-0.17339350055369745
-0.2702613556084819
-0.18983643137791947
0.060622788262642474
0.28216779401365694
0.2811471037390516
0.06672415551963318
-0.14759316674156003
-0.33886092252816685
-0.27047799332132827
-0.09434251822184014
0.23801650266368807
0.3580841574984984
0.26408779524343695
0.11394996166884502
-0.16801813063069815
-0.2723363128094338
-0.28053911946690824
-0.04527826370980989
0.01897225960354611
0.13282582567319945
0.13959076237238577
0.08935438573908189
0.025231596137454654
-0.024660873073549534
-0.04875251454768923
-0.04860219783346548
-0.033102806694417994
-0.012784424202100873
0.004167649260245935
0.013637811518018404
0.015375409650142224
0.011650342519837074
0.005614347156674349
-1.0189742418214545e-05
-0.003624669437212308
-0.0048420671789246375
-0.004163825569405356
-0.0024978228089707092
-0.0007263187377150945
0.0005596054486099955
0.0011373665464151314
0.0010869346225268499
0.0006547792565746341
0.00011586920488146672
-0.0003225320489592399
-0.000560627312406712
-0.0005977344491458416
-0.0004960965555649489
-0.00033836219345929344
-0.00019431892281210973
-0.00010385491915278173
-7.550162712579598e-05
-9.528951945997214e-05
-0.00013936787678767236
-0.0001850710270435268
-0.0002175508588282763
-0.00023153575591983427
-0.00022945734832432823
-0.00021786316652344894
-0.00020386334581027544
-0.00019270688338592827
-0.00018682839199680946
-0.00018612254028907747
-0.00018890972078266553
-0.00019303796464841265
-0.00019672746016862722
-0.0001989888642976996
-0.00019964149643342147
-0.00019907268886331324
-0.00019790839763239804
-0.0001967303763224323
-0.00019591100437999385
-0.00019557406475799623
-0.00019564744509974611
-0.00019595756894846546
-0.00019632078511660906
-0.00019660433484168724
-0.0001967490585219993
-0.0001967608130642498
-0.00019668476751017857
-0.00019657688036164107
-0.00019648248775038258
-0.00019642606766679156
-0.00019641126748778178
-0.0001964274169082903
-0.0001964581135420408
-0.00019648844277254986
-0.00019650908210870022
-0.00019651715440339114
-0.00019651475789652815
-0.00019650648466444697
-0.0001964970728050754
-0.0001964898753508539
-0.00019648632338854728
-0.00019648618566509233
-0.00019648825120954002
-0.00019649106675535428
-0.000196493478890818
-0.00019649488359791472
-0.00019649521283249643
-0.00019649475890466003
-0.0001964939509903492
-0.00019649317104151182
-0.00019649265202629351
-0.00019649245999173629
-0.00019649253475744754
-0.00019649275502132355
-0.0001964929986171017
-0.00019649318092385752
-0.00019649326748291847
-0.0001964932663635941
-0.00019649321008857255
-0.0001964931365696051
-0.00019649307533165747
-0.00019649304134756115
-0.00019649303559260962
-0.00019649304969014558
-0.0001964930717505188
-0.0001964930912370907
-0.0001964931018082922
-0.00019649310207393164
-0.00019649309479294547
-0.00019649308520073747
-0.00019649307903146627
-0.00019649308060050574
-0.00019649309120006557
-0.00019649310809376327
-0.0001964931245062542
-0.0001964931310345616
-0.00019649311868753195
-0.0001964930832006421
-0.00019649302945576292
-0.00019649297404704673
-0.00019649294372506973
-0.00019649296808940065
-0.00019649306674090247
-0.00019649323394418366
-0.00019649342685983188
-0.00019649356518813474
-0.00019649354901829172
-0.00019649329666569256
-0.00019649279547111702
-0.00019649214806819092
-0.00019649158869848354
-0.00019649144415224208
-0.00019649202644063068
-0.0001964934704621235
-0.00019649556473138284
-0.00019649765455980256
-0.00019649870745356215
-0.00019649760265609607
-0.00019649363224485367
-0.0001964870896269803
-0.00019647970614279327
-0.00019647463244858675
-0.00019647570962957843
-0.00019648597698902892
-0.0001965057088453047
-0.0001965306744607071
-0.00019655160815358784
-0.00019655585316009002
-0.00019653163083181493
-0.00019647435505644746
-0.00019639306714918704
-0.00019631388990674266
-0.00019627706843190025
-0.0001963253336278187
-0.0001964842864554803
-0.00019673983855804904
-0.00019702211835314856
-0.00019720752672596427
-0.0001971484638305266
-0.000196732138251423
-0.00019595635658846
-0.00019499479892118229
-0.00019421350847771096
-0.0001941021523066279
-0.00019510445941048725
-0.00019737287903308628
-0.0002005243830539087
-0.00020351842165065745
-0.00020478807946814107
-0.00020270676151847852
-0.00019635516921317797
-0.0001863848842350773
-0.00017560904429994578
-0.00016887061049790942
-0.00017183383823455537
-0.00018866953130548147
-0.0002191327465434461
-0.000256120470910704
-0.00028519148672360626
-0.00028742396532040437
-0.000246139847262104
-0.00015642653450384893
-3.438711078072382e-05
7.859710681469117e-05
0.00012158727851814305
3.2766275289944314e-05
-0.00022060749897005963
-0.0006091891291416841
-0.001019972175558635
-0.001263417859440868
-0.001122431158448668
-0.0004433272436231425
0.0007516869084923243
0.0021734913815250785
0.0032538547896519276
0.0032638905546169637
0.00158070745254482
-0.0019430877612292615
-0.006629525072160667
-0.01082935514992743
-0.01217181445344819
-0.008320091966095018
0.001838965598198558
0.016890883067528423
0.032025735571394556
0.039243917534567074
0.02909099283834433
-0.0061338623351948895
-0.06850975184862368
-0.15150418712505598
-0.03962352481877838
0.08824048515360387
0.05229782441794535
0.0643948677687611
0.12256850238522506
0.00997868149976653
-0.10107124193656869
-0.041277603406236985
-0.03535130653750846
-0.09495184884283778
-0.015775010807316994
0.020451890705594795
0.03991813184075341
0.06877056245250748
0.1259997947985044
0.01957558593836043
-0.05303615622032605
-0.10064734017535809
-0.13265796038347338
0.045362816631781225
0.0330098318828687
0.033238642564233756
0.048902368165649926
0.07962403406657391
-0.07951163371803976
-0.03703490542426371
-0.002570539521621222
0.016135238868552348
0.01566819967226312
-0.0016064334364830086
-0.027285628955930657
-0.04804345350809104
-0.048342677512881606
-0.01470997062525536
0.05914004440507473
0.1679437919923134
0.09346372505231834
0.007735189067519495
-0.11896414731337052
-0.10768998112734027
-0.16190513577978666
-0.06399813714223818
0.020655073598126884
0.13291696963462896
0.10600587820648305
0.15354707414248261
0.06408994946483951
0.004379058191251343
-0.0694608024228882
-0.1965867351549222
-0.19741243876088804
-0.0661355014707913
0.02723785010404299
0.1260747434780256
0.27172214218052415
0.08954083500766724
-0.018431294587474063
-0.07200078966148316
-0.10406392526062187
-0.1487467463001984
-0.031138928553679016
0.03809789655709919
0.06240509193758842
0.054727043956240395
0.03127281387892125
0.006128461733713141
-0.011829894180947825
-0.019496268311343858
-0.018232039801829216
-0.011728530318025999
-0.003968968206585783
0.002133815314594405
0.005259326407579923
0.005512011990106738
0.0038705729147098227
0.0015643761290134502
-0.00040505782297335267
-0.0015040810203704818
-0.0016809894945152533
-0.0012282408107088896
-0.0005825191988606699
-0.00013611210907735931
-0.00010413797985628164
-0.00046591237780480753
-0.0009820924832280161
-0.0012806430318963924
-0.0009975537683491395
5.376472363356191e-05
0.0017286927098080708
0.003475569591643684
0.004405006273206583
0.003548307353660903
0.0002891160831568343
-0.00513777371875327
-0.011280351196102309
-0.015488547421633175
-0.01453136201145965
-0.005857918990270371
0.010736870515353237
0.03161227902111844
0.04875570530751565
0.05101098958748063
0.027406377875127126
-0.02793205092430063
-0.11088418662763673
-0.20492635473675525
-0.08368560105415418
0.08043857223088653
0.10310551259932957
0.1746271722289346
0.2520677417712585
0.06171266003989534
-0.08632557662086052
-0.07388378825930095
-0.14730411891350875
-0.295142833198164
-0.23880374538550433
-0.0408244980987682
0.06936813426514823
0.25804009156160346
0.4483258103401767
0.29158502931447716
-0.042294521705908
-0.2532599089356531
-0.283197968793434
-0.2819895897290017
0.02181260963629461
0.13891955653905544
0.22482996615012735
0.07635436907705392
-0.07625734578983934
-0.1787850340831998
-0.16406023595434777
-0.16586524564287272
0.06414055603674398
0.33950191716030165
0.42845696899848507
0.4573908413351177
0.1328344879420672
-0.6206793613787638
-0.8186482521880173
-0.588331926456061
-0.3703788613980095
0.24394502038873433
1.2496618095594383
0.9619990275156753
0.17393051616742045
-0.24484351218377048
-0.5072477891329673
-0.8435068987251666
-0.4365299218817451
0.019797635618439946
0.32893452360983066
0.37014861007918054
0.2606191224292829
0.11714699901396036
0.029257913273399272
-0.1517916596270415
-0.21029177483191025
-0.15572820398632026
-0.011339187487291291
0.19427395236782535
0.23186472977317768
-0.1255461699692635
-0.09966472097513976
-0.1038356985172342
-0.14169808790945593
-0.0093848815332373
0.2988546545202423
0.18420278922909705
0.039812422158231164
-0.14704543356221397
-0.18779040368821456
-0.08393147768676039
-0.0215736725352359
0.028124576894017858
0.1026097294803556
0.03819811227199678
0.060400101130285655
-0.022751728745184472
-0.022788483372389
0.031836605728020356
0.10227245869689293
-0.051681909743858695
-0.061793616466074154
-0.14322683473940587
-0.09063356824530283
-0.08047486611394503
0.12033965625455045
0.14192257645010375
0.19942556804383763
0.0863886440727255
-0.023583538288667136
-0.1671569401324547
-0.17733942801144512
-0.07083005131610229
-0.04158483299970836
-0.06291334865127918
0.10293684096374817
0.291557916169462
0.12478004901104636
0.0053671474380046075
-0.07999723733288693
-0.15121828827694755
-0.22356797004340262
-0.10022058159002976
0.0278075844282461
0.17420878483091282
0.1459753112352839
0.13364691896002973
0.10835026959074441
0.02804993583252884
-0.1483423933767833
-0.24383250328176836
-0.2499823027465278
-0.12361441625851273
0.0033743207643226955
0.20311207392256708
0.32672971354989067
0.38488007504605204
0.14246682412544148
-0.06858098119560886
-0.3218356047934585
-0.4642410936536189
-0.4925121728711698
-0.1489742829397604
0.2596517798044421
0.6269443133510203
0.8094634785832991
0.0037982344207793672
-0.25180946702389445
-0.45258695466986565
-0.49116350792558455
-0.42660088365909105
0.32911691384729047
0.40408215355625676
0.2454733520232641
0.09609311774579543
-0.021518407416092386
-0.10913512583716505
-0.18687580607545762
-0.0825322107725508
-0.021802546015425694
-0.022962570369854437
0.10348008029474029
0.15211310302949355
0.12004537208671605
0.007010826427872971
-0.18129565018839702
-0.22868438168435268
-0.10639352432455879
0.02350544213112378
0.19904570880735262
0.24698380067788128
0.174431617175937
-0.03207434533672169
-0.19919181413631268
-0.3545509638664599
-0.11582439467475802
0.11349811757923296
0.14002832440780544
0.17111049416431107
0.20588172589286247
0.031948477483806845
-0.1702843511353787
-0.21764646406651147
-0.11358392872819874
-0.04228119444169261
0.029381292991513003
0.1425628165647787
0.13348456152908914
0.021569612145930894
0.0027192444116814173
0.04956815686468844
-0.08184213565978943
-0.04127961904055233
-0.07253537402152473
-0.003638140736673137
-0.04121221969506404
0.03017764128073873
0.04413064684931221
0.04528090709031518
-0.11946046228619489
-0.009924146090647916
-0.0009278561038016439
0.11136859551483229
0.10660247107339083
0.14264702613168573
-0.035691306787862295
-0.08277156651656939
-0.23650344588232158
-0.10609877757541607
-0.06792635758973076
-0.07177056359122813
0.1438288565612379
0.23189615062143024
0.21971148119350198
0.10025557970252075
0.0359192131199787
-0.2265881583425372
-0.335702166819556
-0.11687210765400508
-0.1640147398754214
0.1562700341218645
0.2899745041846115
0.27706260524836523
-0.06317522696849584
0.06269767940391147
-0.1725967678864178
-0.20511914872837295
-0.06666450336240393
0.024318038155609623
0.06534790629656934
0.06668228710913127
0.04491406801012034
0.016470767685830077
-0.006835442491075736
-0.01945059991004791
-0.021331370253292067
-0.015847153470390982
-0.007437825980961078
0.0001780458887924995
0.004901394117153705
0.0063119285707712285
0.005181040814805018
0.00279199879432081
0.00035051123213999155
-0.0013636837302056642
-0.0020840916788984784
-0.001952281773439259
-0.0013237202883468351
-0.0005778820851129592
9.577405017277291e-06
0.0003152510804635373
0.0003507051848670571
0.00020867414220507546
2.7696429160155777e-06
-0.00017788645783517422
-0.000289730459783954
-0.00033275997862329445
-0.00033334708547436446
-0.00032202702588965946
-0.0003153470239741306
-0.00030781857319073366
-0.0002761903216326044
-0.00019435770999593778
-5.3663896363857045e-05
0.00011940375782367065
0.0002572580411547232
0.0002645896705287741
5.3551700524832034e-05
-0.00040541406721497685
-0.0010336712628862903
-0.0016203772110215142
-0.0018506447493614555
-0.001401603584528584
-9.789383573603008e-05
0.001915840713743247
0.004060682516184112
0.005357459426053485
0.0046782905672658245
0.0012179006697761582
-0.004920120429968426
-0.012244783671240595
-0.01780675615484042
-0.017810435699435193
-0.009012573896012774
0.009307552537585424
0.03341236820005019
0.05412079302699968
0.05771859080459953
0.029284255795549975
-0.04196100963494539
-0.156843382902285
-0.1024289007903837
-0.0526199044973938
0.0258356495541132
0.16324632374663806
0.17629236680964216
0.061072657146986065
-0.00695399269398698
-0.0656955540452903
-0.15439983160660561
-0.10135990661293702
-0.11587812079978563
0.01273097692944965
0.10913524990944776
0.20181907191210513
0.1132257312695479
0.054299829265616384
-0.1748295429694867
-0.17950151102054637
-0.1643321634586321
0.06991759310032962
0.12477565468518827
0.19935003314066946
0.08611641119872201
-0.0294825254422336
-0.16475296304122025
-0.1328896532625815
-0.13734571918499983
0.02932729238982485
0.1813978316841714
0.13280428289949106
0.09083541607469711
0.05404333395245668
-0.18463708841200366
-0.23156789502793484
-0.08674835517282482
0.057737626850781036
0.2143020496723183
0.19375905376002628
0.000451183083846715
-0.1685768853656021
-0.12041329590446515
-0.06173603623011302
0.003996915377624935
0.07611465089610336
0.1538615534558595
0.03337112261371601
-0.09334161901246579
-0.03662585683833019
-0.0056172327842450714
-0.0046199386543301565
-0.030987250665457242
-0.07526066878067374
0.0764471748494327
0.03852627386653666
0.021679658513556695
0.029949328166267195
0.060021551197514456
-0.09700713679738814
-0.05218617810143089
-0.01501694711235934
0.00907455693302129
0.019374346195868045
0.01883494350491649
0.012166953532829036
0.003963814265843444
-0.002542837750172118
-0.00590989067433877
-0.006233972508715778
-0.004535809402309649
-0.002093971061769977
5.1584394011049725e-05
0.0013368406168163495
0.0016746052274368675
0.0013061720629674125
0.0006050695440210973
-8.824881981177063e-05
-0.0005605950793160423
-0.0007458919494634192
-0.0006918111752786816
-0.0005031638357547367
-0.00028824102138723737
-0.00012375819208808317
-4.250702204790561e-05
-3.9234024972232314e-05
-8.62315473567677e-05
-0.0001502272980414186
-0.00020484061589385726
-0.0002363508200417716
-0.00024341965125720364
-0.0002330403494718924
-0.00021531495440367068
-0.00019907419621178912
-0.00018937825567425632
-0.00018701956765887237
-0.00018954412529524305
-0.00019306543099606614
-0.0001941753037120631
-0.00019141860022944203
-0.00018598333765020784
-0.00018142164432815864
-0.00018238402316014617
-0.00019256971043870525
-0.00021239078169484708
-0.00023716315136889185
-0.0002568311178155682
-0.00025810819653813364
-0.0002293132863687541
-0.00016708347835948592
-8.278812648866653e-05
-5.367210602025312e-06
2.2831994776329763e-05
-4.079525511672114e-05
-0.0002182450021009665
-0.0004881166844372931
-0.0007710018397144593
-0.0009349804929918974
-0.0008301775886959197
-0.00035221349748848203
0.0004799477527008154
0.0014617554957012785
0.002196161435169031
0.0021775592861026497
0.0009779409093980322
-0.0014971354247065752
-0.004768369857303972
-0.007685825836218776
-0.008606146361616046
-0.00591549162165864
0.0011591208151136554
0.011682955893346699
0.02248678693622412
0.028437951585022155
0.023839258383079417
0.004920294189768684
-0.02717672757194395
-0.06411344219115357
-0.09033710866196538
-0.08671563722987
-0.03828078969113849
0.055122767523752635
0.1684575539932673
0.24605974513638432
0.20590092032545343
0.15622228527203774
-0.17696665143976753
-0.41824162469771037
-0.5178217328159291
-0.14479324605393998
-0.30560350047555435
0.4135121486931558
0.5909340676897525
0.5181588736424098
0.1700919294689969
0.20831298829041867
-0.3826098570291642
-0.4368956155170657
-0.34571248144157907
-0.4108897777409444
-0.2279728296633086
0.09713138981584746
0.30432897270572906
0.5234715994759992
0.6257708551217128
0.39977096115464705
-0.0391381469649127
-0.609050225525012
-0.8072529127434577
-0.6635526826384494
-0.12091091047615143
0.34839796178436566
0.8983853869289044
0.6561262501280082
0.08200489971974351
-0.24187252033764375
-0.39402369567637346
-0.4778668983515563
-0.18429092266707042
0.23398529902159423
0.17053231139176656
0.057937904155973
-0.0484791665075765
-0.08959534092380483
-0.019769094266380634
0.18016916886681125
0.29656739138946187
0.08550106608226529
-0.11499668177266235
-0.16555062958211572
-0.3050981459134985
-0.33746436759348813
-0.03099629835965538
0.2675183653099884
0.4096371965322789
0.22232390042511663
0.09518648304926997
-0.016539711113599212
-0.17448439572771918
-0.43235498591689603
-0.21400350358872858
-0.10327681425550374
0.1502799486423553
0.21237167556821326
0.3394746089411451
0.15877067627100153
0.06011249562698442
-0.19758511038405732
-0.2690441753329572
-0.20199242976417042
-0.02131139633441828
0.07689035178823045
0.12081950420376826
0.151668179339244
0.010526003765176928
-0.07225346058432738
-0.08331252632880344
-0.028378380286712926
0.06878097054980407
0.16997651439993133
0.029040669082372152
0.001282574102846528
-0.14516688082298312
-0.21905073982027815
-0.20055613345104106
0.5564338397373444
-0.48570328209109437
0.1365054495955138
0.27142181169083185
0.1392023143328887
-0.4747228925165095
0.5823661390391809
0.0409411030853305
-0.173866683850699
-0.3227591091231556
-0.2358801962857584
-0.10561121364992745
0.10818493602615306
0.2624228056954957
0.41133816951780666
0.19184305213553285
-0.18025545959624126
-0.30283109157557303
-0.3744782775188923
-0.18452618418295988
0.08756638620357919
0.462903249963494
0.3496159304511757
0.13361601090931535
-0.2202506790954633
-0.3567562469719682
-0.3147685871080792
-0.11604835228854926
0.23619665405861157
0.34963506128601884
0.23206091244875524
0.08515079056622296
-0.09277679268038505
-0.29621608294435825
-0.3004207236555508
-0.25591164509550746
-0.09521956760355837
0.2481531008255021
0.6152306635970489
1.002686747411791
-0.6400752810426872
-0.5948842711546694
-0.5473550991437622
-0.1622397621846431
0.12661620620232647
0.7095515953646918
0.38542169074251176
0.14884743187270177
-0.4115333087007984
-0.904279791173131
0.2764599952848431
0.3568016570899022
0.18006960393825988
-0.0019278041280004765
-0.1380294475209533
-0.18457739358363695
-0.11069133898201243
0.09639934202537721
0.22606415788611792
0.2416413624503616
0.08408227441673403
-0.11629409198006307
-0.22198760095888972
-0.27030502599983686
-0.2624141883956811
0.03535496823468002
0.27767748234242456
0.3191501586957105
0.19471968214177748
0.1098218489073015
-0.1560133953764874
-0.234430623261418
-0.34956379224452994
-0.10401500829045673
0.12437721809856075
0.17400544008362476
0.08340299966081574
0.07452674718757
0.14185525435677912
0.051111985996051226
-0.051861132476202075
-0.024614769915027063
-0.10889678541571203
-0.3148668157840299
-0.21443642529465481
0.052849457691563725
0.16206160598660324
0.37865778190755606
0.13630189075893304
0.02490602281413505
-0.006772598537492888
