0
-1.7663838692152352e-10
4.160985361380983e-12
2.877217418095086e-10
5.939457975200844e-10
7.850747640696278e-10
7.00112000001527e-10
2.2067652656811328e-10
-6.459211882661403e-10
-1.697326751966412e-09
-2.522656289791014e-09
-2.5839506313112753e-09
-1.407533083901261e-09
1.1452424030897595e-09
4.615201735298982e-09
7.824646805137778e-09
9.040693260120345e-09
6.507020608817252e-09
-7.04183668041598e-10
-1.1754089267318545e-08
-2.342519987654768e-08
-3.032634329644809e-08
-2.6287871803000914e-08
-6.950327158756525e-09
2.7036447775847135e-08
6.742600998451423e-08
9.803001351556216e-08
9.808639869800932e-08
4.98365933603448e-08
-5.0979417613910223e-08
-1.8518869726366412e-07
-3.0603292226550714e-07
-3.4620033490994395e-07
-2.3906836998935936e-07
4.8063486047276404e-08
4.781688679390535e-07
9.222701665494906e-07
1.169629724542933e-06
9.841491795359957e-07
2.0600295788016702e-07
-1.1253256405233494e-06
-2.6748174939648332e-06
-3.8054831182954783e-06
-3.717009891084205e-06
-1.7453730814862549e-06
2.2308147803066663e-06
7.415518426252721e-06
1.195508013175932e-05
1.3237859611156078e-05
8.741342001525412e-06
-2.6729890663370933e-06
-1.9395253913709472e-05
-3.626530087354551e-05
-4.505503611942653e-05
-3.6742650874725476e-05
-5.498037320972489e-06
4.6591466842290616e-05
0.00010595423027708086
0.0001475568449620605
0.00014058829030217282
6.029067719998102e-05
-9.632617772021497e-05
-0.00029637650103574403
-0.00046648183794700663
-0.0005054303131843949
-0.00031790082056301215
0.0001351407729888547
0.0007845322274354924
0.0014241953456864305
0.0017332191112431436
0.0013673494834836597
0.00011508422591560011
-0.0019210513603886321
-0.004192757131661583
-0.005717387801154717
-0.005309973348801723
-0.002049409242864831
0.004115221676623345
0.01183602346004445
0.018221528149311782
0.01937071506167419
0.011717439671293555
-0.006006566941744748
-0.030800088029271984
-0.054385622726240486
-0.06424217517058442
-0.04739548071797501
0.003212319136408315
0.08124404650866268
0.16111679441193488
0.19710609330357856
0.1299773404883032
-0.09869979897230408
-0.32800506454266826
-0.3616450874138577
-0.16214636292468793
-0.06014879595793505
0.22229792426244122
0.5421980073958005
0.5117876288637224
0.09167650782306785
-0.19396735756029476
-0.42458978099473715
-0.44558057793513123
-0.44169610344975063
-0.1338469114432435
0.1973678859890302
0.46863021657487264
0.5469370257749426
0.41689319063394503
0.17610603518791143
-0.13737695238431635
-0.493475181877412
-0.8116103660628122
-0.31596005415678585
0.0794586328207387
0.1505623689585962
0.11501859223059824
0.5722553649112414
0.45057882001673283
0.37713251411785176
-0.12138402858705763
-0.7898875453719012
-0.40044924109517266
-0.10920818066480953
-0.028387489400601464
0.18191267109755838
0.7070297916772805
0.36641902962570605
-0.19290920860419036
-0.6952252610329361
-0.432510933836594
-0.06830337364756042
-0.05586294588984245
0.3310725214972478
0.965721664872496
0.4490448923667706
0.11610160581135895
-0.1299159423606125
-0.5675803551126644
-2.2138937324843724
-0.8131900095898675
0.72638043146418
1.055685181333563
1.0990899319995684
2.6073310416365674
2.18911862239248
-1.3660464935974739
-2.7037623958035892
-3.5312058789920795
-4.345265760336056
-2.931261630253344
3.1636915310870366
10.266384518358583
6.277237864818775
2.7955589973583232
-2.8519938058153844
-11.147569370718053
-10.68140995703933
-0.6499288902884262
3.6995688637979147
6.901243476281933
10.56415084282402
1.9714783074893338
-3.4350334006749064
-3.854043433112762
-3.92371742131122
-3.514362328399172
-1.6917107808298513
-1.3474112955930417
-0.6919164856398587
3.6861535950523905
9.75406423782056
5.144072932272789
1.5796036298832155
-2.3469600657534517
-10.354478030667948
-9.836734362523455
-1.8597533675175812
2.646233776640623
5.505289869592103
9.090515061445025
2.3366797134316055
-1.624920687862744
-2.923195179554517
-2.1402915264843014
-1.3669924406415168
-1.256781409637807
-0.17509351336019208
0.31489671552450005
0.23587646135210094
0.48612857685657906
1.2859985783432841
0.831457484773118
0.5941544148421167
0.0882798888444166
-0.6989670145998628
-1.4382222812182976
-1.187568297809113
-0.756362101657012
0.2785343702793884
0.9128070261438171
2.8453441922324147
4.045893664933525
-3.8051856970314244
-2.4056575094525954
-0.6928014716267528
-1.1443064095856563
-2.5707960316133547
4.189089733533464
1.7042834550711352
0.17878846776224178
-0.2672994304672165
0.17255769197462367
2.4522354433764564
-3.4004334795756725
-1.3310144809398683
-0.12586941961146447
-0.1392232837445194
-1.8972998543353734
4.032379155616239
1.3415539532353793
-0.5056388642862208
-1.1166683708353595
-0.7689187452706872
-0.3842274552870233
-0.7077197894984857
0.09315970500893839
1.812714248919984
3.9926676500975566
-4.469741497268184
-1.2859723091459225
0.06814044584730405
-0.02531568854907438
-2.142832784924672
5.536071611684317
1.9889088050787298
-2.0506884195668373
-2.442979596317994
-1.7664907317861063
-0.06581292361442714
0.13817068942730315
1.7721417333063032
0.8997279110756269
0.8228773178130102
-0.36645228937158136
-0.16878675566793222
-0.0029381112775980264
-0.30077435508927064
-1.2024273230600482
-0.880998010612897
0.08286609716338017
0.4709203860819803
0.754248510923785
0.6036699386649163
0.4134747861219099
0.060191214610375014
-0.2966680632159858
-0.5797597585916654
-0.3425089159075799
-0.12056906637790799
-0.00018638284466427314
0.19167782147728502
0.27915837222093365
0.11970075731837909
-0.014628464195240836
-0.05121387470298162
-0.12513781745881514
-0.1836005631322333
0.010592557868153671
0.07490246993748273
0.2031939208314168
0.16513532202866193
0.11212410810703946
-0.009053047202120726
-0.23724295470514833
-0.37861283868640416
-0.19660017225660828
-0.016046323583370617
0.05743820804610918
0.30799959009220684
0.37980238882523865
0.25805276939827354
0.06878173963424376
-0.10098813853849328
-0.36856211521799287
-0.4179697523237159
-0.2726234325275335
-0.0880377384282127
0.23287048405150462
0.40775157966917996
0.3379195963928623
0.07954415360826278
0.03180790591707764
-0.2562639877404269
-0.26543597811303077
-0.08122667653950377
0.027267142787430303
0.01960357533966118
0.08650134781468094
0.04488731296751663
-0.07121639071755997
-0.02113406776401245
0.03260705191644422
0.11636450801181657
0.04066759242845328
-0.00027856687149358395
-0.024745774519396697
-0.056516668052389536
-0.11711200547820627
-0.019751043453788072
0.033187282961674634
0.048888711770438104
0.04016109604124004
0.020736746570763964
0.0015462965840479636
-0.011124844786071208
-0.015593613355092396
-0.013461323258423313
-0.007836073122872633
-0.0017798079164699082
0.002640035809893241
0.004631994768828516
0.004457777142658818
0.002962232635418495
0.0010943201701977675
-0.0004280436129536283
-0.0012576308409546692
-0.0013904046997753586
-0.0010409347774676047
-0.0004953012742356863
4.3307003913108765e-06
0.00031907849905274795
0.0004187121877548789
0.0003511767780248982
0.00019893236504318833
4.056631042110071e-05
-7.228889667065129e-05
-0.0001211557406275928
-0.00011429643938448589
-7.431583467157896e-05
-2.5844987784912637e-05
1.288363118665998e-05
3.337154194144822e-05
3.592933439934193e-05
2.6344510720073397e-05
1.2065254607561267e-05
-7.320518264668614e-07
-8.601662349065097e-06
-1.089993483344275e-05
-8.956681601898827e-06
-4.935437756010948e-06
-8.524128985754518e-07
1.9980865151844248e-06
3.181753883735042e-06
2.9431178786118438e-06
1.879012017782578e-06
6.222351219868658e-07
-3.6920809785176324e-07
-8.898718833769952e-07
-9.560269098736473e-07
-7.16024481551372e-07
-3.5238432389910323e-07
-1.072086786077051e-08
2.3050212446268723e-07
3.5387628865795616e-07
3.7627572115511155e-07
3.199170746493475e-07
1.9577679009752176e-07
5.7596358405108285e-09
-2.3935086661438487e-07
-4.970700530629556e-07
-6.806737535974529e-07
-6.7088883078072e-07
-3.582251582540167e-07
2.907601304240438e-07
1.1656339970680166e-06
1.977674065339924e-06
2.2961956600458487e-06
1.6785017378795662e-06
-1.1722156736936671e-07
-2.8939552599923365e-06
-5.8564243865953605e-06
-7.654772712559535e-06
-6.727715260332184e-06
-1.949639753194509e-06
6.561158926303624e-06
1.6778184410682963e-05
2.4657476271071773e-05
2.4959423568861818e-05
1.3137021958880887e-05
-1.2021092243765178e-05
-4.585736352263631e-05
-7.673400758727816e-05
-8.771672196189516e-05
-6.184595976913918e-05
9.519708795068255e-06
0.00011761680508659446
0.00023049337110837137
0.00029529616688217693
0.0002521859711031722
5.977253227865726e-05
-0.00027377937979589453
-0.000666010965243657
-0.0009576852402127604
-0.000946699969780793
-0.0004628116969037003
0.0005299651682559897
0.0018376833658637712
0.002998564224999872
0.003355089623072867
0.0022644076265701694
-0.0005763307311114127
-0.004783259938695571
-0.009076032949037334
-0.011387589190751073
-0.009424335451118381
-0.0016612773465733623
0.011467122223380827
0.026655304370350196
0.037707203232974176
0.03693675240887094
0.018117520223835455
-0.019590677286954458
-0.06815275942819865
-0.10968548229184788
-0.12015548000027836
-0.07904315086132296
0.015614805365081079
0.1299439955210692
0.18025806105208397
0.2291441785617971
0.2975148422610138
0.19533087767002105
-0.03155074735348972
-0.2473420146551274
-0.579910038652817
-0.7997975930407107
-0.7402361260174
-0.36474557261685436
0.3261873783486758
1.3756405058661214
2.3782925532344006
3.058173528197208
-2.6590711355038428
-1.8910347001584698
-1.6130303187380355
-2.1159681784474564
-2.168091454416673
3.7010124457787037
2.82703681688516
1.0188628218643574
0.02319312291785524
-0.7096917197924799
-0.9614866336444199
-1.0207502613734518
-0.14637060630040932
0.3406883877523734
-0.0832089118290204
0.06340880619095407
-0.5691560734813993
-0.43090204024705636
0.2390155791551113
1.1210328136805197
1.1442447411249361
0.6592531773840552
0.06865878486596252
-1.4904285634792838
-0.6388328004878395
-1.461932718273356
-0.0659412948149623
-0.2007906673833847
1.458734932215069
0.20384878852853872
2.1951101821397616
0.21383293593715158
-0.32163702474861544
-1.4844512404233696
-2.1462708541230837
-1.9059298823356967
1.7298434012196697
5.114640917302575
-1.9874514725733645
0.37236799080421923
-0.05385776128978615
-1.8625079815055576
-4.15691804359899
3.452404660169998
1.7943263271664813
0.05057243201687766
-0.5247428304683752
-0.24716338765639143
0.20525575878824653
0.4427426645693162
0.648243217372529
0.8851797689382377
-0.3864629867021732
-2.011578963199165
-2.496386970841085
-1.6589086638149892
-0.9935730484259339
0.6704006717096481
5.286949073077015
8.994817697615755
1.109080228894764
-7.0500265090797365
-3.5477087779158456
-3.996725624102677
-5.86812918121924
1.533425971120415
7.826025054461386
3.343740104577889
0.7287725264444926
-0.9364077334827547
-0.794488665232447
0.3025445209358364
-1.3790559437294536
-1.5956872180293613
-0.9048165457190671
-0.5289259206814716
-0.32466633070516665
1.9546295957110669
1.9411162530454755
0.7285419850699204
-0.8180134530486949
-1.9058677419825762
-1.4278891052912375
-0.3734956181090715
1.9458228695883495
4.866035440225487
-3.2363200069714635
-1.3054718563474248
0.07111556260422613
-0.8533570590297164
-2.9291294320730845
5.10343292523621
0.9955715993647598
-1.032872341544563
-1.2992834273891718
-1.04784463012335
-0.2441441533400398
0.8040452247314545
0.39627867976920605
0.1743140202258574
0.4650505254064011
0.05017338080861968
0.17125640660799385
0.1687784870656538
-0.0550001981527149
-1.5656567876518104
-0.3381369866882591
0.3731840183794951
0.6295134792919437
-0.02500626500497683
0.7926384330543899
-0.1353813484337233
-0.655033159873158
-0.8564486310411946
0.1149944037907652
0.8486000942580381
1.0637699641503688
0.42221164739698386
-0.2344743445195819
-0.8263106582819065
-1.375793360811599
-1.1763203895115155
-0.010194096465383195
1.3814924947313192
1.1994484802487775
1.0964116663082826
0.5351326608146132
-0.38678198965069693
-1.4536549158386718
-1.021971510259924
-0.5248787869282586
-0.023111243273453076
0.5866110841025742
0.7174034394916345
0.6183255065704959
0.1085439814985445
-0.06184629323049524
-0.4198930458437009
-0.35469789116058914
-0.29315807529420634
0.12074878680298878
0.23676254288685
0.2002414970943591
0.15083109579753157
0.023716531459851718
-0.24410986217139635
-0.3044598001439598
0.010041528373814829
0.08856204572518807
0.1384821694241535
0.17837450961791113
0.03184986251062193
-0.07457202563948881
-0.1091947617605094
-0.030753023156730536
-0.18530465327266535
0.09288093605710512
0.07564594753450982
0.03180636705446021
0.017212778951362667
0.06671339506487146
-0.01023855839087727
-0.029866766980176894
-0.030875051962309837
-0.06908671114963044
-0.011325510564403748
0.07059154722688937
0.10575968870393326
0.030645735334849687
-0.003414497481156154
-0.022293155545954454
-0.22278437258605793
-0.17090207216293438
-0.007227622756351782
0.14035773061431114
0.13933861489586707
0.2359197739158002
0.044707277445236025
-0.05182436422132745
-0.09431912648086906
-0.13172164616894314
-0.20620395439901879
0.057089197269267804
0.05274608890792682
-0.009392735621219566
0.08696201195473993
0.15534226183497316
0.0004465440011605735
0.017316229015409516
-0.0041180716059302565
-0.07103510375923025
-0.17957919407581543
-0.11019810662365773
-0.029106006868311492
0.10369997486102328
0.12224348262467657
0.24271355682344145
0.05679129520111783
-0.066871727364277
-0.17340289084401578
-0.10832116969521238
-0.10516621748836878
0.021595591484725236
0.07673513648545661
0.07870619346734414
0.05141324806739258
0.0165824631078507
-0.011047189794714347
-0.025072239866136138
-0.02599076742920728
-0.018326891348514562
-0.007656279939113253
0.0015530196520476998
0.006937841855747401
0.008204907058284193
0.006460094286625393
0.0033473153371594427
0.0003363462387885284
-0.0016728655014979848
-0.0024223694055037553
-0.0021413299812573106
-0.001295912302954766
-0.0003569968161097857
0.0003483332079972423
0.0006859541351100293
0.0006856535999225303
0.0004716442198111682
0.00018915427978146433
-4.857446177290397e-05
-0.00018384955593746765
-0.00021211567645151
-0.00016385910129001208
-8.223128542068922e-05
-4.941269582199367e-06
4.5504365781793984e-05
6.323618654640101e-05
5.474137480234821e-05
3.230180902896439e-05
8.035064519132965e-06
-9.824465681608005e-06
-1.806685638779462e-05
-1.7660708712063072e-05
-1.1913614460392887e-05
-4.578216605247536e-06
1.484206170990225e-06
4.868856546391238e-06
5.526687135827976e-06
4.273280348559141e-06
2.2053615759242927e-06
2.447297570340374e-07
-1.0891788591536195e-06
-1.6852270081869191e-06
-1.7013250775431433e-06
-1.3794345246644408e-06
-8.999801110161623e-07
-3.2459932104889864e-07
3.6663526967991435e-07
1.1750087773811002e-06
1.9761795986944625e-06
2.4694988192878907e-06
2.2327176807627574e-06
8.959267691777998e-07
-1.603265230880254e-06
-4.777399626683456e-06
-7.493427807552915e-06
-8.15510039169056e-06
-5.229726301230947e-06
1.9469616454355264e-06
1.2328358033744057e-05
2.267315945043976e-05
2.786716784682935e-05
2.2358486119919006e-05
2.6431406857217735e-06
-2.9815871767845427e-05
-6.642418635698117e-05
-9.155132920010047e-05
-8.61500139696075e-05
-3.516074082979873e-05
6.275087344805212e-05
0.00018656917289052206
0.00029031231083915653
0.0003112018050772258
0.0001908519019372778
-9.340684820346258e-05
-0.0004966246086848076
-0.0008891361049549825
-0.0010712911381766646
-0.0008312257788472477
-4.218618893770267e-05
0.001225599508907994
0.002625188561059806
0.003543277239617199
0.0032478269368468636
0.0011798899626454336
-0.002670472595578122
-0.0074405997475983626
-0.011313739728467434
-0.011860197543042043
-0.0068780349108530665
0.004391518562166707
0.020056213887442356
0.034973284178163686
0.04140827549160157
0.03135904746139051
0.0003654116475570496
-0.0482172417478557
-0.10033765998695313
-0.13204070312486152
-0.11578306611500734
-0.03258566762320389
0.11217446154135922
0.2743128539324065
0.3645477688113776
0.256717890210643
0.013218211971522066
-0.27596393547706954
-0.4511540244369297
-0.6528104933097814
-0.3175119468161719
-0.0076193043276806035
0.32898812561895097
0.4842818787440887
0.7232198681882738
0.5475777019940179
0.30593997780838506
-0.3479575319272401
-0.5615569359736372
-0.5795917897228149
-0.4595988543892428
-0.4317949172670108
-0.1166057606655787
0.001465214848688107
0.05863146329279711
0.280565878477577
1.066013295716427
1.1164419517005009
0.8364015978208789
0.41439096401527753
-1.2283103028694882
-2.0573321548120647
-0.765418479008058
-0.4830145965556082
-0.18798240905044328
0.5879544569844322
0.9864648913353313
0.23009710833488262
0.45857848393624173
1.033153359369506
2.732182601708077
-2.3586388331840284
-1.4818330964085589
-0.613127885328665
-0.2902347453867775
-1.90937758383998
2.2920625226387923
0.7757069157355116
-0.40739803117100215
-0.7442616188836373
-0.1815617036134748
0.572229301356829
0.9750510736718417
1.2233593521423785
0.08021164398923308
-0.44045978206456604
-1.1524283580443977
-1.1745211699368445
-1.0474240495487601
-0.3194737078157833
0.3925852339546245
1.689228845129612
1.0622798880650501
0.8052304651011839
0.594902498863498
-0.24628614243922087
-2.2272380239097447
-0.5456818150650002
-0.37382222076224103
-0.6079133141504703
-0.09374293651580834
1.684987541583626
0.48618852749485675
0.19392583974234312
0.33861167212800736
0.2675991111558098
-0.23679983311405944
-1.308501958519377
-0.941943697448562
-0.1522682550150528
0.8369908023773092
0.5850415573270908
1.6252673150426808
0.8814957088422002
-0.6784903117442664
-1.7625541255608401
-1.8799070448298512
-1.1148592080925321
0.022765486029828925
1.6739533466866865
2.2725878521310445
2.013301950373279
0.39943030822088155
-1.1064253226384273
-2.3508524439717355
-2.334067887420233
-0.8960490394727647
0.7125840476924155
1.97474319231052
2.807206215153874
1.2766951880714235
-0.8227557216525202
-2.1248856663409947
-2.815493178976945
-2.184582279100134
0.14815739342577972
3.1324361049328493
6.360202729418861
-1.010064536371814
-1.01678429096074
-1.5427225075278532
-2.105509473224439
-4.481409894404164
1.9603470075439318
1.1808024113276558
0.6760834410279466
0.42946353148088523
0.6883652301339348
2.6307615996986864
3.9607470885112903
-3.558321056100892
-2.6656621963349805
-1.9347082888437437
-1.9688070429021527
-3.1341425901683357
4.7512646053990535
3.616524986146282
1.5132506258585852
-0.5405323666974395
-0.7959885803740891
-1.0957762761073284
-1.5339057569796222
-0.5158115553988945
0.7333170136181817
0.1906077817808698
-0.6083560839991806
-0.6609198014565908
-0.2126426746809313
1.530382118344114
4.524412587303318
-2.3210135187400684
0.13292095239659107
-7.119637778730227e-05
-2.0641800254682545
-5.135299448370607
2.6112997504321056
0.41859259270920557
0.5752721368587042
1.4164270712257334
3.1742459526937834
4.141079467126647
-3.429029187987461
-3.3066349559871577
-2.640755460507956
-2.58540305049965
-2.8802724963147197
5.397356446638834
3.967973274097027
2.483178296574087
0.9697339448392734
-1.5548323013197494
-2.9121077896221212
-2.1181591405186495
-1.365677716080572
-0.7116077474993026
1.3008777588272136
1.7104718244391584
1.7569895281131658
0.7221839648084054
0.044642491973043257
-0.6732396995287653
-0.983424995451391
-1.07526849748555
-0.2673326658182048
0.06002157386394135
0.27972977082622535
0.48897884298825556
0.4561517056388852
0.16590955797263296
-0.02132011065172274
-0.18889494051556033
-0.2652206517604813
-0.2149042387518996
-0.028598514457296366
0.0829712819553945
0.29025702655354796
0.14484690396212846
-0.017304267016727097
-0.06679762591841198
-0.06691778954821026
-0.25907812859913615
-0.05268084462655034
-0.02316833931769679
0.08088291514965062
0.12407600626955054
0.16866198448413589
0.062284612258956894
0.03251415232927867
-0.11120204327944477
-0.17054061782233593
-0.15049865658094685
-0.05494204967121762
0.11242929208833521
0.14280364028914944
0.21643550663958694
0.10076592519258087
-0.04475817505962875
-0.2578503275486246
-0.16068378605735753
-0.15106766330945898
-0.001961384421582944
0.12981043900418102
0.2888931301006234
0.1066595514349129
-0.007861545215055795
-0.06840053288394748
-0.10409139318882493
-0.14818531229468837
-0.027491696990869625
0.04403174773084283
0.06645915680231614
0.05097703115573487
0.015106249535748998
-0.021909534154066983
-0.042532721895837934
-0.03315697492733491
0.014466083632287905
0.10241425518522321
0.026697884043565913
-0.021261332304412107
-0.051820926585969186
-0.07390469855372167
-0.09285682264224296
0.08949775074885319
0.07258861368128837
0.053926632983575695
0.026905416858668936
-0.019077153375760283
-0.09612076982423431
-0.014098642808577177
0.022680978028384594
0.017217152020238158
-0.02043111581421958
-0.0751393714980684
0.07005130348499632
0.030147027376884676
0.014789989152289651
0.026260580497806895
0.05959995157424203
-0.09515143293835077
-0.04939773142238219
-0.012442046989806317
0.0107746963363729
0.020052884445550048
0.018716973333666797
0.011643053420392424
0.0034076334587572112
-0.0028848139492078607
-0.005948479820878271
-0.006007330567173452
-0.004150768630949545
-0.0016675078381926537
0.00043254840917510487
0.0016315013699193636
0.001884057798306378
0.0014576748076067423
0.000733928853011392
4.735203065686099e-05
-0.00040177621247293753
-0.000560675007278377
-0.00048640389101402455
-0.00028775714869895574
-7.235124978021402e-05
8.64951241000359e-05
0.0001600258843505922
0.00015664813423280636
0.00010566231102573353
4.0452606854382784e-05
-1.342259102806951e-05
-4.332614500318463e-05
-4.8737150280527325e-05
-3.696346778148857e-05
-1.7987698214996974e-05
-3.7199688713760837e-07
1.08901619027665e-05
1.46204342031721e-05
1.2421871528101037e-05
7.157511967873666e-06
1.594825948384935e-06
-2.422180516566063e-06
-4.20881203429507e-06
-4.027357225957758e-06
-2.657394508953278e-06
-9.625765805914933e-07
4.096709913508118e-07
1.1506369060693772e-06
1.2620410360616754e-06
9.411504922735971e-07
4.4698141064771914e-07
-3.5900588655602086e-09
-2.881637717280326e-07
-3.8197129278051736e-07
-3.287944014279779e-07
-2.0065359427645816e-07
-6.338169899409677e-08
4.262271409334161e-08
1.0519501296335336e-07
1.313095203196478e-07
1.333386912917602e-07
1.1772202495172171e-07
8.084543837794545e-08
1.3578767489685657e-08
-8.765703126605739e-08
-2.0843587846787716e-07
-3.093019842495177e-07
-3.305464401325683e-07
-2.1202306139891832e-07
7.454141154692534e-08
4.906105357018085e-07
9.095941638275643e-07
1.1277845164097373e-06
9.204574498168974e-07
1.4126092292310486e-07
-1.1593609358447747e-06
-2.6442625220693136e-06
-3.689138780349699e-06
-3.5235957183594253e-06
-1.5262488802946946e-06
2.3823043201978047e-06
7.385581140515264e-06
1.165350157143191e-05
1.2655963068393847e-05
8.003465067940126e-06
-3.293615076135492e-06
-1.9524721284904482e-05
-3.555480854904165e-05
-4.336730052820605e-05
-3.434228837498518e-05
-3.1544080103452336e-06
4.7690449327612436e-05
0.00010454457632142683
0.00014287724184693155
0.00013304706002301975
5.1943450500134525e-05
-0.00010183334804367278
-0.0002946808458843961
-0.00045423796828458215
-0.0004825496009981728
-0.00028948591981512063
0.00015829624808278445
0.0007879573654523239
0.00139473447230226
0.0016662705051300275
0.0012740851408809693
2.6080691849134454e-05
-0.0019596418110420597
-0.004132928454497031
-0.0055318477367526
-0.005017503878474287
-0.0017320044312423503
0.004316929060316151
0.011759883284044512
0.017754958418250727
0.018541680837901055
0.010773690263342184
-0.006574223159231633
-0.030334187655208615
-0.05226304976548017
-0.06019052142370907
-0.04188184096850772
0.008565781925773206
0.08319456303794222
0.1540844282147119
0.1717094718428901
0.06997177352423316
-0.022175223534582386
-0.3658712984706929
-0.40047353828738175
-0.3414268445129511
0.00857398810228568
0.43839861799813895
0.9083506411825943
0.946606932810945
0.4745925336184198
-0.7385755516142638
-2.2102589409772584
-1.0992070590100798
-0.41366779496367745
0.5132552159613444
1.297021381679278
2.166319100505516
0.8707138260143316
0.07010749749297716
-1.1852258880586997
-1.1093473401041303
-0.8181941849715242
-0.40063524459602673
-0.45822514182873286
-0.12477329757966127
0.6463582189451292
0.9563778142447488
0.8341912763317115
0.5440127955228826
0.5501178346765341
-0.6586383729404238
-1.7027191275189153
-1.8365066346917343
-0.29602384251423874
1.9151525072876079
5.214802795165266
-2.961110633509569
-0.9271596230943848
-0.4875903827229182
-1.4818810703011287
-3.979264647429778
4.655814179573045
2.0401776953113586
0.03445324640602498
-1.1556845833152067
-1.0070112892665037
1.5673982249358602
3.923305146748794
-3.5685573621336824
-1.7600468350017582
-0.1875717396001786
-2.008138340918728
-3.444422450605624
4.662380204359094
3.236280082491205
1.363458317608044
0.7807549742527227
-0.903144704524538
-2.0702742199999493
-1.903058572492526
-1.6206146788326903
-0.8045821116531936
0.9619816817711502
2.565052044254415
1.3967052728634082
0.6260553759122692
-0.046990564700608785
-0.7423149911616914
-1.277296907526919
-0.2151632389800504
0.0708340394419612
-0.5152412240652908
-0.16838454222863058
-0.42314923607062604
-0.0480116382217577
0.42538917381235475
1.164847228351897
0.5229624589661864
0.5730800775293972
0.11141850709493273
-0.6771301468575516
-0.9096616596848373
-0.2830883624109841
0.030327114288920813
0.0489269480791056
0.0017096692105443793
-0.49427258490239334
-0.09023695137376148
0.21632780200718965
0.7973920049054952
0.7223755769882232
0.5160292881901262
-0.4442215585373243
-1.0957758980350862
-1.240734652402038
0.2999136320460932
2.914089873071638
-2.3903091191116603
0.41966718612873766
0.8095908701469222
0.08857837027384857
-2.5802303684259016
2.425586891412201
-0.01563213804896558
-0.5812799710938736
-0.7213246965007177
0.12124919654103278
0.6864039461802279
0.4725501235973998
-0.4806391348445981
-0.19454430498534092
0.4633074815975104
2.0085195394678403
-3.0227850572584867
-0.43917611327446837
0.422922023028034
0.0853046967162426
-1.5168757859818167
3.1042250496138144
0.9371312925490257
-0.5483694630915643
-0.9763519248334135
-0.8045400517033026
-0.25426967190466065
0.1426328896393554
0.36575864693170757
0.09778841300741403
0.09616697234147742
-0.04359327438363798
-0.1246749097690035
-0.18138924644889165
0.29509550420467423
0.34025980559493
0.11229388311320544
-0.09681131944646269
-0.036165083544109806
-0.26251884609221265
-0.30717408637993604
-0.05189831315374561
0.08066749740057
0.1215660470052208
0.13914922469485222
0.018300451101720343
0.04142270606376699
0.07517904599001421
-0.03561580025265577
-0.06768372334539227
-0.0147147400414254
-0.08135606253923036
-0.07835330128020179
-0.02044123009237083
0.07291103805277845
0.17538883718605078
0.05292095968094824
0.066385885478166
-0.021251893593487434
-0.23498459788980317
-0.17862811040885446
-0.030637216164128296
0.05264227548877499
0.12696296601094254
0.247147814653101
0.05606442103682887
-0.020561721660395625
-0.17268776650309275
-0.2003254337415439
-0.10796265960814533
0.09753637988002825
0.20495922909519004
0.19521970421910723
0.040153741999391666
-0.0938479800796031
-0.23809479536334122
-0.21348255643768138
-0.026563459375119162
0.12770058310492932
0.2577834953622853
0.1665607208967546
0.04659245201076056
-0.11741735986585287
-0.1401104887102693
-0.2254180806326914
-0.1605001078816192
0.08253124882499309
0.13701911050621526
0.22815636161020886
0.16148764542304267
0.11905418064912668
-0.13449973863264877
-0.2379507148958298
-0.21736986783243237
-0.07467534391426708
0.014326778240526162
0.09175182128488887
0.20286295476561061
0.18074681156402642
0.03634645938767984
-0.04270302060966109
-0.08467288446362768
-0.12132169840574132
-0.17564567402496645
-0.05451595625143275
0.05128439500663856
0.1601856159428549
0.08941488600532291
0.045533596759892984
0.019625706800771074
-0.011334296985982288
-0.07776366833509046
-0.007871919459388204
-0.01825217594811533
-0.10744122680446268
-0.05436391367702499
-0.022396323663124162
0.03166538063069752
0.14601746418858036
0.1431133250155556
0.023343739642723578
-0.0346578966755577
-0.06725459747835921
-0.11506044419124441
-0.011826542707816889
0.02379507786585468
-0.00823371287022309
-0.09081999934066665
0.004624789351515673
0.10994372464171809
0.05150418779653292
0.04341450971810282
0.0847236999871159
-0.038615268295261004
-0.1479156184786914
-0.06436899913202324
-0.002888687288789075
0.03080980332264941
0.03951721554913707
0.03135786014195326
0.015895793017159494
0.001007878114019008
-0.008727166074163017
-0.012122428728518205
-0.010445262810731963
-0.006092122300261828
-0.001414960168678774
0.0019995710972916625
0.003544288565639907
0.0034204827480026284
0.0022774486650126644
0.0008448467057958803
-0.00032477673334141573
-0.0009635101835936412
-0.0010672368952451994
-0.0008001180351913679
-0.00038164064007401954
2.1256186540547833e-06
0.00024427019596211686
0.00032130528034526466
0.0002698520834553078
0.00015314635355670027
3.154602059944435e-05
-5.523254492706414e-05
-9.291794511243014e-05
-8.77887998730188e-05
-5.716858646218694e-05
-1.9967339487784093e-05
9.797683224007917e-06
2.557602037185563e-05
2.758434595979226e-05
2.0253599189987138e-05
9.299568729776468e-06
-5.31311116255513e-07
-6.586013253933041e-06
-8.363372029458732e-06
-6.880064383109969e-06
-3.7961396190325707e-06
-6.610882874289611e-07
1.5287242919771779e-06
2.43760855144702e-06
2.252586616097233e-06
1.4331023330070268e-06
4.6770509675556275e-07
-2.8898158047624533e-07
-6.776548922569895e-07
-7.12273674644779e-07
-5.12073406855299e-07
-2.2572153758221022e-07
2.585001674394748e-08
1.769683255679415e-07
2.1740344772304473e-07
1.7519632733954014e-07
9.385950476035772e-08
1.312668579389605e-08
-4.2049416153482425e-08
-6.384948385843369e-08
-5.773342594115738e-08
-3.58608943704944e-08
-1.0839040756750304e-08
8.373062522208373e-09
1.7918290326343066e-08
1.837046689553975e-08
1.2928117080295722e-08
5.453134457563471e-09
-9.770846313840455e-10
-4.7411359075373164e-09
-5.6444727281708865e-09
-4.456041206266992e-09
-2.314649797917948e-09
-2.3802385258440863e-10
1.150077834581181e-09
1.6696782025767617e-09
1.4777195213816767e-09
8.953874116004329e-10
2.4763681081619683e-10
-2.3952154137973587e-10
-4.731586185002765e-10
-4.735289838937605e-10
-3.261869623658303e-10
-1.3132656265350277e-10
3.283814361849366e-11
1.2638977490457895e-10
1.4609000306452677e-10
1.1291855277880292e-10
5.663683999114135e-11
3.282433072440495e-12
-3.158249660909563e-11
-4.38766474611629e-11
-3.8055762921453416e-11
-2.258789218401539e-11
-5.839273437935047e-12
6.497080152524442e-12
1.219483448960922e-11
1.1915385239540808e-11
7.941066770489118e-12
2.868154507526004e-12
-1.3180179633410952e-12
-3.6377610221557126e-12
-4.053187068567921e-12
-3.134137489947529e-12
-1.6572963828188794e-12
-2.8803545020445543e-13
5.861850465741031e-13
8.745701326187206e-13
7.023486441753794e-13
2.9238653578452995e-13
-1.401667026094292e-13
-4.5213315515594127e-13
-5.905206183685361e-13
-5.759252005765609e-13
-4.690828007617704e-13
-3.3718832690038374e-13
-2.305704760150998e-13
-1.731922749982799e-13
-1.648618889130359e-13
-1.9016358370346434e-13
-2.2885589061314724e-13
-2.6395571465750874e-13
-2.858374200799454e-13
-2.9253223834995705e-13
-2.875301098267962e-13
-2.766866598346126e-13
-2.655284418689165e-13
-2.5765047337629226e-13
-2.543045963994155e-13
-2.548696788965736e-13
-2.5773317016695445e-13
-2.611580446402691e-13
-2.638701652664997e-13
-2.652855907541684e-13
-2.654391811675365e-13
-2.6474646600219647e-13
-2.6373426652977253e-13
-2.628355465146026e-13
-2.6228887341637493e-13
-2.621354211983796e-13
-2.6227862605441045e-13
-2.6256488290174613e-13
-2.628523920378503e-13
-2.630510399500186e-13
-2.6313151664213673e-13
-2.631121248570832e-13
-2.630355873611199e-13
-2.629467575367681e-13
-2.628778515416834e-13
-2.628430440611925e-13
-2.628406733634851e-13
-2.628595731536339e-13
-2.6288604146167707e-13
-2.6290904060617996e-13
-2.629226582084933e-13
