0
3.1803424482706655e-05
3.1803605256863434e-05
3.180382968246851e-05
3.1804012495092765e-05
3.180403944783505e-05
3.180380679197986e-05
3.180327849975262e-05
3.18025433268054e-05
3.180184349996107e-05
3.180154442278606e-05
3.180202609356461e-05
3.180350430635347e-05
3.180582899446236e-05
3.18083458291729e-05
3.180992599570396e-05
3.1809247087564344e-05
3.1805332446264e-05
3.1798233159510324e-05
3.178959941999058e-05
3.178279545003558e-05
3.1782236426658634e-05
3.1791822607459385e-05
3.181271833646411e-05
3.1841190224849804e-05
3.186760423795066e-05
3.1877748607717774e-05
3.185718059612333e-05
3.179821008104352e-05
3.1707608818024376e-05
3.161166731613874e-05
3.15545676791334e-05
3.158699468488142e-05
3.174493174445453e-05
3.202339448367683e-05
3.235510816241796e-05
3.260750664982393e-05
3.261016631485066e-05
3.221682027237788e-05
3.139146272935981e-05
3.0290092259807016e-05
2.9295278112150456e-05
2.8959131659967896e-05
2.9829623224298515e-05
3.2178128582575633e-05
3.570514592437109e-05
3.93565408232343e-05
4.140503098278409e-05
3.991070695797095e-05
3.355363997100773e-05
2.2644223214179232e-05
9.916493848559158e-06
5.875073079317128e-07
1.2274972925981395e-06
1.7307370843373888e-05
4.986446282671005e-05
9.241793846083594e-05
0.00012979889436967745
0.0001405830563900451
0.00010401825327601398
1.0641581914924723e-05
-0.00012650447192801025
-0.00026523684391917106
-0.0003381065470548203
-0.00027097401725791233
-1.5663796850286e-05
0.00041122189176741547
0.0008988834842080469
0.001242248871176512
0.0011883117600665369
0.0005329874595693804
-0.0007499216673311728
-0.0023925619873340605
-0.003794323743292245
-0.004124586803020647
-0.0025982993846865384
0.0011112583207510919
0.006446580278594309
0.011729585813671534
0.014341866318274426
0.011475092346143698
0.0014129144665429834
-0.014980139124022154
-0.03318150235010448
-0.04512891140101959
-0.04120186060227136
-0.014237450758194516
0.03509079835994245
0.09316584572817313
0.1308979124002805
0.1059711541757372
-0.029153684608644533
-0.11469369745975486
-0.17005721594657086
-0.18441266907585172
-0.11575727454061702
0.09968808998818038
0.12975931048773234
0.22581013601992142
0.20646404933170032
0.05163140791786802
-0.0907764888406478
-0.08759358337673714
-0.19859562641676837
-0.25778271983631174
-0.06434659590443478
0.013400454947661549
0.02243518341518164
0.20343778316804215
0.3716007168804902
0.3083873005599581
0.16997739084345417
-0.08755300468539635
-0.4735910108203418
-0.7324714547253928
-0.7327176963529215
-0.2869508872836772
0.5982595731229664
1.6583886386700162
2.5197109080148126
-1.9138355499439992
-1.4284223341236135
-1.0415735459098154
-1.1514018536507729
-0.9207554714698606
4.30368664031431
3.966718764714261
-1.8847966067215685
-1.9354762031022612
-2.30316845816317
-2.8704395305208648
-2.5077973002557497
3.38940296957734
4.288789988134264
4.5218922306939895
-0.8044593472843856
-1.532926192108356
-2.039231452681992
-2.96185377599489
-3.786459925025807
1.0329479202677547
2.1928392826707577
2.5413513533997585
1.6490125223740646
3.239875508929637
-3.462148360142532
-2.2727944802720748
-0.9221545310962925
-0.1318226121318836
-1.743309593559162
4.692091517512165
1.2864128376641224
-1.8112252776233055
-1.4156779390769991
-0.48534620271329604
0.09654321792350781
0.5193528538652071
1.6198614031569079
-0.3523156345015002
-0.9652049809462365
-0.8281954621058679
-0.41703231146119896
-0.30811766138239494
1.3818801443781201
2.170904079655578
2.6284163757620007
-2.948064530307902
-2.0077432245214846
-1.6163231196824586
-1.7775457875514062
-0.24340920840698424
7.7932171630596665
-1.6290719799764621
-0.742997554511563
-0.29586311552828376
-2.142238659159172
-4.023397377843113
4.633241190292179
2.0911353612804837
1.2881445295815515
2.2673760797168394
-4.528999413234477
-3.533482163814877
-1.1590070041883402
0.003675642861231153
0.4824396304381244
7.958870689353253
0.1252002301686971
-0.7602440783686101
-1.7933383217626877
-3.0615297704291438
-4.082504430324735
2.476064328639978
1.7612027572558662
1.4077687026499806
0.5829924804024144
0.2670250772083071
0.20690652711278482
-0.2524589016845656
-0.8818922393672805
-0.8605746160052024
-0.6837453918597332
-0.5125362928263696
0.4241758620516912
1.1862442701812907
1.2633818018105323
0.7319640580116404
-0.3515846389728169
-1.5214051167851388
-1.4596939866683414
-0.7743001525419559
0.17909230863581724
1.2299590452205693
2.10776810323767
1.179984040055476
-0.5519516601619037
-0.9895621375257508
-1.02983041034013
-1.2567014701120647
-0.8752047390888275
0.6866032200162279
0.7100173494536346
0.8793480810441247
0.7766061707727614
0.41375925499521526
0.023349907807286994
-0.29251077895298266
-0.6732579967274224
-0.8008057388435876
-0.6215004089242195
-0.3121114871296451
0.502406657490225
0.4890878310686148
0.7282210499534433
0.6434002132944789
0.16229484169183075
-0.48326907586595697
-0.5249179108527265
-0.611700571182681
-0.3722173924045865
-0.0005038516889362368
0.5308524553345167
0.43930369168655453
0.29904693748549105
0.22200546371174543
0.06228052157222117
-0.35666641650432435
-0.4016529079246454
-0.390598573260157
-0.1682345401960755
0.09545142159065359
0.28485740439216295
0.3051809690983677
0.248223313283522
0.169036047265916
-0.12039362844895203
-0.24113938560277956
-0.2275684179941458
-0.10700122058223258
-0.08673333035933864
0.047744557284680585
0.124352169541286
0.1706194976615805
0.20083601399283602
0.00966255685311607
-0.025148969616779454
-0.13208657444640612
-0.13165199528986835
-0.22437953398402738
0.01396485974858393
0.027818158857952306
0.06929609298600793
0.18218368360727402
0.18830772867917211
0.08143514238706226
0.03122955921365798
-0.20394836247250556
-0.2602258809727592
-0.1541705115941714
-0.07748687034686103
-0.0029470030072739654
0.3007341152147087
0.2514055813481418
0.2412436479318653
0.03581960468627917
-0.21421438196385204
-0.3532251909134866
-0.20089543231350493
-0.14135353294058245
0.07400170275109673
0.31106520729588844
0.2313343793747037
0.07254746728402961
0.03860842039230082
-0.09861626661163939
-0.18782735936973138
-0.08245374318407886
-0.02628655845494079
-0.04473463154505184
0.05693840771405317
0.08962595691640761
0.07343453137244281
0.03085335860032572
-0.01778685040204506
-0.05596630527993695
-0.07063981253115104
-0.051557719637947017
0.008384590898018882
0.11146592674226315
0.053063329231478475
0.020764947985731565
-0.004134053777890744
-0.04276041764644276
-0.11370282715203944
-0.028893613478118727
0.008054113621467832
0.0005863562800896117
0.15598497274920345
0.08211132991192828
-0.014009107302245246
-0.12506979915323294
-0.04088007823250564
-0.1465356014239339
-0.02345362387282376
0.14618015980244273
0.17311495100625293
0.05592419812444132
-0.020062770174750364
-0.0788407586273862
-0.14638599822822673
-0.043048251091644486
0.02130443637347255
0.047952884986912574
0.04635745347956188
0.029420035055016388
0.00902523477429391
-0.006783538953580969
-0.014613660484921872
-0.014921881479101534
-0.01038480404216733
-0.004216838523762661
0.0010416255493404828
0.004071876697313295
0.004739055796503705
0.0036981491266375836
0.0018984351959767491
0.00017847938656014237
-0.0009552849532857348
-0.0013648477775151996
-0.00118854284163927
-0.0006965197266771576
-0.00015813959142011117
0.0002417095934855017
0.00042923539789671377
0.0004239489628009189
0.00029831503877262753
0.00013570949468742465
4.1528422290499945e-07
-7.540869577602502e-05
-8.995630511793003e-05
-6.118963208258773e-05
-1.3978977967681908e-05
3.0186749374873222e-05
5.8655197935714626e-05
6.830702585612552e-05
6.302606649673495e-05
4.991890627519747e-05
3.592305930521884e-05
2.571782386304089e-05
2.1107384000875273e-05
2.1521952026372652e-05
2.506328373100094e-05
2.9563732082928426e-05
3.332414585651696e-05
3.542727465866778e-05
3.570242351924759e-05
3.45032197964493e-05
3.245616874703195e-05
3.02743775260437e-05
2.8650347904088485e-05
2.818166249861196e-05
2.9267100153615662e-05
3.194279303206921e-05
3.5694052586324314e-05
3.934861190917316e-05
4.119352272689402e-05
3.942671161702365e-05
3.2939346084887695e-05
2.2243191863568805e-05
1.0164851681968571e-05
1.8176167231231721e-06
3.4332068741237402e-06
1.995861939967556e-05
5.1881839843784334e-05
9.240370521089366e-05
0.00012655370129523833
0.00013381753027019006
9.502288167248968e-05
2.5631505222245427e-06
-0.00012914170328636124
-0.0002579655949226896
-0.00031875344370197177
-0.00024206249638772764
1.4104063378040306e-05
0.00042766839924098746
0.0008861637488611943
0.001189689063260409
0.001098664595460358
0.00042885776281357553
-0.0008257111324983461
-0.0023863613580603197
-0.0036618328639946573
-0.003858116215154318
-0.0022517454186857847
0.0014134633682958673
0.006530463938276948
0.011430000007516188
0.013591817196526983
0.010401044892528584
0.00039406286257028634
-0.015337059472586609
-0.032187482340762665
-0.04227836785011383
-0.03650901460991367
-0.008551015884728636
0.03988574630177625
0.09406208774509306
0.12359197345266222
0.08406930131637312
-0.07646173936413934
-0.20766702216209218
-0.14713582441571402
-0.11461029119891132
0.08741806111723519
0.26760779127492135
0.23811579700371957
0.010379451950605443
-0.0026163900205257848
-0.17856782036039912
-0.4774854638523402
-0.23924858071506336
0.008391258718074866
0.33219811460384024
0.5736707134563998
0.7386818724072378
0.2064925089891405
-0.6402085792880938
-0.7747429988176487
-0.8957386426447301
-0.6278059577090495
-0.16501687982479638
0.8495327533653011
1.2338498734690442
1.8043720849715592
1.975537267312741
-2.362962156278099
-1.9079646739536125
-0.9908796142129447
-0.86987435702301
-1.1071822817651786
2.762383441589477
1.5005179313120212
0.020720010151002253
-0.7246497783245456
-0.20182892292774754
-0.0987467732505499
0.31191609116726654
0.2351110862598548
0.23088596256908592
-0.3020335340785862
-0.24822092301984466
-1.3184858174108147
-0.2294716570404631
0.27079731641819005
0.5349513730144071
-0.2764335506949593
1.3140550978742773
0.6374690232011843
0.46179118207175973
-0.7732927921778414
-0.4819705286121176
-0.6443039874379629
-0.7357574203697951
-0.8988931761923015
0.23319796366996284
1.2711287570602607
1.3877817626402649
1.2560550760398208
-0.566729196232132
-1.0023426909300857
-0.9840678774584307
-1.795474623252124
-1.2506089637381832
1.6702331188047874
3.7457709558414027
-0.7577170983754157
2.291344018458937
-2.461195604111799
-1.5509392614456368
-2.380679793356974
2.053996202949459
-1.229274281131159
2.7427226221851324
0.20728655424056344
-0.8245475818262137
-0.8345830305822763
0.16473072776663125
0.616290894433369
0.8248444404587166
0.3862535693156057
-0.35902412459905636
-0.8562143725366408
-1.0697918563982844
-0.6445413268944722
0.08891807989629823
0.6643949453942544
1.0058354476646072
1.360379111190594
1.8692820210279755
-2.609017005685115
-1.8354596977396442
-0.9214687449943789
-0.2938939294438631
-0.11296219184796095
4.870682614811479
0.2591599238536963
-0.6085637368363421
-1.216651390741429
-1.9990267610999697
-2.6798054974900247
1.3299400200486098
1.4673587251645874
1.5126903085580785
1.89749460205544
2.277587808893179
-3.2075074131071255
-2.00955113105024
-1.4375945728662212
-1.1805987870311137
-1.5281486134018134
3.9141856909161112
2.4627583221295324
1.6194782294184389
1.4249249980375491
-3.6766295357042824
-2.292134225993913
-1.3242914919453688
-0.27641764740242475
-0.45396275296194205
3.9497503731744423
1.7340028956134603
0.19854584038943104
-1.280305532839406
-1.6044158442923389
-1.0742151647057658
-0.12100038542420608
0.5173797201108443
0.7732260148304778
0.3966157416249377
0.3011272719102259
0.1295954305545238
-0.1507208212613439
-0.426892111353744
-0.2048204105140842
-0.1739898957316149
-0.1842175908732618
-0.03997401773187703
0.48909585781378473
0.24828213832058962
0.0776698810369631
-0.20095707875382846
-0.18778395776571144
-0.30165402872419117
0.22605433541162362
1.1580462459910414
-1.1413344540447754
-0.0971051119191407
0.08428570641474997
0.017114013461328677
-0.8700620889208321
1.4523410850175027
0.20082010555865284
-0.2288027907455058
-0.4581844118072949
-0.31503921440580945
-0.02139682590401634
0.21123918337727537
0.17818608885963236
0.0732568504938226
0.0817440537670139
-0.021038449600184035
-0.06474612456286409
-0.07458828455147082
-0.06116149795390958
-0.013257348458255894
-0.0962821600518611
-0.0572690457295852
-0.03568647321854006
0.2224974457369127
0.1515437062185072
0.15810202938514964
0.02226975289887585
-0.09198544312604166
-0.22030453293442906
-0.18133628888616657
-0.16650420113576433
0.05965037041296462
0.14840649053701732
0.14911449060579487
0.09126506991799574
0.17272086103551548
-0.04198427126084819
-0.012912802611858534
-0.20859409932586492
-0.08778824190994217
-0.0848397785619932
-0.0027815811575539083
-0.01557070699339513
0.12204269485667665
0.06055015819634269
0.04190817156842969
0.08968637642638294
0.005373305146706514
-0.028840033064641567
-0.04228041233779859
-0.06578544412009017
-0.1227007898188602
-0.023611784233904014
0.03382024669892696
0.06039230985665429
0.06841883494597885
0.06528254912208636
0.05008354626556071
0.01469115242434766
-0.051226390837656406
-0.15323233996444344
-0.08620174966759939
-0.03224014776719513
0.03626095262593583
0.1493713174889506
0.1310190133777507
-0.007553807256718249
-0.06997752996177868
-0.07242520643974115
-0.038495360568456156
0.006343207290775932
0.03907526393960146
0.04175911262406926
0.0028224953903400055
-0.08245935951494276
-0.012182526992807889
0.02105892566979279
0.02806741149527708
0.020381144640846165
0.00784105331273183
-0.0029240827244989935
-0.008834272805347727
-0.009713496734836936
-0.007124578520071382
-0.00317169644848101
0.0003841436280368672
0.0025580206282354405
0.0031647355034028213
0.00258156058216731
0.001422210201728075
0.0002571156517405508
-0.0005496080012037014
-0.0008785865942537834
-0.0008029028898002096
-0.0004948254484841926
-0.00013576210134962028
0.00014362027000049363
0.0002854889605085375
0.00029612535322207925
0.0002204197942526434
0.00011369566450427019
2.0628095083360225e-05
-3.4775064913141836e-05
-4.906866311564214e-05
-3.289257706664824e-05
-2.4812630801209463e-06
2.7452985748413466e-05
4.774869646007524e-05
5.56139320724006e-05
5.315874314278567e-05
4.4938442153125876e-05
3.5636541559973836e-05
2.8557810791881795e-05
2.51030394747587e-05
2.5028315482890532e-05
2.712019696537055e-05
2.992491386614724e-05
3.228676840981979e-05
3.360069005241124e-05
3.38071649579263e-05
3.3225522200822305e-05
3.233332923206612e-05
3.15733060976238e-05
3.1228574266636156e-05
3.1371992898477644e-05
3.1876040622068905e-05
3.2466201504801415e-05
3.280587542633574e-05
3.260477634413159e-05
3.1738430140948976e-05
3.0352701392713793e-05
2.8910652534621128e-05
2.813160395418038e-05
2.8787279051951425e-05
3.1365068837329746e-05
3.56789930277727e-05
4.0583565075887355e-05
4.398838273436416e-05
4.334084491622683e-05
3.6612719382793645e-05
2.3599298763032355e-05
7.0744131127037545e-06
-6.85040259043239e-06
-9.801287316871978e-06
6.0449007473067e-06
4.378687865260308e-05
9.753100594155764e-05
0.0001500773095168702
0.00017483382095808227
0.00014347012262033514
3.886969456048495e-05
-0.00012992632189263957
-0.00031699253484449204
-0.0004407439822222739
-0.00040344566042628137
-0.00013000578192102826
0.0003818717246601704
0.0010182974118092157
0.0015378768743861224
0.0016166544160009187
0.0009598294663657268
-0.0005360455452686121
-0.002620998203429746
-0.004609597862825996
-0.005465728394886037
-0.0041090276166769486
7.96987561219634e-05
0.006688224247361418
0.013882018925508721
0.01849050511651301
0.01680576445580128
0.00611325613444652
-0.013379138257071611
-0.03694689751899521
-0.05510375363386688
-0.05568471297852942
-0.02873235454907514
0.02631585608464041
0.09286670163215313
0.13157358473815126
0.07986044273990593
0.05856027928922534
-0.014415578495544857
-0.20602593105708614
-0.15040244389477844
-0.03688927656971046
-0.20788442809983593
0.0324229855658262
0.40094711650341214
0.2157589024596492
-0.02021086217517126
-0.027376081166302635
-0.1494822318496857
-0.3493884715738109
-0.20629984483877598
0.08157229265132657
0.4892471817689166
0.35722286279841214
0.1909768468802858
-0.12776545356774485
-0.7201495929669397
-0.6884803535161762
-0.3042476934429343
0.7891947742383655
2.5652007010594504
-1.1922685827055954
-0.6784332510645528
-0.6447553189618912
-0.7814234132764938
-1.725295673853918
2.6997736368379632
1.4237024205300617
0.6811419731329001
-0.39912665053221663
-1.3578572185361681
-1.139721644011244
-0.2308139990408322
0.3732287128464321
0.5597495987163729
0.663060425261146
0.22045940752044338
-0.2618203685031897
-0.5252431616336839
-0.36133675625490724
0.19221971057057782
0.6562719024700912
0.31616409963659187
-0.16696277487753367
-0.7380269362873924
-0.5275446416065591
0.16329308918182425
2.0675258306317836
-1.850087465108072
0.0030234664955479983
0.6448688192935977
0.31665265764443723
-2.121320491567002
2.004269425141498
0.5733825613112821
-0.5307312349393888
-1.0195970557158731
0.004423840905570718
0.2460533572572872
0.0035308547392018707
0.14602509989643048
0.09068886753411336
0.3891835485701771
0.33106436724096217
0.16705553825328687
-0.25080988748178445
-0.6223244286809321
-0.7612767104142187
-0.3829231775681835
-0.12618233161937595
0.5929056533283107
1.513851903646083
0.6761692433559571
-0.6016829400165219
-0.30050135379632914
-0.4459615681663925
-0.8444538434443637
-0.23272510945918898
0.5441528448377698
0.5252491272107677
0.20661790651930026
-0.2914922829124927
-0.25282293467050965
0.014735704391789967
0.1662966592086624
0.4139744796236565
-0.07089932153884586
-0.14610589228938606
-0.07905835532113295
-0.12457942777846862
-0.30637669279912244
0.192766668071246
0.23029943255702784
0.09430371851087024
-0.1116753470798803
-0.4868097219189425
-0.3534995583030497
0.12049822908779964
0.9027832249927387
2.289614529781157
-2.07771666165075
-0.5718686062470398
-0.12728560559153532
-0.5999431054276542
-1.7578947771830447
2.8933963005859074
1.0641660826840422
-0.16387803641946572
-0.757739245460093
-0.9244971603732346
-0.4869863037224406
0.33779344600542976
2.547959693337568
-2.2434272464888347
-0.4107461668821739
0.6816889199368349
0.2736364933257838
-1.8022965843620367
2.8669359180408733
0.46889032808507786
-1.4276536551135
-1.2550891484782638
-0.6311796045800658
0.4390122321114644
0.9388461910655872
1.2072308034919406
0.7216625230218693
-0.08344976584624286
-1.3620558771166584
-0.9852378139773623
-0.485330818034374
-0.24330272435305875
0.07007182622996636
0.8102247541000703
0.8593209309491727
0.9446299146770795
0.4023819163185109
-0.40094779560236604
-0.7985046607428661
-0.9301936520432923
-1.060463498941341
-0.13379978388903888
1.0224638489925584
1.4595742795793398
0.2592962309731505
-0.09718748796764734
-0.33112352624466534
-0.7457071819104052
-1.203177859353164
0.07965366955202233
0.5068981397140901
0.8557236575265178
0.42440423946313904
0.3991899157638688
0.055080877496167975
-0.4087118526510075
-1.0116087386339998
-0.5335992375038497
0.3241406974304072
1.3500251447435028
-1.3932812857290096
-0.000399363341757368
0.6391401422740036
0.4052179463286571
-0.8788316665717758
1.544887440491865
-0.01903138590098793
-0.6880803633212803
-0.7606115096749183
-0.47969829403730063
0.18269978594491826
0.3143596037585468
0.42967132202118813
0.22910144944845193
0.16672504574532082
-0.16411479057360892
-0.024955943590497017
-0.11085668111647518
-0.1217257117172603
-0.13484091949993265
0.014770679023495454
-0.05775719190767949
-0.09176397743925274
0.003566424639467815
0.12695234742777076
0.16121836951373283
0.15394880334597186
0.10778382734434384
-0.01696358215557992
-0.0883078886038588
-0.1816197928320278
-0.1581642497791552
-0.04953173234065563
-0.0521384759581872
0.06747198100221682
0.15918319283765356
0.07258777970654035
0.04230873686577508
0.07938910604567975
-0.029550669368619966
-0.11612933730475405
-0.01955478338826946
0.025156357174477725
-0.0029290205213026712
-0.10472109790519657
-0.06024111222539956
-0.03315885031050849
0.019943291231954315
0.1376324921806262
0.14231457059658617
0.03315999620600568
-0.014234485552702084
-0.0411823907155583
-0.09432739422868253
-0.012665992776326056
-0.0168032340239711
-0.103157770098564
-0.044471267104997304
0.003462888927745972
0.09040032196424683
0.05848263439093503
0.13099259512646733
0.106391187143956
-0.040512901270413196
-0.1507245440532419
-0.06931547084584944
-0.0337807652224258
-0.0660901364363591
0.029722152013473627
0.0646833214368871
0.05859179666218128
0.032890884521763385
0.0050070346309663465
-0.014568024070833808
-0.02239291079847673
-0.02022993062414033
-0.012418299327912934
-0.0034983212021583053
0.003309102339778553
0.006632014092498343
0.006697250347795963
0.0046707823450471775
0.0019470726196897242
-0.00037141261753349515
-0.0017119304304145037
-0.002016240723807167
-0.0015702240619383146
-0.0007885724633048902
-3.8276213240349793e-05
0.0004582476192286476
0.0006393969934773618
0.0005645284155368977
0.00035102517179426375
0.0001163850751966766
-5.845863027069613e-05
-0.0001409442487061046
-0.0001392693490402452
-8.486475242522787e-05
-1.4060654791199497e-05
4.504154162496348e-05
7.830990764923744e-05
8.485826281230726e-05
7.245786803479132e-05
5.193460801131952e-05
3.2671359427072306e-05
2.0212131187083334e-05
1.5943168169212205e-05
1.818767055699232e-05
2.3853601089550506e-05
2.9917623757659956e-05
3.4342625874282174e-05
3.635073879228707e-05
3.6203422282785934e-05
3.473822452090758e-05
3.289603270151675e-05
3.138972446878435e-05
3.0565614994669105e-05
3.043009990346282e-05
3.077251605012555e-05
3.131056835531251e-05
3.18046797999232e-05
3.211701074178114e-05
3.221705575138618e-05
3.215168985611921e-05
3.200206893191784e-05
3.1845673101987475e-05
3.173347199590911e-05
3.168381139965058e-05
3.1688804513285315e-05
3.172662829597096e-05
3.17736639198755e-05
3.181265418833787e-05
3.18356826003193e-05
3.184286399216171e-05
3.183873776287895e-05
3.1828479349315044e-05
3.1815473180855805e-05
3.180088732153619e-05
3.178498129127304e-05
3.176919402366191e-05
3.1757737106220334e-05
3.175752981716207e-05
3.177586717422479e-05
3.1816136975839845e-05
3.187299804418557e-05
3.1929351000038136e-05
3.195771407386737e-05
3.192781791461053e-05
3.182015047801566e-05
3.1642092135680277e-05
3.1440095986801905e-05
3.129957486837944e-05
3.132542329347068e-05
3.160156941309649e-05
3.213736148061222e-05
3.281960231730861e-05
3.339716557054281e-05
3.352468823161723e-05
3.287808783726025e-05
3.1326652000239603e-05
2.9109716599225243e-05
2.6933519069397326e-05
2.589416105767461e-05
2.71637162102682e-05
3.1456700665012844e-05
3.841235874599852e-05
4.6148323912053605e-05
5.130509166121163e-05
4.9844269669157026e-05
3.8644727622629105e-05
1.7573159350012033e-05
-8.715991427513064e-06
-3.0295365514738282e-05
-3.3796511827945105e-05
-7.000802591654575e-06
5.447157110645886e-05
0.00014045316485876457
0.00022279611352065993
0.0002588071389456066
0.00020384426665615913
3.218491977263934e-05
-0.00023931800636440716
-0.0005348320426736745
-0.0007226860498800972
-0.0006478509373948684
-0.0001947780172206661
0.0006327633148128409
0.0016443495022560456
0.002448551527601356
0.0025294694948550457
0.0014293091246075189
-0.000991251121342181
-0.004297849111781642
-0.007360982720648254
-0.008505933132998177
-0.006018737850540198
0.0010312538861430031
0.011865950986536266
0.023349454185771924
0.03006172467364149
0.02541591258981734
0.0037685045362531896
-0.03710634221038539
-0.09441260294302906
-0.16113821755050547
-0.030398207939918254
0.09696938455934685
0.2039822371605777
0.2525159289344186
0.18607130986974565
-0.057798104788658024
-0.3279792920806976
-0.44040761786377236
-0.3681331327800888
-0.04788754582414527
0.3964800044016307
0.62168357835513
0.4375056125449435
-0.0026768411870070298
-0.1873235851411386
-0.4124720663403842
-0.34043067959981166
-0.1665406631267027
-0.20541842867342933
0.29941247822693295
0.34655362997941025
0.13794668359623843
-0.35902809754681414
0.15937267374371578
-0.08308354740291532
0.255270707518329
0.44712944197007104
0.5250576980750381
-0.27661359449867096
-0.8759186105306852
-1.3096346561908356
-0.9302407471945228
0.5566689110475689
2.823324170704983
-0.7524313029911199
1.0733766733075674
2.228697601304211
-2.798912416826171
-3.0544184926135816
1.3819992222668782
-0.15948377018537693
-1.5633775291235847
2.38609776890998
0.891316895942914
0.2367609493347065
-0.07503224439075201
-0.3330654428103467
-0.3789457947844485
-0.33821922039164093
0.05691376449114852
0.3375175172574707
0.15182156569793143
-0.30045429795313466
-0.255934461282546
-0.40160814501457287
-0.5191009070505676
-0.15917964943581808
0.06172226546985591
0.5613329387078022
1.7146965919619377
2.829876140470412
-2.4041498546709024
-1.2011726399728588
-0.12571902734687831
-1.3553286662370685
-2.6020196889054468
2.6855753250487853
1.8482889517096022
0.10538692024342602
-0.15011447201807135
-0.21963086410562668
-0.5248096541383747
-0.20306969701255137
-0.08963850852977537
0.1020071641916204
0.19727043214416484
0.5774247991215794
-0.39890663336503246
-0.16712691757447146
0.07744225569846552
0.21410939499822343
0.02611515260858358
0.21967460776195802
-0.9726512789112791
-0.6110629865310598
-0.29618670131130975
0.35487652713076195
0.21580795804629446
1.3650322665512862
0.8350896098720204
0.4210345274893857
-0.24389723361865687
-0.558309336096083
-1.0005329601712878
-0.7963066517845164
-0.8450068942509384
-0.7284393935290728
0.39586393387005464
1.0388047455096172
1.2027598917901774
1.2332614630809198
0.5418498230038865
0.021122710832189005
-0.8556076614245812
-1.283477146130442
-1.1717844208395942
-0.4319220524984854
0.06427221719189623
0.85337287668461
0.7979025124012175
0.38697999076331385
0.2532912942474623
0.12738859588768206
-0.16587857010060797
-0.47787035359524127
-0.690945646140012
-0.2764535856060466
0.3303059606617133
1.3342281196149433
-1.2309160915468123
0.07946284062882855
0.10156276254103365
-0.15557385915534502
-0.726804412291205
1.8992206267134737
0.5849774547520344
-0.2289109736721826
-0.8750537902761549
-1.0028759570955237
-0.538141104731232
-0.07996954551415383
0.2573591783371922
0.768988430168712
0.6752892111180989
0.6573339267993258
0.033426397584677504
-0.21645382638965008
-0.5878052301948724
-0.5720262849835421
-0.5855916291032139
0.0717809877279885
0.22141861347860756
0.3771409555867557
0.29821996865293693
0.14108818624472955
0.0234833948241176
0.007712131469926502
-0.09732885648576343
-0.12065374537892296
-0.10769803672601286
-0.10017206290565342
-0.12272792729535356
0.020966363896327327
0.14334173813418608
0.06259536193523331
0.1918151197059723
0.13218693694741065
-0.12715908319799626
-0.20322927587105757
-0.1106075007213134
-0.05482781167962695
-0.030953002814746708
0.17233083510243027
0.16575454687685
0.15378788395452295
-0.06627573894273994
-0.09955675825180071
-0.14541990165570293
-0.19024393558308828
-0.005325458977676843
0.04816790732144797
0.20856300217971901
0.10144297397372633
0.13068937394535146
-0.12379205506164477
-0.10120514864033985
-0.050242265659944406
-0.01844238763499975
-0.04375756812624785
0.05005493970357212
0.05425161522994096
-0.026781183527253633
0.02125987852763835
0.019115947827297298
-0.009264340139610378
-0.03966332638883048
-0.050483558087652924
-0.025854704351825245
0.0411415388927079
0.14593642976004514
0.07204620883788598
-0.005974511408805644
-0.11612985599830723
-0.08082630985564149
-0.10987123762223551
0.0026696622624870743
0.07663586713460933
0.13994067580338754
0.021221939328444257
-0.05644271670445362
-0.07936219628722227
-0.044711720316685646
0.039517560035605866
0.1557127188655065
0.07946090805828339
-0.015311000516077932
-0.1492168360974178
-0.13037103089423407
-0.15056997027369384
0.012808837265012175
0.18905687768104992
0.2033185710380034
0.06727808201874332
-0.02462739941474917
-0.09211706420278512
-0.16097946095824042
-0.053861567140851864
0.016296240553439808
0.048208345801394256
0.04990332264676362
0.034013680642140505
0.012959148678361076
-0.004363873282633701
-0.013801167326572328
-0.015360783718224674
-0.011604028330643647
-0.005840408783235949
-0.0007401770050088084
0.002352045059423166
0.0034190186837632077
0.0032978526427077815
0.0030155233876214115
0.003197109027712662
0.003738561198450397
0.003841377527452414
0.0024048858530371065
-0.001332670618101961
-0.007113867808085658
-0.01322858364859706
-0.01662711049868212
-0.013787644156436461
-0.002322550381086563
0.017023309224250657
0.03867457349296819
0.0517219880211803
0.04138740804092437
-0.007322921094262399
-0.10447030612369297
-0.05015964514450234
-0.03166017764214193
-0.0241995413459421
0.004283085873968311
0.08557037311445612
0.042986209992157014
0.08513068768120612
0.0035355328093613194
-0.025001728779815612
-0.03217725294197723
-0.05004300422648411
-0.10348913538262586
-0.005518419326060345
0.04357613445833352
0.05344141900728577
0.038827333473589194
0.014656704047190775
-0.007470415884580048
-0.02076017125282059
-0.023012268985890292
-0.015503568836737348
-0.0017496667778576945
0.013425146924766766
0.02452885684681829
0.02608450524021529
0.013705018878495876
-0.014387073291172586
-0.05583140698530386
-0.10344585282147464
0.05375263494327558
0.02756728686971146
0.026437733521445916
0.05162961481534807
0.09548714353177895
-0.05720865860363664
-0.024862575786397608
-0.022961221391404215
-0.05833502266545836
-0.1259273420606568
-0.009494485550399098
0.11365010905663542
0.06532168077334524
0.05926612592309292
0.09686398015379792
-0.032652909148389406
-0.14775194592683696
-0.06794149756727273
-0.007710670136599855
0.026720382574788464
0.03720447177134192
0.030940058138770366
0.016853870119924768
0.002560726151081689
-0.007303363534832871
-0.011299920412824311
-0.010379330402605346
-0.006650730820747131
-0.0022620817902134277
0.0012959518396085763
0.0033917482933575366
0.004074192011808518
0.003717801819490293
0.0026940085658247225
0.0012052348687276622
-0.0006773629589124281
-0.002826004278383993
-0.00484035790181236
-0.005951213937715262
-0.0051633902692614225
-0.0016748319339265477
0.0045151866829306175
0.012028397741364974
0.017868867078305303
0.017815902247449368
0.007574530016604754
-0.01550564326656555
-0.050712397611667986
-0.0930840340328655
0.06592109594860984
0.03608193448519311
0.0251650616748346
0.03612800313670717
0.0660190077677581
-0.09293322501187065
-0.05052802769531925
-0.01533917746493391
0.007641605573979239
0.017694696137353354
0.017505352361428653
0.011453994692027732
0.0038840429632551474
-0.0020887418768879102
-0.005031318828912214
-0.005020471899404367
-0.003104061447006765
-0.0006701729699658379
0.0010805650271496822
0.0014685422429797687
0.0004650639674437881
-0.0013527224604419786
-0.002990608665928536
-0.00334692868718299
-0.0016127163833497813
0.0023050545067247337
0.007463509740646808
0.011842848817016301
0.012754567224363448
0.00776945368600141
-0.003968706281022159
-0.020446948417517576
-0.03614346729923817
-0.04274768702939573
-0.031704486306100746
0.0015496907484289675
0.05265272646432879
0.10452673514547549
0.12698103233661473
0.08148628279719997
-0.06865371057257082
-0.14482946431994204
-0.14062714902450127
-0.21543757858500498
-0.09810463901307537
0.09858334296686033
0.2558394148039718
0.22601291213951447
0.2168325682683727
-0.011369737087110346
-0.1342173565670582
-0.241660360738939
-0.21381090131084446
-0.10235493620446662
0.07710079498136704
0.1409690413158993
0.12541283769199157
0.07156371508670481
0.013477666137532446
-0.02821469704704253
-0.046728337684314974
-0.04537040422263956
-0.03216134220320559
-0.01510034196637244
0.0005675181247865494
