0
-3.4838036142283477e-12
-1.5228796880082937e-12
2.3252223062121044e-12
7.25946328560905e-12
1.1478586905628124e-11
1.2488254850374421e-11
7.92801655997612e-12
-3.187704539086731e-12
-1.9185881221817894e-11
-3.501624512933801e-11
-4.277989684898519e-11
-3.3968595658788266e-11
-3.304097096438514e-12
4.6785840752370337e-11
1.0289109854630612e-10
1.4085344727674412e-10
1.3143363367045233e-10
5.1771840201210555e-11
-9.964375243776271e-11
-2.89840873013047e-10
-4.475968689382079e-10
-4.76336837846438e-10
-2.870122913828068e-10
1.5364554128211174e-10
7.743539718626567e-10
1.3737233706985307e-09
1.6439875939242894e-09
1.2609325967717417e-09
3.412823068033181e-11
-1.921571942787542e-09
-4.065436480494796e-09
-5.450145776178201e-09
-4.952652284714234e-09
-1.7256411495348528e-09
4.224853589731268e-09
1.1547112534536144e-08
1.7428805717723214e-08
1.8135177101671525e-08
1.0314196642362401e-08
-7.129351372932909e-09
-3.118420080898077e-08
-5.383308189878346e-08
-6.309814017242497e-08
-4.664499821735846e-08
2.345572318054675e-09
7.861584560504986e-08
1.6041240748918568e-07
2.1063203092555132e-07
1.861973242933478e-07
5.5818475216222875e-08
-1.7774467572467983e-07
-4.5927926148614057e-07
-6.778839468176067e-07
-6.892998414889156e-07
-3.676421869994715e-07
3.2189639345199143e-07
1.2530280404540264e-06
2.107101977657239e-06
2.41848809723074e-06
1.7187367136507227e-06
-2.341973516487722e-07
-3.2052582379782706e-06
-6.321204661625498e-06
-8.130536686877228e-06
-6.9831823164822516e-06
-1.7284257773642594e-06
7.428157216944706e-06
1.8238778337787573e-05
2.6335826350830056e-05
2.615389806451372e-05
1.2977299256243165e-05
-1.4242774045974898e-05
-5.024298966280806e-05
-8.237799898831177e-05
-9.256758650944956e-05
-6.30524678349215e-05
1.46671104289348e-05
0.00013026757862306826
0.00024876323617982845
0.00031343178368685107
0.0002611493062472324
4.978009067414051e-05
-0.00030887946536542704
-0.0007236125138336773
-0.001022632267647037
-0.0009914526997925337
-0.0004537393166235635
0.0006198061102809207
0.002012001310363272
0.003223808004795882
0.0035578547274392612
0.0023489715245888694
-0.0006863180266328362
-0.005084621119607648
-0.009426742268955176
-0.011482129593271776
-0.008849369286386776
-8.419331474877512e-05
0.01391950123089063
0.028758070938931676
0.03613228973335404
0.024699957928416446
-0.017805506424443732
-0.10180627740158828
-0.03364294431232132
-0.015117463565242741
-0.045391830918067366
0.07538805434946465
0.14257795374855514
0.14609284769321867
0.07404458413910386
-0.07883720567286806
-0.3005430961284353
-0.15382349793761374
-0.17632946817975778
-0.09193054604103656
0.16820985067588828
0.44115622562893325
0.5139448613624724
0.12081376276134866
-0.23978381142470306
-0.2723003713535053
-0.44695808334343495
-0.5731493134938924
-0.1951271741956183
0.38655950598726196
0.47508610346721775
0.7347394536148456
0.5639820001313943
-0.30341341455211307
-0.5689816655167098
-0.5247708333498153
-0.6133099469704604
-0.41043068143513173
0.56139486373385
0.7955006338666593
0.5567947834707201
0.2513940271277507
-0.1763310022238426
-0.41899565652925547
-0.5659158562818823
-0.4655158476312614
-0.10630110898679868
0.376690062352452
0.4743477860215954
0.2677669893499593
0.19924952085823958
-0.1397717585225695
-0.20192506059496007
-0.2636876278311907
-0.0009188406726312635
-0.06857667728946676
0.11054639331646401
-0.05267383377785499
0.08009999290770978
-0.03612049068588927
0.05803431391778692
0.01496820276887582
0.0716888569427662
0.04547794415143085
-0.06601525396160617
-0.08099610786840827
-0.02770846291884309
0.06153575419319912
-0.04481259397991098
0.025810070494941138
0.05228316982595946
0.02135914724994903
-0.0711515851820377
-0.019748182874074923
-0.00975593845163631
-0.019614970675998062
-0.025102003355906632
-0.004947310776258377
0.05335512754282843
0.14924167035574962
0.06808385400836131
-0.015347386034249915
-0.1293747581956014
-0.09618564131492724
-0.124341811332256
-0.006041385300465187
0.07979122771174414
0.1600020087537199
0.05851066145910418
-0.010145314138241355
-0.04300053468861032
-0.04667345306806177
-0.032895036834105475
-0.013707576784531602
0.002037738248158762
0.010191330788340927
0.010970574914112076
0.007419638368627083
0.003430424839789365
0.001968806664885817
0.00392867315230796
0.007824123584088257
0.01036372407180329
0.007805973000530941
-0.0021713726769816205
-0.018556788173527936
-0.0356984376813439
-0.04330957616354077
-0.028269793585566676
0.021856410531990292
0.11446393562657027
0.048286053137154186
0.012170136475677967
-0.01286745805212492
-0.048785942755313824
-0.11457856455177526
-0.021441813253906
0.029246204599055442
0.04468605017785876
0.0370645331119583
0.019284607243183188
0.0015769197707883426
-0.010170394369164483
-0.01435418110001598
-0.012428661269298633
-0.007256311307054206
-0.0016672807441954032
0.0024219769716929116
0.004272869992790065
0.0041214549798251595
0.002745259068950822
0.0010205473478401641
-0.00038818968606687025
-0.0011583016213957183
-0.0012844135899139771
-0.0009637780523835377
-0.0004604483281216899
1.548334367808788e-06
0.0002933502908094449
0.000386487821291281
0.0003248902940479992
0.00018459971428611848
3.8266554070929866e-05
-6.625784047359843e-05
-0.00011173402339139814
-0.00010566713652426676
-6.887863849461376e-05
-2.412294874573739e-05
1.1717921805372852e-05
3.074192923155335e-05
3.31930706673569e-05
2.439357726308839e-05
1.121926868418614e-05
-6.150758410150939e-07
-7.91132662613555e-06
-1.0060994538967375e-05
-8.283899352264385e-06
-4.576332373275109e-06
-8.033944783904279e-07
1.8344084024123483e-06
2.9314335005263217e-06
2.7114684918412028e-06
1.7267834337070655e-06
5.652801177438644e-07
-3.459167721089174e-07
-8.14600773107851e-07
-8.571421431857476e-07
-6.167810605377845e-07
-2.723673027636963e-07
3.048767445904523e-08
2.1260893614165432e-07
2.615472640227363e-07
2.109553713129944e-07
1.1316268222003036e-07
1.599845887482492e-08
-5.04698406933109e-08
-7.678913692910094e-08
-6.949757718483633e-08
-4.3212818258305774e-08
-1.3106579877784339e-08
1.002976811589052e-08
2.1541495989801148e-08
2.2108227049504213e-08
1.5572912919496598e-08
6.581735984381657e-09
-1.1596836142511267e-09
-5.696362295664319e-09
-6.790625606400952e-09
-5.36552011951666e-09
-2.7906962968598912e-09
-2.912964537591793e-10
1.3810034515944828e-09
2.008499620635707e-09
1.7792387200087772e-09
1.079363754533145e-09
2.999517820390712e-10
-2.867459211229711e-10
-5.685586152745212e-10
-5.695824077638925e-10
-3.9262094513002887e-10
-1.582223952428476e-10
3.942741333337868e-11
1.521926660389773e-10
1.7608514936348756e-10
1.3629416744115228e-10
6.861608584833187e-11
4.396521969385597e-12
-3.7609460067454244e-11
-5.24616508556767e-11
-4.550150358135526e-11
-2.6910417994310438e-11
-6.7572955297280324e-12
8.100001099966584e-12
1.4973898905716784e-11
1.465357452207675e-11
9.88184217487963e-12
3.78207557032099e-12
-1.2558987318666539e-12
-4.051950447113262e-12
-4.559459873743768e-12
-3.4632137507399622e-12
-1.6963810308786111e-12
-5.703142491264167e-14
9.923871063261118e-13
1.3466500574267583e-12
1.158726336268969e-12
6.948603701736599e-13
2.059742962769519e-13
-1.494621566416666e-13
-3.240336642637543e-13
-3.5480314864681144e-13
-3.1456304279321513e-13
-2.6405200800518463e-13
-2.22213422150349e-13
-1.6275306064555895e-13
-3.6120921166557554e-14
1.9204376643245092e-13
5.011290581570269e-13
7.926789058917574e-13
9.011291982563587e-13
6.469312083456321e-13
-7.391590911955212e-14
-1.1892878743282656e-12
-2.3828199684879557e-12
-3.1096256653667865e-12
-2.735168855129587e-12
-7.988848539564432e-13
2.655863528472815e-12
6.809878818925035e-12
1.0021760346686817e-11
1.0160388906507729e-11
5.371848023835936e-12
-4.845336083342893e-12
-1.8607714914838993e-11
-3.1190820216931695e-11
-3.570865418474451e-11
-2.525289113521874e-11
3.71529762262052e-12
4.766534689965196e-11
9.363389821375932e-11
1.2013834084711524e-10
1.0281907959031397e-10
2.4774577884553674e-11
-1.1078031406498115e-10
-2.7042250384458184e-10
-3.894583812119727e-10
-3.8565566756122426e-10
-1.8958903835249642e-10
2.137122240604474e-10
7.457792342233397e-10
1.2191391777180534e-09
1.366436122701174e-09
9.258223302390417e-10
-2.2680121247529571e-10
-1.9366728732985616e-09
-3.6845804031785385e-09
-4.631199887937708e-09
-3.844927342937451e-09
-7.074281496837783e-10
4.599804974099232e-09
1.0720650360419952e-08
1.5110888142700924e-08
1.4602429771752529e-08
6.6024978390647294e-09
-9.29467691659003e-09
-2.9838477708583263e-08
-4.760158589288864e-08
-5.221601354296455e-08
-3.377578377019101e-08
1.201305540357886e-08
7.845889901214789e-08
1.4480597390155335e-07
1.7829988790873545e-07
1.433652288330696e-07
1.750037707750974e-08
-1.9004484623598658e-07
-4.243981416421281e-07
-5.8562611343397e-07
-5.518284358074292e-07
-2.264622978166817e-07
3.9936122834887673e-07
1.1916195280282835e-06
1.8564769734225089e-06
1.9923321193216867e-06
1.2251836896805685e-06
-5.910346923892098e-07
-3.170169808769859e-06
-5.683996762800517e-06
-6.855748239147635e-06
-5.328980960652704e-06
-2.8980932364795967e-07
7.817079943313101e-06
1.6777064055404995e-05
2.2669666743140004e-05
2.0810512947049184e-05
7.6164868501241015e-06
-1.6989236449643085e-05
-4.7504173494024585e-05
-7.231986926836826e-05
-7.589870478125442e-05
-4.415061168254597e-05
2.778267387709062e-05
0.00012777454833421849
0.00022283050297156593
0.00026323487453729593
0.0001973444023178317
-4.082137900295676e-06
-0.0003204726050410619
-0.0006626664158537796
-0.0008770358395616009
-0.0007837507569655888
-0.0002501240908744303
0.000716788855258295
0.0018928692754470067
0.002821979607053634
0.002907102021642808
0.0016244111194230187
-0.0011737787992590948
-0.004965196276993725
-0.008424342116517006
-0.00961231544802706
-0.006592316285031789
0.0015674431777749668
0.01363813725819461
0.02534088664874193
0.029213752832003174
0.01558610701697399
-0.0253748923221189
-0.10111358109903189
-0.014595060925453898
0.03645885833045978
0.058834728452333646
0.062299123292550274
0.05835449533269753
-0.14015025277216783
-0.11907708883064674
-0.06408961037508816
0.036125679449811224
0.1849359866934678
0.17341823180903695
-0.020381010446568777
-0.02674531548495712
-0.07491205431803163
-0.18229376731598365
-0.14662552691427355
0.05551035036599672
0.06275911579190367
0.11759280239955182
0.0534635940098651
0.08488096555314083
0.003461995998709788
-0.019147836987936467
-0.02270494208034721
-0.046887948297414606
-0.1203045456600759
-0.05315464966300377
-0.03569021140500449
-0.04293110532263262
0.15589057927041788
0.1863922083638999
0.060554262787754776
-0.026225829412112104
-0.09178633686255519
-0.15953987323064292
-0.05012945097540944
0.024215799535508096
0.06106091771067006
0.06554647926835881
0.04666789568330326
0.01423614543925832
-0.022281359951021686
-0.05319583052620428
-0.06751642691863477
-0.05288864042491068
0.0024303294660148506
0.10569289568271775
0.05527508757974838
0.03787004423721751
0.02901630502510147
-0.0025068848587457
-0.08739948635408946
-0.04783567360868502
-0.09132685598879046
-0.008559262692001456
0.023975338284336827
0.037372988392389866
0.06191328846287304
0.11962602202199496
0.02022750358885141
-0.038401925575477426
-0.06574595917761059
-0.07228917209535676
-0.06405380424016918
-0.04033920483751423
0.004440484956983277
0.075681512119005
0.17263239190454568
0.08454805430775247
-0.008713253608403242
-0.1312659186129783
-0.1029710399955707
-0.13199676936768037
-0.011537734799646978
0.07783789704297503
0.16133955876066272
0.06168984984090424
-0.007124057016193692
-0.041995245594389885
-0.0487671261521378
-0.03791063617440519
-0.019992843528958002
-0.0025997598079715747
0.010618002318423907
0.019057701065372325
0.023325183398326548
0.02351494505837826
0.01848028446310711
0.006495109267654195
-0.012891034269273452
-0.0365801963157147
-0.05639367012046778
-0.05945023343529925
-0.03113522468714681
0.03964830658015246
0.1544993548366948
0.10132366950167213
0.054435226238623284
-0.019873390477235547
-0.1534198608210603
-0.16520044751446866
-0.05366636384088855
0.004541096851035967
0.04863442317658114
0.12254073576807106
0.062449855355455705
0.0871457678263237
-0.006022477207648189
-0.038747007257744416
-0.04426488801060349
-0.057519344523658616
-0.10614342968697742
-0.00481861562913986
0.04578870100729201
0.055950529200005365
0.04142805782078883
0.01789011420241229
-0.0030439634895694646
-0.015401470421786658
-0.0183449721331426
-0.014392429471753631
-0.007326017579453975
-0.0005170666636989965
0.003985397712859395
0.0056102868131475605
0.00489889657576069
0.00292600925531541
0.0007674206884353208
-0.0008368941637013817
-0.0015908262032163915
-0.00157182205886759
-0.001069741631740084
-0.0004185612367267993
0.00012392530425852903
0.0004284962001281034
0.00048757118872724977
0.0003729005542758445
0.00018405769004592874
7.1725935039278445e-06
-0.00010698733615726576
-0.00014585982108469936
-0.00012497323721679063
-7.278761425819893e-05
-1.7070650381782875e-05
2.3506757264077228e-05
4.185169731839058e-05
4.040885899565348e-05
2.6895427770694195e-05
9.958287476084306e-06
-3.863740683067917e-06
-1.1404659891951822e-05
-1.2619829079654546e-05
-9.453530780403984e-06
-4.502240351986501e-06
3.454584822469259e-08
2.8943741391077003e-06
3.801359128001387e-06
3.189883496367488e-06
1.808292547255587e-06
3.7023486805993073e-07
-6.55128640191896e-07
-1.099630186816052e-06
-1.0379909797955836e-06
-6.753175506095931e-07
-2.3525886412814882e-07
1.1654301751379819e-07
3.028006459067166e-07
3.262321509134855e-07
2.393307136127284e-07
1.0971541571853569e-07
-6.50926158114617e-09
-7.8019371695877e-08
-9.893817457123198e-08
-8.132288149478134e-08
-4.481846620328986e-08
-7.74517303851178e-09
1.8127678160844547e-08
2.884576403824329e-08
2.6632670989985895e-08
1.692761793879262e-08
5.508392840565489e-09
-3.4346514087235302e-09
-8.022251965677469e-09
-8.423464133573548e-09
-6.050677836106324e-09
-2.6625700445108165e-09
3.1147310483802794e-10
2.096139410430108e-09
2.5717366307096007e-09
2.0707317827334754e-09
1.108018939076742e-09
1.5336381660645706e-10
-4.98507193873929e-10
-7.555250369645962e-10
-6.825592815737683e-10
-4.2355267550009197e-10
-1.275956348545371e-10
9.94544678016382e-11
2.1210449722177234e-10
2.1724202618159697e-10
1.5275021354844176e-10
6.431139819017367e-11
-1.1702149141758852e-11
-5.6150795452980674e-11
-6.676688915154625e-11
-5.2665447074809e-11
-2.7321448523237356e-11
-2.7667498913988137e-12
1.3631750243688584e-11
1.9756038901714667e-11
1.7469726815122415e-11
1.0574631427819154e-11
2.9134456831031047e-12
-2.8435230603606267e-12
-5.600450841698451e-12
-5.599456157267185e-12
-3.8537269734244934e-12
-1.5483992017724488e-12
3.9214846881578744e-13
1.4967732518371081e-12
1.7280266327042572e-12
1.3345528606857664e-12
6.68484860437336e-13
3.763315975404273e-14
-3.742191816915251e-13
-5.190744206535385e-13
-4.4981884231282724e-13
-2.6668151328903003e-13
-6.859412359567835e-14
7.718122272734157e-14
1.4439505386191063e-13
1.4093463330608725e-13
9.382987722420796e-14
3.3797634929320803e-14
-1.5687786949712088e-14
-4.3053714881479174e-14
-4.78694564834085e-14
-3.6895631515810754e-14
-1.934538990030466e-14
-3.1214565645643033e-15
7.161121717196558e-15
1.0411471365542005e-14
8.127957694559639e-15
3.0124487772077074e-15
-2.27685430870492e-15
-5.911557293909633e-15
-7.161695821535373e-15
-6.268933624102835e-15
-4.111511789765392e-15
-1.82198566684213e-15
-4.488859010527744e-16
-6.883788047509359e-16
-2.683510822733344e-15
-5.9027966093096286e-15
-9.147980298573635e-15
-1.0768054483349083e-14
-9.137090161924309e-15
-3.3669693944564907e-15
5.916680325356624e-15
1.6057815010117153e-14
2.2514306189759113e-14
1.9986070392356385e-14
4.557740648718921e-15
-2.3596973252128185e-14
-5.79471072953532e-14
-8.514071121005294e-14
-8.762348210699023e-14
-4.984274818278299e-14
3.2935065222843564e-14
1.4601875914800307e-13
2.5126108432959216e-13
2.922439048147348e-13
2.1147512575081558e-13
-2.190419006495756e-14
-3.8145555731239806e-13
-7.632165770025404e-13
-9.91938552727415e-13
-8.660750708274409e-13
-2.418430121143258e-13
8.623916093003578e-13
2.181048868055992e-12
3.188727184411136e-12
3.2083223114535377e-12
1.6566636713266658e-12
-1.613566634018173e-12
-5.988250611277524e-12
-9.952522154317242e-12
-1.1314498912182005e-11
-7.892521123431352e-12
1.4037527265164284e-12
1.5402570594235838e-11
2.993455874285972e-11
3.814755358096361e-11
3.232630002412307e-11
7.1937066055608304e-12
-3.607332068037414e-11
-8.66777792308746e-11
-1.239397298661218e-10
-1.2175139004539643e-10
-5.829304271339425e-11
7.072487807500159e-11
2.3977276679399324e-10
3.887753361468096e-10
4.3266644362701905e-10
2.8880579052550063e-10
-8.088637780129928e-11
-6.25298544688304e-10
-1.1775472431143441e-09
-1.4700226817899026e-09
-1.2078071117000484e-09
-1.9816535405863e-10
1.4951618133946188e-09
3.4345036941461454e-09
4.80691135990997e-09
4.606970777939959e-09
2.0205767014976943e-09
-3.06281968127711e-09
-9.58736428983349e-09
-1.5174128149418172e-08
-1.6525533844789788e-08
-1.0517250539221303e-08
4.161520407483203e-09
2.530942936502393e-08
4.6259284468091604e-08
5.657165364027264e-08
4.499008436967095e-08
4.514267398000474e-09
-6.1679684137081e-08
-1.3589777093344892e-07
-1.862214060279441e-07
-1.7398109232969978e-07
-6.889502742124545e-08
1.3113898702646568e-07
3.8265122745972777e-07
5.915713750170965e-07
6.302179520046168e-07
3.807131536610299e-07
-2.0123443716211166e-07
-1.0217904015660166e-06
-1.8150653027865301e-06
-2.174283845957554e-06
-1.6704767372245007e-06
-5.100258979678056e-08
2.5335995506671007e-06
5.3697802053446415e-06
7.205841112791668e-06
6.556437009845325e-06
2.2989652437926993e-06
-5.562647847128083e-06
-1.5246009528876248e-05
-2.3036379613219993e-05
-2.399576844936989e-05
-1.3686457055331461e-05
9.351641292936158e-06
4.11531148777188e-05
7.113215680052713e-05
8.345676743194327e-05
6.180600831692569e-05
-2.8705286699636008e-06
-0.00010367247268813911
-0.00021189099565780667
-0.0002784988096714663
-0.0002465184121025519
-7.44874457706867e-05
0.00023410171743356773
0.0006064286631102487
0.0008959897827369975
0.000912026366064051
0.0004878419053607634
-0.0004230862257291946
-0.0016544306134528787
-0.0027854314742023372
-0.003200537887620689
-0.0022795934429800683
0.0002994658171042566
0.00422940826483858
0.008360902821122243
0.010782048819536151
0.009321157237455493
0.002471058837705664
-0.00947599687202157
-0.023521534062339516
-0.03386684632155794
-0.033163664366097224
-0.015304041651127736
0.020670848049468057
0.06670588923415835
0.10364437007945385
0.10266524637472052
0.031141274997042275
-0.13791141774923016
-0.21569831474830403
-0.19109528196849743
-0.031461274118306334
0.10810215494320616
0.26987133682099235
0.27896600124320975
0.1356264515528156
-0.1820158328091587
-0.3059585238007444
-0.26302192191796325
-0.06366031957987528
0.10014544456681539
0.2480160007918305
0.20012623968642596
0.1686194728324839
-0.04365047890391931
-0.2364211906991236
-0.20121867600412524
-0.11277348321855933
-0.12825563462675063
0.0035341924226043446
0.3254203584900536
0.2537081748434085
0.1662041777217397
0.002136268385236668
-0.12489160978185877
-0.30511802864215737
-0.20980449997122264
-0.07539952400692719
0.10040727908407661
0.15075569353670795
0.12419348087038193
0.06809196728322275
0.016377091079019062
-0.015561549167521857
-0.02880966357949404
-0.03383910488481845
-0.04147754350029391
-0.05501539043909394
-0.06586712771708826
-0.05412805497919289
0.006007131389459835
0.13753614698851332
0.1515606393805864
0.041216499053173816
-0.018887286273716396
-0.06737925041320886
-0.14701299721729794
-0.09512585115301848
0.06321689541693115
0.11795998392216148
0.07331483742967111
-0.0546469801445518
-0.04056889405385947
-0.0523117414007763
-0.0541274254628069
-0.011224510661586645
0.10445673483520924
0.10858030375558143
0.0008095222163760528
-0.035188230318799765
-0.027881290512737345
-0.011337742530535117
-0.01794605795513571
-0.07224421969977686
0.012865825833905924
0.037000942491108454
0.010545873774255973
-0.04886035987474707
0.07948274605651594
0.015423637861388024
-0.024985764530920343
-0.031134514436536236
0.0017179121150384532
0.07288131539082868
-0.022780457715769187
-0.09355695629842933
0.050394240711083546
-0.002069708197341309
-0.06278758109380844
0.05564374134668523
0.14007687569145427
-0.021974247135297127
-0.03975053637894658
-0.11584652229674333
-0.04352572487153907
-0.006477300050421365
0.018186615122218114
0.05440813627656892
0.12109049639974905
0.027754339335302556
-0.026402370527312907
-0.049812581799010644
-0.053516261220894555
-0.045978507326763396
-0.029782751328273262
-0.0012769584681709444
0.047029229992848864
0.12263629121057519
0.029652936375130567
-0.03266361771085384
-0.06906875301417942
-0.08620360757264417
-0.09089613037229197
0.10985573844955104
0.10735484170347837
0.089696994822382
0.04227913727615448
-0.048727197894058355
-0.19097397373443048
-0.18136336154845992
-0.005338926244117265
0.1585651069976362
0.13037945736544082
0.12038623908166782
0.1249860292201252
-0.0710608163283756
-0.2870051951522692
-0.13687685617431214
-0.023335963754020504
0.06237253173039703
0.134717009113213
0.20586582997877687
0.07989008577665405
-0.04762660279937366
-0.18437255886185602
-0.13338250510938074
-0.08683624863339512
-0.025179173583059312
0.07751857029123174
0.2441347486360818
0.08518418578751163
-0.006187236835498416
-0.0527386937176523
-0.08601532798718768
-0.13673260847156168
-0.026479404805851692
0.03649379465595026
0.05665647299435332
0.0469659360565621
0.023271189657314808
-0.0005434536186773895
-0.015484406412107393
-0.018282358648625666
-0.010653227446094034
0.002293867357996336
0.0139459721565816
0.01810703194822188
0.010871523198418154
-0.007664115190659078
-0.03219959653760519
-0.0521458741790099
-0.053310832646088005
-0.02163427629188991
0.05158814407649152
0.16461787080990986
0.10268835820011057
0.040021911374939996
-0.05304400014149736
-0.19974508263794546
-0.20737643213655224
-0.06296570297871885
0.06329891538230432
0.20773522011237178
0.20008868094048393
0.05323426763251782
-0.0401916030223091
-0.10340017290699094
-0.1658957191629467
-0.0531741892593984
0.02032347334053285
0.053083031865173755
0.0537571303597853
0.03594291572828158
0.012950464719064473
-0.005736081829185231
-0.015724179818691605
-0.017061979884932868
-0.012519311914503284
-0.005692373030906268
0.0004330996800522346
0.004191700517345347
0.005272414654418764
0.004316917887813764
0.002368374189044178
0.0003977900947914713
-0.0009728600559175145
-0.0015367457844345696
-0.0014144015282122877
-0.0008960104291617733
-0.00028865820990422347
0.00018561265243698693
0.0004278019851090359
0.00044763299216984596
0.0003205912324420198
0.0001402354871382362
-1.7612874224203273e-05
-0.00011199798765165692
-0.00013679540705112975
-0.00010982939400114758
-5.851930226819914e-05
-7.805560042456358e-06
2.671700294905952e-05
4.0229753923372615e-05
3.623515290735824e-05
2.2408582275027032e-05
6.6724144505293e-06
-5.3650955584426135e-06
-1.1308721482855858e-05
-1.1543137760719273e-05
-8.092018892102436e-06
-3.385065425560622e-06
6.48755828564973e-07
2.998812455544343e-06
3.550678639453314e-06
2.792674111460694e-06
1.4422286144347962e-06
1.380258946343429e-07
-7.30233738086163e-07
-1.0519098923302231e-06
-9.274346922142302e-07
-5.594767467229001e-07
-1.521964422900121e-07
1.5296431571493162e-07
2.9835321132938737e-07
2.9731230657187944e-07
2.039441671763924e-07
8.127155864950894e-08
-2.1690693737989185e-08
-8.007519754814257e-08
-9.204786149614132e-08
-7.092057364442104e-08
-3.5437686430175504e-08
-1.9359187563846234e-09
1.9865616896648872e-08
2.746569011602098e-08
2.3710051554081108e-08
1.3940316980272137e-08
3.411681574259592e-09
-4.3140442829578045e-09
-7.85718327440571e-09
-7.6489967016602e-09
-5.132118769427242e-09
-1.9392686191946765e-09
6.856837299757075e-10
2.132778399302427e-09
2.38335600299643e-09
1.7987143817122053e-09
8.679032220669485e-10
8.307667528081501e-12
-5.381833394623169e-10
-7.161512049194126e-10
-6.054452682582215e-10
-3.466050821634579e-10
-7.474746166355298e-11
1.2057477973256563e-10
2.065637377129016e-10
1.9655971336817923e-10
1.2893656471538835e-10
4.5941917215199386e-11
-2.0899337794796888e-11
-5.667713687251628e-11
-6.164344392206624e-11
-4.556512774225874e-11
-2.1183923887933698e-11
8.491632963489766e-13
1.4526913280756598e-11
1.8653107204565402e-11
1.5448155344828944e-11
8.601696251935409e-12
1.5827868437199704e-12
-3.3598367682684233e-12
-5.449209364841781e-12
-5.0801421112514866e-12
-3.2646212261469503e-12
-1.0899601846221622e-12
6.453208970589114e-13
1.5696118497371521e-12
1.6913438549457134e-12
1.2519637818310992e-12
5.644176730798966e-13
-1.0442773123818437e-13
-5.859722655882506e-13
-8.068212818163345e-13
-7.58196142078046e-13
-4.671879587849203e-13
1.1793709601021886e-14
5.844825130296253e-13
1.0989047167257802e-12
1.3472607437241654e-12
1.1097802743851018e-12
2.4654499604598725e-13
-1.1832589404269034e-12
-2.823691781199492e-12
-4.0128666092291535e-12
-3.922347550949535e-12
-1.864403673972032e-12
2.28730565679108e-12
7.706752552526786e-12
1.2466107793307891e-11
1.3843177495739438e-11
9.200124319401095e-12
-2.6679390621114314e-12
-2.0106777095122826e-11
-3.775766430573106e-11
-4.704704857681516e-11
-3.8545114635970514e-11
-6.115744696823516e-12
4.814760693579101e-11
1.1017660954665143e-10
1.5391028028412268e-10
1.47177177671755e-10
6.400327674596849e-11
-9.899037134914411e-11
-3.078074712485721e-10
-4.861366382906913e-10
-5.283979894038134e-10
-3.347864721941739e-10
1.361904785195655e-10
8.134182453069168e-10
1.4828608974860826e-09
1.8100860643299904e-09
1.4351975414691737e-09
1.3541878314387658e-10
-1.9855301986325207e-09
-4.359039241625102e-09
-5.9619929612865305e-09
-5.557171982068406e-09
-2.178704898616709e-09
4.2344336860343484e-09
1.2283148046843833e-08
1.8950221989328727e-08
2.0148051433736885e-08
1.2111804885944685e-08
-6.557850863324061e-09
-3.283212496752125e-08
-5.8176526134363764e-08
-6.956113835440738e-08
-5.327272029466364e-08
-1.2762206747436155e-09
8.152960257623693e-08
1.722191969467676e-07
2.3067504067802757e-07
2.093795465311755e-07
7.253737892463422e-08
-1.794799854708214e-07
-4.893249895117297e-07
-7.378652478011692e-07
-7.670323571034818e-07
-4.351212533259545e-07
3.0387712613524384e-07
1.3220568002570453e-06
2.279685490478727e-06
2.6696804107374564e-06
1.9703726052508482e-06
-1.0587122133454513e-07
-3.3350561462606032e-06
-6.794982963610899e-06
-8.914465514850297e-06
-7.870947962178674e-06
-2.3427909286672396e-06
7.548653298528857e-06
1.946128925078869e-05
2.8697519481784707e-05
2.9152103109089993e-05
1.5503893917276343e-05
-1.3706685891528163e-05
-5.311696704093945e-05
-8.922502590494248e-05
-0.00010231944808609089
-7.258939741677502e-05
1.0169729463464958e-05
0.00013595110617057126
0.0002677359112359429
0.00034405698153597156
0.0002950983781808053
7.225336906624671e-05
-0.0003156136081831838
-0.0007731782560864193
-0.0011154433402943698
-0.00110683347810832
-0.000547863259939934
0.000605766237645903
0.0021315937147838256
0.003495827872400869
0.0039368224969875765
0.0027099982515343
-0.0005326321506998497
-0.005337451856238868
-0.010204785853683899
-0.012722362980987853
-0.010239163868342623
-0.0010802267210664772
0.013945016429244141
0.03024605025061992
0.039013922587584925
0.028182108446139106
-0.015111989761843112
-0.10114884095687456
-0.034550315678649406
-0.01286588983427782
-0.027574559377628233
0.13288463285682817
0.07950783614384677
0.02036541652935456
-0.039361679018238345
-0.09523970890574991
-0.1410209709151442
0.03222725092526027
0.03410677127025873
0.07055067764953225
0.1392940295132362
0.027727624943519064
-0.085213613873535
-0.023264841402406092
-0.004993230179283378
-0.03656300310619807
-0.1075407497770846
0.008640954972266874
-0.05097342859367905
-0.048958163900222944
0.04011524013409008
0.21843865707076432
0.2590349749712335
0.10885246534595983
-0.0977371792094982
-0.21767533127889518
-0.27684883124733667
-0.25507795426972946
-0.08520868129275391
0.13173304124287785
0.2993913986483782
0.29578654636451096
0.15016403649690305
0.03464722198907118
-0.12718215812233674
-0.2386557748673189
-0.20328482485168772
-0.10162153042523253
0.022059932909728738
0.1614182540968345
0.14046029560138526
0.0015369855674173228
-0.00639715956558572
-0.0365213825823228
-0.04938422776709631
-0.01547731655976721
0.08383662463168705
0.056529602289996594
-0.0988048954492582
0.00929133160992503
-0.03225081889336957
-0.03892215916901785
-0.027613670235067875
0.18343225189346105
-0.025510396964577454
-0.07496213484529861
0.015785933570565115
0.0317262968087471
-0.03456127018652304
0.019898029118571088
0.010212861459840825
-0.03623402772665679
-0.08179918738536995
-0.08320307198365035
0.0012550638320522136
0.20295016038630187
0.1349787608488903
-0.012113966916329034
-0.06901595948969849
-0.08104363733970293
-0.09863580753541855
0.031994612490987256
0.07587047592921758
0.01330677976055868
0.041550385655044715
-0.025312350260752802
-0.15813789595630895
-0.11683170901305248
0.14267504939795772
0.059194283533492376
0.05704585647662427
0.13995788027139824
0.09062324453883745
-0.12346575051872269
-0.139699940322655
-0.18933398313505176
-0.09003862575485719
0.15529493471448955
0.1538872300006508
0.1157869975109626
0.04818050018558828
-0.04592452518520623
-0.1646652698729475
-0.10246918829721167
-0.046809827613105356
0.02103033048615485
0.12108280326743834
0.06785235676360826
0.06475246717893231
0.1025699923738421
-0.03699663104977624
-0.17387645789840306
-0.12126149278067895
-0.08006637091254082
-0.03892384568525903
0.22004554640774845
0.1121937845198075
0.04209705474529145
-0.0003079067839185861
-0.03775355293858981
-0.09890640738409107
-0.009566513773538305
0.01521913810439091
-0.024095827582431024
-0.11105430971824357
-0.017055190760385988
0.09118257142113233
0.04228484058415555
0.0516050420215434
0.11605724097595028
0.014275370330729682
-0.08762089571937973
-0.026169130182334497
-0.029500152984893998
-0.10837218933763627
-0.05200711420576268
-0.03012941179391227
-0.0009288835173196331
0.07711372130788495
0.23305186301329767
0.07499349130013562
-0.011549447991897693
-0.057705775953118134
-0.09984275791542292
-0.16701123433888093
-0.07191752833219717
-0.008673321132260726
0.04204702297935076
0.10263786352616942
0.18716070658789047
0.09350383141470457
0.0023623176918310816
-0.11638008286320228
-0.09228755665924586
-0.14246266134198568
-0.06367505665669067
-0.031436696037267245
0.19377578865847817
0.05557527153842021
-0.01010951955710811
0.01604485634963575
0.1328925615673391
-0.07953235834928078
-0.053819348208772586
-0.026445182858353764
-0.029047195045567322
-0.08203492480111318
0.008040650419044433
0.04716164195646768
0.04953884715851963
0.032103308014242875
0.009669986787073214
-0.00796373952199086
-0.01667073743219169
-0.016890429215001578
-0.011657236234613767
-0.004627523958920545
0.001319734313240801
0.004705600717008831
0.005399969768321209
0.0041655742778712755
0.0020904580961380475
0.00012770526518294544
-0.0011532530358520819
-0.0016039659302910755
-0.0013890266225844272
-0.0008199834986251827
-0.0002043214641474573
0.0002488819439964222
0.0004579933784402516
0.00044746864426005613
0.0003012642300028582
0.00011480665299479456
-3.8974947766230585e-05
-0.00012412639661384922
-0.0001392996669361793
-0.00010546327047762332
-5.116748629208859e-05
-8.57036863519335e-07
3.124364839269159e-05
4.1812481018534024e-05
3.5461627706611954e-05
2.0385377697188797e-05
4.489380228791793e-06
-6.96853245831336e-06
-1.2045431293732538e-05
-1.150171045732564e-05
-7.571151975214908e-06
-2.7232579504389574e-06
1.1933734921186327e-06
3.299453954498293e-06
3.603199288858874e-06
2.671821788347447e-06
1.2493612958145134e-06
-4.026718939390899e-08
-8.437088360069581e-07
-1.0889877239498362e-06
-9.04611202176099e-07
-5.058683100366076e-07
-9.582564588133178e-08
1.9350512027505362e-07
3.162361149139394e-07
2.9528233437955523e-07
1.8994754283234204e-07
6.406767173300941e-08
-3.5559331829357875e-08
-8.750890122548711e-08
-9.309191519692766e-08
-6.759608550760237e-08
-3.0385712121118306e-08
2.633769349214081e-09
2.27051991625159e-08
2.832511353136468e-08
2.3048561629677053e-08
1.2522755520469306e-08
1.9577559414992688e-09
-5.3376080472683745e-09
-8.28926724230924e-09
-7.57209371232369e-09
-4.757140288255607e-09
-1.4926140169238115e-09
1.0384123485680528e-09
2.3160866562381824e-09
2.40230524218812e-09
1.7077584312175358e-09
7.357683762742386e-10
-1.0867963114615187e-10
-6.091065317105487e-10
-7.358121329322935e-10
-5.865397503472002e-10
-3.091923061654567e-10
-3.7290769311637755e-11
1.463791355257452e-10
2.1694852942742912e-10
1.9394951573198512e-10
1.1891781650998197e-10
3.435980542886711e-11
-2.98585402695821e-11
-6.118228168119198e-11
-6.192479378313756e-11
-4.3085841570488e-11
-1.7731400317013096e-11
3.839485727154494e-12
1.629002008062462e-11
1.9087361436792962e-11
1.490447080168574e-11
7.609247776162764e-12
6.195669419292003e-13
-3.9972252559062336e-12
-5.672964967152869e-12
-4.965247426710955e-12
-2.9701074011999663e-12
-7.825003637603297e-13
8.447354991934511e-13
1.6099867467278185e-12
1.5911985042830153e-12
1.0821732631985036e-12
4.216815851298348e-13
-1.286883038015535e-13
-4.3775322399112735e-13
-4.977493316473125e-13
-3.8142920477683946e-13
-1.8981078174033978e-13
-1.030317159524893e-14
1.0554692433795023e-13
1.4495820571577534e-13
1.23671476223675e-13
