0
1.4296174051331976e-05
0.006015993285967364
0.003407349176654923
-0.013529559990709254
-0.04548532149591931
-0.08745329875253191
0.07003352716822313
0.037937793964661806
0.025000120880008043
0.03471560969426459
0.06422921314083975
-0.09443763069801668
-0.05141326434824989
-0.015570482123652672
0.007912245795495862
0.018251072073147363
0.018150553609887776
0.012038668012264539
0.004292894925222344
-0.0019612800575103924
-0.005284159050059617
-0.0057096324884173405
-0.004173356811101902
-0.0018812123920001452
0.00016903676701302648
0.0014231149949421663
0.0017799957349729724
0.0014565328040464544
0.0008027235607335707
0.0001434047579402904
-0.00031397000212929056
-0.0005010090453695333
-0.00045869088396466925
-0.00028444578536565525
-8.10544510980629e-05
7.736160341971902e-05
0.00015792603609254778
0.00016411143839982145
0.00012130723327117459
6.0853763384977954e-05
8.08432225407471e-06
-2.3368057879172853e-05
-3.152455942568967e-05
-2.2397416248261075e-05
-5.180307857543135e-06
1.1786901860074129e-05
2.3305179918711102e-05
2.7784012041053478e-05
2.641209712337874e-05
2.176598349993034e-05
1.649693226397654e-05
1.2476747428627671e-05
1.0500364095367402e-05
1.0433459564721576e-05
1.1595618819500697e-05
1.3173063662232543e-05
1.4521388495675358e-05
1.530429833508979e-05
1.5485317033676528e-05
1.522904964043299e-05
1.4776005048217853e-05
1.4339722684025769e-05
1.4050090338709118e-05
1.394356386066195e-05
1.3986113225823844e-05
1.4109720688954518e-05
1.4246072813234465e-05
1.4347970928511572e-05
1.4396294239030929e-05
1.4395650258456374e-05
1.436422358269667e-05
1.4323119136088583e-05
1.4288708597380558e-05
1.4269263632567472e-05
1.4265351400108193e-05
1.4272487263271513e-05
1.4284388542008083e-05
1.429559396349093e-05
1.4302864954484015e-05
1.4305379199279296e-05
1.430409966093369e-05
1.4300818641330941e-05
1.4297294312019158e-05
1.4294715006479514e-05
1.429353794702455e-05
1.4293615180055323e-05
1.4294461969381705e-05
1.4295531636441307e-05
1.4296408777570519e-05
1.4296890585224526e-05
1.429697201020624e-05
1.4296774707164605e-05
1.4296462566182332e-05
1.4296175096255237e-05
1.4295992877076542e-05
1.4295934074691536e-05
1.4295971698975324e-05
1.4296058603947445e-05
1.4296149591547737e-05
1.429621479014206e-05
1.4296243340453939e-05
1.4296239799261767e-05
1.4296217056762106e-05
1.4296189256539719e-05
1.429616692491923e-05
1.4296155017069185e-05
1.4296153417922238e-05
1.4296158840153073e-05
1.429616701429218e-05
1.4296174380754147e-05
1.4296178939093128e-05
1.4296180299186134e-05
1.429617921148567e-05
1.4296176914136586e-05
1.4296174567796055e-05
1.4296172922176192e-05
1.429617223317868e-05
1.4296172364423409e-05
1.4296172973794274e-05
1.4296173695623177e-05
1.429617426332917e-05
1.4296174556168348e-05
1.4296174583409478e-05
1.4296174433850205e-05
1.4296174219109313e-05
1.4296174030590382e-05
1.4296173918418878e-05
1.4296173890764572e-05
1.4296173926247097e-05
1.4296173990831606e-05
1.4296174052506786e-05
1.42961740902938e-05
1.4296174097176904e-05
1.4296174078446216e-05
1.4296174047511002e-05
1.4296174020846847e-05
1.4296174013004696e-05
1.429617403210191e-05
1.429617407622619e-05
1.4296174131631923e-05
1.4296174174089626e-05
1.429617417470268e-05
1.4296174110474309e-05
1.4296173977815373e-05
1.429617380453743e-05
1.4296173653789063e-05
1.429617361333332e-05
1.4296173766804151e-05
1.4296174150456068e-05
1.4296174708136165e-05
1.4296175265540057e-05
1.4296175547607858e-05
1.4296175255556866e-05
1.4296174200257492e-05
1.4296172458978938e-05
1.4296170491857802e-05
1.4296169137327245e-05
1.429616941849953e-05
1.4296172146176854e-05
1.4296177396074218e-05
1.4296184044864814e-05
1.4296189627829623e-05
1.4296190774933169e-05
1.429618434615941e-05
1.4296169112470536e-05
1.4296147470681784e-05
1.4296126366818642e-05
1.4296116513488109e-05
1.4296129296749964e-05
1.4296171555751774e-05
1.4296239573104627e-05
1.4296314779542062e-05
1.429636428470827e-05
1.4296348773728577e-05
1.4296238153315152e-05
1.4296031734788964e-05
1.4295775640819198e-05
1.4295567246077187e-05
1.4295536937450693e-05
1.4295803018291534e-05
1.4296406392680524e-05
1.4297245482205414e-05
1.4298043584423235e-05
1.4298383589518772e-05
1.429783204293355e-05
1.4296143272781294e-05
1.4293489456373557e-05
1.4290618300686546e-05
1.4288818613811043e-05
1.4289599228382876e-05
1.4294073130061638e-05
1.4302179195789637e-05
1.4312030827272517e-05
1.4319786139051058e-05
1.4320406401329885e-05
1.4309444533523134e-05
1.4285580119231777e-05
1.4253084944634438e-05
1.4222963671076817e-05
1.4211438504167317e-05
1.4234983015681977e-05
1.4302349563887157e-05
1.4405774338114793e-05
1.4515217011668681e-05
1.4580235189220102e-05
1.4543001357761832e-05
1.4362514801729094e-05
1.4044574307576166e-05
1.366608429623002e-05
1.337842681837375e-05
1.3376086808924788e-05
1.3825824569332548e-05
1.476840097454227e-05
1.6025355788094688e-05
1.7159713433741554e-05
1.754128231221903e-05
1.6545076289677068e-05
1.3862340819300906e-05
9.836263500914519e-06
5.671252332607295e-06
3.339260246156183e-06
5.0534772156470925e-06
1.2317650948164487e-05
2.477323020125907e-05
3.9295129847104554e-05
4.992604921067494e-05
4.916843518961476e-05
3.078540591224227e-05
-6.393864958225076e-06
-5.495664821189445e-05
-9.757763262315856e-05
-0.00010980360581296856
-6.7967237547514e-05
3.869297746873651e-05
0.0001952381203524838
0.00035347334889551923
0.0004363958338353958
0.0003594211770828919
6.766626293852393e-05
-0.0004197652683887111
-0.0009762542238593527
-0.0013676585342836578
-0.0013052826029621648
-0.0005564573830218037
0.0009083465797191589
0.002783205290872535
0.0043830836342003965
0.004761896853809715
0.0030280859182979436
-0.0011830792000301115
-0.007222305953451199
-0.013156130457577447
-0.015974465968540633
-0.012454662629377345
-0.0006456705235197676
0.018382522539277944
0.03920156360592987
0.05194501343161727
0.0441726298758707
0.004773100723562562
-0.07096296661980804
-0.17698508098898158
-0.09522343099484233
0.0008220549462061343
0.13781286138341275
0.13226431946632078
0.18249750646936796
0.06688163317701572
-0.04990494521798623
-0.2042888088870935
-0.21962068323895392
-0.09628965833509989
-0.01055443207036698
0.07704369560651834
0.20684146629296338
0.20463523471793252
0.07179826383119293
-0.015189133801116337
-0.09574025512916054
-0.21042590570239517
-0.18640518129147524
-0.028633866299921092
0.08012939230018477
0.17124675930820507
0.07794739037855884
0.02393040971006118
0.016742952019104362
0.04746841073885618
-0.10409466920804249
-0.06117475802261439
-0.04176730784340686
-0.053174985067330933
-0.09103191894148473
0.057135005866945573
0.20546107104938074
0.16334192480971413
-0.06788292442527984
-0.0936667060842855
-0.12151844282755793
-0.155911552997869
0.003965957412731413
0.1622949819543749
0.12186915107643259
0.07967712554848536
0.025940905869751566
-0.0521802168106535
-0.16361483351270947
-0.10644089173170017
-0.06460982475685288
-0.010530413479283858
0.08685706473168515
0.25146443875039914
0.09127541918161873
-0.004708249626765225
-0.0622891957675886
-0.11237942755734483
-0.17994474691713375
-0.0762861047154292
0.0021244738011847826
0.06784779882996113
0.13231208914391285
0.19583144082371176
0.042487312296095064
0.042756834540291375
-0.03630763677431513
-0.21677610060991692
-0.2970220525257575
-0.046174109657764
-0.009376936379304052
0.0767491516566996
0.2634751753069665
0.37192558844207524
0.18521729638718834
-0.14505418304148426
-0.279573051628412
-0.2666891644207427
-0.3227170610219567
-0.2258040413178315
0.2735389836664204
0.4293940320329431
0.47491934484628334
0.005962103044619099
-0.01862447376808088
-0.2601555003825027
-0.3744511531992083
-0.388644325300589
0.10972537813377888
0.16718900733589706
0.24544627796178883
0.1974277782848463
0.04775924994022339
-0.01583428330690966
-0.03841165466777656
-0.08350778747209837
-0.013650191535009914
-0.07128029401601861
-0.06490105655669616
-0.1638676646584086
-0.1034972615398241
-3.519759786446848e-06
0.2279057277421168
0.23654246657141323
0.24091973507983977
0.01037064090093227
-0.12205339707278376
-0.23964340228823125
-0.21869300429306268
-0.10979978653075236
0.07056681757657042
0.13705035853436467
0.12408453295890236
0.07173260091642043
0.013865623702482167
-0.028320067455773673
-0.04710012970079147
-0.044953420352773076
-0.029632894256069412
-0.00970683241614487
0.00819548042461387
0.020223590663559762
0.024798133022028383
0.021665421848226375
0.011324720984588943
-0.004783613011631457
-0.023494404219085715
-0.03917529955978817
-0.043859464318812685
-0.02887938137826624
0.011998518871632276
0.0788297640686146
0.16282968521510718
0.04667622660047728
-0.09119764076143967
-0.06911273043514941
-0.09414306215332423
-0.15712808027433364
-0.03342872629641497
0.10996448981933224
0.10300103205647418
0.16092175699493524
0.07699542492383857
0.02281336346964456
-0.04346527727725301
-0.16352186963052487
-0.16462094656581208
-0.04973620667752106
0.004429255132157206
0.04087525782002864
0.10950097315353531
0.0522760635605114
0.09091705468799506
0.02053410198199805
0.010830041351975617
0.014360893952885274
-0.020401107531019157
-0.13465550134847862
-0.1474612798768607
-0.05007793914344211
-0.008504496246777401
0.0261941751591005
0.10279831792801558
0.25488903529066936
0.09092392716210095
-0.007014153495922938
-0.07529309875967027
-0.15465181524813906
-0.2754315798354436
-0.04780699279172139
0.13948066472906817
0.11208609628195672
0.09836986530659264
0.11817990554211617
-0.023766079253472166
-0.13830795970596177
-0.0471251715215768
0.0245378660837
0.055123068154645065
0.032436298607521785
-0.04286310952123203
-0.15640466038326498
-0.08258068565344198
0.009184846597831914
0.14519495723289141
0.13795710526476077
0.18025903556923234
0.04612546644813283
-0.10056001210426375
-0.29240131991043317
-0.14513116143039134
-0.050286636096384035
0.022699342953761706
0.11564289132245491
0.26634332078146833
0.09498167092587344
-0.0026055456792885333
-0.05254822267446876
-0.09294994571587362
-0.16055411863931418
-0.07916590992511238
-0.05377048145404155
0.1281976844627917
0.08979551449218943
0.055096974404521507
0.04109053966357296
0.053577848849064275
-0.11224918386732154
-0.06771372819043611
-0.025287851401765284
0.005791940997729411
0.021619728159980776
0.02338553823924818
0.0156536485181881
0.004215026361880719
-0.005704136253678255
-0.010552322081685607
-0.008929597990467893
-0.0016432878554169155
0.008491243676608667
0.01709439587334367
0.01902818829376993
0.009661705269502531
-0.013519057852914504
-0.049409900322661085
-0.0926189280784835
0.06571403691170205
0.0355147926816904
0.024541393755590807
0.035647775660806874
0.06575346781218365
-0.09301259332614085
-0.050494530234565314
-0.015258051999977321
0.007743933363698978
0.017831082942456614
0.017701915940787974
0.011711015758205785
0.004142901994419547
-0.0019530799050107815
-0.00517881793971318
-0.005574944639353542
-0.004059952483075188
-0.001813311873060346
0.00019052023456386967
0.0014106801842615664
0.001748858983428158
0.0014175387190010322
0.0007607155696010646
0.00010035270063502176
-0.0003536794614152104
-0.0005265510605170667
-0.00045310279323343113
-0.00023073508553814613
2.6891518509385104e-05
0.00022290558276632773
0.00029493155089571507
0.00022186254865118145
2.5276727499527647e-05
-0.00023209754075032433
-0.00045327528365558
-0.0005248276310748153
-0.0003499768778736817
0.00010518087569956158
0.000764814848669544
0.0014184086091872997
0.0017442020131904672
0.0013996271188496012
0.00017485985687681988
-0.0018284922218395152
-0.004066869354894638
-0.005565389377469749
-0.005147948954839145
-0.001903754747318391
0.004197073055957982
0.01174613990123323
0.017689625168130742
0.017749915500536492
0.007593916892054958
-0.015442942859993465
-0.0506434140615391
-0.09303119112165008
0.065949952840111
0.03608736776447093
0.025148583931942834
0.036087657112343186
0.0659503657872892
-0.0930309325013655
-0.05064359894480213
-0.015443740376458941
0.007592586107154543
0.017748454921179383
0.017688728239230015
0.011746604336024005
0.00419946684335478
-0.0018995006646450674
-0.005142867696067482
-0.0055615207994379546
-0.004066834383722885
-0.0018345371407607891
0.00016218665067475795
0.0013827284177926084
0.0017289581402799546
0.0014132962337396215
0.0007782358254894415
0.00014127839297645706
-0.00029583133907516804
-0.0004688438661865581
-0.00042197737055946736
-0.0002552386104633937
-7.249662779797072e-05
5.432412383766526e-05
9.970351841959952e-05
8.013386065582693e-05
3.739394811270944e-05
1.684708596013219e-05
4.717889390860513e-05
0.00012658841963153017
0.00021919197490000977
0.00026404340690650317
0.00019694970479733988
-1.8455902295351796e-05
-0.0003588976730784472
-0.0007221272808033137
-0.000935087661925934
-0.0008004482595569166
-0.00018056594081346524
0.0009004973682193004
0.00217615217794304
0.0031292693313119866
0.0031028724929992417
0.0015438143639234698
-0.0016633668871934566
-0.005884534245008289
-0.009612754549826592
-0.010705382203657215
-0.0070770921258307955
0.0022206897393229974
0.015827273042511015
0.029304907362614926
0.03534544931633563
0.02534882452245277
-0.007696597313969726
-0.0657836676013324
-0.14329165391763488
-0.026768161065896297
0.10207799743290683
0.060818778274892786
0.06029406433689471
0.10072359098250115
-0.02834238505229084
-0.14423824622475798
-0.06527682559982219
-0.005274811270129566
0.02943273527594562
0.039903527092280094
0.032292782677418926
0.014859754759471221
-0.004464730704585988
-0.01941014894926249
-0.025770312267698665
-0.02144626782511661
-0.006667681787959207
0.015437807677480648
0.038266400688068726
0.05187477971394606
0.044574780333545436
0.006252781114084459
-0.06722526124471484
-0.17016734055466876
-0.08593722681371725
0.009825023309897629
0.14181897989671682
0.12599370234678103
0.16265562558986815
0.03525847052312909
-0.0839324209662191
-0.22326130789884888
-0.2006381654229526
-0.016935155398442533
0.14329756656933398
0.10444282755660118
0.08943977543804156
0.11104140855750681
-0.03201354319215139
-0.1532103898754226
-0.07260627936025406
-0.010334255493268867
0.018118248981296537
0.003828209114193684
0.1441995018340284
0.04207395887388121
-0.09453885113767158
-0.0519237621287161
-0.010359519278898468
-0.14563302789987867
-0.03337736677760635
0.14417080347267888
0.1910818563920614
0.09353670703939665
0.021388072036178648
-0.06382133370533268
-0.19672367315374734
-0.19651322963386156
-0.060804215624646094
0.03207463679564017
0.11287914992832708
0.20731329915360489
0.12373232667327635
0.04785659485750614
-0.05301915585578473
-0.01742310607651892
-0.07286894203799173
-0.22052691584047543
-0.22704639336686175
-0.02746425890923115
0.060086928301369344
0.11129095409147319
0.3712116835673836
0.23699697797412875
0.054590522710424076
-0.06816994101694279
-0.23558625890407056
-0.3337369045092044
-0.20607019674314866
-0.04329019158367789
0.009260326879702244
0.22975654992230934
0.29162368051938753
0.23891073508531718
0.07381205691735981
-0.03975067784891816
-0.15853006640635603
-0.3354670397123832
-0.19780755111300236
-0.13614561453573798
0.09155437680884787
0.1426996747539838
0.266408906022427
0.2827394772908141
0.17306333268199883
-0.11430831914140775
-0.24504296781366602
-0.27344984931748184
-0.2206949745121881
-0.06496724985127678
0.052743564280173766
0.2095525736925537
0.2753569689965612
0.090301434082299
0.05260021400269853
0.1202780523470068
-0.17446002614355574
-0.30356686336039324
-0.12170683056892075
-0.05216076288605416
-0.08424661602438872
0.21803642211774313
0.3004858478258516
0.0026850137505338044
-0.05282269903469872
-0.06350964659703655
-0.04286035825233972
-0.012408310198261784
0.006959365998271581
0.002120921103961812
-0.02802335638359474
-0.07178243681208767
-0.1076069278011541
0.08963201010292736
0.14036172501454428
0.052467279401024164
0.01669703638268078
0.007191322897846043
-0.01281227949880005
-0.08178987578673177
-0.029945409521341875
-0.07121413546271735
0.0006364926764730536
0.010907141788285061
-0.0016855133875986585
0.006315910061683176
0.07353219750401409
0.025491724775619017
0.06959746997942008
-0.0055229672879161225
-0.026222780325558064
-0.02672521117021893
-0.04070772380786543
-0.09386288462413754
0.0006933178294215676
0.043260737316547226
0.04496732573268476
0.02309648582924845
-0.003989386344903358
-0.021044947585710624
-0.01869247093860121
0.0053043076200950555
0.046149692185292135
0.09355042326646074
-0.06527103552062884
-0.04144808699417654
-0.040319115888662195
-0.05883250872464733
-0.08583447608662494
0.09443513763715046
0.09668356817461464
0.12893336505623348
-0.010665244808746959
-0.13322891862972033
-0.05524950547557332
0.006639597475970804
0.04017892088240764
0.04021332896082267
0.009648008205808668
-0.0409981265750556
-0.09539970388895216
-0.13494425735844542
0.055926426434665534
0.28359451945118963
0.14088707273842302
0.007411949913484167
-0.14404703295176266
-0.13686267519580467
-0.18004980747512483
-0.06273317767915072
0.04363051670053355
0.17590192747613684
0.16648870767025079
0.032196503992093506
-0.03125097289336105
-0.04762679413277552
-0.05295395004678774
-0.08563894719044188
0.022858643698974338
0.05463465846949331
0.008349980840578964
-0.101274020302114
-0.04705941489469074
0.004403007165780958
0.08479835182763411
0.016140073889524233
0.20522910285949922
0.042689886564519074
-0.0926077148291209
-0.225073710155448
0.02685209667469145
-0.1430731586168236
0.07188325191339222
0.08681152662110171
0.11742705367149754
-0.027481331032464622
0.049393427551684875
-0.06638385370865435
0.0026912318930818495
0.032281829402207106
0.0032397565825222343
-0.09220087741869207
-0.04657212021816875
-0.036933158878213496
-0.028872432376503106
0.015772670144921248
0.12933083635332773
0.1296593205527604
0.015337967372016533
-0.033532577053182244
-0.049162697278675296
-0.0667511394432498
-0.11523521499618598
-0.011047309974567817
0.043522583447750375
0.0575564596357671
0.04606000029715222
0.024197986588134292
0.003162089841850172
-0.011428174124691107
-0.01878274378482856
-0.02078144317438014
-0.019572701922325006
-0.015940599308471855
-0.009018140885444583
0.0026209962511350685
0.01898882782904119
0.036721899776561484
0.04818103228872734
0.04246529737355399
0.008593980684222163
-0.05982285413645948
-0.1600920543764574
-0.07832396474646086
0.008575096714503402
0.12670007146508713
0.09673746581877125
0.1267293579236953
0.009132762869542333
-0.07653930505197733
-0.15668082630355482
-0.05519432609461701
0.01294117226148853
0.04412135612595923
0.04458775949521437
0.026440283127083155
0.003115666995236045
-0.01426302717682473
-0.0191039895831946
-0.01022028003639594
0.008315200467722245
0.028125813123095617
0.03832339937540826
0.028229841777213896
-0.009155198543190322
-0.0737157290263837
-0.15620214270966562
-0.0391635465469382
0.09844617386257135
0.07394564766965363
0.09355926154158688
0.14831512646712067
0.015561928936098375
-0.1337335561961178
-0.124295686766651
-0.16663245557792006
-0.052130858125178516
0.044552893496765424
0.1565916003812994
0.11314044502047442
0.12930535540276547
0.0017700419704632401
-0.08861099522100371
-0.16889801874710766
-0.06449642524782666
0.008199637100712798
0.044644600663605996
0.05046033621947331
0.03699668673128814
0.016422076296236366
-0.0019048159389640435
-0.01303465867312628
-0.0161710577736257
-0.01327515274360572
-0.0073688103266623195
-0.0011809700117501867
0.0035544765848494653
0.006165540301498964
0.006705202366023465
0.005514504534699931
0.0029360053964627743
-0.0007055160838686249
-0.004896511371653327
-0.008674670604453231
-0.010549350252824158
-0.008800914451722213
-0.0022200064302318745
0.008866139500483667
0.021660582230084685
0.03058177000172927
0.028047874169986973
0.006536618604263657
-0.03844696029152571
-0.1054726305767266
0.0143164666010582
-0.0637702627769113
0.07839671776608999
0.05646145681616281
0.07842735440652039
-0.05847666985193601
0.03217289468890763
-0.07103284470732892
0.007621924557145779
0.04660598377996555
0.03233369611307834
-0.03691474663941169
-0.1491988372048532
-0.0802761829042332
0.0011495392940563754
0.12479065263066398
0.10905892977177255
0.15383913477155683
0.03901671650841185
-0.0699607528192831
-0.21104066060226856
-0.012931162263737011
-0.08543422425899692
-0.016026004800025206
0.026455239085438186
0.0825335420236886
-0.009677543663772114
0.17485997753763344
0.041654718517002684
-0.02379147061026883
-0.05060564928754533
-0.07334366552254445
-0.12220097417854978
-0.015828324085355738
0.04128818507051142
0.05679015563403639
0.04533275797073216
0.022737032612047018
0.0014324920782312926
-0.011775515032327773
-0.01563024049132331
-0.012757445376094835
-0.007365997860530539
-0.003149863623032643
-0.0019233755678968976
-0.003200328406178854
-0.00467593309052626
-0.003400627392241262
0.0026861677958438844
0.013295817840334786
0.02490936072771161
0.030963555607289344
0.023399761613669936
-0.004549334951725573
-0.055059585098867055
-0.12319378433143525
0.003375984751146091
-0.058504749423766836
0.1068822268873214
0.10759388983695668
0.13941809854307727
-0.014278260252476787
0.022658383925900447
-0.17174569670064124
-0.20816566251234514
-0.08041274109655416
0.033362495297271
0.16269855168904038
0.1332720129543454
0.156730553853115
0.026280642671955536
-0.08022630973461074
-0.19134436878100727
-0.13143099560965066
-0.11318284860670205
0.06361043643788057
0.2071921413913327
0.12599415305025216
0.02232237724608881
0.09105068555406304
-0.07592866302853078
-0.2817406704942937
-0.1172065854119892
0.041697348931845
0.02958619045037871
0.08185726080431248
0.2232137874526547
0.059186861037733504
-0.02592989102449732
-0.06395420617917326
-0.09260522954765062
-0.14419081715351714
-0.037305509299567746
0.025826136283735663
0.05608063678033989
0.07020550605329591
0.08285443699858928
0.1010218704822029
-0.07723861610303824
-0.05980625516506255
-0.05498188130608271
-0.06620939979513017
-0.0894771515670476
0.08546007858410164
0.07062836030537695
0.07421787695510078
0.0964422747161121
-0.07115012101329343
-0.04253757407792622
-0.03159663742845897
-0.04631612251799305
-0.08511346562894924
0.06339132451692545
0.017055632757108707
-0.005555343275300805
0.00843677577635418
0.061152164910376415
0.1418410161732391
0.028751759543812396
-0.10508063243165246
-0.08375357659841982
-0.12117090557566983
-0.21780673986565982
0.03648108254115291
0.2543721765708685
0.24158510425021623
0.19153202891549345
0.2885794785628672
-0.479782697348245
-0.5071237144927236
-0.3578950303853902
-0.17164417993155923
0.11578687155262392
0.9408636094698052
0.8852908593118252
-0.13094951757162013
-0.2281492434775733
-0.5220890403405288
-0.6731190258489274
-0.6505371903969958
0.27175358122720805
0.28455577987598907
0.38744944052136115
0.3265139089912912
0.3459436183925209
0.1682386667194462
0.008444666972512855
-0.1817744162055643
-0.25237788652264653
-0.39220398168049525
-0.48216638927989336
-0.27713209667331057
-0.021317425497749436
0.5080067762597893
1.3430192523316307
-0.5269055521088029
0.013351820419106881
-0.0007306141010870295
-0.3985108325462455
-1.051093448719154
0.9488296736187067
0.2987920481176612
0.09208622279117963
0.023319427952106498
-0.20165791112086864
-0.25273607485733185
-0.16500187883948905
-0.13645766695874556
0.0635218079734546
0.27743607792330977
0.34132116541550656
0.2731707063631595
0.07430897344071913
-0.2556418434676514
-0.4963632625554904
-0.38802103398296134
-0.22713270715787956
0.11716610415645921
0.3695948374522631
0.6094170726687524
0.4407073397628137
-0.015133190745092517
-0.30045218976329147
-0.38252356084966865
-0.40920122423883715
-0.27499766086898353
-0.008642913712412544
0.21556109469337187
0.24919917022372592
0.33651291039120507
0.2900733883093914
0.2853166605936071
-0.12302780203845368
-0.36779442839883764
-0.4317838912434427
-0.4212966040195702
-0.36414800739989445
-0.037948483907673886
0.37617971795238353
0.6295231438506619
0.9526019891310472
0.4331625239377564
-0.5637205265018775
-0.3375650484308677
-0.575093059074542
-0.8793750681218261
-0.32818303011572914
0.7273934017277338
0.42825708145235225
0.3533417679294895
0.267623809989501
0.08849747614743396
-0.12325413243095168
-0.35181004385038755
-0.40464524449407924
-0.29336449420506466
-0.02628218909620909
0.38511875516177096
0.5116760275198128
0.29481185387272496
0.04768298709722481
-0.12698792461580136
-0.5073266164634452
-0.5226147307845684
-0.13657810394742054
0.14791230347978598
0.2629989956667346
0.3376924576069969
0.2606549012531513
0.05587852434880501
-0.1223306181481044
-0.17559571121356848
-0.03491634016021143
-0.029549716354264993
-0.058775724192152906
0.028288075338985936
-0.15807990631003474
-0.15111230486001384
-0.04225305809082851
0.09467472073396145
0.1746577084694022
0.27499740087401414
0.2184720125423169
-0.02873871093969238
-0.14374641862216797
-0.22276921311999529
-0.15414150051586462
-0.1970501016859815
0.02814555971549298
0.13665039301669354
0.16617730761571214
0.1600986079176044
-0.04697389307646484
-0.0371380128663418
-0.009827907395337728
0.02316962912271169
-0.15453616691544036
0.043775270273212714
0.013478497621057465
-0.039229601594191185
-0.09877764431649359
0.055237050402230925
0.04158153246972372
0.07085936844036388
0.14122892558271632
0.038318905987793216
-0.06008704702028834
-0.17605309705801944
-0.12341285151765673
-0.10328546088118938
0.09457270326130095
0.08511983154799702
0.2793449551175865
0.07799292489362858
-0.12897469541787737
-0.15681637839787826
-0.017146333577934835
-0.11009534185903481
-0.021048895801383905
0.07670063982204216
0.01438908548881947
0.017908111702312723
0.09879808988482862
0.0489114372916349
0.040556402383453496
0.03254190262786653
-0.019074174266757758
-0.14828702405885635
-0.16829861703586677
-0.06633553007940028
-0.0065217354813852805
0.05946649003039614
0.17716389450875417
0.17461772120229654
0.05339090770491424
-0.011515727000925919
-0.0628305362320183
-0.14646884769536334
-0.09637991310655918
-0.12388533512598644
-0.014886503499333213
0.06446609742684804
0.1559598336555517
0.09571522461771634
0.10352311632862447
-0.021572518168128732
-0.09875194859843038
-0.15790125880841574
-0.030558171153836074
0.05744920955710443
0.09011319034049411
0.062485482349792495
-0.019632997250310102
-0.14067262082502682
-0.07719127399866284
-0.0015485783119852858
0.11238404523833487
0.08268629685996301
0.1144024990406588
-0.0016476725529198733
-0.0855307580142386
-0.1616887447698179
-0.05208455564847872
0.02819310455150525
0.0715931073764176
0.07582795136601019
0.040794514651016744
-0.03321146072055546
0.055002899129081406
-0.09009522353363804
-0.05792903042187751
-0.030280310861722632
0.017560417461579426
-0.08744804684786821
0.07735319472252396
0.12327063374102933
0.045060306764624455
0.019740641094298402
0.010449797148098124
-0.025327366765039643
-0.12540376183070462
-0.1134723522117954
0.006515114100118002
0.050587851378118456
0.0499449854252972
0.043082984048699896
0.06746725242932727
-0.047167218801963805
-0.08295855356597126
-0.03568481105705617
0.08519511734212562
0.057921439830751605
0.05158334231297493
0.03151814607717443
-0.033335548219568106
-0.16272461037826752
-0.15962526828203166
-0.009617805985320565
0.11384040866168468
0.0396811633907089
0.18867531015056851
0.16636236350154784
-0.037538656107835806
-0.24298352232613005
-0.06952810907371303
-0.12694807711726627
-0.010656933742142143
0.09650081040629027
0.21753912154113828
-0.026864233078983234
-0.024547315438747688
0.025848184873264443
-0.0837759027241727
-0.16765265280914657
0.15729365549477362
0.07397319991650796
-0.03311795632351774
0.02388049188358631
0.03843934141758659
-0.188146347274164
-0.045779746776599815
0.08302777746877646
0.019113463556778124
-0.01893626278054932
0.18004207424289523
0.016989695892490653
-0.11675413732689781
-0.03574434358435871
0.04477429614432926
-0.08648338528034993
-0.03432881209901039
0.0026095577357015164
0.029062446719947364
0.04890889973288391
0.06134370991098914
0.05922520149639711
0.03071853053218951
-0.03590038692991529
-0.14585289642363403
-0.09252315678671845
-0.05591510168762916
-0.006415966796961167
0.08679736084332942
0.24557408129364522
0.07485109927255214
-0.03962668931869033
-0.12683334925758338
-0.02104564512999611
-0.1511839635975558
0.0673712814737231
0.03623411776406178
-0.027631745994742062
-0.09764936656950729
0.05415571492965323
0.0483241800135374
0.09071859744155593
0.1692801726557842
0.05663429605919648
-0.08130736302720845
-0.27307282263986743
-0.13014447280585814
-0.041113175220172306
0.025696062765857244
0.11186776753397049
0.25484106809972923
0.07564458806703107
-0.027029677426075333
-0.07470894512243258
-0.10064574274214103
-0.1388891036926185
-0.015144242403621788
0.057854882971243284
0.08006968852604028
0.06059002082440332
0.013171598135276356
-0.04730657605623047
-0.10695133162046941
0.045903651092927926
0.019542910325437476
0.01760376508454663
0.03823781581728446
0.07448162731068235
-0.08377167318794594
-0.04658026159648779
-0.02065404614574867
-0.007294120662921336
-0.002456419737094306
0.0010356246820224643
0.009878364947683533
0.02646806198800206
0.04619424584558645
0.0570131533980941
0.04198711349183684
-0.015382408311495972
-0.12433277122523657
-0.08085744967825288
-0.06521252285257846
-0.04475106356099404
0.017887632222415076
0.1533527180562131
0.17468666373627187
0.07113629815870777
0.009578554835405644
-0.05622273166497775
-0.17135868221636955
-0.16540479246956816
-0.04300988797021876
0.017274039825842743
0.055671893316201884
0.11810336699481827
0.04180608147704774
0.04418828282333637
0.11814128116112442
0.03506488928492105
-0.045278574495455075
-0.16098787835993925
-0.1347439058093608
-0.16575475524129057
-0.030204244409737135
0.10951764326147671
0.29003715946897785
0.13241110184934918
0.0336161116607879
-0.03252287895387314
-0.10559048214197948
-0.2241373076676054
-0.012156502346075192
-0.07127973912968893
0.01903831167344936
0.09412719393873765
0.1926527076813144
-0.05478412354592774
-0.03355644439992294
0.05222997063606227
-0.018086834031910238
-0.07595130936778681
0.04411976809943166
0.11262248362081959
-0.08781996968187576
-0.15760653551179962
-0.07901480266197287
-0.019978550074859578
0.0572887878377823
0.1849948440860088
0.17966889631793465
0.03725812345975672
-0.06444188498043361
-0.15701887471508072
-0.2701982952614035
-0.022986160336639815
0.17945215630862554
0.14307625887565212
0.07930809231899114
0.0001729134088832461
-0.08356274644315495
-0.16163602730018797
-0.023094829733968907
-0.05689863949312622
0.14498417370395994
0.18336167232652742
0.04917490925929188
-0.07527041327761991
-0.010876911486157628
-0.1742223308875024
-0.17140113632438048
0.0036678222311203905
0.16540763802273925
0.1289442264028632
0.10245002204734079
0.08333450040373501
-0.1398660022662772
-0.18098003977688962
-0.048407729913940656
0.060217169458798854
-0.041326102076055804
0.0681735650005411
0.010540906787992296
0.0009610649605135023
0.04248289220175985
0.12389226732941015
0.021813068257388442
-0.09312789751309268
-0.04754992032494597
-0.056627520972179976
-0.118422729401704
-0.013371195532741761
0.09061257227447897
0.028832756209439387
0.029159440073853227
0.10329623952912859
0.042608779066529136
0.019838099360179284
-0.0036038477409581883
-0.06670231709125815
-0.19748183588021978
-0.004838931941884295
-0.07637771876807024
0.016885278026108622
0.11051873721583684
0.23493132472731795
0.006154160288450092
0.02243291671536254
-0.13253310173505908
-0.08164004922286795
-0.04533933528410372
-0.03504182941080812
-0.05100511193909299
0.11525027951076805
0.07564748899429195
0.03994202344042285
0.01218860586753195
-0.009463609697225222
-0.029945639976314265
-0.05294575772261005
-0.0771442507104079
-0.09481058936755157
0.10638512253551612
0.13892301554444525
0.010225082855772494
-0.08108071067412559
0.05393934608191007
-0.0035535754805408786
-0.07637259259639864
0.013192878110861807
0.047578009246137545
0.017196221702939597
-0.07758825165400596
-0.026027363989290665
-0.008419692162254936
0.0004607904722903093
0.026395722097359065
0.0903485672211189
0.0041377508092829375
-0.03166911496660736
-0.02724128210007259
-0.0008028439059767608
