0
6.681661781866353e-13
1.1593770686976249e-12
1.3640391202515081e-12
1.0149692665963477e-12
-3.7207582724577734e-14
-1.6820643386447433e-12
-3.4529950037908915e-12
-4.550429446770059e-12
-4.0426136251638984e-12
-1.248071545551048e-12
3.7832816449616685e-12
9.870216677614054e-12
1.4625671978406193e-11
1.4933239249472302e-11
8.059651585077287e-12
-6.7758249819208434e-12
-2.6883320726798448e-11
-4.54135337537102e-11
-5.231892910396407e-11
-3.7448995934955246e-11
4.507163679551276e-12
6.85944648334553e-11
1.3607510250694822e-10
1.7566296996652063e-10
1.516586066819729e-10
3.898090441040241e-11
-1.583092387000041e-10
-3.9209527994573595e-10
-5.683464912878617e-10
-5.668080223387917e-10
-2.8504341797988284e-10
3.0074045594381096e-10
1.0783206956835071e-09
1.775815954786879e-09
2.0030038837699184e-09
1.3749411241317935e-09
-2.952654057501028e-10
-2.789399629335499e-09
-5.356539312539998e-09
-6.77392524309124e-09
-5.675690744594782e-09
-1.1429219906453481e-09
6.5840590043009366e-09
1.555127309920708e-08
2.205938132070692e-08
2.1473726481649066e-08
9.96549015075972e-09
-1.3133661125872902e-08
-4.316776531637169e-08
-6.936072284861545e-08
-7.657463996197528e-08
-5.0238341766376553e-08
1.614274248542168e-08
1.1309802361923952e-07
2.1059236012327346e-07
2.6089162697774895e-07
2.118139353743153e-07
2.986421121067514e-08
-2.7241240739206083e-07
-6.158898796772554e-07
-8.552104168983281e-07
-8.119765257583763e-07
-3.43491319358927e-07
5.661960826463614e-07
1.7248623540153012e-06
2.706010403693394e-06
2.923075262425827e-06
1.8255857727317134e-06
-8.086030908762391e-07
-4.573262379342449e-06
-8.269258540651299e-06
-1.003528210958732e-05
-7.880787827702112e-06
-5.919593819657546e-07
1.1219262431306878e-05
2.4357030242329377e-05
3.311678453241861e-05
3.064043338615049e-05
1.1626602780345834e-05
-2.415318030526111e-05
-6.879742685821395e-05
-0.00010544981919980592
-0.00011140869840845225
-6.592214299769962e-05
3.845320664191094e-05
0.00018445882583704935
0.00032430118204948913
0.0003854806481758739
0.0002921787544590471
6.943880153726509e-07
-0.00046037950486578483
-0.0009622847728117003
-0.001281404971186041
-0.001154380816581283
-0.0003847594791315396
0.0010215117293179588
0.002741851118390411
0.004112816361100663
0.00426022193478074
0.0024092254682222198
-0.0016739115592356222
-0.007250001007015938
-0.012405008259298201
-0.01431477576753346
-0.010125513241441163
0.0016083367881917995
0.019279262313040224
0.03700372259514759
0.04456754874514941
0.029094926415983186
-0.021570340149129508
-0.11460779441267667
-0.04864383630995454
-0.012524601191914328
0.012661294605703663
0.04876952983283596
0.11469698817099754
0.021578801184445322
-0.029217707744433333
-0.044849782692032936
-0.03741576364009134
-0.01970776683947152
-0.001859973891752446
0.010275577065881572
0.015028587982026607
0.013662956414542663
0.008752755620936003
0.002826173797287398
-0.002377623019964719
-0.006016151248212736
-0.00783109277985769
-0.007733891538459086
-0.005575160294232245
-0.001247891422603862
0.004913681137229623
0.011659181844774909
0.01660450350657847
0.016596641571955503
0.0088236176108113
-0.007473648152621072
-0.029206402086354638
-0.04838441089978142
-0.052681882798593774
-0.028145982494133703
0.036229052634918504
0.14338883725099832
0.08471282519563503
0.04023090140159799
-0.016536242244014735
-0.11025352158418936
-0.2550119802905154
-0.0488931020915051
0.12549266257065264
0.09448219633461159
0.08363074392238189
0.10885340619150417
-0.028292485904493216
-0.14008599407126582
-0.048038459151710164
0.02339037331311196
0.05255324960667442
0.024789602686632987
-0.06504065482035454
-0.011470551958365618
0.0011616443618267258
-0.003356151781321387
0.0032796136680193844
0.04925502102400943
-0.042264620924711255
-0.05757829244480388
0.004168296710774949
0.12929754883488231
0.0905112757554373
0.05134310355966411
-0.025703536673443543
-0.16886624442176884
-0.18793288638348368
-0.06996001600911864
0.01760700015049172
0.11680095817083086
0.2654881711927099
0.08543253008389337
-0.023371108701357585
-0.08033150194488357
-0.11560921314056005
-0.15935224697211522
-0.03330229389983835
0.05241596417431721
0.09719780325995342
0.10485067066625263
0.0788389538609298
0.02057784370029346
-0.06846402449459577
-0.18234014971527635
-0.10687849109533618
-0.019585108137540164
0.10553458484826186
0.08956518345532057
0.1400780113342242
0.046154820950395366
-0.02051550087929011
-0.09843959506280228
-0.025318268520537618
-0.02681390177090605
-0.10857845001726789
-0.053962010938351276
-0.028287535934587067
0.011158847702712265
0.10204159926058731
0.2647922073097621
0.09564815111236888
-0.03208905406578294
-0.15850277190577935
-0.12254061453391626
-0.14796933700645304
-0.034980226324764406
0.03977002395565722
0.11514705420627665
0.03271630349767994
0.023479977643732095
0.0981466102262942
0.04350009413351568
0.02571320309751294
-0.000276431320668873
-0.07784199547161727
-0.23596969114412894
-0.08094007131719518
0.004472805436855048
0.0535916523164512
0.10256787101424869
0.17587922752183327
0.07572597296540541
-0.020911270195738307
0.04356939165713729
0.020212696315947076
-0.1307963724764104
-0.22694472607622254
-0.25821060008609736
-0.19391126981293155
-0.0020736036267168896
0.32338296902957975
0.5375830540974835
0.5343717266526633
0.361162547602284
-0.13838961461904412
-0.6626838414332018
-0.7909888212074975
-0.5472584016161135
-0.6091878644077076
0.030127202336063863
0.5579385994755476
0.4211942957413631
0.8255428601671128
1.4904439797313258
1.4870677960616534
0.5662151041406764
-1.8443877117573952
-2.2249968908492703
-2.8041635285999154
-2.1253555896126883
-1.1779616892163525
2.725529645004105
4.205563524215925
5.5254926191806675
3.073979833002746
-3.717800737439566
-4.05570027894542
-4.179658066264566
-4.036813721067634
-1.1550776153120397
5.446445253532557
4.1737009240835485
2.1304023007069275
0.2796149922440537
-1.4305587244748514
-1.7817529773893757
-1.504990261787255
-0.8889171244569435
-0.24352499560866187
0.3493397488482655
0.8038715562104015
0.9471486101792644
0.6247036814441104
0.0285579133212715
-0.334799131796236
-0.43774890118954746
-0.5011395445174461
-0.1594360255601458
0.1637022736197168
0.2636865135558156
0.15009657174060834
0.03611786786499718
-0.07065592354703913
0.027545189303161445
-0.08051074013796997
-0.011035034204708463
0.019807732432651593
0.0002553541569469991
-0.07432439886053813
-0.0007304708209497833
0.03077382551247963
0.033645303984029346
0.021669175488653394
0.006083513963469384
-0.006009101141959529
-0.011766534245641837
-0.011620252715799929
-0.0077842326938158115
-0.002839484643635706
0.001233757067675789
0.003461573782829283
0.003811243319931712
0.002854010408001752
0.0013630627389390664
-3.393574047330347e-06
-0.0008662744783801796
-0.0011420021652948818
-0.000960426727814561
-0.0005461556820421581
-0.00011381414021487327
0.00019517094353607817
0.00032977262771167017
0.0003120725757734316
0.00020352909077537247
7.135722167061139e-05
-3.4539331262087526e-05
-9.076895410137741e-05
-9.801148986398555e-05
-7.197371476141631e-05
-3.2985508030342516e-05
2.0237410451921807e-06
2.354709807315397e-05
2.9743233145314903e-05
2.421795276297421e-05
1.2939267322678864e-05
1.556544835193211e-06
-6.207719194761478e-06
-9.010446222489413e-06
-7.489213981856253e-06
-3.4544433146695356e-06
9.476450565882649e-07
3.8844274202561304e-06
4.2443428045223026e-06
1.8430473390913166e-06
-2.5228605279205974e-06
-7.177992316742812e-06
-9.888194771032841e-06
-8.46662385890494e-06
-1.6507200520135286e-06
9.932563918471907e-06
2.3090168658117583e-05
3.21715014794805e-05
3.0388647768264505e-05
1.24356951863564e-05
-2.2098970961332763e-05
-6.573031177765336e-05
-0.00010219678993737412
-0.00010937371654253325
-6.675563706156616e-05
3.351780439226207e-05
0.000175462708354194
0.00031329424253074374
0.0003766914847414243
0.00029120503752118565
1.2542644878021998e-05
-0.00043410548329845237
-0.000926153287005226
-0.0012474919859745766
-0.001140679767347498
-0.0004097501145254153
0.0009476881883049978
0.0026272306705020076
0.003990203835316291
0.004185401745380309
0.0024468083888871334
-0.0014772072882460491
-0.006898760346226633
-0.011982640781020423
-0.01398816682638383
-0.010111238478918245
0.0011218936114293578
0.018241103916325826
0.03560511465760432
0.043288406416618005
0.028634944127766997
-0.020508688333881107
-0.1116632639285374
-0.04417134737328222
-0.007833853177158717
0.015400834195309061
0.04710473349357102
0.1069439174020698
0.00810908064561835
-0.04496024427718365
-0.05627332255006139
-0.03626074078211517
0.000676945171081433
0.03816922677649977
0.05941546516163081
0.048894891896216375
-0.005157208435713586
-0.10762501909832309
-0.05380737933688147
-0.02870077460697578
-0.009412687765904862
0.029369877260815254
0.10830020962665349
0.03697194846861088
0.010448498581066463
0.01005404948310669
0.00837575162880175
-0.02285067428287888
-0.10411582592094404
-0.041186125321721404
-0.021906615849444894
-0.017853697305829124
0.009468736441241571
0.09954135642265842
0.0833440646487246
-0.023967063727458007
-0.026444227889960967
0.05366331586855341
-0.01944869126160073
-0.08832864591999043
0.005036740314474057
0.025489219202865718
-0.051128043366715975
-0.03626852822548468
0.07078742157054775
0.08087373074134861
0.012318706290399136
-0.11145199690292286
-0.06400379647223009
-0.018241284833432864
0.050551938859509815
0.16152436750262003
0.12643598146403992
-0.04934047087631041
-0.16301770846491312
-0.2099482665037977
-0.18192291418026107
0.12936762353375053
0.3243670664947343
0.18729909581379267
0.08295716408501302
-0.03777492828258662
-0.22447019434384863
-0.31088416714603123
-0.1028632132834073
0.024064088581155073
0.11609392834121249
0.2250131731873351
0.1910313854582253
0.031117578032089352
-0.06335480283514977
-0.1199176116254568
-0.17303226392333482
-0.05205260726843053
0.02656595915509547
0.061011736084244615
0.060723066405731566
0.0404326481295626
0.01440907940315086
-0.007269022110576495
-0.019864328761700398
-0.02307406015758785
-0.019118456479006344
-0.010884528716764855
-0.0008217528733875421
0.009228929102283992
0.017559957053556754
0.022044981242216963
0.020103881007896722
0.009544371539757636
-0.009792805224033432
-0.03416097329419834
-0.05477267164107831
-0.05843811955815644
-0.030597479904699867
0.039551652071392523
0.15332072325617124
0.09860707369316499
0.050183187204362455
-0.024725144476017508
-0.1567487812547555
-0.16386128068000957
-0.044134593020015156
0.025208787789391507
0.08192206499866347
0.16816986829769354
-0.08112554275925393
-0.047678289364835466
0.06497590501835987
0.031058324384923907
0.006749750828496986
0.13860238434227617
-0.02475592536012812
-0.11952837144716044
-0.1553533479570859
-0.10935555300227497
-0.1287083202242386
0.057529340150292665
0.11980382970253581
0.30818173672738786
0.2380732709205095
0.08724124396786878
-0.19412841394507796
-0.26382444443749326
-0.36630218708474255
-0.11846155233839936
0.09184473633667115
0.29482705443928214
0.32130462475298754
0.1874578341098957
-0.11129136067477331
-0.19549556418434585
-0.2899071068268652
-0.21182343831946818
0.034152378595775953
0.2527956234583291
0.24936227609900236
0.22131757105308253
-0.04354886465316948
-0.1606888307088655
-0.33709569402907696
-0.16072152397610803
0.0027720971449222706
0.20324021050525026
0.09141297715511026
0.10202954999126361
0.04098361741527764
0.08080273225789181
-0.03416165250266518
0.025795200696453732
-0.005825955273080121
-0.17308178927372286
-0.2839177712717923
-0.10604249969299927
0.025288515265959988
0.18898823303836249
0.2548633118109964
0.26324243749619286
0.014614449768939638
-0.127451151286031
-0.22203483807231839
-0.1313351105388561
-0.10319378846367017
0.03891501121049091
0.09672093607265903
0.09066510608126917
0.0499307676705944
0.002882802039188671
-0.029596320795697746
-0.037187629827120025
-0.020252090333125312
0.011964449854038677
0.044257914574478543
0.059250641337160084
0.04198780846105913
-0.015059137298648847
-0.10787370983612118
-0.21989709891106227
-0.126615575730535
-0.006966500003044023
0.13999520725119421
0.27812552025827114
0.324130657975443
0.15116643300666088
0.009136557691951127
-0.24124590777166072
-0.48957024810293703
-0.14434419041122865
-0.12045840443219427
-0.2516328431785279
-0.12657628387305048
0.2596885189058396
0.6537262466406909
1.108443760182415
0.3805701275527998
-0.03240823972120642
-1.0247886000381206
-1.6098492930720587
-1.274872124873542
0.20990806828467312
1.3242150342417618
1.6956289282212482
0.8035786427722187
-0.47164753387332914
-0.6368058741167409
-1.118846451240171
0.23150112671505846
1.639673381223604
0.09422868979078519
-0.7882272283886808
-1.7315680382029672
-1.8208000029375737
-1.3918674110023
2.4122310850384228
3.055142216255193
3.0550007851753307
0.13184653483030223
-1.714892566958812
-3.0244710812844677
-2.260337013961171
-0.445467494848877
1.2993026009569453
1.7109164552092477
1.0735484681320526
0.09746471518399852
-0.7698754419585658
-0.1844068596041149
0.09547243526369692
0.03495367567333196
-0.041064091285120174
-0.2122223357166036
-0.33469883995482136
-0.226520631038865
0.13114636832535592
0.37894779295957015
0.3579298312868204
0.091640450450505
-0.020537568337893275
-0.1969267222344938
-0.258349334624304
-0.21215408095770816
-0.04306406415308378
0.08526511518994576
0.21915492158629132
0.1995551858782157
0.04909860792600622
-0.03346611458153154
-0.07011028776167681
-0.09390919794718992
-0.13732269124691923
-0.022740362232887126
0.041935117692660215
0.06222515113263847
0.05215391129697894
0.028079687840766476
0.0036205722781291272
-0.013051870443067055
-0.01946243713836862
-0.017357686281345555
-0.010537186597613815
-0.002883222051884792
0.0028914058971035855
0.005662234570784849
0.005659676837979191
0.003898055146014186
0.0015700384912805331
-0.0003917490898898236
-0.0015106689032607
-0.0017475970723043182
-0.0013526408823189599
-0.0006810252726194226
-4.376471432389175e-05
0.0003730638381974482
0.0005204540254369048
0.0004514102230895677
0.0002669559440774497
6.699789831455212e-05
-8.041623575460099e-05
-0.00014861549685085923
-0.00014542581860659432
-9.806008419506069e-05
-3.7512253948246786e-05
1.249604336853331e-05
4.024169757120879e-05
4.524909893404848e-05
3.430767654121018e-05
1.668661483949498e-05
3.337690455788285e-07
-1.01174031343714e-05
-1.3575418761010532e-05
-1.1530289131365053e-05
-6.640813030328659e-06
-1.4762485305471827e-06
2.251954350597718e-06
3.90877617902873e-06
3.738300365618735e-06
2.464734892551535e-06
8.902596784932611e-07
-3.8372900764029503e-07
-1.0703740258638924e-06
-1.1712478717985414e-06
-8.699035804244204e-07
-4.0780625301538033e-07
1.2178711994557883e-08
2.747632165455514e-07
3.558859061060177e-07
2.9659160977172367e-07
1.6628799816418612e-07
3.080469798743238e-08
-6.651903772740224e-08
-1.0964820734726244e-07
-1.0438028852005934e-07
-6.828837895130463e-08
-2.1136703739567267e-08
2.126304797997926e-08
4.9157973322077387e-08
5.8106834898725706e-08
4.7320232299720435e-08
1.875231088091176e-08
-2.2397451702345003e-08
-6.636947488497566e-08
-9.829299406533018e-08
-1.0022440606527458e-07
-5.685465217466815e-08
3.573267747557799e-08
1.610801160757121e-07
2.7786228434447845e-07
3.250662254784336e-07
2.4013268447494716e-07
-1.1295701747647163e-08
-4.0200089871771553e-07
-8.206504063064974e-07
-1.0776065870437227e-06
-9.527571564863141e-07
-2.862185834782132e-07
9.079109254982259e-07
2.347460965245496e-06
3.465579576480556e-06
3.524791054856432e-06
1.881368701813402e-06
-1.6430167737610101e-06
-6.403269965899267e-06
-1.0770823956454733e-05
-1.236537137511916e-05
-8.791577533363942e-06
1.189181635293387e-06
1.6377010844863692e-05
3.230942971117131e-05
4.15668561603038e-05
3.571271829556291e-05
8.860860438166722e-06
-3.7943311813324305e-05
-9.321474602010258e-05
-0.0001346293345181624
-0.00013373442464781763
-6.64138350021418e-05
7.27097844214904e-05
0.00025674749279861733
0.00042106570584567784
0.0004732285426602375
0.0003224117325292354
-7.490515844134543e-05
-0.0006660355954987263
-0.0012722031556846379
-0.0016034331279232304
-0.0013368428562939955
-0.00025649851687003974
0.0015784345884582015
0.0037038287105369497
0.005245434980493358
0.005113589969700944
0.002418014795667161
-0.0029741444966806144
-0.009930129205536407
-0.015876338776800704
-0.017244737775579205
-0.010701225443469627
0.004957047872967
0.026711818097106464
0.04584025665411992
0.047936463201858646
0.015049988265252312
-0.07014883022372362
-0.019169562797109428
-0.03313103813272634
-0.10053283259942562
0.001555612430348989
0.10292759533159339
0.0335648669675124
0.01696274678767546
0.06553200874599655
-0.02072100970593907
-0.05226276192871098
-0.04593022755337811
-0.020271933372386232
0.00821545199702549
0.027230787523146022
0.029317783579589342
0.011652952908684793
-0.024410940384488322
-0.07381141211716147
0.0716029575611056
0.02210021849441307
-0.011211047617414259
-0.017736917210783222
0.011254296936334772
-0.1188886879946898
-0.008100304889170856
0.13633566369276345
0.09850846202030986
0.05484895674126959
-0.021663424166467025
-0.15462325098394475
-0.15701213922263818
-0.02682900435503787
0.052307397331783446
0.10573868495937747
0.16001419898023841
0.03627275775693023
-0.052661280312200694
-0.10107697470627693
-0.10689833488050747
-0.06876829599737985
0.014143988510349233
0.1393500984901184
0.09703971539126932
0.0676976806983706
0.023627087083892426
-0.06521332997067256
-0.22289067057736683
-0.05999392178042237
0.02989039020833799
0.0683324534388122
0.08591798572847563
0.11460822169719675
-0.018493540849657583
-0.09439352984349565
-0.10276743779772085
-0.04140890224219776
0.08389118651596321
0.05871750093397357
0.05975870615098848
0.056548211161061776
0.016211534832346296
-0.08923915288706426
-0.07504051708712278
-0.13812132627892237
-0.05651614639800946
0.005045737260821572
0.08446661674142075
0.20988827321433073
0.1901867745183738
0.012366603529177832
-0.15267482757614234
-0.1380953644542442
-0.1676547158837731
-0.046275608771732354
0.04190996860725509
0.12783347310118512
0.046842472339113914
0.02730737539354114
0.08226360002930683
0.006308737564879518
-0.021880952684484957
-0.03266266781693748
-0.05654453520341839
-0.11613326703640914
-0.021367570427178878
0.030650995703982817
0.05154191280112417
0.05507830086652728
0.05077418611567863
0.03997315164082513
0.01571898077490381
-0.03372323667335094
-0.11914326300787448
-0.04472237442217993
-0.0046522393109965565
0.01671676665859391
0.041426055428259986
0.09262235767898562
-0.010655044938104192
-0.057130237167018066
-0.04485260862070563
0.01904579173831692
0.11991589876351841
0.03832602521724878
-0.046043879718256485
-0.14991592447648536
-0.08281206997094856
-0.04606444668690893
0.16489293614219563
0.156204350113399
0.13194310047091762
-0.10643762027888687
-0.1572152124894056
-0.21433996038955014
-0.06572262440791558
0.10381701909257776
0.30567646476887655
0.14035946564155133
-0.005409858205482106
-0.15500597394810078
-0.13301832568505634
-0.15541740021533174
-0.023411980005270866
0.07642125644301812
0.16629699033273013
0.06875774180562862
-0.0006002248962334857
-0.0365998793381807
-0.043703319003061784
-0.03232568522805272
-0.014274253647999965
0.000995194188157499
0.008432842380929532
0.0076792657002774075
0.001992246262667992
-0.0036074229386982284
-0.004443815105170337
0.001872076498117399
0.014023268173377113
0.0264373359464112
0.029909562831180007
0.013504995649985608
-0.0325677710460659
-0.1139558807992876
-0.030237115516366264
0.024945298468573393
0.06162636122633913
0.09026846022757165
0.1193024387075768
-0.0451881603155204
-0.1977488146939185
-0.13162695660550694
-0.03922427171102541
0.0835302650959697
0.22980738838203538
0.17470523771981827
-0.12808504668745505
-0.14399331533765797
-0.15077709974071268
-0.03014171783948659
0.13986518270741954
0.29159886294842857
-0.02439066888108049
0.17131974335882957
-0.09999329062115161
-0.5639950234835535
-0.4904178556846925
-0.10438283742373104
0.38735666815804737
0.762810290183204
1.158191509939928
0.262638219602393
-0.8614054324120565
-1.544094403758222
-1.4859961189158344
-0.5738874501946213
1.0565672558036427
1.9306636223147988
1.7608712819619363
3.2385599454474803
-2.680443299271315
-2.409171379663046
-1.5366991085279718
-0.8836212906506541
-2.2643903577839866
3.0269029943890047
1.837517999252269
0.9463282066879287
0.4913294174761886
-0.31983327310949844
-0.8065081639364774
-0.33968023158835264
-0.23002345556850495
-0.413829111509362
-0.16132213329023815
0.18037081805877442
0.008022983057043688
0.05300201894438633
0.15214584961788535
0.2099548533744558
0.161785151502428
-0.05514722877205985
-0.11997399220258659
-0.13651302022599546
-0.03516594060344476
0.0280037728569575
0.073062450814356
0.09900687642843317
0.08886227402796128
0.018024825383717434
-0.13476036604952998
-0.17633468903330585
-0.09173272850459535
-0.04376613501245491
0.01932621131323179
0.15013266144962267
0.18672780075429823
0.14113991488409272
-0.004155352944590958
-0.09044663208888959
-0.16997209800842072
-0.09088530898116393
-0.08523401807761927
0.03651460976046356
0.08370920472969634
0.07846358189101571
0.04670015071937293
0.01053590845813879
-0.016031198429445236
-0.027815536037856827
-0.02645205937294868
-0.01719543419423568
-0.005867211840697189
0.0032015898231337716
0.007984012828019152
0.008543906858818935
0.006245986452764856
0.0028499945062753418
-0.00018511851622388616
-0.002047022096363954
-0.0025866625374504665
-0.0021216137223851496
-0.0011659201286141772
-0.00019776685207651147
0.0004764094701904516
0.0007543799164048042
0.0006949986710994077
0.0004406919974063292
0.00014235552221425563
-9.080723832865733e-05
-0.0002100238703979524
-0.0002199665405883361
-0.00015766640049760076
-6.90818602164565e-05
8.511121215333798e-06
5.495386015546608e-05
6.720435472270275e-05
5.3999538885199785e-05
2.8805025450310045e-05
3.8797597560228265e-06
-1.3103114456804338e-05
-1.976437926063293e-05
-1.781617786887178e-05
-1.102567003004478e-05
-3.286242476547367e-06
2.641808006751047e-06
5.574574907984943e-06
5.693808819716714e-06
3.988728708681961e-06
1.6526015152471553e-06
-3.610189716835888e-07
-1.5432940493210844e-06
-1.8216252784027716e-06
-1.4209104616544797e-06
-6.877503511664537e-07
5.297753362687852e-08
5.776083946722569e-07
7.821519814420512e-07
6.631783707050025e-07
2.884137897616431e-07
-2.2503462194544537e-07
-7.223533372545484e-07
-1.023687313895577e-06
-9.540949771968606e-07
-4.0071463580468503e-07
6.097862715387005e-07
1.8419444883638713e-06
2.835484332283926e-06
2.9882089889598523e-06
1.7595037425587388e-06
-1.0333741601226197e-06
-4.918388714722627e-06
-8.618731380322902e-06
-1.0210997002250424e-05
-7.694183729112261e-06
7.14559810523102e-08
1.2303519098598915e-05
2.556685491047162e-05
3.3925631450330586e-05
3.041601365972337e-05
9.880580963153306e-06
-2.7441847690765103e-05
-7.290172157394597e-05
-0.00010881931704031493
-0.00011195598902003165
-6.173996762024384e-05
4.804728966637599e-05
0.00019787469540376786
0.0003371396017343558
0.0003910687939216454
0.0002835360999823736
-2.6209189240549313e-05
-0.0005029271670845678
-0.0010086399958737294
-0.001310971451853237
-0.0011428049601649281
-0.00031360153475746107
0.0011525746714879286
0.0029049667366738744
0.004250441262025186
0.004298102084058375
0.0022861067845379402
-0.0019648445482465795
-0.007622555911976137
-0.01266819968307828
-0.014217336990392656
-0.009485387098134642
0.0026680370801113527
0.019975489164817915
0.03541070207067451
0.036987652955131976
0.009252816177818398
-0.06350612412410157
0.0070159476849871736
0.01734483063410084
-0.024861076031000955
-0.10015900674466968
0.020471214216512348
-0.029524953322437077
-0.019670079709114035
0.06957039684451005
0.24065336925099312
0.07721622067908096
-0.051702623140280894
-0.18215334744255304
-0.1437870594051594
-0.15111263294536512
-0.0012936556927045987
0.12065837932804802
0.23193620533344733
0.1422066312167266
0.04902703294567899
-0.05916116041076037
-0.1937922584342138
-0.15519276698424578
-0.12544455076094274
-0.06923026815588476
0.056537136008575406
0.2873577199520055
0.23598473502166795
0.08396248310922605
-0.01593409643928082
-0.12656352950919186
-0.3073190913168201
-0.19633875371579337
-0.0007096286138318909
0.10210524292832499
0.15313321032835292
0.1963309408539054
0.06499804246407667
-0.025121070140664177
-0.07469729402359834
-0.09367066828792042
-0.09215555515298596
-0.07359011539493265
-0.03288954354026038
0.03989482596463104
0.15220590971133416
0.10130649522849851
0.07001034564879528
0.028285819758274613
-0.05917207900349264
-0.22184107447182244
-0.07282222157005297
-0.002907147766249083
0.018424486062354375
0.03541787965147371
0.0944616323343542
0.03211678008869791
0.0660872259106695
-0.008697095977525554
-0.018275313624599936
-0.003008467660395849
-0.008005716851824619
-0.07297897851268076
-0.02381092764957246
-0.06766579617684351
0.007338971790484286
0.02799239126656764
0.028634781708475596
0.04267567401443557
0.09528733476078459
-0.0008921393378561727
-0.046232943494075834
-0.05122570241136921
-0.031724356615564275
-0.004116180332764479
0.018284038580051967
0.027202261003991313
0.020040103968666536
-0.0002803755102748867
-0.025937589026339407
-0.04539113658068415
-0.04549259044268462
-0.0147604804519721
0.05255701262191674
0.1528575705074028
0.07178278627140883
-0.013515360849246521
-0.12842514880891678
-0.09313420927553646
-0.11619076053774985
0.007907258640434208
0.09620427439554859
0.17129335912624652
0.05481248652503709
-0.03671564815406994
-0.09255985491213467
-0.1060400161082306
-0.07274180584273478
0.009271067614781416
0.1368566609790228
0.09835971522603149
0.07196941030087288
0.028019288523072783
-0.06446040324069979
-0.22888747900345974
-0.0734396085151432
0.012089387935163695
0.05334088470769861
0.08346560453890825
0.13338490933564895
0.023869126198660315
-0.038057793400696406
-0.057881397358311104
-0.04892077008224491
-0.026568908100763712
-0.0035938240868666127
0.012332130212361295
0.018810113250195763
0.017304012268859796
0.011123923993008778
0.0036502251397677746
-0.002722173800128116
-0.006843671805635779
-0.008500609192087791
-0.007900748816079288
-0.005291929436263453
-0.0009076790826696494
0.0047660895773169705
0.010596992117187412
0.014593462553831394
0.014177396517373283
0.007098856746791588
-0.0071233601592880814
-0.025680183978851898
-0.041574854312895065
-0.04409129148344078
-0.021052803420544802
0.03739544951617274
0.13462900643830322
0.06480313424447715
0.013186138674112816
-0.03992619876884389
-0.11295981065857996
-0.21713727775093986
0.0462717758425204
0.08405137908232521
0.10540354680428139
0.11554714477624901
0.11198122165882304
-0.11456976379946976
-0.17500150693678204
-0.07518552618044255
-0.011305881023882925
0.03053865288613665
0.07050714907985166
0.12903443611895662
0.02150635168517906
-0.0442880673718797
-0.06741770032495953
-0.050894431844713185
0.0015412534292411292
0.08740409648803896
0.005630906368754231
-0.04494252957745526
-0.06862535835055311
-0.0775935351450148
-0.09840951989632706
0.020435304107044888
0.2023699810821942
0.3420615026028495
0.31472998918155976
-0.002068519778355953
-0.2966311025451673
-0.3898932023317471
-0.8137281250545494
-0.6129392034034324
0.02415981889969793
1.5143671250550814
3.4282409310424566
-2.3363138904738876
-1.3432698975316673
-0.7828988945566576
-1.0416657050664981
-1.503326620853013
6.617277339663338
-1.5669801543056883
-0.428706876110133
0.008737062095030059
-0.656236771921824
-3.3252854764521618
2.649933798195676
0.6713966271061587
-0.5452485679949007
-1.2373928160570247
0.12876522977503052
1.7867835577975344
0.8167844417270752
-0.0734995332205284
-0.5241903932864734
-0.6624838086849557
-1.2284027196518459
-0.11391232589401373
0.6671253089392343
0.9774654183564114
0.13734071919198537
-0.09425029947101615
-0.3269006337043067
-0.3355736458233979
-0.25547045889528625
0.015855902250861677
0.2051295136955278
0.24146387622997856
0.23337458944946674
0.05274717105543865
-0.06935185089495632
-0.1351399834195939
-0.165356884629135
-0.1837606913057722
-0.0065100651064405315
0.1609287081944343
0.1203741676641558
0.07468358105026615
0.022767984183293767
-0.041680390282759924
-0.12777893293091303
-0.04329269328907398
0.008832388938766285
0.031624525001124816
0.032780523308843894
0.021922469855270868
0.0077901102567497224
-0.0036228772003895895
-0.009632206780292316
-0.01033220486238051
-0.0074741090778247055
-0.003281298712805111
0.00042778081579899964
0.0026598784309396673
0.0032525592141239954
0.002618067206382981
0.001402284373361991
0.00019650889227453236
-0.0006275173990074296
-0.000953261225562996
-0.0008622050854732182
-0.0005358133618229532
-0.0001622718973144707
0.000124644268279835
0.00026729723984175263
0.00027419677316458383
0.00019305452788181594
8.151043076928022e-05
-1.4486084993021332e-05
-7.071007942772123e-05
-8.423604798206684e-05
-6.652746263800722e-05
-3.457752831588797e-05
-3.5793522620473655e-06
1.7150572704643695e-05
2.4919244011817787e-05
2.2064346972898656e-05
1.3377728140327544e-05
3.7098565607557095e-06
-3.5642063899956494e-06
-7.0553775585221005e-06
-7.064331135081918e-06
-4.8671587999676995e-06
-1.9592191347465185e-06
4.916812520386689e-07
1.8891422719205065e-06
2.1842875661438342e-06
1.6899211631004896e-06
8.501560727856979e-07
5.370389244156196e-08
-4.6698853718788823e-07
-6.508319681568474e-07
-5.642109251999746e-07
-3.334671552739765e-07
-8.348310455199147e-08
1.0072365111232839e-07
1.858702222156043e-07
1.817867113394097e-07
1.2251720834693493e-07
4.6811121539340775e-08
-1.568795154720659e-08
-5.0341638623783774e-08
-5.657057125131225e-08
-4.287171988977774e-08
-2.083543582825814e-08
-3.9520692063296347e-10
1.2661354195654407e-08
1.6974615369157785e-08
1.4410667263928103e-08
8.2947461074972e-09
1.838453139268518e-09
-2.8199703858613197e-09
-4.888197567415589e-09
-4.672581351475025e-09
-3.0791234256662575e-09
-1.1107321942199082e-09
4.810995760153144e-10
1.338294049212855e-09
1.4633600289086259e-09
1.0861811649884135e-09
5.088264407912647e-10
-1.5153469689090612e-11
-3.4197083966704474e-10
-4.4212587704253566e-10
-3.6763198290225405e-10
-2.0586002016796914e-10
-3.930843851787879e-11
7.833238618477011e-11
1.283420848207609e-10
1.199646540038905e-10
7.725571677463255e-11
2.6141633435028458e-11
-1.4352044364424503e-11
-3.5498823841257804e-11
-3.780996806047231e-11
-2.7482401780610756e-11
-1.2378230170414248e-11
1.0384211495335448e-12
9.203660762505957e-12
1.1499999672393607e-11
9.366800723846228e-12
5.096046872202311e-12
8.045084775300845e-13
-2.161970590070381e-12
-3.365009809242806e-12
-3.0771140872972195e-12
-1.9356191781710346e-12
-6.099660130749398e-13
4.1883894642358527e-13
9.390090516513743e-13
9.75143921770033e-13
6.937431525538459e-13
2.991731629533186e-13
-4.3966452677460224e-14
-2.475644406817778e-13
-2.9938201133915655e-13
-2.3900419120919963e-13
-1.2646333056794248e-13
-1.6009985257001627e-14
5.868035373073671e-14
8.745170926991066e-14
7.819670429319274e-14
4.776689114361538e-14
1.3427742934128785e-14
-1.2677175898692873e-14
-2.5431802608638846e-14
-2.576196550424697e-14
-1.812773499926042e-14
-7.834670519229736e-15
9.311028024000403e-16
5.997109320274488e-15
7.142420540119597e-15
5.449818664012338e-15
2.489355274109326e-15
-3.5018571113930897e-16
-2.2277735042081486e-15
-2.9112167022608527e-15
-2.6259633680482867e-15
-1.816727383559314e-15
-9.282875533015884e-16
-2.6677044902415324e-16
4.488603298409174e-17
3.798973183706644e-17
-1.683168311919715e-16
-4.3646638390018495e-16
-6.601305638853037e-16
-7.8590295892721e-16
-8.105164015083696e-16
-7.634475549747663e-16
-6.856998034673209e-16
-6.127840394233382e-16
-5.656626458183795e-16
-5.495559966518365e-16
-5.580960411531135e-16
-5.79568002387624e-16
-6.025269869199361e-16
-6.192676751123378e-16
-6.268536348231758e-16
-6.262815480448934e-16
-6.207259399384422e-16
-6.137494440680805e-16
-6.08049345743404e-16
-6.049343088981231e-16
-6.044262882469561e-16
-6.057262416240036e-16
-6.077648118902842e-16
-6.096350558010975e-16
-6.108156035783785e-16
-6.111916290524869e-16
-6.109413476916529e-16
-6.103728217043843e-16
-6.09780210801878e-16
-6.093571516276919e-16
-6.09173295180822e-16
-6.091981229559484e-16
-6.093472516734758e-16
-6.095285284328853e-16
-6.096736196595422e-16
-6.097505712429786e-16
-6.097604119166211e-16
-6.097247193852041e-16
-6.09671345423914e-16
-6.09623427265577e-16
-6.095939046810633e-16
-6.095852301827238e-16
-6.095924552607606e-16
-6.096074903380043e-16
-6.096227792436211e-16
-6.096334580002878e-16
-6.096378822362461e-16
