0
-6.41584080521778e-11
-3.526085158085528e-10
-6.34525137207564e-10
-7.671823170179893e-10
-5.985693410278512e-10
-3.691526133138255e-11
8.691196582936569e-10
1.8729139910726346e-09
2.5365219459578616e-09
2.335450549983681e-09
8.669048043625315e-10
-1.8810702253663873e-09
-5.2968421094464766e-09
-8.084665376176317e-09
-8.506168395579801e-09
-4.980141080115162e-09
3.0469941531682396e-09
1.4231899369596914e-08
2.4895314297526973e-08
2.947942200971481e-08
2.2196471233811273e-08
-2.52373957598656e-10
-3.560666327151202e-08
-7.393386981082108e-08
-9.807121169848412e-08
-8.788712384339763e-08
-2.847929119632103e-08
7.944599638523897e-08
2.1086219874672254e-07
3.146398395186808e-07
3.235931030533432e-07
1.7827064812826296e-07
-1.392563445161902e-07
-5.72457560228753e-07
-9.749843443234556e-07
-1.1306596733745046e-06
-8.194836351759737e-07
7.616547455739444e-08
1.454141518542159e-06
2.9153099529356347e-06
3.787867423940033e-06
3.3001534368932808e-06
9.029787181117769e-07
-3.330594974929975e-06
-8.380087242391138e-06
-1.2230599456632895e-05
-1.2288602791433398e-05
-6.32422208901381e-06
6.218764877464757e-06
2.2977371241750815e-05
3.813952593440463e-05
4.3306415413809175e-05
3.0130150074888387e-05
-5.542682337041039e-06
-5.9189533828207427e-05
-0.0001148048999805326
-0.0001461230815258159
-0.00012360711542371873
-2.7106492278228748e-05
0.00013876391010313898
0.00033252314673477053
0.00047486791373702107
0.0004658003553751712
0.0002218955813819963
-0.0002729673356130658
-0.0009205965981126545
-0.0014905260878418647
-0.0016568070962465677
-0.0011031906710560991
0.0003154615987862007
0.0024024880421667193
0.00451825854810603
0.005638837577570408
0.004638469474702964
0.0007867073470541764
-0.005660230747923262
-0.013011056005900629
-0.018139436871039662
-0.017196659998324287
-0.0071080955105816464
0.012411358007921673
0.03698167728148595
0.05676977847440419
0.05771665987461566
0.025212802704169313
-0.05032333113753122
-0.16771212038694988
-0.11173004222965656
-0.054687733573806435
0.03632638345666277
0.18829648942008304
0.21130514688403604
0.09256973808529599
-0.0011857944342312425
-0.11304397919707503
-0.2806098182556315
-0.12211165482231505
-0.02954161306906783
0.02834822624359007
0.09440247503763757
0.20736461841096052
0.18815731412687087
0.033280932625116846
-0.08240853366305835
-0.1951136044110885
-0.1384382601373759
-0.1324074530172175
0.020669754375949964
0.13265437370770258
0.22099121511930758
0.09975801622749984
-0.025334610283311923
-0.15619169766548668
-0.0972363688577256
-0.04941968009675714
-0.006693363017177644
0.043499970658870235
0.11636761818057502
0.024625816809947312
-0.025665808855641105
-0.0369460590992667
-0.01959483364841836
0.010261806919221182
0.03373816615336515
0.032477166614680524
-0.007991788796072282
-0.09518733735550206
-0.02762185482445713
0.005407590411421981
0.021817570010036088
0.04304232399252394
0.08988614820775989
-0.02074130918024758
-0.07748980317373261
-0.07488869926174661
-0.013247026098153295
0.10112537725888203
0.05555400133501988
0.03152050622275333
0.007081890180676165
-0.03874384820180067
-0.12080423008969149
-0.04380851696024599
-0.0012906782379820056
0.02176542165582175
0.04348250726050296
0.07889733735158244
0.13546430546442073
0.012084305396446718
-0.09799839760729255
-0.20200800858237627
-0.10316363687880277
0.00019287966791069026
0.11094421731184727
0.22692676748596854
0.13593344427458792
0.01569811677374064
-0.15987182947362644
-0.21038165974868134
-0.1391817516042397
0.0712177495537551
0.05635293795234802
0.06081633368914886
0.12668456285691665
0.0834746559125199
-0.05747186009881434
-0.10338371351594779
-0.07648286157137946
-0.008732115967299283
0.06319318010308257
0.10217196556857812
0.07482089858307334
-0.04357704990330338
-0.06360297628876331
-0.17738805342769517
-0.15799454824111198
0.03562216541731651
0.24838850663128118
0.11670576497052641
0.058570722315645654
0.07020735477391755
-0.06955756997985874
-0.1891888436300839
-0.11286631806157077
-0.052111347287398496
-0.003763128370982881
0.04532474582990397
0.10927665574449695
0.19397797982230836
0.09183540251894876
-0.01687396843096627
-0.15627247113273612
-0.14397993358709388
-0.18199511300381482
-0.05382134187772594
0.07033270892380407
0.2220844912245587
0.22196321385927786
0.0707727554021464
-0.0508677074590734
-0.17465744997578417
-0.13204347462744437
-0.1424513759582236
-0.007058610811689537
0.0899372098163481
0.17394919134859466
0.07028660892554109
-0.0037581879377852363
-0.04240467581340185
-0.050227370677746755
-0.037994989971581086
-0.017793356006091846
0.000745689640145054
0.012264400947055396
0.01563267379932709
0.01269082324818358
0.006588905117995874
0.0003644634914330182
-0.003911940426461275
-0.005396904489966898
-0.004308819345917185
-0.00156545714475558
0.001594885897653094
0.003926192842619674
0.004427304537669569
0.002576833093402597
-0.0014342666572272342
-0.0065295085792740105
-0.01076448938531775
-0.011690139648161296
-0.007146028686074871
0.003606965105210916
0.018746479245248845
0.03328760410139352
0.039626819351462575
0.029618078935064712
-0.0019806925738915754
-0.05364634844890147
-0.11454583289123273
-0.16537270380680863
0.015942415120685588
0.04383924394230089
0.11262411615069605
0.18644740205382776
0.19691169812008033
0.05202983735001766
0.05704982974946515
-0.056489208519577616
-0.30101954975887957
-0.41251333654635836
-0.4491810919641385
-0.21542771445155712
0.09017749985533015
0.6136830037169486
0.9903793143936991
0.9172345033812515
0.16918754632351732
-0.739526917259202
-1.266850847401619
-1.3592404711457813
-0.4059033795336294
0.5509095478341823
1.3560912933018348
1.4611798780981076
0.6600307800213233
-0.7334513624858895
-1.2639130374697496
-1.291983039459343
-0.763274310076511
0.7875387275388827
1.196950463115624
1.0195404336622276
0.6938809639806618
-0.04851248435792896
-1.1282456069815863
-1.0366024296382044
-0.5596895556590521
-0.1374728521033243
0.3288147930950633
0.6275982455424672
0.7679790665233509
0.31715908416517974
-0.035554770276033085
-0.2809448742218309
-0.4647844751694433
-0.45080496688079164
-0.08829037406301592
0.20474912563868358
0.24079172337912497
0.2501318164357758
0.06533192771941355
-0.08989081686586436
-0.20459110661076232
-0.07892950946519456
0.07955835854177253
0.0590339090884035
0.04515199679172714
0.02248458466584531
-0.023462479237690605
-0.10360760634892417
-0.02293973400470717
0.020393724944014216
0.0340017482728438
0.028596938542752297
0.014888158284097746
0.0011438019808287844
-0.007951800951771837
-0.011145095179695912
-0.009591480511285156
-0.005538331593727373
-0.0011929158673780697
0.0019615658351225624
0.003364510854855559
0.00321285638417629
0.002119791332776934
0.0007692372861619902
-0.00032440839380478543
-0.0009150534153849959
-0.001003477921040401
-0.0007466195174098806
-0.0003513798814357811
8.2015181867201e-06
0.00023313228124572334
0.0003027656484577574
0.0002524572114307499
0.0001419617219424633
2.7827624931136675e-05
-5.306530255325182e-05
-8.777746650167408e-05
-8.253042448883365e-05
-5.369196938830996e-05
-1.890101692565629e-05
8.933782705305195e-06
2.3922776084976783e-05
2.6401422378348036e-05
2.042846236613915e-05
1.1004367742815442e-05
2.03156902000145e-06
-4.5455041328756306e-06
-8.511626073002408e-06
-1.0497356784671348e-05
-1.099659587354683e-05
-9.769300352989246e-06
-5.906744119453079e-06
1.4423919719014954e-06
1.1974916079768264e-05
2.3283091249756165e-05
3.066018468943413e-05
2.8146618459103074e-05
1.0921250130500994e-05
-2.1460769652637275e-05
-6.215779405515669e-05
-9.61120897955187e-05
-0.00010270209130946454
-6.272178380179637e-05
3.127182220799552e-05
0.00016441174982641905
0.00029386878899927696
0.0003537212525488501
0.0002740474892172162
1.3078187445240257e-05
-0.0004058638182809495
-0.0008680646199308217
-0.0011708938760909026
-0.0010726089966334661
-0.0003887220666215467
0.0008840001794180204
0.00246104779615608
0.003743947091092895
0.003933973162415619
0.0023111403001414565
-0.0013630278103213076
-0.006445928814301764
-0.011217675619874936
-0.013106778904709406
-0.009480115441843186
0.0010464584577196297
0.01708582287047721
0.033311303618721706
0.04032242476474926
0.02606110620791135
-0.02120900270281052
-0.1090850045502234
-0.03773008899303384
0.0014614227782087479
0.024515717807427596
0.05131211849930866
0.1012318044833712
-0.010343572539293982
-0.07372028592174729
-0.08496005942608441
-0.04541966539629951
0.03817590613133201
0.15306412566157213
0.0803185862660612
-0.0032324948461536895
-0.12051300972064455
-0.0883627651360195
-0.11288702060007037
0.011640699294975873
0.09957260363162264
0.16777170028591695
0.0293932314204661
-0.10981242814023336
-0.05165552274452287
-0.00294115725487735
0.028174546284747103
0.035666559526377976
0.018537985672984935
-0.01691086669383032
-0.05571252094271278
-0.07446908916335356
-0.04401043429069172
0.06526019962781766
0.0761625189615924
-0.0024182177916390202
0.019652079797008597
0.11307487313283605
0.033317060279431265
-0.07080430718406855
-0.045948331117386096
-0.123405140618578
-0.11185970737780974
0.0037859864231181845
0.05698114507704974
0.0892225836399769
0.1383440817596554
0.029244451929550483
-0.030231488609976473
-0.04763193896799091
-0.03988777375883033
-0.025548830659806884
-0.017882613388822646
-0.020690293757843745
-0.027693845981253767
-0.025429358683757758
0.0012068815576117328
0.06232384838517965
0.15744559518170592
0.07321420903694219
-0.014132018219612179
-0.13177445448000658
-0.1011880710871037
-0.13051083223008025
-0.011642248339492326
0.07668042611641075
0.16118548924134846
0.0650548387233025
0.0012369582161064398
-0.029635013995646775
-0.03661514763696588
-0.03279252721075362
-0.029030028678180206
-0.029254727210355925
-0.02866328693147968
-0.015237958304542356
0.025983536735564187
0.10726467817567781
0.033029623517502896
-0.0030179913867845586
-0.017603862984284742
-0.03473222594986848
-0.08096652435336309
0.01928816460334383
0.047378215526507235
-0.0074138599626119624
0.05333054046276497
0.03797768401149118
-0.03453416607825644
-0.13475599481366404
-0.024566369633765194
-0.0618622545675249
-0.008240213187548851
0.16179612027196938
0.25306002293844637
0.046739251405292656
-0.09562534349823228
-0.22204636950396578
-0.17767051974039047
0.005077559358122511
0.11050929427868193
0.13781853527118426
0.09611044139684591
-0.00022712155157078757
-0.13377163882253335
-0.08420054795485339
-0.028187270982081528
0.05905412599625148
-6.614785395509312e-06
0.009735772858630741
0.09151181466483449
0.034495173662339035
0.015104183850462069
0.0019191611764147378
-0.03686087426916085
-0.1255357172885388
-0.07515972458315669
-0.08205571357337234
0.0687097980543937
0.1962245130820377
0.11610963932832462
0.03591781188665254
-0.04434806636008856
-0.12717417405118453
-0.21097825558444122
-0.08598964878492187
0.0647230616309243
0.25918663570378364
0.10845534908919145
0.010812564763014522
-0.048770335221965964
-0.09384116693958312
-0.14891725702944636
-0.03274172274020391
0.04499516597346557
0.08288296082824179
0.08445134775855097
0.0547509674804132
-0.0011288862312634363
-0.07711675717897508
-0.16399713312298986
-0.048185074276629346
0.08679896466949633
0.055999469328391394
0.06755752400497479
0.11876188196887924
-0.00423688147324359
-0.12251970984072016
-0.05766367559454014
-0.024803363123927363
-0.028124248968768147
-0.06029275864631678
0.09423297132180708
0.05340512260926169
0.03146915597966212
0.0346976994626156
0.060352047294800516
-0.10101827237044765
-0.061080245715033704
-0.02896555306953582
-0.008196716157930195
0.003607596765586178
0.012357375468137742
0.023548586569259688
0.03833729467243324
0.051202191218208376
0.05034516262512376
0.02119052922781129
-0.047745587704140655
-0.15850768634988968
-0.09953072619951249
-0.046068525319007576
0.0338856032544325
0.16967056074200118
0.17762495986254992
0.0546337973932812
-0.021476625353551267
-0.08455260548417945
-0.1685778544841689
-0.09653715080749752
-0.07393103852938786
0.11087144758443727
0.08011608500742395
0.05701965442431828
0.05690970239159628
0.08230013259540686
-0.07670591080599222
-0.03724904949983071
-0.01588368116195754
-0.02090783149537921
-0.047504713336173426
-0.07760017292531379
-0.08536660427619255
-0.04812483518974263
0.03914456844573613
0.149271338537929
0.21343155322189172
0.3221227891545069
0.1402074737517723
-0.0643914663766935
-0.3843474746647835
-0.6400724653369849
-0.5633416359804007
-0.0067042071652500205
0.4213390142353838
0.9071054631133713
0.9884539171863289
0.33694986660840626
-0.8259924951650532
-1.0877059466512804
-1.000878141015276
-0.4642438716791381
0.6584404422540547
1.487617986550359
0.8698647765387287
0.14197618804434176
-0.46464081412320496
-0.9818506206378881
-0.8454361044663428
-0.0445626687739024
0.5021078552227507
0.5415177458054972
0.2639342509504656
0.07917615371969695
-0.1975899075395173
-0.34837584110528064
-0.14827197587375454
0.03805617966798949
0.05459433850348579
0.1468746072937152
0.1531540601880798
0.09853505976198519
-0.0048191005391037215
-0.15120296387677512
-0.13151675141615382
-0.12472441482052467
-0.09498699842905096
0.0034414587965055777
0.21473151013096786
0.16751796638832916
0.06392692491684049
0.07612015742231025
-0.047991052970063966
-0.17170356284048516
-0.1536250971304286
-0.03421077118663475
-0.028783453257009713
0.07159723226821964
0.09292156378562169
0.06802841620730543
0.027079347901740713
-0.00866679412811046
-0.02886175699331868
-0.032520926053011004
-0.024487668396233918
-0.011586319837197117
0.0003196511043909254
0.007835485205667556
0.010195411319857711
0.008535101440011275
0.004835889328386538
0.0009931151943045977
-0.0017457272819137414
-0.002933638349111062
-0.002770443769473039
-0.001803444988703017
-0.0006294049612331478
0.000309580029687715
0.0008070830016668396
0.0008701460358923189
0.0006386825644885046
0.00029305237048741595
-1.7030532529813118e-05
-0.00020792497521356342
-0.00026387629580702305
-0.0002169958489064861
-0.00011966789986852372
-2.0769087695576967e-05
4.828450321219249e-05
7.692116520366136e-05
7.105479152524003e-05
4.518626090883545e-05
1.4728030030272721e-05
-9.13664905022321e-06
-2.138772747242891e-05
-2.2470231877539332e-05
-1.614838352090684e-05
-7.11280947974993e-06
8.223410300239844e-07
5.586839910223709e-06
6.859445403872246e-06
5.525731938560001e-06
2.9587303539042657e-06
4.1177196153767143e-07
-1.3283447777612719e-06
-2.0153256130514925e-06
-1.8216476740044075e-06
-1.1309731107060637e-06
-3.4098601564261524e-07
2.6568915798475707e-07
5.672527030906783e-07
5.815412499032559e-07
4.091355980930302e-07
1.7167401663224393e-07
-3.3599489821483875e-08
-1.5486098125101333e-07
-1.848140410192319e-07
-1.4637076373086232e-07
-7.449686059606998e-08
-1.4380540805864491e-09
5.1307330216716745e-08
7.447687741841504e-08
6.841700422378102e-08
3.9317521715520155e-08
-3.5182365239869827e-09
-4.870428130804375e-08
-8.292377268827423e-08
-9.186169661832009e-08
-6.341320210296774e-08
6.530213902684298e-09
1.0727885964935883e-07
2.0891908843887437e-07
2.6452406757868e-07
2.2229039270942922e-07
4.7633456273238264e-08
-2.498664668288154e-07
-5.952905959277574e-07
-8.46976364651134e-07
-8.272246870803466e-07
-3.887269729718897e-07
4.952703584532182e-07
1.6477564383985494e-06
2.656806494429307e-06
2.9421183192907418e-06
1.9431819064257426e-06
-5.930382474606927e-07
-4.308929360339191e-06
-8.05799971026551e-06
-1.0011965415485516e-05
-8.166000693539059e-06
-1.2242674714780814e-06
1.0349955462957077e-05
2.354153254529965e-05
3.278819991559905e-05
3.12433119329287e-05
1.3404495749637194e-05
-2.1394421009881334e-05
-6.584802975852215e-05
-0.00010365264118430083
-0.00011231820328765542
-7.066115475432358e-05
2.999739175283005e-05
0.0001742960376308934
0.00031644904751846253
0.00038515001934798736
0.00030389828977032724
2.5682780641655517e-05
-0.0004267353255376435
-0.0009315411668928873
-0.0012703964945053048
-0.0011799874615261493
-0.00045561427143664006
0.0009140640285868366
0.002629523141423864
0.00404813263453877
0.004302713331534259
0.0026001572388230617
-0.0013424794571781737
-0.006859863803227773
-0.01211437834789143
-0.014324674128464361
-0.01060555846212887
0.0006217387296216151
0.017978180929598676
0.03584669052675986
0.04420835169745413
0.030173992731232366
-0.01874873698854751
-0.11041944769153897
-0.04435197876408236
-0.010168703213813468
0.01082605819818964
0.04126702568519705
0.10201981410894127
0.0070949121876418535
-0.039266126028154456
-0.04281323378722819
-0.0173644132436009
0.018230996444181843
0.04343930599412674
0.03942023592614945
-0.007594499726871087
-0.1032213462737809
-0.04297999040740069
-0.012549240577784355
0.009214071336760278
0.045026705357728306
0.11330476697026044
0.023700762864777215
-0.024378543706412452
-0.03990190206448793
-0.03596808925142805
-0.0249735876673724
-0.01494536415291412
-0.008121813011363976
-0.0019933741903941215
0.007746352323729439
0.02341248417162145
0.04203780940256727
0.053884208051761
0.04368658021608698
-0.005203931158903765
-0.10467164003585237
-0.055601924770433374
-0.043943918795532985
-0.04097390940068675
-0.008345991705619742
0.0931080706896503
0.09321053357102936
0.0038828181204375225
0.014787123774630139
0.09450066323121328
-0.0029963528404722568
-0.12814319095434085
-0.12463119232250902
-0.020395524332921147
-0.02326523349578442
0.0779719020095725
0.10835495004440632
0.09990292661552196
-0.11444644234231367
-0.10497411770520873
-0.04780973336697993
0.0728610819882603
0.06259239861762003
0.1153038018191924
0.014153848167849073
-0.06459838276828708
-0.14553857604716874
-0.04799837451489529
0.017730180736159798
0.050656064439943825
0.05637388072017287
0.043184229755134154
0.019017017495508402
-0.009679395786756
-0.037111140943332656
-0.05641209213788141
-0.05851030009279159
-0.032824519411332964
0.029871097036142304
0.13330913873232927
0.0722334721397605
0.031641289554876585
-0.010118237934312305
-0.07505048463311788
-0.17839653887624016
-0.12380131746106338
0.0968531134787453
0.09865849511029247
0.09612761766481923
0.09653014893715418
0.09735602227544247
-0.11085654966230067
-0.13768816501880446
-0.18542411947137333
-0.04500535515603378
0.1021872602337794
0.0771043631378625
0.09346076877878648
0.15010260193531258
0.0287879350811934
-0.10135173664506174
-0.07407303464974152
-0.11448857512397254
-0.02985325272999325
-0.005780587682481223
-0.009005375267344367
0.004243462319241801
0.07666455845211838
0.03821437821548508
0.09745922157798073
0.03838396294141012
0.02379120325136581
0.004718068291828926
-0.06643140559552907
-0.22264999316032302
-0.07303061267183046
-0.0005851893457816792
0.031856403368770214
0.06952598030659754
0.15144663441506728
0.09881043769108534
0.10989072222838059
-0.036850384529759285
-0.17271179096122097
-0.12564849763794747
-0.10924699423340432
-0.11810120374841893
0.06871269602377088
0.27773301679543105
0.12918961331216397
0.02829426733684179
-0.03667718155821957
-0.08924027134518835
-0.15534904069376143
-0.054126711230933267
0.007630398060257252
0.03551287701589269
0.04282377665314166
0.04354147022468812
0.04579040164051998
0.04818129870702009
0.04029448368745531
0.007251918509346674
-0.06303736333914009
-0.17253118024826167
-0.10871987387152648
-0.04582562051715087
0.047864689830466475
0.19864410572658203
0.2163995825103025
0.088953692667395
-0.015068589533432724
-0.1352051944372129
-0.30407685978643173
-0.1345018648341661
-0.014355985255934659
0.08858977179910714
0.21401394329128168
0.19404626134570926
0.042096203711075905
-0.05040452369356368
-0.10894715203936779
-0.1656222688221154
-0.04821753649845342
0.02719858403754913
0.0583601683519599
0.054190869106880264
0.02967683099681301
0.0005731389485716786
-0.02053761821831749
-0.026404168194140355
-0.01581568468374815
0.006594158473240517
0.03114213899260005
0.04456823263423291
0.03245081772621996
-0.01740788793073826
-0.11122305656791658
-0.04634908679929865
-0.010685768820895935
0.014910053485179134
0.05175174073630924
0.11768941412867259
0.02282814817397729
-0.03185936984177941
-0.05279947873003069
-0.05014543009466799
-0.03409983953620766
-0.012932206148318618
0.006565454188890367
0.01659229632024818
0.005136931103005815
0.15382850894033884
0.03852572343049256
0.03361074284771941
-0.08043830190709031
-0.10835017944515742
-0.2336503052589404
-0.017880541796002368
-0.007028986029957435
0.2562405341142481
0.21886363883054955
0.10761990926577795
-0.07271447437431248
-0.13304671219793457
-0.2891628233060542
-0.15218694240945277
0.07488899974328062
0.1932803016358167
0.19990442913383397
0.07956590161274503
0.002536410557851773
-0.07079411593399294
-0.18014559473014996
-0.15478859426244768
-0.006729969844703075
0.06971272955820336
0.09226986335434227
0.08186859649851372
0.054367321034255275
0.015855022126313404
-0.03736243950896109
-0.11491946560962212
-0.026816093102678337
0.0215459932887732
0.03217438433652356
0.014819046514436817
-0.014631787733655146
-0.036974486150034014
-0.033242051582882966
0.011379575593125415
0.1038786284713962
0.04101617036657649
0.009320476616658925
-0.011998152903375485
-0.04581585738080467
-0.1111956813958179
-0.01884797687518746
0.030533937546064
0.04474651956293428
0.03632976355440076
0.018275731409728116
0.000709103826863183
-0.010678435301740572
-0.01447622035038947
-0.012268446840066305
-0.0069674860054479825
-0.001387153891175696
0.0026092430596830673
0.004342982284103261
0.004095575566006211
0.0026667114635562216
0.0009331676194822072
-0.0004539105665573183
-0.001189824585938266
-0.0012844684599088688
-0.0009439046450515707
-0.00043416248366295635
2.369503867862293e-05
0.0003059721116498998
0.0003891470312228416
0.0003204164555901492
0.0001770074209442995
3.1068413620721916e-05
-7.096208883329665e-05
-0.00011339328800373665
-0.00010488201222403848
-6.679118565196702e-05
-2.1861846819259117e-05
1.3384173137164639e-05
3.1512086730142205e-05
3.31552667992741e-05
2.3854839542557116e-05
1.0529730367971946e-05
-1.1864808276879165e-06
-8.229967440993054e-06
-1.0118364324495697e-05
-8.153680177904649e-06
-4.361997941204853e-06
-5.970192657980246e-07
1.9736713864048907e-06
2.9806258836657047e-06
2.676004876826978e-06
1.6296893043005959e-06
4.3902273222354203e-07
-4.6371108768553165e-07
-8.839991725943577e-07
-8.414226026559352e-07
-4.934877625833628e-07
-4.900828443723196e-08
3.0193450183018787e-07
4.3211511424358327e-07
2.984839539067918e-07
-5.237525863547482e-08
-4.912630038979641e-07
-8.288644335509046e-07
-8.60278862333751e-07
-4.3433288030151325e-07
4.618320571101934e-07
1.6296976082480399e-06
2.6390703669393546e-06
2.903060339893118e-06
1.8700974958644249e-06
-6.903970958321051e-07
-4.3928910091610225e-06
-8.070293218564894e-06
-9.895283624254443e-06
-7.896006738731386e-06
-8.419202828675321e-07
1.0721136444437449e-05
2.3709769357787045e-05
3.254984715811781e-05
3.0477454229859505e-05
1.2181094514116027e-05
-2.273821605138359e-05
-6.671929176603858e-05
-0.00010334686160919691
-0.00011030210066676251
-6.693508699053856e-05
3.4589817939973575e-05
0.00017799434099092354
0.00031691141771524837
0.0003802701059011733
0.0002929799983832831
1.0601904579592332e-05
-0.0004409627436958833
-0.0009374081750255316
-0.0012601590378657592
-0.0011493432071932926
-0.0004078205727695186
0.0009654075547403986
0.002661173847752968
0.004033062281597191
0.0042212311395110206
0.0024538733753598193
-0.001519082512104533
-0.006997342738461375
-0.012122256383283212
-0.014123816509695755
-0.010173749228859368
0.0012058148494733805
0.01851514519873969
0.036044643040687586
0.043772932122586254
0.028951798758056233
-0.020613204971009477
-0.11238301394603155
-0.0455107663656691
-0.009497075795342593
0.014036310734830424
0.04686746880830099
0.10857508828883494
0.011841259364955508
-0.039815546044588784
-0.051512597475889016
-0.03450774706832107
-0.0031078349304462325
0.027964363889861843
0.045477108387869045
0.039248971827826114
0.003830982429045114
-0.0597124842254788
-0.14269595615232483
-0.02957118013347692
0.09869249975534597
0.059147212467209616
0.061260895148345776
0.10358550065940093
-0.02570389591238087
-0.1444938442671864
-0.07045505676658766
-0.015490385945364416
0.016886442526748053
0.03056621616935686
0.0331898359371779
0.0316396161580784
0.02848148225142774
0.020550046875204772
-6.8834628066099325e-06
-0.042799302314799836
-0.11565815114864005
-0.02202434599162211
0.0396420540278513
0.07443932800382205
0.08880486747110324
0.08922427986621788
-0.11705368035458129
-0.11974199254096868
-0.10359908155772875
-0.049139757983595926
0.0630019477097853
0.24527961864651468
0.09714070486534603
0.003043343296309583
-0.06375652127118082
-0.13287687714232957
-0.2275169568848899
0.04173791326650757
0.07756035423915038
0.09133083033475706
0.09619698964208152
0.10132558690420625
-0.09016277608375428
-0.0792443613056454
-0.06675579569823224
-0.04957258447342994
-0.019425562901358932
0.03493050087673691
0.12317707446760091
0.04863502039516236
0.005440437771432173
-0.021025972310609042
-0.05069422741855808
-0.10386055556934816
0.0033204698637482443
0.06152272419808736
0.06887562904491037
0.0303011111606397
-0.043472100216806135
-0.13691752000560573
-0.03129255645713038
0.09250922022217818
0.049966460076398225
0.0490820268730365
0.088421585029945
-0.041890293604079296
-0.15656122751255952
-0.07060716432193102
0.003922083989586751
0.05864437993629687
0.08734904275196091
0.08410437108573188
0.04300198002544637
-0.03949784727714612
-0.16042261796136167
-0.10667591459692148
-0.05466355860407045
0.025332202219618512
0.16083317386584525
0.1679423382464727
0.04516077823194625
-0.026861606100371818
-0.07929515430703869
-0.14519650080558505
-0.04957454396968178
-0.0030806538809807302
-0.001229289952469072
-0.028852905093163822
0.13228099131224097
0.09568713727057918
0.06520682784882981
0.03488714924739096
-0.006159381397366484
-0.26595542587718773
-0.14256355822997624
-0.02144442333502744
0.12080723209783908
0.10751463061853929
0.15159689929276263
0.0484446723518598
-0.024895499374086763
-0.10382827320279585
-0.02579990437625375
-0.01896852342169518
-0.09347810894125225
-0.0377733820153452
-0.020929351422738496
-0.00044241567217017004
0.06653865226788334
0.2117014950044318
0.04728573725899195
-0.03633330479430117
-0.06659779297086964
-0.0800656270279919
-0.1123963787052471
0.009669366242696166
0.07240959560827923
0.07525128923563518
0.028282377672496084
-0.05124425768526096
-0.14257560108780054
-0.02539673020075837
0.11569928462658749
0.08681990937074995
0.08216208468418588
0.08503795137436569
-0.12685084891520487
-0.1733217104442366
-0.06388193279449088
0.006581715573608612
0.05687774899614202
0.11398424766885555
0.005308063403600639
-0.04857151609495555
-0.03886359019035056
0.029422357764026588
0.13845769232594451
0.061567886241664795
-0.03001009168925358
-0.15875794058857073
-0.13344087210213224
-0.14579881912304327
0.02648112192882365
0.21097292512764607
0.22933723289542668
0.08881451696323564
-0.019505555632127504
-0.11475991377091412
-0.2156561006799888
-0.13035196046837916
-0.05191287578448871
0.038182609378406854
0.15967225891974265
0.12055410888691317
0.10709502390456806
0.08141838880199417
-0.011322368733200383
-0.02741539143879415
-0.004794078972901907
-0.14489865348536235
-0.20272492147691973
-0.2909020353228416
-0.3014238073688113
-0.14452865646228485
0.20178359550651712
0.6448808632147849
0.9515956504334404
0.9614844219460854
0.24927520438078918
-0.9697353585245929
-1.3172843959049594
-1.5529589316508967
-1.7381849790372847
0.7151834945632559
2.522333988312109
2.5721333169754947
0.6010971734063957
-0.46147481078014035
-2.4717390256692413
-2.607740198428169
-0.9167287213602147
1.6892000181852072
2.9907302677291208
1.61168918178315
0.21293554729567782
-1.6425853095005727
-1.7677506203632385
-1.6195340475971869
-0.010889686708110457
0.9023521343748594
0.9625483884217331
0.5098366619081633
0.27977777598781345
0.12962687545681428
-0.19359289485038297
-0.24627029734675998
-0.25587055081331295
-0.27973873412999245
-0.16961171407466352
0.04920317101200532
0.18193690635781112
0.25575091642301556
0.10574563661993237
-0.0373270620535366
-0.1536755938303289
-0.03533864020109552
-0.08376713377938678
0.09320412038042432
0.08370314046656872
0.0737292616017239
-0.15059444123870785
-0.0002791822979693482
-0.0811027338474958
0.00718860664582043
0.06960440413451799
0.11321167628029534
-0.05558585102378191
-0.03256590574218648
-0.015692427539233382
-0.004193059522851967
0.0024461007908933175
0.005050681224360353
0.004825570248444985
0.0031125448810216186
0.0010773315721704741
-0.0005066736999607907
-0.001315022192194507
-0.0013905278574602095
-0.000988168794156469
-0.0004157816123055919
8.127776634200997e-05
0.0003730715200628078
0.0004425740938862549
0.00034903169283854367
0.00018115964988635542
1.8466487632672172e-05
-9.026240538047939e-05
-0.00013094774776455272
-0.00011588586881133012
-7.023837973135167e-05
-1.9464932368482342e-05
1.8724492181311493e-05
3.70462017967178e-05
3.7085440221928994e-05
2.554535454894607e-05
1.0277532503427607e-05
-2.587875113520594e-06
-9.921344094252534e-06
-1.146775839873646e-05
-8.87026855047642e-06
-4.460740275226166e-06
-2.796750621078675e-07
2.453065014729668e-06
3.4172523079222056e-06
2.9617474332881585e-06
1.7499850273395206e-06
4.3756678198902234e-07
-5.292953118740053e-07
-9.760186223426865e-07
-9.54330330490236e-07
-6.430228140323885e-07
-2.455355538397996e-07
8.253437124568674e-08
2.643807381178405e-07
2.9700148216240957e-07
2.2502941299331594e-07
1.0932013145556082e-07
2.017708363306234e-09
-6.650575193907716e-08
-8.912490513980977e-08
-7.564539677050166e-08
-4.3528117411728057e-08
-9.632979598723868e-09
1.4817714600568317e-08
2.5668196371122865e-08
2.452984073542368e-08
1.6160650746500356e-08
5.825957054068607e-09
-2.5297674776522546e-09
-7.027794624561812e-09
-7.682308041471136e-09
-5.700787337324459e-09
-2.6692339964663902e-09
8.140050929092366e-11
1.7965691697615689e-09
2.32172533266133e-09
1.9301574136969205e-09
1.0806434138726493e-09
2.0626917421588613e-10
-4.1118303972007207e-10
-6.735334610661982e-10
-6.293896876929161e-10
-4.050802956414525e-10
-1.367184848992828e-10
7.583498126961728e-11
1.8679678131383464e-10
1.9887688969284588e-10
1.4462383168007627e-10
6.531668549432092e-11
-5.113174625070669e-12
-4.7964214842758955e-11
-6.000302471586494e-11
-4.8791734907114073e-11
-2.6365169595041842e-11
-3.8354362474527025e-12
1.1734233260034722e-11
1.8044982543513814e-11
1.652940214080512e-11
1.05343957475503e-11
3.574477799382169e-12
-1.8256981871467256e-12
-4.5550530954368265e-12
-4.743393816185788e-12
-3.2652068737663185e-12
-1.1934794079646977e-12
6.077870050048913e-13
1.6762416664817582e-12
1.947846643241006e-12
1.6305605921641742e-12
1.0395981807488476e-12
4.597471873585973e-13
6.773906515493517e-14
-8.317551084310946e-14
-3.4481855140976205e-14
1.2532775531746468e-13
3.0561205121590084e-13
4.426342590210287e-13
5.095558658684041e-13
5.112542488000275e-13
4.711537688905319e-13
4.171098736297621e-13
3.7109569577806737e-13
3.445106192957679e-13
3.385089900604266e-13
3.474027665988386e-13
3.6294813911684867e-13
3.778547930318732e-13
3.877090321548084e-13
3.9129361075864855e-13
3.897933694128401e-13
3.8554357853089485e-13
3.808792335749428e-13
3.7740704522930793e-13
3.757718970062537e-13
3.7580899601952815e-13
3.768926223172765e-13
3.783005248630848e-13
3.794745898495518e-13
3.801345935014961e-13
3.8026352472743304e-13
3.80016221801394e-13
3.796079762566436e-13
3.7922519738840955e-13
3.789778924335116e-13
3.7889342303610735e-13
3.7893832571321966e-13
3.790510853270464e-13
3.7917161934969076e-13
3.7925948697713304e-13
3.792992859543656e-13
3.7929625970140295e-13
3.7926707992640685e-13
3.7923045079735293e-13
3.792005300644351e-13
3.791841840373677e-13
3.791815243591045e-13
3.791883539198017e-13
3.7919905805986714e-13
3.792088759742511e-13
3.7921507166455464e-13
3.7921704345978697e-13
3.7921572777698217e-13
3.79212742242557e-13
3.792096310935914e-13
3.792074105986e-13
3.7920644606160537e-13
3.7920657698507817e-13
3.79207360223639e-13
3.7920831197360545e-13
3.7920907356745937e-13
3.792094773578181e-13
3.79209528839871e-13
3.7920934134932166e-13
3.7920906111584484e-13
3.792088095843203e-13
3.7920865464774135e-13
3.7920860914395045e-13
3.7920864707200357e-13
3.7920872596377096e-13
3.7920880617420496e-13
3.7920886220679815e-13
3.792088854679041e-13
3.792088807389429e-13
3.7920885977370454e-13
3.792088350730027e-13
3.792088157125659e-13
3.7920880577081875e-13
3.792088048917829e-13
3.792088100234108e-13
3.7920881735787687e-13
3.792088237952085e-13
