0
-2.1595042204144116e-06
-2.1595042204142833e-06
-2.1595042204129107e-06
-2.159504220410247e-06
-2.159504220406857e-06
-2.159504220403988e-06
-2.1595042204033574e-06
-2.1595042204065753e-06
-2.159504220414289e-06
-2.159504220425307e-06
-2.1595042204361172e-06
-2.1595042204412714e-06
-2.159504220434947e-06
-2.1595042204135976e-06
-2.1595042203790243e-06
-2.1595042203405893e-06
-2.1595042203149932e-06
-2.159504220322302e-06
-2.159504220378013e-06
-2.1595042204827646e-06
-2.1595042206133983e-06
-2.159504220720558e-06
-2.1595042207378088e-06
-2.1595042206044625e-06
-2.159504220298824e-06
-2.159504219871513e-06
-2.1595042194624952e-06
-2.159504219283959e-06
-2.159504219557669e-06
-2.1595042204112344e-06
-2.1595042217605676e-06
-2.1595042232284516e-06
-2.1595042241602966e-06
-2.1595042237857383e-06
-2.1595042215310894e-06
-2.1595042174162195e-06
-2.1595042123892822e-06
-2.1595042083982536e-06
-2.1595042080112586e-06
-2.1595042135109097e-06
-2.159504225603668e-06
-2.1595042421568436e-06
-2.1595042576016893e-06
-2.159504263683392e-06
-2.159504251970117e-06
-2.1595042179056266e-06
-2.159504165304192e-06
-2.159504109329355e-06
-2.159504075608521e-06
-2.159504093676854e-06
-2.159504184689982e-06
-2.1595043461343764e-06
-2.159504539327747e-06
-2.159504687488923e-06
-2.15950469146326e-06
-2.15950446560162e-06
-2.1595039878088656e-06
-2.1595033473214628e-06
-2.1595027653504146e-06
-2.1595025626665074e-06
-2.1595030593061253e-06
-2.1595044164251434e-06
-2.159506464659162e-06
-2.1595085957451978e-06
-2.159509807534577e-06
-2.1595089692468416e-06
-2.159505304077369e-06
-2.1594989774795814e-06
-2.1594915625422187e-06
-2.159486081777324e-06
-2.1594863588607016e-06
-2.159495599274148e-06
-2.159514451765862e-06
-2.1595392046279264e-06
-2.159561083950632e-06
-2.1595676393083904e-06
-2.1595467455956174e-06
-2.1594927673284967e-06
-2.1594131026930965e-06
-2.1593321027286283e-06
-2.159288910647048e-06
-2.1593267571708794e-06
-2.1594740281526278e-06
-2.1597216590797843e-06
-2.1600058648813587e-06
-2.160207812880591e-06
-2.1601802343959813e-06
-2.159803496328654e-06
-2.159060599111493e-06
-2.158105126092711e-06
-2.157284566436859e-06
-2.1570816149932855e-06
-2.157954768930492e-06
-2.1600983267803566e-06
-2.163193285455938e-06
-2.166266614694494e-06
-2.1677911666957378e-06
-2.1661166557663576e-06
-2.160211476536117e-06
-2.150530199370696e-06
-2.139652172161937e-06
-2.1322436567869568e-06
-2.1339695186430733e-06
-2.149281096800459e-06
-2.178518133610941e-06
-2.215354845228696e-06
-2.2460485067061093e-06
-2.2519070981343874e-06
-2.215628353045265e-06
-2.1306332908230694e-06
-2.010532587323489e-06
-1.894137684853005e-06
-1.840961102604391e-06
-1.913903114821323e-06
-2.150219692096347e-06
-2.528277322379317e-06
-2.9440331242610293e-06
-3.2144761481487985e-06
-3.121983037718662e-06
-2.5014767254640646e-06
-1.3522789553555486e-06
6.613329341737004e-08
1.211000690249246e-06
1.3593375158087353e-06
-1.403766072212322e-07
-3.5056347395531344e-06
-8.16079511273513e-06
-1.2560407959325072e-05
-1.438793501414832e-05
-1.1249818553150846e-05
-1.8103660965759726e-06
1.2935978377070397e-05
2.8802232182191977e-05
3.86192491589817e-05
3.403786889199632e-05
8.95862209211118e-06
-3.615654726576415e-05
-9.070349285716577e-05
-0.00013327495272137896
-0.00013594002382796827
-7.422260352186234e-05
5.883085496756316e-05
0.00023905347714791377
0.00040500389374084666
0.0004666092691208912
0.000332934586464301
-4.350543351603189e-05
-0.0006181268952896764
-0.0012228078317402644
-0.0015770274975189364
-0.0013608435097413264
-0.00034961175087481436
0.0014201483071756436
0.0035174779958213904
0.005101000349810542
0.005096343296561786
0.0025919385264416847
-0.0026150644783897604
-0.00950503733697842
-0.015627553759066014
-0.017482321699552536
-0.011652467170190119
0.0034134717072525477
0.025437911586386506
0.04697010188358756
0.05558385726677056
0.03626823670674638
-0.02407605024228401
-0.13117792311444493
-0.07904727315038737
-0.048991541984333774
-0.013301057681197095
0.056940683599765445
0.18241408493660705
0.16812401010574457
0.0012668555088125222
-0.14426737333232512
-0.09832550955523398
-0.08373037972715854
-0.10863260813113795
0.03527230143114891
0.16847773424547877
0.11550965347386635
-0.10388172976656379
-0.08154888162105657
-0.024754345971115633
0.04292421434960518
0.08356666839135651
0.25050295859401034
0.09842537912059446
-0.20243347369788964
-0.25120905533321697
-0.2061311189550836
-0.18521840203087273
-0.08131775737761637
0.2102601175605656
0.35868916133698076
0.3698806230471076
0.17464763326009128
0.03904671432371167
-0.20412206248896111
-0.3111230582586839
-0.3836111058883183
-0.23899613363000075
-0.20412168981444656
0.2659071010025628
0.3501250251035661
0.4178387989198085
0.19259027379935248
0.1343132005573063
-0.1575439061704941
-0.5255028871262485
-0.6315470590013671
-0.14278930830227007
0.26777982500344577
0.5080769503215151
0.652870257425377
0.5437666094986651
0.013180179566047617
-0.6692330134161281
-0.9421595935374857
-0.5127670431910497
-0.3521508322144981
0.06495841895086285
0.6841000177051771
0.9811550545103253
0.6878174708019372
0.15750975368280729
-0.21710801515693565
-0.5420398768645028
-0.7371878605042894
-0.6568847224944288
-0.03936005110498133
0.30351073419342756
0.4598670457327311
0.370263020797123
0.17807684984081848
-0.0067440965992112915
-0.12367814046648017
-0.15886653605298995
-0.13046488934307907
-0.07039203992365792
-0.009051821835484553
0.03359639764523979
0.0503783878268876
0.044503402832177255
0.02500576966391165
0.0022498806034631
-0.01523237334452907
-0.02230320162280413
-0.017583937710861277
-0.0032290837612553667
0.015481902669870061
0.03070234936550545
0.032982542051495284
0.012891131139747188
-0.03681898164762175
-0.11917919273703431
-0.03217518917368966
0.03005013738351012
0.07411456440311809
0.10383264753242691
0.11820275911453955
-0.08759360076716734
-0.11836925502283083
-0.17432921393102296
-0.04856615682037387
0.07143925602276045
0.1988070515745003
0.14161721071391614
0.10029854631607628
-0.12980149740752037
-0.1515699658031503
-0.15877728950041223
-0.13300419753716242
-0.04815216518313472
0.11746413968935358
0.16516868261446552
0.26248087175251955
0.1389312284193712
0.09563056944841583
0.02874543746600425
-0.13805376357778906
-0.4214005806699
-0.557646499018317
-0.20390558350067312
0.03481236502404606
0.35684433502006047
0.5070566204225987
0.7307053079715037
0.5551627609149008
-0.39190339196921287
-0.7325869021840338
-0.6745423169947461
-0.3560787248298877
-0.4197948772701631
0.5786500767939488
0.9349646083171513
0.5527532054698986
0.11245640679998839
-0.5355699103821956
-0.3560261936756242
-0.7052221764503722
-0.11566039233659967
0.10088371477679355
0.832188601677724
0.5365754192375795
-0.18012515859412945
-0.5724168671917891
-0.3478664584254395
-0.05179819604972893
0.1490425906034461
0.8827207304684784
0.5929889194091884
-0.030155429815773595
-1.0123836634591903
-1.062567160195717
-0.7659125957862982
-0.018260374699220427
0.6989366099018491
1.4236453201991717
1.0326698980013234
0.6091044721858145
-0.12471852358428454
-1.1166495920269037
-1.4680908487000228
-0.9346879923943487
-0.4821045333742357
0.28652617658707624
1.0428747412192942
1.4202362684704752
1.1194735255404655
0.2710285049970419
-0.5323025847704536
-0.9452262188887115
-1.1582533399568002
-1.0081485076197736
-0.3452713885582382
0.3290015306247919
0.7674694932277352
1.0585792307074786
1.326715666974317
1.2876678983218375
-1.3240830013928298
-1.267062992874207
-1.0791130043633876
-1.1840024011657115
-0.6534248964662256
1.9668766839196001
1.7878021306478726
0.9045283525552111
-0.24046165085387625
-1.042928110722748
-1.0849052315459269
-0.8789762451651136
-0.4428917997396136
0.4779291309594798
0.7459687750777865
1.3506577272654063
0.5437834914345776
-0.18307083501905877
-0.6716737750342006
-0.6339419397287486
-0.9782270309785915
-0.15075588600454945
0.8937531477562953
1.0946931766138595
0.4759467859883348
-0.4608347617134832
-0.936228732067287
-1.0972948346938811
-0.8440000081379684
0.11144547780201655
1.360382069162993
2.317559079891343
1.5846116733972553
-0.6126054810727412
-1.5118898621266115
-1.6630427421232616
-1.9951939402033452
-0.9583122298825977
1.234618672079515
1.8792782772785417
1.4149796891727329
0.8853046631996278
0.07260296529878071
-0.6777629164897355
-0.9616367392040648
-0.9892157099080866
-0.6721969446329453
-0.15850648199415027
0.5728807352631088
0.6665638266800795
0.5194350059364591
0.3118241557895313
-0.03778891553546573
-0.2864167574003769
-0.2531105981821825
-0.19061910746615732
-0.15566739250856151
0.012282753582601396
0.09972367734956773
0.11651605237404677
0.08658921303918715
0.0372269168033466
-0.009100134425235428
-0.03868302540130548
-0.04671901237498741
-0.03524935576559249
-0.010629712248475165
0.018353300640697703
0.0415237348600704
0.04805380283044837
0.02765125161224753
-0.027441312106142236
-0.12007237804557122
-0.04659748531931966
0.0026684757494342317
0.04054145075665381
0.0785304211114278
0.12285068205443944
-0.027064274973296557
0.02345926461662756
-0.13080163478878126
-0.08943612817304356
-0.04292278672280283
0.026806811018791888
-0.058534129059949
0.11873972483772223
0.16471989944596357
0.06964751067480864
0.009276118132068254
-0.04789211267221949
-0.1297723136028348
-0.2503878955152879
-0.004424600992141309
0.030719810479995772
0.08581334972444253
0.18706229427771384
0.14480763190570042
-0.051940974187849855
-0.03314902404656571
-0.03867813424841351
-0.10594424010175424
-0.05859100321204668
-0.09979891004469671
-0.012228651801325817
0.03550428445735509
0.07803906333839714
0.14193103736629062
0.23795879645444595
-0.03980316336609841
-0.10756484518211015
-0.18073660149411255
-0.2633612917427155
-0.14347209482217627
0.20273917619034781
0.19936748221248976
0.2572722134786102
0.1654456756176527
-0.10795773721190206
-0.20475517828722006
-0.16056133295691352
-0.1902954656078826
-0.08150654403629601
0.2018568660067508
0.1069983149548984
0.07623284045532419
0.1333791815656045
0.07711693673396745
-0.11705775183654832
-0.08771806554624993
-0.074959701051777
-0.10893479161929696
-0.0030719924855547812
0.04647625568017847
0.05590957083310389
0.045807850489376724
0.033120621156279645
0.025623352036693265
0.020203421546480273
0.005065771350291194
-0.035147929657790386
-0.11311593304386663
-0.03357626782798419
0.00920058346149435
0.030517810161503837
0.0516008419481281
0.09481230205382095
-0.020544915083868787
-0.08086886892299813
-0.0795200493979949
-0.017668243434146674
0.0944631196439442
0.03612054531004487
-0.024536318218314795
0.07130929684430899
0.07797160672898436
-0.046975234319320165
-0.13322983506413208
0.011276383130217898
0.006501370747578844
-0.09846231425546505
-0.029831680889215405
0.10114073247982239
-0.01537778563023392
-0.10290662013721165
0.08730498739718903
0.16594336897054326
0.10151531709871317
0.024366652333543567
0.03912542935021054
-0.156639394945521
-0.2521083328735366
-0.10684813699758848
0.057034690829591436
0.05259915431577047
0.11759627585958105
0.10025611555745914
0.04616921469761561
-0.010327578121538514
-0.04914204798585988
-0.06282038973071216
-0.05262552071356565
-0.024669463803162917
0.012397974373630207
0.047941277114744156
0.06907138087490172
0.061017213920848835
0.00927566650210865
-0.0963682255307318
-0.057159238573679425
-0.062088397617941535
-0.087921025821216
0.0967259756546356
0.12421206723279389
0.019965814661849397
-0.003432495151759562
0.05166535155894907
-0.029984013856724348
-0.07145635684386452
-0.09748591208849083
0.0708341847003752
0.019129327170050486
-0.059677750564910585
0.03333071217487665
0.10086447757085494
-0.05273783500873037
-0.022973686126566892
-0.005779277926760492
0.0024170949246215667
0.004752818452255775
0.003878294717461422
0.0018239131686893265
-9.271535494939698e-05
-0.0012404409695275166
-0.001527962343069406
-0.0011902070256255921
-0.000576257761706665
8.536971889356382e-06
0.0003837334099990524
0.0005043348619152528
0.0004246299069348927
0.00024405266985233379
5.84683057359403e-05
-6.999832036143782e-05
-0.00012183045031995903
-0.00011223319433732134
-7.431194318745876e-05
-4.101754991492845e-05
-3.149746388942413e-05
-4.488564268841803e-05
-6.22724796961751e-05
-5.5826813185677585e-05
-2.581717727009446e-06
0.00010099284463372899
0.00022872063328002653
0.00032428471526258016
0.0003149074903730912
0.00013970795522979049
-0.00021285258898750967
-0.000671228359409656
-0.0010689326393658607
-0.0011725678490802798
-0.0007587315493199621
0.00026985706902819844
0.001763432918282956
0.0032561609243696556
0.004013062251313147
0.0032370444416296093
0.00042696554863575197
-0.004202106416175351
-0.00940786120779797
-0.012937007467144232
-0.012054297484360335
-0.004628936497292573
0.009418130010784165
0.026781492970280832
0.040227988230731815
0.03949305866839466
0.013905972647134694
-0.04366129647765994
-0.13275279927787415
-0.04295910031869513
0.04525543727814926
-0.04386086933155484
0.11180034875389529
0.12520412265931738
-0.004492613299714442
-0.0926217457340241
0.034411777795629046
-0.05467298255209476
0.011024941309270472
0.010820603011312038
-0.06327552342525848
-0.004855977025769466
0.005782796774868227
-0.002037401818657367
0.005095829567831082
0.058430288329079684
-0.018679276517226878
-0.014880942927933374
0.0674024482347694
0.012829834274768697
-0.00348619158857995
-0.010662806774887854
-0.035894792265287134
-0.09898402451830836
-0.009045697748766098
0.035719347797506
0.04535298130599608
0.033774362538286445
0.014387766433284757
-0.002982693439370217
-0.013266812412601801
-0.015652689378777996
-0.012112249596688216
-0.005720100403328718
0.0006654982991817561
0.005113841679577288
0.006772481116146131
0.0056768129626538705
0.002466139893879886
-0.0018305817636059677
-0.005911271776512729
-0.008309661976140713
-0.007633991711306154
-0.003023245803996351
0.005227005226480353
0.015090179515864657
0.02263792667562432
0.022625467261191162
0.009989069346102435
-0.017980687963589828
-0.05950922005727483
-0.10731724709203032
0.05031921659141997
0.02617424966478375
0.029213189136471685
0.060059309911824246
0.10875141220118133
-0.04390010956292938
-0.021298109550929863
-0.04375434847322889
-0.12132526435262103
-0.04940614208052025
-0.008876435488834307
0.028997812008924057
0.09449604263707953
0.21109447745592566
-0.010128637957498418
-0.17155196181202947
-0.08593284986388323
0.02857934783487247
-0.04715726868292938
0.06930632936325742
0.16317927370346386
0.023439000167155364
-0.15544006737339428
-0.1714641980227143
-0.014436311034160642
0.13189676479813683
0.08503201890520884
0.05826913854543629
0.057213745185281197
-0.12033654085598247
-0.08157648474662457
-0.034816822015438814
0.01341002782364365
0.05923186983106959
0.10067915985160467
-0.06350598406241922
-0.03446121038779621
-0.012997756180073415
0.000886333571869997
0.008176382688101327
0.010506016149005227
0.009548143372021452
0.006512682593787296
0.0020287072774064453
-0.003536147713462558
-0.009497739759571243
-0.014356144977555186
-0.015746095613892504
-0.011092012496062866
0.0010354230948779596
0.019209233941267567
0.03775352779051044
0.046487598609322736
0.03224920473280719
-0.01773299620141659
-0.11140459710149189
-0.047954325470082874
-0.016146720138068008
0.004006870010686064
0.03647466051399689
0.10282902275899276
0.016386217793801134
-0.021289720178446447
-0.020646013859810495
-0.001449307261211683
0.011803961542312674
-0.004863901193566956
-0.07009686077405988
0.006288647386185673
0.024855329026526176
-0.004036678851591815
-0.06264811889405023
0.07051407658131491
0.01665515602582145
-0.006889350893702186
0.01104604046945968
0.07495880607203978
-0.01597600535582842
-0.06522758632617312
-0.07596957027627824
-0.04926005180309532
0.015625910251705233
0.11875561438942728
0.05629149597775592
0.018349224853744975
-0.010628079707018883
-0.048893999051070565
-0.11307551379236223
-0.014371974230554212
0.04324523398556134
0.06250429068115997
0.05086397617765081
0.01851108905398593
-0.022729031051811528
-0.059686368214643085
-0.07844190537245245
-0.0666440510925285
-0.018383792888988906
0.058876264191514864
0.13742738983173391
0.1657221390404326
0.07118833089712188
-0.029092318881735576
-0.21119291285872427
-0.12473350455184368
0.023799054076517934
0.0803660235609088
-0.056789541633225894
-0.046725562999847224
-0.1236197708183367
-0.1211658334550901
-0.10099791928904146
0.2192733401536752
0.6452413036233232
0.5002870323378754
0.04168556649533954
-0.5025078582081163
-0.686224166310572
-0.8054783579866028
-0.28305224889507524
0.31447339559436127
1.0344602158938403
0.891008737327096
0.4373117430141548
-0.025880064147760545
-0.6060560442824791
-1.3572212970664985
-0.6290257735037076
-0.052537536688253804
0.2261177883463551
0.27289212039250804
1.0785299659176135
0.8881233928192652
0.37419916359527156
-0.1338866418379056
-0.37070519124455076
-1.0301556390724302
-1.070108557234076
-0.6592170555245497
0.014557962192643775
0.6753210849513757
1.0537078145915857
0.9811612483308024
0.7205627399099445
-0.24415885027339507
-0.7589329862098603
-0.7119265177463733
-0.740645773544335
-0.5658826815104882
0.2281225087692017
0.5662344724479076
0.6233134743493134
0.3581783876753665
0.2642119199260743
-0.049378575909110864
-0.24446098887702575
-0.4188033803248971
-0.2644938390851699
-0.23552003422581966
-0.1348721826859215
0.07645760638118146
0.45426167674433
0.4411307169539575
0.24473404110009075
0.033870596381700695
-0.2458741546980812
-0.4436499795618935
-0.3745559847414913
-0.20340217167177177
-0.048719940646630606
0.39374199766930057
0.4170756019624018
0.47251843836324153
0.15463286446491786
-0.19163828502017768
-0.44556424743192796
-0.47860499282745506
-0.530557166602509
-0.0048725858544210136
0.5151095152297559
0.8380826496139137
0.5409179421069537
-0.036061095227436245
-0.5694427660081766
-0.5167742145243014
-0.6817602003019401
-0.19849732978247187
0.2559285405291594
0.6241940906191433
0.6218176310572151
0.2997735223040278
-0.1688211525982933
-0.27435343307630333
-0.33664206436973343
-0.4659052706199756
-0.13340150341036547
0.23951115901753517
0.27363228597033207
0.21250297954801148
0.10135020988556978
-0.027480147380794625
-0.1593338765218775
-0.09386848118222235
-0.03773818339335395
0.0023658283222070028
0.023787476837745573
0.028677944242678433
0.022475170211699876
0.011539131687493683
0.0011230193268190276
-0.005710455842596558
-0.008171291650375695
-0.007126014507198984
-0.004210129457002767
-0.0010345564006720043
0.0013062206410367645
0.0023839114554053895
0.00232377269751696
0.0015611940031393953
0.0005913741698667945
-0.00020743098141139864
-0.0006490899915943804
-0.0007271358559796122
-0.0005507883512335835
-0.0002683714201869574
-6.675216455918829e-06
0.00016064896763172347
0.00021644592072995558
0.00018449718510894574
0.00010688480888919835
2.401311459628108e-05
-3.7361104111364715e-05
-6.721869628300362e-05
-6.877234302736979e-05
-5.197790895149308e-05
-2.7407019217248083e-05
-2.5750728828460756e-06
1.8728022420514726e-05
3.486346717402241e-05
4.403915588214816e-05
4.2890073947141634e-05
2.7058562537151183e-05
-6.051648498199249e-06
-5.330692680820219e-05
-0.00010260904894745295
-0.00013278915190604755
-0.00011855227661736118
-4.080112726550236e-05
9.987984022654941e-05
0.000271620425264222
0.0004084935699808924
0.0004231131057718533
0.00023727966441345678
-0.00017402277173066827
-0.0007392836931499089
-0.001269561862604909
-0.0014833563086651795
-0.0010915376664613933
6.47170624777714e-05
0.0018602945633989676
0.0037835547443358345
0.004965131054134452
0.0044003653026737505
0.0013682198798056484
-0.00404605982582329
-0.010523266543303978
-0.015447227908678732
-0.01545798883390558
-0.007724545079980466
0.008237223871091768
0.02871805342842378
0.04473010716980853
0.042505389643912775
0.006054150721720741
-0.07845855878019976
-0.0176044763706712
-0.006477042268860391
-0.026911555876621272
-0.04906045242027512
-0.03642167009301885
0.04641053797168274
0.024839221584152086
0.10648721502218618
0.07706842623692112
0.10184336978351058
-0.0668675185491556
-0.07767150928573954
-0.1670678461134695
-0.14976702790385357
-0.015975287089168354
0.06313319610355281
0.12366797144326427
0.19544232815365173
0.0917784223720044
0.006540863488121844
-0.08072270203083842
-0.1939573757635432
-0.14871869581877303
0.05601330982483859
0.03950278684817332
0.0344945668954778
0.07843787952414821
0.003944865875154654
0.031197739300109814
-0.03616522398060133
-0.011349989955477586
0.07860555431913763
-0.0017421831201980284
-0.08948130123829234
-0.016548888983377894
-0.004371846107500485
-0.06118290869508274
0.01747073300473428
0.045424729304797795
0.040970187168570545
0.021857127460621264
0.001620276169459306
-0.01203986458759921
-0.01690309938962775
-0.01457890161391034
-0.008433122738439302
-0.0018182417451960092
0.002997065152793856
0.005146472872810828
0.004921851271007592
0.003254947463273902
0.0011895851966157625
-0.00048677702003612985
-0.0013956510397457903
-0.0015360796475721943
-0.0011466978131674398
-0.0005435444059302875
6.809542017285954e-06
0.00035217137544346806
0.000460160935134928
0.0003843010107548501
0.00021577947804471637
4.118362820381169e-05
-8.280850153544158e-05
-0.00013611592857726003
-0.00012807494222164735
-8.372348000893101e-05
-3.022677952534885e-05
1.2374847145514972e-05
3.479844749452263e-05
3.746235449079595e-05
2.6792842655473966e-05
1.1013770039764542e-05
-3.0780132850850114e-06
-1.1708012513437898e-05
-1.4191078896241418e-05
-1.201046052031525e-05
-7.5589205085906945e-06
-3.0585835526823565e-06
6.930986279139295e-08
1.3534485010273237e-06
1.0705449748793973e-06
-1.1567041080599296e-07
-1.5035541802521212e-06
-2.5862639487182647e-06
-3.1382618520353698e-06
-3.182330752181454e-06
-2.891271423933068e-06
-2.478923166660889e-06
-2.1184114550150938e-06
-1.9031156303198767e-06
-1.8468384672146489e-06
-1.9087274098491893e-06
-2.0260860953614815e-06
-2.141946947140806e-06
-2.2207311214734257e-06
-2.251487750949353e-06
-2.2422640744544984e-06
-2.2106192316138186e-06
-2.1746559202933803e-06
-2.147176088065933e-06
-2.1336355131634885e-06
-2.133139769696421e-06
-2.141054082137553e-06
-2.151820857267448e-06
-2.1610306378104333e-06
-2.166375616117948e-06
-2.167599345144809e-06
-2.1658270397806514e-06
-2.1627119869775033e-06
-2.1597300254431806e-06
-2.1577853257907835e-06
-2.1571338449524576e-06
-2.1575307827055168e-06
-2.1584754898578408e-06
-2.159446590515671e-06
-2.160065186127825e-06
-2.1601697319032692e-06
-2.1598165247343325e-06
-2.1592303391522805e-06
-2.158725757537064e-06
-2.15861118387672e-06
-2.159083971534577e-06
-2.160131300769989e-06
-2.1614651064439916e-06
-2.162531514534618e-06
-2.1626334739276654e-06
-2.1611791656090885e-06
-2.1580163798129476e-06
-2.1537460325009513e-06
-2.149852774890946e-06
-2.1484830991516507e-06
-2.151774033737627e-06
-2.160799629119252e-06
-2.174429956042334e-06
-2.1886124363511344e-06
-2.196674220491184e-06
-2.1910895362946737e-06
-2.16669210691093e-06
-2.1245890862871014e-06
-2.0752554397590212e-06
-2.0388083839610176e-06
-2.0406898395131595e-06
-2.102219134638132e-06
-2.227694046457898e-06
-2.3923933677499066e-06
-2.5379167159161793e-06
-2.5814169556194015e-06
-2.442239076118903e-06
-2.082940711342929e-06
-1.5528262513942327e-06
-1.0139991405579247e-06
-7.269463357650349e-07
-9.792703735006442e-07
-1.959692288040601e-06
-3.6076525536740793e-06
-5.498465804241006e-06
-6.84126370996725e-06
-6.656205537768665e-06
-4.147676274039387e-06
7.966893702442548e-07
7.154052093824541e-06
1.2611534398545742e-05
1.3957271519461244e-05
8.141478077181432e-06
-6.1264849954567596e-06
-2.6720996508419102e-05
-4.7164818171700364e-05
-5.729538822249036e-05
-4.6134055452441374e-05
-6.822904810978406e-06
5.760367641898579e-05
0.00012997249520545296
0.00017922802993337465
0.00016767912405685
6.572190467284978e-05
-0.00012887733283585524
-0.00037399528160806864
-0.0005781643239458691
-0.0006170060203834175
-0.00037541675124349287
0.0001903432798851691
0.000989715177728322
0.0017646043608533573
0.0021194883833014415
0.0016368389156193085
7.053564128188449e-05
-0.002432766465488252
-0.005177286208421671
-0.006941964219055446
-0.006278399557728397
-0.0020975255881887814
0.005571587122982264
0.01491549678585169
0.02212829733509063
0.02200331496363182
0.009457925458559013
-0.018266909486241475
-0.059463980400555644
-0.10693801179823621
0.0509373348272194
0.02684993334858819
0.029756382687453366
0.06046523820333311
0.10955635331217219
-0.04107926523063866
-0.013063058328694048
-0.024166800741576008
-0.0813601549674733
-0.17723368521940952
-0.09216998668291064
-0.003033698575284422
0.10334073240946588
0.21631608297841032
0.29347993911625253
0.2643106227108164
0.04809421466633678
-0.21675223705599111
-0.5409215179175003
-0.6631467439853197
-0.4523482817558386
0.061299997681687576
0.6324744527815241
1.1424305750384238
1.3615189812064719
-0.046585653010493965
-0.8741718660295983
-1.4897952127447296
-1.16410060552285
-0.8368175446142385
0.6565563537813179
1.507740303730599
1.842895243191128
1.2582919426227608
-1.1836263974724408
-1.295121312583777
-1.069348332629127
-0.7958852644485432
-0.6224800865936412
1.423850529110187
1.1703283740064965
0.6185052487097916
-0.11555545951996768
-0.4216863733271834
-0.577695136311832
-0.10909379662005245
-0.14609441801511922
0.6079605242994671
-0.9090609793312794
0.07950505851800618
0.17372631775062916
0.37504526456240334
0.06678040272822527
1.2072716563019923
-0.2577131210163844
-0.7649247354350085
-0.897937095001126
-0.7648232326640323
-0.005795421052291106
0.7655477461583762
1.1009853243798313
0.6619321745885828
0.19412371931923172
-0.4554072148119365
-0.6859459589994256
-0.8771413926294594
-0.3357337138802044
0.12604159276895754
0.5761156411630637
0.5230236230856734
0.27022924222532446
0.08237033543306702
-0.22693409545470117
-0.2865322179178326
-0.14681634976529265
-0.057077184126101736
-0.04934805589650076
0.06775864270470744
0.10615278344232158
0.0899559247529036
0.04614319858806281
-0.0024608359129238092
-0.040357602032954056
-0.0592117003554903
-0.056074648841635946
-0.031900005514882236
0.00848779711843605
0.0550414496025295
0.09098906985984465
0.09297760012794488
0.03426697796355706
-0.10895983383551873
-0.14991000582748243
-0.0851935335454376
-0.09355319339590785
0.059383662690074016
0.2116982509532628
0.19481189020279474
0.026534582719021777
-0.0896630431832044
-0.15951206796617215
-0.19025988681315584
0.015240909841931638
0.05979589487446604
0.14850214859017014
0.0833227353785894
0.05898241801169861
-0.13759432032213653
-0.12426599511073189
0.08118386912418538
0.06563701496754025
0.023709771693642134
-0.0410320670953863
-0.11696199383598099
-0.18809091273475928
-0.041200719896898316
0.1243522206413365
0.2873664243628954
0.4013390007571025
0.20192806513029496
-0.17315526972791115
-0.5565867681077744
-0.527003421452554
-0.4004667976480896
-0.0460572839674169
0.4761121157606499
1.0673204179378393
0.5527260985845587
0.07155298056901313
-0.49858040658127867
-0.6922251307187864
-0.8023647875685395
-0.24512525446645947
0.24293564880043303
0.5755039159206495
0.6692880547277749
0.19926415448061333
-0.026642110287453582
-0.266713925287192
-0.22304566737875361
-0.4094085174535703
-0.1222301498407474
0.17661073503663274
0.2631456977273288
0.14480193812626344
0.050641022607909765
0.023586014397378886
-0.2839567682328925
-0.21333257009302273
-0.10545546774378774
0.08853267239375281
0.19319352534861134
0.39661034202785433
0.247035358293972
0.06331737003756957
-0.2412728285971932
-0.5288042348651975
-0.4116984784180184
-0.24455194385958542
0.0614007763009843
0.40471509510746234
0.6535978184741128
0.6162440136388769
0.23611582921001917
-0.38286868659901596
-0.7293242758726658
-0.6345033178107231
-0.641568413740538
-0.009321548121452231
0.648386104293437
0.9016903678415553
0.6460368977458814
0.06885728500470464
-0.3465008014211493
-0.5836081911814733
-0.4392683265106205
-0.2739873255410672
0.2178668919879375
0.2129409020390225
0.14338692415757734
0.07094467635215881
0.06069403771048041
-0.03864645323239237
-0.004825089681550036
0.157643489949619
0.025561715197481075
-0.02894614892250424
-0.22208736112356503
-0.14440219728746054
-0.15393846168292688
0.02030888782974537
0.06500017005933352
0.263161875634194
0.27555046883542306
0.1291769118044224
-0.18339505625686212
-0.2951514885706468
-0.25169643475310005
-0.10130813952913542
0.10747845929902138
0.32126768251197874
0.27537685366980036
0.09246153990751849
-0.10924342926020264
-0.19850918091451067
-0.2098776524644351
-0.12621625074192375
0.12856413646676376
0.08386598355902153
-0.09510584591718177
-0.2333830693594045
0.023216174710846114
0.17752054616125873
0.2561981108879134
0.39768886174566
0.258957305600296
-0.1570674872505072
-0.45825108285396643
-0.4156990072767986
-0.32632371132376886
0.002893383567606036
0.24511452764033706
0.3235211721082883
0.172272220249275
0.10111632276086249
-0.027263930705370764
-0.00377325598546307
-0.06504807387779085
-0.07615192290237946
-0.10982550658498835
-0.027805705455341525
-0.0682152501434463
-0.04094884632555262
0.06919935755558167
0.09379435017147669
0.06972688091346096
0.029375421816566192
-0.005511160273799975
-0.025346853841196518
-0.03040093554380389
-0.026363354631187465
-0.019686958668415622
-0.014210376498723304
-0.00987621733986155
-0.003631938260539796
0.008021229462567165
0.025821578877788232
0.045121955044006797
0.055061204796261
0.04035679789566011
-0.01425657410748386
-0.11800732966381146
-0.06854663106396901
-0.049281451074857784
-0.03125940207348381
0.020317721534916126
0.13670868797518548
0.1364517760414222
0.01968099450170892
-0.03191368994500446
-0.04947918490502987
-0.06788166285005888
-0.11635125004420957
-0.01193679512413299
0.04249616900767017
0.05580183348012034
0.043262140609570586
0.020770768477745092
0.00042979363849815304
-0.011491803777683966
-0.014307372021953152
-0.011103044017223606
-0.006320889901489967
-0.0035666643736418837
-0.00419397954871138
-0.0069223529174776265
-0.00850597639159107
-0.005278505900445712
0.0047792336335981496
0.019981403054447625
0.03355897971348762
0.03362449763592655
0.004885256771341674
-0.06801565216236682
0.0037238540849407805
0.017021860217874107
-0.020512905687380963
-0.09015389494409883
0.03588207923580977
-0.009980178807241497
0.00331720365942202
0.09926499581886067
0.08911418945902544
-0.029834308180786143
-0.07249675387224651
-0.061662083821833205
-0.022815310007230482
0.020122842766897475
0.047303003275012155
0.0439434613937788
0.0006080169605560385
-0.08664018971370867
-0.01623586254253361
0.018273332745151083
0.026671770403959846
0.019826199183068393
0.007438275541266063
-0.0035160252684347804
-0.00935119938781634
-0.009356023362876604
-0.004955888162758774
0.001270221422100242
0.006479055850560819
0.008290997269680899
0.00539170923970112
-0.001970663582084681
-0.011681518113485308
-0.019869954058657446
-0.021705019334219883
-0.013032294376935505
0.007308118599584984
0.03508028279304518
0.059157720741089694
0.062031106548728995
0.02302357086444645
-0.07600849220431592
-0.04391014257639506
-0.0747406997050322
-0.14600663168844943
-0.022121434955488826
0.13719476825716667
0.16598799147251717
0.08254397093790838
0.08508773128447487
-0.045438057250983675
-0.1366377051194179
-0.21367306931044366
-0.0907331800965581
0.03143797977222025
0.16121279317758486
0.10742769962622155
0.07077474582072674
0.03927651235976959
-0.010223050808584525
-0.10527343569100092
-0.06852768295839243
-0.10959016785281217
-0.021119577288535255
0.01933808457830429
0.04243887660511689
0.07753402031401387
0.14396117908193945
0.0462557063553462
-0.024992073070543745
-0.08703638020290508
-0.15611958940843731
-0.03942861013701807
0.06905879426185436
-0.012466244806599401
-0.05914200307761607
0.15269680127434013
0.037814878588807034
-0.0031590725317646815
0.015033465982200933
0.06536855758381842
-0.08499628630098566
-0.06677339505884985
-0.10146767664471637
0.002678346587165868
0.05060530174123235
0.05668078736302574
0.039043274190358
0.014224460740610524
-0.006343896095138168
-0.01739044813864026
-0.01884101873193566
-0.013758750466458554
-0.006156053334779048
0.0006381627821714554
0.004776211982661082
0.005925345632862624
0.0048137310399452675
0.0026119755282971854
0.0004042518969894145
-0.001118966596530114
