0
-4.0405408248997336e-12
-1.3764355145140509e-12
3.5103297477486473e-12
9.5015675229964e-12
1.4285755273665286e-11
1.480454767878353e-11
8.32650659606418e-12
-6.017048720494048e-12
-2.5722737577925147e-11
-4.4191581104151086e-11
-5.1603888774867207e-11
-3.7889182377555324e-11
2.4564512989609384e-12
6.500735452467008e-11
1.3182591374627099e-10
1.7245978884165873e-10
1.5168545350823554e-10
4.4097655163783854e-11
-1.4767157703193413e-10
-3.7797633741545366e-10
-5.556854019470942e-10
-5.626922897569316e-10
-2.964630428551586e-10
2.703943709028867e-10
1.0330160557381515e-09
1.7291956124970081e-09
1.9772778285938733e-09
1.3949136212583701e-09
-2.1291401730925768e-10
-2.6490486944045844e-09
-5.1936933310180635e-09
-6.655782601461112e-09
-5.6864232242208605e-09
-1.352045243976937e-09
6.164450922506793e-09
1.500579718049522e-08
2.1583798875679663e-08
2.1342979958629026e-08
1.0444165606381727e-08
-1.1927738092274353e-08
-4.140678051228083e-08
-6.759034875202669e-08
-7.56619014869539e-08
-5.1130853288066786e-08
1.2837002373600352e-08
1.0760747031882506e-07
2.043547047013691e-07
2.565472582889998e-07
2.1260275913753225e-07
3.8376942808495544e-08
-2.5588780548982743e-07
-5.948467003009994e-07
-8.373964067365434e-07
-8.080450695960959e-07
-3.634377777285527e-07
5.183422093937845e-07
1.6564860080579178e-06
2.63889683008842e-06
2.8910322201610175e-06
1.8647606864846517e-06
-6.76179234675709e-07
-4.3587259277707415e-06
-8.030676325178278e-06
-9.876274946942385e-06
-7.925905212791082e-06
-9.374468502100033e-07
1.0569323376529493e-05
2.354622843061689e-05
3.24513283374512e-05
3.053263500753798e-05
1.2453269125617012e-05
-2.2257053397059154e-05
-6.61455377008879e-05
-0.00010291039993536787
-0.00011029850279983812
-6.761786171085321e-05
3.31586153917588e-05
0.0001760857371750767
0.0003151891534338814
0.0003796913522933527
0.0002944938814039566
1.4677061363923757e-05
-0.0004348479934244158
-0.0009310835086632019
-0.0012566195925411156
-0.0011519499594345576
-0.0004188563176515032
0.00094648901367565
0.0026391205350499245
0.004016922958587103
0.004222392092431103
0.00248180362717001
-0.0014626109058832933
-0.006923596187477701
-0.012057556460524092
-0.014105308292429118
-0.010237379939695491
0.0010437045066950708
0.018277254141401317
0.03580418967884716
0.04364691754608221
0.029068820460407183
-0.02016946003699922
-0.11164079957741666
-0.044660800327488516
-0.008891929436743636
0.013963501440821348
0.045771831876792846
0.10642376227353642
0.009112535529304504
-0.04207333753358092
-0.05188049942130789
-0.031721586852961024
0.003128947728820917
0.0360582031913771
0.05120982917552971
0.03556142497791383
-0.01865228232933303
-0.11142285855592497
-0.03334725645456672
0.03386452511655128
-0.08591107943120539
0.03114641598463784
0.20236373529697904
0.03351024977167347
-0.08292476925776429
0.0346623484975265
-0.03740372332397088
-0.12138150296857005
-0.0326731303001901
0.022679512635095593
0.04712730554371797
0.048308290712138845
0.03509765294485319
0.01475951651488689
-0.007853692890711455
-0.0291719006279558
-0.04483009132294835
-0.04800868257977356
-0.029357272152327817
0.021054033096127026
0.11031401785380979
0.03919207116619938
0.00021980732682138487
-0.02171475053106243
-0.046504152787108274
-0.09494769469564589
0.014605024759241133
0.06813447563478552
0.05643384074637334
-0.024899720381651964
0.025009341979704076
0.013599626724616424
-0.0435424787664932
-0.12188679044483094
0.01082569330581461
-0.00941833192874807
0.05056121025799242
0.013522489585868675
0.08531194902057695
0.051688551923854006
0.07991332803471457
-0.07472013291662097
-0.058798340547029496
-0.1098908203936064
-0.04812183044625963
-0.07281371151253081
0.034886334411678856
0.1045632928987895
0.16715474607935005
0.047153688412443426
-0.04095072751083313
-0.09145097847171803
-0.10317978584046852
-0.07525918264533211
-0.005440705885561548
0.10807113636809552
0.06245550936223034
0.04623467353169002
0.037824876740139006
0.007987296808558773
-0.07415268234532466
-0.033260336367246436
-0.08059217165935832
-0.009769819496906862
0.0030701344570324557
-0.0053260309325121845
0.006779090605284702
0.07691040394150626
0.03013960673515533
0.07387157807561333
-0.0030037319893083296
-0.026415118896055186
-0.02998011177028374
-0.04652887871727777
-0.10069289139309243
-0.0045440170278091795
0.04278116566366915
0.05190320134283524
0.038055800095378
0.015981101798480685
-0.003579896594180322
-0.015187984976180065
-0.01808884401084958
-0.014498679917544565
-0.007697830264413827
-0.00059666922856242
0.004944269504590688
0.008114052562039413
0.00876914635002482
0.00702424061502051
0.003081357174576741
-0.002619094051209315
-0.009045854331259526
-0.014300199759033504
-0.01574140618776244
-0.010743701299937155
0.001928654126116466
0.020476383767595117
0.038811448423419326
0.04648867084385617
0.030417504295483514
-0.021647203989243663
-0.11670381224203973
-0.05282002278530891
-0.017926987610518155
0.007934426109601718
0.04736564440416006
0.11915680174033294
0.03302822720949041
-0.012449469078768895
-0.02803886190508246
-0.028928764203431514
-0.028613005194313628
-0.033686799508094
-0.04126195914402269
-0.039897727214398424
-0.013968906972600847
0.049662586552049234
0.15478908705823133
0.09147021161345519
0.0363766009771537
-0.041453278646966026
-0.17105944304669296
-0.16976986674502337
-0.03721514388885977
0.04425088987796132
0.10291670189167804
0.1678016868674328
0.059701102208712914
-0.01329699257450544
-0.054545453709606784
-0.07312181607633488
-0.076680868512106
-0.06616772239718323
-0.03465798389325245
0.029184138708974714
0.134445107141975
0.0809289575505903
0.05493201834594951
0.030033289912074494
-0.026848523948048788
-0.14601999019545556
-0.1455739288376149
-0.025539919787422396
0.03206203808244282
0.057301056057826164
0.08292170573385536
0.1350549240949015
0.027400206644776947
-0.039312809419909105
-0.07294970732911767
-0.08300025057865115
-0.07423580310718851
-0.04375272602233442
0.017385677330027802
0.11865465473396335
0.06309740318906418
0.04191623437923918
0.033075652219245244
0.0048328130017268565
-0.07667295955222989
-0.038033907184342276
-0.09028979630838657
-0.02438200935917668
-0.011908756670361832
-0.011209025572882062
0.02272397295973776
0.12713057533243838
0.12229631897672133
0.007047028845519516
-0.03966772227363847
-0.051736989985241635
-0.06589659998861414
-0.11212309176069953
-0.007310674950412464
0.04628551993141911
0.05815752764885143
0.044000113406003044
0.019868603068303663
-0.0020730639757081774
-0.0153799999100454
-0.01893605441004122
-0.015189443240014932
-0.008006076981486036
-0.0009116127995128318
0.0038943389372161664
0.005739605957075061
0.005127343946102787
0.0031459685836801423
0.0009134435838826669
-0.0007831705684163575
-0.00161224559169544
-0.0016341019260329135
-0.0011384516477718322
-0.00046991260889944807
9.957087518709662e-05
0.0004288184374350479
0.0005034069319933244
0.0003936143176160947
0.00020139886351139768
1.6972345993332806e-05
-0.00010501517665944732
-0.00014945547425030466
-0.0001309706503382107
-7.843455227358263e-05
-2.0734934465678728e-05
2.223963872187979e-05
4.249651671590417e-05
4.20623704266446e-05
2.8671521577505284e-05
1.1258000373408864e-05
-3.2708926289135075e-06
-1.1444087178938599e-05
-1.3047091434470435e-05
-9.992858304519423e-06
-4.94398543524658e-06
-2.072123471564296e-07
2.8550789702944263e-06
3.9027620253207205e-06
3.3485493901892805e-06
1.952883019461976e-06
4.5932026360954594e-07
-6.30784342385e-07
-1.1252965537324859e-06
-1.0874248617191522e-06
-7.223409878858767e-07
-2.616460033028485e-07
1.175120509741017e-07
3.2642011478215935e-07
3.5900511291825316e-07
2.6332243058475584e-07
1.0812495640387208e-07
-4.30985932219155e-08
-1.4582589425225386e-07
-1.7759579249679113e-07
-1.3550705022376542e-07
-3.3052167959578844e-08
1.0139516353697563e-07
2.2561778527257284e-07
2.878644589715742e-07
2.3836968129352745e-07
4.922303564925303e-08
-2.6151649523891424e-07
-6.11435160223118e-07
-8.547576660947906e-07
-8.147963247572022e-07
-3.51065063065464e-07
5.514857194831124e-07
1.702304588701104e-06
2.679247344577949e-06
2.9014142219956132e-06
1.822607000879913e-06
-7.79750049168754e-07
-4.507178541357744e-06
-8.17592278663729e-06
-9.944304255915148e-06
-7.838238402681025e-06
-6.471009715225866e-07
1.1036574013463752e-05
2.4062478682834745e-05
3.279039085565146e-05
3.042449030417521e-05
1.1691670239052315e-05
-2.367597222241962e-05
-6.790393710323768e-05
-0.00010433867922463086
-0.00011050113233788015
-6.578357704334696e-05
3.730811042997325e-05
0.00018184928491795152
0.00032066319227960874
0.0003820101203528557
0.0002906832260845248
3.0572394321896473e-06
-0.00045308319783535136
-0.0009507872245594785
-0.0012689338463317702
-0.001146517013220894
-0.00038805264638610816
0.001002208689417407
0.0027067584972947745
0.004070063715980457
0.004226432460311548
0.0024062537067301415
-0.0016267137030155526
-0.007146774057059995
-0.01226410464593172
-0.014183769455866363
-0.01007471664443475
0.0015073242454372528
0.018988090507436047
0.03655548735792485
0.044091951637498086
0.02881043685932327
-0.021412598853134707
-0.11382877890418218
-0.04726649999897953
-0.010879513442250511
0.013920893263299462
0.04880337522113291
0.1127849292473861
0.017547663228818938
-0.03458873905783628
-0.04965889099312176
-0.03892751296771474
-0.015234275316337493
0.009838178322675535
0.027422744356269443
0.03171601249905457
0.019889546077663
-0.007872620660656148
-0.048132249058564607
-0.094205158283853
0.06293741350082332
0.03261845862619265
0.021770485060265174
0.03271177344277849
0.06241687282490399
-0.09634567504081638
-0.05251332629339507
-0.014017547129606938
0.013968653460741241
0.02931283812761917
0.03211443892838023
0.023707013190364123
0.006279969125578745
-0.016620927899783998
-0.039131651152205425
-0.05254810727305814
-0.046198327982448106
-0.01017755261881137
0.06052025838027476
0.1619952472203837
0.07968812496179471
-0.009419304515617125
-0.1305653726611526
-0.1029682262586351
-0.13299667194332998
-0.011859606857952652
0.08101437493315398
0.17033751240520512
0.07644220745950871
0.009542007823642801
-0.03106021138376499
-0.053037411991553596
-0.0645982312530916
-0.06857582791158569
-0.05965237938643115
-0.026028493281092333
0.044877784450716066
0.15881872808872613
0.10843852150943363
0.07154510114770703
0.01566809785418562
-0.0919035544291154
-0.2720084696752999
-0.1243020967733924
-0.02508885550151031
0.06601763051489175
0.19264897953024246
0.18649259292436826
0.05619644180916508
-0.015521968230015162
-0.0658116347362781
-0.13932363760952587
-0.07423482877798665
-0.09142492833890793
0.01002024280589403
0.05026920610579831
0.06085449247666856
0.07466613981921169
0.11736719022378578
0.0028715598662980048
-0.06621128374660669
-0.09425542509372552
-0.08700005569623834
-0.04749921641000508
0.024562778152066485
0.13026690734874696
0.06737494036152959
0.02729102533622536
-0.005050171763664426
-0.04808121057037913
-0.11862721333067806
-0.02725448891095501
0.02412025583901656
0.04158888760694595
0.03621574903979572
0.020123403831238767
0.0032223371658848324
-0.008528129076197134
-0.013227841794882364
-0.011983166249292566
-0.007384247172718687
-0.002120856065571164
0.001904065178692219
0.003880610239552925
0.0039407534929397385
0.0027674178273410415
0.0011751828732389667
-0.00019491894981506956
-0.001011952615711212
-0.0012413539814569458
-0.0010403359756173114
-0.0006298717911615629
-0.00019496680194559324
0.00016167135473858633
0.00041355262459850993
0.0005712764892284476
0.0006375632281096014
0.0005814112971390472
0.00034624757212978706
-0.00010798598722957102
-0.0007450079470318511
-0.00140386149307473
-0.0017962246142506143
-0.0015756739801503993
-0.00048220217984826246
0.0014703344290424444
0.003834902206200625
0.005696731512662976
0.005853067247378519
0.0032420798074027073
-0.002447228364685367
-0.010181237376979613
-0.01730820256897221
-0.01992978621086137
-0.014117569354969474
0.0021167661650932377
0.026597133674369125
0.05139334734955529
0.06292067152427168
0.044518990699672564
-0.018491293243389408
-0.13246004734181838
-0.09004837188093522
-0.0684861632763504
-0.03318796716037972
0.05347887894095393
0.22070788284801124
0.07899414036974617
0.01503959301421895
-0.005954138491753521
-0.03107091189114169
-0.10641540731766459
-0.06390468573035005
-0.11211185908947016
-0.03392619972770452
0.008210654885947011
0.061023036115486415
0.16655208378681075
0.1501703340279088
0.014367743444418591
-0.059821378507869324
-0.10475696312738572
-0.1549529313373419
-0.03698520548176372
0.03614970050796956
0.06519294975492465
0.06057650863387311
0.036727725599751154
0.007173796257919262
-0.018182206509154808
-0.033550285922043704
-0.03639167764751393
-0.02640566181967632
-0.005265457679703624
0.022693047523916293
0.04940070200315813
0.06269106095523666
0.04772509676245115
-0.009349690208031888
-0.11617685659816783
-0.06921104738637722
-0.051286781085637445
-0.033458912961183015
0.018693936294259004
0.13593673495901387
0.1364005346210675
0.02000863226807426
-0.03154932782400435
-0.049268214294846985
-0.06780536061173364
-0.11622519212244527
-0.01153129346183707
0.04330122044915003
0.05688397279904358
0.04420535219918678
0.020945330155368768
-0.0007806430478195341
-0.01435402939922393
-0.018398521723953922
-0.01512852135671321
-0.008265683766859475
-0.0012930556914446042
0.003554761737788171
0.005532413991582541
0.005068527959588785
0.0031993773972894806
0.0010212075791339844
-0.0006746174164881575
-0.0015370427849209476
-0.0016034513922137715
-0.0011455487426203026
-0.0004986810849055556
6.606078486336229e-05
0.0004027574202786331
0.0004901857083272807
0.00039264004049493464
0.00020847751490697685
2.6939106605221308e-05
-9.632887217809274e-05
-0.00014428796476814644
-0.00012964098221608048
-7.99478800061187e-05
-2.3575280446379217e-05
1.944528089102327e-05
4.0602569940863833e-05
4.132872335356384e-05
2.890086026341281e-05
1.2025256333909239e-05
-2.4023686729753016e-06
-1.0782165338542775e-05
-1.272223441244563e-05
-9.982675804583834e-06
-5.1363992905235335e-06
-4.683126248105194e-07
2.6313985913997174e-06
3.7721692605208367e-06
3.3177210417235067e-06
1.9956244419819992e-06
5.367963108671834e-07
-5.536475519582335e-07
-1.070972346166959e-06
-1.0643474834399408e-06
-7.282651479761236e-07
-2.8852128160251373e-07
7.968997453377997e-08
2.8782217717929374e-07
3.2976526602582514e-07
2.5347514402858146e-07
1.261634729344497e-07
6.26747464739325e-09
-7.154976434699003e-08
-9.847679548818769e-08
-8.480711955784047e-08
-4.97128825211871e-08
-1.2005713040333245e-08
1.5596820445383148e-08
2.8198736267247585e-08
2.7379713265718357e-08
1.832417380986159e-08
6.880694511149696e-09
-2.5056804174751083e-09
-7.66401023385817e-09
-8.539077579162187e-09
-6.4313505624768084e-09
-3.0933151485490987e-09
-1.6826561439023745e-11
1.9363174466066435e-09
2.5713334502825545e-09
2.175515611808539e-09
1.2507236388039492e-09
2.773724270302276e-10
-4.2760504806067305e-10
-7.486372693509559e-10
-7.31535517469886e-10
-5.070636076154906e-10
-2.1622256990187283e-10
3.865246130264021e-11
2.0972632171941369e-10
2.927895887358407e-10
3.0345886145340575e-10
2.55175341603658e-10
1.4961512932349296e-10
-1.6882258881730714e-11
-2.349270233214042e-10
-4.6204670130747255e-10
-6.142998684702635e-10
-5.810230825497067e-10
-2.6688819065474695e-10
3.4659978947869317e-10
1.1418892230489614e-09
1.8406338781393747e-09
2.046112747120348e-09
1.3705018294609465e-09
-3.673146545678237e-10
-2.9307956244996754e-09
-5.538595059861011e-09
-6.932769316272748e-09
-5.722068999601698e-09
-9.905795132086514e-10
6.974486924654282e-09
1.612556626333486e-08
2.2641805583764565e-08
2.1782721883347368e-08
9.690702735590898e-09
-1.4195297873074637e-08
-4.494969494061754e-08
-7.140298765169266e-08
-7.802209957140819e-08
-5.003262543258814e-08
1.8859672424296362e-08
1.1844475109588491e-07
2.174603559112707e-07
2.6677926518315387e-07
2.1325071212629412e-07
2.355868430672002e-08
-2.8784661061561117e-07
-6.381450683250443e-07
-8.772779514113054e-07
-8.228722185950322e-07
-3.313611065382122e-07
6.087391469251508e-07
1.7945048203580216e-06
2.784160513333192e-06
2.9761573019746e-06
1.8128896515323806e-06
-9.190001714626319e-07
-4.783663364943772e-06
-8.534019308514989e-06
-1.0255475769731049e-05
-7.92203075077772e-06
-3.3005774243267316e-07
1.1831193166698166e-05
2.5220587041254284e-05
3.395244222219669e-05
3.102017091679462e-05
1.1098648292936333e-05
-2.5855493668197395e-05
-7.151680191872915e-05
-0.00010843643182880158
-0.00011334580369178925
-6.524593304672238e-05
4.292633229385842e-05
0.0001927282758870305
0.00033449512318918463
0.00039369235216060136
0.0002932107896221349
-1.0129155152390671e-05
-0.00048460593241326014
-0.0009957543094836548
-0.00131298821020283
-0.001167418110549539
-0.00036206120385664045
0.0010895014210119444
0.0028479141186780145
0.0042267817186219196
0.0043305121760665805
0.0023758500761400765
-0.0018546745566353033
-0.00757461457685599
-0.01279698758781151
-0.01462003798476652
-0.010143268407545645
0.0020537480010005237
0.020237219761376924
0.038299698542720834
0.0457591486762783
0.02953439456307751
-0.022536199138311463
-0.1173191192685273
-0.05277891240175197
-0.01687529600541712
0.01010674789628508
0.05029837174615476
0.12189978443529884
0.03415478107934055
-0.014416614481345735
-0.03392112260127207
-0.03809527730949413
-0.03844006906840815
-0.0396945059008093
-0.03826345022297015
-0.024200274292974965
0.013814036730074277
0.0821607220727881
0.17710870648763485
0.08333175430266172
-0.022368702134029115
-0.16278396481851176
-0.15056292494084278
-0.18148180240606307
-0.034423042285088024
0.12102525340333666
0.31207583091131114
0.15077444529140718
0.028146727418977866
-0.08267615277342945
-0.21576360746407663
-0.1990494833015813
-0.044245769375011956
0.05600557236898612
0.12338686450730608
0.1846494359830162
0.06252174162843392
-0.02936745142496795
-0.08624527062642778
-0.10814856266535312
-0.09527750340949585
-0.04582604632657742
0.042295735714434055
0.16674929626764595
0.11586095584009043
0.0668457894189917
-0.010740593223353174
-0.14671135992362394
-0.16002706750068213
-0.05080502352628838
0.0019610391051872724
0.0357570939356598
0.09443491889383047
0.015916182969727955
0.021446976570430678
0.10941742638264981
0.05545370642105828
0.018987145478835208
-0.04512366007601874
-0.17298161352017655
-0.1802410138808825
-0.05694179827209029
0.029207916034871263
0.12198814268846911
0.26219195344256824
0.07494458995073895
-0.036641619514248186
-0.08983727663703812
-0.1144931945041265
-0.1430902596560006
-0.0027410187009776037
0.08854348608708122
0.12155093129925336
0.09371726696934735
0.007695386794455573
-0.12808183264725606
-0.09761515150202428
-0.07654978244679421
-0.03452234295146006
0.05879191123929754
0.22553843180761532
0.07262960501414951
-0.011007541087659056
-0.051363733915052875
-0.08150927247455746
-0.13204316072270433
-0.02336066414641205
0.03781358446157024
0.057139142436060206
0.047996240963242426
0.02576639244467591
0.0031682431093759296
-0.012202668888396887
-0.018064249024022046
-0.01605329572632545
-0.009701426596765445
-0.0026057248128245926
0.0027287040697332775
0.005271616198317537
0.005246654120680491
0.0035996855536168694
0.0014372929468944688
-0.00037827450131569084
-0.0014088571369144404
-0.0016216265996015482
-0.0012506584830206178
-0.000626018383479814
-3.5632009441568255e-05
0.000349002102553839
0.00048352489408829254
0.00041785486597117145
0.00024599870071254656
6.054696412078806e-05
-7.567687863976229e-05
-0.00013827341814772032
-0.00013476356714349038
-9.052001266071085e-05
-3.429896951984859e-05
1.1969459358746414e-05
3.751274311903075e-05
4.19773813440394e-05
3.1712664353688006e-05
1.532912909333385e-05
1.830561267620224e-07
-9.456872256333782e-06
-1.2606842825402913e-05
-1.0668413538415033e-05
-6.1154629470717756e-06
-1.3288405244381972e-06
2.1121768631871675e-06
3.6284100987571457e-06
3.4545547179331566e-06
2.2673600314202893e-06
8.120664110157971e-07
-3.5594491656623897e-07
-9.760056744819225e-07
-1.0568468998669687e-06
-7.761479789393955e-07
-3.630207635566629e-07
-5.6317862935731194e-09
1.9660673806960195e-07
2.3691551467413747e-07
1.7407928474013628e-07
9.14827945146053e-08
5.744713303672256e-08
9.751245645682539e-08
1.8456202097190596e-07
2.4870406253040056e-07
2.052337674028005e-07
-5.122948312340918e-09
-3.7447013316821063e-07
-8.000858406815196e-07
-1.0884206946592465e-06
-1.0041715522198027e-06
-3.6514783763155586e-07
8.370206169014319e-07
2.3337319511165583e-06
3.55354211113585e-06
3.7301546029175376e-06
2.1682127208053194e-06
-1.372555641760243e-06
-6.295194519238389e-06
-1.0974482260676023e-05
-1.2961729722601306e-05
-9.71403455479903e-06
2.0704539215082664e-07
1.578560776902862e-05
3.2627682250332886e-05
4.316614386674651e-05
3.8548298656717423e-05
1.2252549023884031e-05
-3.5344603046653594e-05
-9.315028720302682e-05
-0.00013860200632047467
-0.0001421296244068244
-7.766075688482491e-05
6.249986029999505e-05
0.00025321097171520735
0.00042982487439093697
0.0004971151366785157
0.0003584554910167857
-3.737543828631626e-05
-0.0006445984177558446
-0.0012866910324179743
-0.0016674841519956738
-0.0014476430042318696
-0.0003867697085782938
0.0014808565667270065
0.0037040555089724305
0.005395688748498152
0.005417793186128363
0.002798326186844172
-0.0026914027271299065
-0.009990319782531903
-0.0165209799032732
-0.018584006472793464
-0.012548558824512317
0.003267635043409829
0.026520598142445145
0.04941373664137617
0.058906469374634146
0.03926293347938066
-0.023128125577634755
-0.13384868360357732
-0.08564734358981115
-0.05715234645067194
-0.016559639010687646
0.07017195230067944
0.22915338125078638
0.0701719523005925
-0.01655963901084156
-0.05715234645085166
-0.08564734358995484
-0.13384868360361135
-0.02312812557749513
0.03926293347971561
0.058906469375109544
0.049413736641841566
0.02652059814267047
0.0032676350431498948
-0.012548558825407384
-0.018584006474249636
-0.01652097990489879
-0.009990319783625471
-0.002691402726845347
0.002798326189165242
0.005417793190523462
0.005395688754005063
0.003704055513522918
0.00148085656752387
-0.0003867697141060342
-0.0014476430170307615
-0.001667484169978505
-0.0012866910497314563
-0.0006445984254791976
-3.737542704705817e-05
0.00035845552668613197
0.0004971151933793783
0.00042982493638743665
0.00025321101152811325
6.249984543276978e-05
-7.76608508433478e-05
-0.00014212979705917358
-0.00013860221825671892
-9.315045677867046e-05
-3.534462210429514e-05
1.22527772415046e-05
3.854880520596183e-05
4.316684066309219e-05
3.262833632498911e-05
1.5785871984936885e-05
2.065632527349204e-07
-9.71545865009213e-06
-1.2963940693698167e-05
-1.0976847227295635e-05
-6.2966373659317395e-06
-1.3718300800463208e-06
2.172007732163237e-06
3.7369304159493745e-06
3.5616896297304224e-06
2.340032108073217e-06
8.372963125722733e-07
-3.74529255222463e-07
-1.0241920350937882e-06
-1.1153890223809687e-06
-8.247442678173544e-07
-3.8332579355747867e-07
1.5360806650338916e-08
2.6199167103827817e-07
3.3481941197163193e-07
2.746355531803434e-07
1.494517233109217e-07
2.352119506855526e-08
-6.142784580696172e-08
-9.152127974280838e-08
-7.589083572574316e-08
-3.664835344523893e-08
1.7908140244162621e-09
2.1118326145619117e-08
1.405468948869661e-08
-1.431523337978879e-08
-4.846429577560065e-08
-6.724727151554673e-08
-5.115990829727187e-08
9.011255176785475e-09
1.0426716786726136e-07
2.0347227041525582e-07
2.571320801147407e-07
2.1142271744868146e-07
3.178025376550443e-08
-2.6963131369669033e-07
-6.13508500784597e-07
-8.539953794990608e-07
-8.121088323800323e-07
-3.4464600940316606e-07
5.646780586094581e-07
1.723761768112849e-06
2.7060012235322343e-06
2.9244951468819016e-06
1.8282377657050717e-06
-8.055522648973561e-07
-4.571196995481465e-06
-8.269763941858918e-06
-1.0039524412317516e-05
-7.888746528161098e-06
-6.017875554570975e-07
1.1211368761576349e-05
2.4356092479015194e-05
3.312728452043842e-05
3.066380662640717e-05
1.1658775799899068e-05
-2.4122972443114074e-05
-6.878521750784005e-05
-0.00010547206896263254
-0.00011147443536617304
-6.602420364242858e-05
3.8344042393175326e-05
0.00018439223571707804
0.00032433469398093865
0.00038565584712113403
0.000292491536104958
1.0704629678555801e-06
-0.00046008873702084766
-0.0009622721228993354
-0.0012818381010981776
-0.0011553050155742397
-0.00038600431590562546
0.0010203736256341664
0.0027414425776332526
0.004113762180533629
0.004262842109532258
0.002413200575274976
-0.0016697540815277707
-0.0072476041869788425
-0.012406575234453307
-0.014321835013206496
-0.010137773715046953
0.0015938983206512192
0.019268497220230628
0.03700406825537958
0.04458528383913282
0.029131404134795598
-0.02152221788546512
-0.1145649842653977
-0.048630519185762465
-0.012564458615298977
0.012557041043541651
0.048614880797160046
0.1145389065157668
0.02149319990427988
-0.029146573650416382
-0.04456599744190305
-0.03693575740303816
-0.019154213023497273
-0.0014630044310967628
0.01022940665859028
0.014304760991180032
0.012224768000126375
0.006894221723560537
0.0012191295195392929
-0.0027952101424005707
-0.0043476905509713505
-0.0036866631515494134
-0.0017153354093893385
0.0004469888249723601
0.0018276981095796544
0.0018458533925522636
0.00044447647951097505
-0.0018785417905856812
-0.004150439187818119
-0.005143962973875088
-0.003757822172543401
0.00047849176922207514
0.006904292860328039
0.013455884717822934
0.016889423961055104
0.013695457027679712
0.001691282405258344
-0.018049607880610895
-0.03961454824441134
-0.05189219954272635
-0.040176588700382036
0.010099099782701036
0.10825847199987255
0.05358344764833214
0.03285892622765092
0.02173710098628341
-0.009924900117666498
-0.0900913174345643
-0.0363380162143368
-0.05009478990503402
-0.11545645835759612
-0.003399779101757275
0.11944698255506181
0.08003026632837469
0.08972878056874312
0.14031636448954463
0.006935809455796874
-0.14250623479290847
-0.13468978284412908
-0.17978137524805934
-0.0664833263403688
0.034395478076911526
0.15889092942546948
0.13554067203786924
0.17342003681691467
0.057414290800287426
-0.047207041995550925
-0.18249976154022554
-0.18248512644072673
-0.060554430580211746
-0.004253441847451909
0.020946085970410724
0.06063033306494338
0.1572728207089241
0.1377495565304923
0.006535738615794328
-0.05356851331586894
-0.07410498015252302
-0.090235678083889
-0.13074033207348823
-0.012102408923876675
0.061871582267950566
0.09579593229190647
0.09654571462597124
0.06846674527241824
0.012257371550809582
-0.07216924723015841
-0.18065135897687573
-0.1006847231801107
-0.011169711586188912
0.11289978804284433
0.09227074816627845
0.13519283661677362
0.03276323163203622
-0.03999512038782005
-0.11759783327379882
-0.034536252837788245
-0.01605128194288963
-0.07210065068828257
0.00403186716524143
0.03259934171840629
0.04111532362795804
0.05711807579626969
0.10228726024902719
-0.010400610418319665
-0.07604968121294685
-0.09480613182026354
-0.06847745035129908
0.001178371946099637
0.11168037231782992
0.05739055886491982
0.02730000916434595
0.004785366179373341
-0.030046740955410687
-0.09617481209354944
-0.007234647192688504
0.0315584405358926
0.02426634213068199
-0.01709423102977879
-0.07546052331507992
0.0674707597858078
0.027235758026481073
0.013238872218535997
0.026956214342565645
0.06233163044561622
-0.09167633446693198
-0.04720767604028681
-0.013630565015189253
0.004960279965536656
0.010147039046186716
0.007634170311714039
0.0044984034817262784
0.006202902297770676
0.014241433531751304
0.02507342719938092
0.030758631339569704
0.021358072542770865
-0.011324683399544136
-0.06970042627607066
-0.14760754488421243
-0.03036996345031155
0.1015439741436003
0.06610567737072146
0.07296363368808649
0.11926229203834263
-0.009947664234518837
-0.1366136259648258
-0.0818540664806911
-0.0585930864742687
-0.06762288018675498
0.10152891789244631
0.0656529724242435
0.04115514627341067
0.038355666247106436
0.05879404776836228
-0.10389554957075937
-0.06042769365662452
-0.02144253623394195
0.005923516026095272
0.019411616014733724
0.02100422776916579
0.015097804825498454
0.0064832683779709604
-0.0011342392174242526
-0.005780058169626027
-0.007105580800268327
-0.005839805339625649
-0.003141912085035301
-0.0001090327384748761
0.0024555975679124535
0.004048847528113173
0.004369195652108195
0.0032494602256532275
0.0007070178639383149
-0.002892328496416607
-0.006656236607432419
-0.00913514071068785
-0.008595529893478396
-0.003662561303309224
0.005770759983321549
0.01766990321031179
0.02747137145543279
0.028630163241009095
0.014317195213363864
-0.019992072322063004
-0.07389365622574764
-0.140697522427665
-0.008538824937110976
0.13577999259338713
0.10151503573813656
0.08983788395272642
0.09331634826235446
-0.10014316867922676
-0.30051524279982617
-0.10958275699189374
0.08079958968241649
0.08464949708093118
0.11381930510208807
0.1700836885254243
0.04149420164113691
-0.09487670362523237
-0.06461820275155457
-0.08542192193092094
-0.1586575178616858
-0.06672573026382937
0.02227244843393816
0.14376762719347685
0.1235883037025649
0.16745343482155017
0.05739487146608526
-0.0430853815281971
-0.17668416677741253
-0.17723512196538893
-0.05750020762661341
-0.004243930294192474
0.017870298199107935
0.05525469972269538
0.1512124767224199
0.13331485842771099
0.006289337795958753
-0.047658245103687234
-0.06180945504029274
-0.07413649611056973
-0.11662308202176298
-0.00802852258961802
0.048198639849304094
0.06115245085309685
0.04675488214393245
0.021611922523128695
-0.001527938670246018
-0.01579217123862685
-0.019862974972556062
-0.01618521491689407
-0.008742701118373719
-0.0012199578062466118
0.004037698865854466
0.006245914035907436
0.005826120761753929
0.003808032058606476
0.0012790697999260758
-0.0009523852458556562
-0.002448585728058353
-0.003059517484927576
-0.0027822305537234795
-0.0016689048133833458
0.00016140653451926469
0.0024223179469077894
0.004548757220280396
0.005684821794958835
0.004865253138618782
0.001415271765110861
-0.004518762563074447
-0.011517703839035925
-0.01680752129134658
-0.01681774234077006
-0.008488765552266056
0.008867508607711736
0.03172303304493088
0.0513721027908231
0.05475151932259624
0.02754234219569043
-0.04080619411165733
-0.15159504027735635
-0.09323941791527242
-0.04170477369286006
0.03409316794572166
0.16321706394827296
0.1632203228859208
0.034102557652616994
-0.04169068638339769
-0.09322370749698107
-0.15158276893137823
-0.04080383183031394
0.027528858661554478
0.054719934874675025
0.051327249868173476
0.03167882703663286
0.008845609939559174
-0.008464969741198036
-0.016733605876359307
-0.01666945860337337
-0.0113623255020911
-0.004412437486634991
0.0013917948056001023
0.004648268172370476
0.0052689564518471795
0.004023500278863868
0.001983005894023518
7.442119283093511e-05
-0.001156158510662945
-0.0015742561310950244
-0.0013479681606059107
-0.000784523031388601
-0.0001834279072989028
0.00025407032073567333
0.00045164527043425667
0.00043581202336852385
0.0002898901409433427
0.00010716156141127217
-4.18749109543877e-05
-0.00012311889030626442
-0.00013613362899978063
-0.00010191861780221653
-4.848858509737752e-05
4.386938029525604e-07
3.1260124703963134e-05
4.101436529879455e-05
3.4396947297274884e-05
1.9484017788520587e-05
3.97242197089465e-06
-7.081066466399888e-06
-1.1866980509493288e-05
-1.1194788240826665e-05
-7.278647187751597e-06
-2.5310860709663247e-06
1.2621367973882644e-06
3.2686897492649546e-06
3.5190532472666212e-06
2.5801378727414116e-06
1.1814972542884427e-06
-7.189773803614695e-08
-8.425498381767923e-07
-1.0674429118299592e-06
-8.768857130205e-07
-4.828775775009074e-07
-8.299987126718661e-08
1.9589972956150491e-07
3.1128382100215084e-07
2.872256203140183e-07
1.824388291564687e-07
5.924710619802716e-08
-3.717582748174993e-08
-8.659399354352351e-08
-9.086058215983512e-08
-6.522758562732579e-08
-2.8668980105016052e-08
3.402781657227451e-09
2.2634754591192947e-08
2.7745478117663462e-08
2.2327486125948788e-08
1.1937034701121135e-08
1.6403215744978152e-09
-5.386303395668575e-09
-8.1527368576624e-09
-7.360937771394704e-09
-4.564609954491917e-09
-1.3719049822230043e-09
1.0760368089119554e-09
2.2894077084925036e-09
2.343257892335456e-09
1.6466424851007399e-09
6.924007372461784e-10
-1.2729441186314433e-10
-6.062549718363995e-10
-7.202674891492193e-10
-5.678112279840864e-10
-2.942895624149819e-10
-2.945611140384277e-11
1.472981824549027e-10
2.1320490503730727e-10
1.8842268151681102e-10
1.1398576951103994e-10
3.134172688632011e-11
-3.072477711636701e-11
-6.041716402305617e-11
-6.036635176998486e-11
-4.151170804812182e-11
-1.663850677072863e-11
4.286774294887391e-12
1.6189019564598092e-11
1.8670617831226876e-11
1.4417581700158997e-11
7.229485470891592e-12
4.2569365480693265e-13
-4.01333852082871e-12
-5.571891849694952e-12
-4.821856959810543e-12
-2.8449678239609268e-12
-7.082445294326567e-13
8.633263340503299e-13
1.5872451091613338e-12
1.549081809018123e-12
1.040616690879408e-12
3.9312448850395277e-13
-1.4042848205441307e-13
-4.3550506978944075e-13
-4.876649360426864e-13
-3.6984550680846835e-13
-1.8120579977716574e-13
-6.5821409650474554e-15
1.0470142838695533e-13
1.4117203277888327e-13
1.1889252155713498e-13
