0
-6.35609571078045e-06
-6.356095708142759e-06
-6.356095707948658e-06
-6.35609571171214e-06
-6.3560957198755935e-06
-6.356095730969799e-06
-6.356095741228427e-06
-6.35609574511084e-06
-6.356095737002761e-06
-6.356095713940346e-06
-6.356095678609222e-06
-6.356095641300079e-06
-6.356095619251447e-06
-6.3560956321869735e-06
-6.356095694037683e-06
-6.35609580271429e-06
-6.356095931838159e-06
-6.356096029642889e-06
-6.356096029749901e-06
-6.3560958753996754e-06
-6.356095553007086e-06
-6.356095123916157e-06
-6.3560947376598e-06
-6.356094609454794e-06
-6.356094952263935e-06
-6.356095870535758e-06
-6.356097245745328e-06
-6.356098665384804e-06
-6.356099455618129e-06
-6.3560988616768894e-06
-6.356096372848476e-06
-6.356092115822246e-06
-6.356087162222522e-06
-6.356083548961881e-06
-6.356083834696243e-06
-6.3560901417079854e-06
-6.35610285672127e-06
-6.356119432945449e-06
-6.356133942477612e-06
-6.356138035180255e-06
-6.356123647843214e-06
-6.356087144424052e-06
-6.3560336776223014e-06
-6.355979750792213e-06
-6.355951673056829e-06
-6.355978285258423e-06
-6.356078216147129e-06
-6.35624477437406e-06
-6.3564345495413325e-06
-6.356567492773675e-06
-6.35654510017456e-06
-6.3562882454991515e-06
-6.355787422418657e-06
-6.355147838971852e-06
-6.3546041528751755e-06
-6.354479964471795e-06
-6.355079965563823e-06
-6.3565288065621204e-06
-6.3586051648580224e-06
-6.360650003228138e-06
-6.361637292419291e-06
-6.360466643763404e-06
-6.3564624405250835e-06
-6.349953345101109e-06
-6.342693242857748e-06
-6.3378241386190945e-06
-6.33913342622369e-06
-6.349561994686024e-06
-6.369263566142833e-06
-6.393911180701259e-06
-6.414228875452339e-06
-6.41769049554899e-06
-6.3928063024973085e-06
-6.335386897644727e-06
-6.254845178719791e-06
-6.177452684423013e-06
-6.143177772745036e-06
-6.193938534491799e-06
-6.354076469382872e-06
-6.608158547221816e-06
-6.885496520223337e-06
-7.062911556052054e-06
-6.99497187903183e-06
-6.572747937035522e-06
-5.798681918626541e-06
-4.8500278081955945e-06
-4.0929635344298604e-06
-4.011789038804758e-06
-5.038815999336059e-06
-7.311141053099656e-06
-1.0431730079646355e-05
-1.3355057891430046e-05
-1.4525958013331436e-05
-1.2350225782242957e-05
-5.957612747426189e-06
3.94909243544146e-06
1.4527372164764518e-05
2.0953860760748045e-05
1.7651643572939194e-05
6.012816714874935e-07
-2.977432602919695e-05
-6.623988483487453e-05
-9.435927040051575e-05
-9.543034938011203e-05
-5.322565467652191e-05
3.657395231629696e-05
0.0001573385786077123
0.00026752499861496643
0.0003066888435087723
0.00021430092570038433
-4.0473459948532694e-05
-0.00042634460632409623
-0.0008292605787208672
-0.0010605744633307007
-0.0009067058357490776
-0.00021989600936647867
0.000970837586873608
0.0023715412933469986
0.0034146980645072228
0.0033806395275747902
0.0016647581147185464
-0.0018564376532723792
-0.0064834785339721165
-0.01055926354330692
-0.01172965960766226
-0.007704110931682457
0.002560113417141141
0.017571177951138137
0.03245722669187879
0.039181738689593265
0.0282448650484742
-0.00822424618651722
-0.07283719314988042
-0.16033617819541734
-0.05773401133177607
0.05188513734412018
0.18278474047796792
0.14001369811188152
0.11638684867607683
-0.10474771535496608
-0.14154899990473782
-0.20399736261942714
-0.08718076140031733
0.028952107571829432
0.1729416758429773
0.17114260211755106
0.03767763640081143
-0.03094042374440976
-0.05494531463591758
-0.06541103257681982
-0.096155895724473
0.0236282320442649
0.07423373066680682
0.04750100181499819
-0.053147806779913716
-0.01381905672394292
-0.012049932657688379
-0.019626857848362548
-0.006423936705894614
0.05503405379844392
-0.014985199040631714
-0.007023294242695742
0.07579251084616795
0.018367528670356865
-0.0032203304994321068
-0.01653490737813249
-0.046733219830483765
-0.11135116901635196
-0.017585066310834573
0.03702241695052742
0.06087944612189645
0.06328974263884858
0.050277474740756875
0.02306448599521218
-0.020273046897871513
-0.0809127542281764
-0.1552175276709818
-0.03280377159145845
0.10183308221573031
0.06450637284243875
0.06546541002732124
0.10524080361884088
-0.025825872957273753
-0.14417091597972756
-0.06732983797495289
-0.008548403945954863
0.026189630408044156
0.03805243063722651
0.03299378277223461
0.018663640872874063
0.0019425230405677699
-0.012246825656985226
-0.02094496237677713
-0.022569566588908765
-0.01644888902262933
-0.0029548985566164704
0.015736729466561527
0.034717505728148336
0.04601584554474787
0.039593439370584516
0.0059202025500363
-0.06045861407428802
-0.1578575213228371
-0.07684757118281957
-0.003551452083755953
0.07338291313593166
0.15453231954508698
0.22412756294873812
0.051014455411374206
-0.00208798960211938
-0.16272721768475207
-0.23137316402059577
-0.16949061601324694
-0.09908951454023666
-0.11649276941203048
0.08164070947513108
0.36661287059264225
0.3500042695878618
0.1700434281026845
0.09875158147530534
-0.02976552989433105
-0.37670721530587215
-0.453885351773329
-0.2908156612239646
-0.024380338230182843
0.08525971016433075
0.21737243671519568
0.3434795750956487
0.38424986508162506
-0.017737604855914257
-0.10330697791804924
-0.18124474621343983
-0.1991542041979113
-0.1100347304872858
0.1573446127977482
0.1197362775921225
-0.048743762498115996
-0.1137083172110994
-0.18625528217805942
-0.1377136265029224
-0.022948663726439136
0.29073368332122834
0.2951976030053759
0.2214666873344593
0.034605971467602206
-0.1545186625723529
-0.26444357037414407
-0.21347765538352037
-0.09438067219313727
0.04018357901092822
0.17970048943232303
0.14813676833941675
-0.008352197058044308
-0.03366481194301984
-0.07149885789392811
-0.07245613731110317
0.0005813345017423836
0.16827083299869475
0.03233738368146354
-0.024059810980785804
-0.03246711316146874
-0.032371703371562054
-0.06317449042998922
0.0432602308569283
0.06820247367588819
0.009283579456893471
-0.11879093528004746
-0.08635322111305554
-0.054217254785712855
0.01757644221391267
0.15919516497578215
0.18171399347974482
0.0727697404244672
-0.0003131506942315379
-0.08013138043065667
-0.20483724613752152
-0.19504264062764043
-0.04706301430839633
0.06481568532537114
0.17804272933349077
0.1277765466288439
0.13476658332965705
-0.00037860695508451796
-0.09502053044829031
-0.1762248738007282
-0.07043008729975404
0.004699589907240638
0.04365833567395142
0.051610397315012345
0.03983092579134493
0.020508690812419957
0.0028444410649638295
-0.008648668647925621
-0.013731796534476967
-0.014656845211874374
-0.013993803224417643
-0.012950285149130124
-0.010755568581674715
-0.005280202943811927
0.0053492695802192835
0.020741697213355385
0.03668133977240794
0.04488898105568558
0.03469781834466227
-0.0033946755045309216
-0.07323370186126006
-0.16936596203537627
-0.07635034442750742
0.027643316693126706
0.1634975742017588
0.14283148089806322
0.1626367462645411
0.005953501115288748
-0.1510444924615764
-0.3285253823714501
-0.1341733468930819
0.03927670573964844
0.2087128786372803
0.19037043704737805
0.19018753167299543
-4.571593219945425e-05
-0.1988204898107166
-0.22556793721020402
-0.09088557502468385
0.008685811149835996
0.08907000610621252
0.17160727100884007
0.0743868998156817
0.006044515986386713
-0.03561608480259391
-0.06033629923701443
-0.07960736180859722
-0.10122976186906578
0.07352428751556903
0.04937971360404158
0.03400875490461251
0.03426949517241054
0.05344326215288682
-0.10971623140226615
-0.06040157350704167
-0.006614079184179905
0.04164904461564454
0.0728175023744444
0.07459901104389137
0.036257129221792535
-0.04748579568962428
-0.17212514361230707
-0.1210217953085344
-0.06748355094511356
0.01776410900882267
0.1554194856448904
0.3470394568647872
0.17038839566837255
-0.015521010130167358
-0.25597579230963274
-0.3818886982633324
-0.19513509367267173
-0.06523697353250704
0.060039284621710806
0.43401846018984797
0.489223149829906
0.024182064707249113
-0.19482870379082745
-0.21787057191985357
-0.28864421073375784
-0.2251458883731034
-0.011686011681791033
0.19512647407754716
0.24983038546090902
0.1984295362421753
0.06350203265649312
-0.1609671554515819
-0.10475724271479599
-0.01019246869573066
-0.11962399552641062
-0.06581781244741625
0.13266373350359242
0.07120889818568203
-0.04428735352656278
-0.0019398977898175923
0.012057930505931382
0.010442576015551791
0.00306344085791743
-0.0038302819090337763
-0.007373743673507841
-0.007248904430651845
-0.0046066129730626204
-0.0010846382890625623
0.0018773405892133182
0.0033814220023568203
0.00314610365128392
0.0014302642888458115
-0.001095659776774166
-0.003492221347298501
-0.004726193966500179
-0.003920515403994738
-0.0006914158052392611
0.004490706669867854
0.01007125266070555
0.01352414786526382
0.011991174494314909
0.0034866263755832247
-0.01154394639567062
-0.028804943867256703
-0.03955444004757281
-0.031460820765019194
0.008844926628521842
0.09194777579884586
0.021657942659378853
-0.007791387823416199
-0.012396467863274738
-0.01674223882462789
-0.05062765662140787
0.05526378290369812
0.074091620505382
-0.012258947329108514
-0.008406715915659207
-0.10159254937890885
-0.060073757742894286
-0.03525556976301853
0.0317781205397674
8.534660481640931e-05
0.11716983984620151
0.008648460422672127
0.07201676798770035
0.07629391927350775
-0.032142115803669935
-0.11885569153154779
-0.048510638531108714
-0.07321993243157467
-0.02487805406618753
0.08725873481111779
0.0742544250651999
-0.03784186254304995
-0.014437185563544733
-0.018667828039524905
-0.01698311119695617
0.016203852604290938
0.09524996702378201
0.022125952705411213
-0.012013009984493785
-0.022576762100278012
-0.025605032105491973
-0.031843830849920575
-0.04264141950979007
-0.04902848479996724
-0.03453682379851385
0.018730875043060136
0.1224000602820927
0.07501799624669249
0.058854361305001344
0.04213893500525944
-0.013220986885609628
-0.1404549846681204
-0.15684925910606928
-0.056762787352605315
-0.011623289529091679
0.022609661157659295
0.09276596609825291
0.23478418277325816
0.06370332144108176
-0.029264826741876106
-0.07183961430989821
-0.10021322059987146
-0.1472513918035342
-0.033676213615022176
0.03504619616679749
0.06586898112591387
0.07142121806743618
0.0625892976613555
0.04343011732342408
0.010123358926046483
-0.046070311273228
-0.1334543249868881
-0.05465604774346463
-0.003860579630454927
0.032348435433931115
0.07115523479984938
0.12867572959098075
0.016428654011589775
-0.05945362961549662
-0.0964832488312702
-0.09326848093344475
-0.04835305796773807
0.03828188619133672
0.16159565216991728
0.10797374647789472
0.0545690030217931
-0.026874174532176064
-0.1623775807688535
-0.1671749021716046
-0.040048352726988805
0.03670001166118398
0.09143455691014575
0.15397205486337934
0.046773099764865995
-0.020165484906385197
-0.049354321043887435
-0.051670337798762435
-0.040369192641118434
-0.025804453068582662
-0.012637474120592958
-0.00014176426746806103
0.014912309900684272
0.03411227554898645
0.05371319879846021
0.06305929243263557
0.04622773572646236
-0.01301668199890615
-0.12419333152601571
-0.0834393526438424
-0.07008981280086453
-0.048644796213685414
0.023546027846706504
0.18474207391901498
0.056969199102014915
0.037889147344646885
0.0993367428336188
-0.006666746563630195
-0.13600685157749107
-0.13815998688413206
-0.04380268710303086
-0.05804748398800336
0.03899801024805274
0.08517664067427572
0.12553679225430317
0.001435275445947019
-0.057626136483679966
-0.03811053548470526
0.05728223171896656
0.012227106040564806
0.0013326100072654262
-0.004139368905036414
-0.030310657376320823
-0.09566681981073034
-0.008186953349481132
0.03464916684617851
0.04317147219426161
0.031286143083758794
0.012259000607488444
-0.0042255220879989985
-0.01321487723916278
-0.014062204498882167
-0.009054841446335355
-0.0017836526160008022
0.004256287815834999
0.0066199048501149925
0.0044229464090131685
-0.0015048292045263599
-0.00877489758518147
-0.013939948601780574
-0.013415019159589972
-0.004817653191351222
0.011486111713459559
0.03112000656419138
0.04541200523363365
0.042730794892531586
0.011666703318634734
-0.054508719090041166
-0.15357993631128442
-0.07233365782051134
0.011668364126454356
0.12436034890266712
0.08731166146318574
0.11081410325459391
-0.00929206857202464
-0.08998698696987917
-0.1557724546339604
-0.03231313935836486
0.058448486725553576
0.10065436476532812
0.08512371182975187
0.009760399984348429
-0.1192837148621913
-0.08624863139278147
-0.0659198822129943
-0.026889494479085826
0.06189642871087804
0.22303560650146206
0.06405485946249986
-0.02483274414761145
-0.06747725401176632
-0.09440702952328665
-0.13444024830055373
-0.00855458810190694
0.07215414334405505
0.1047590960452651
0.09113998753307118
0.03552267292457072
-0.05560035774183364
-0.1716086127559432
-0.09600993983416987
-0.007171301144696339
0.11744567302694521
0.09473007080998755
0.1299400928169489
0.014286899022202735
-0.07249999509352294
-0.15557122894714648
-0.057129560047334334
0.009442548659338443
0.04155410683825541
0.04551392303599187
0.03235564837124311
0.013404413981853675
-0.002897094392215266
-0.012294381279824493
-0.014364136383838398
-0.011163959382024045
-0.005642204155541618
-0.0003744943064076413
0.0031067805780891204
0.004401376824139423
0.003935906312770328
0.0025075272940915387
0.0008807812829794097
-0.00044697253358843864
-0.0012907563847338421
-0.001683855797084211
-0.0017287016443989739
-0.0014759549891272135
-0.0008876066325795453
0.00010191320333098546
0.001457060833126062
0.002911250500734077
0.003918454547133805
0.0037566398441778166
0.001806695883863953
-0.0020462999590803595
-0.007031732425075842
-0.011343034488401356
-0.012436468967332817
-0.007907950997427672
0.0031175563099656543
0.018410383281982506
0.03143562827366806
0.03117009992861722
0.0033933521245912666
-0.06655347853618761
0.009885877712396355
0.028096482753282043
-0.007041667935387816
-0.08007922456113671
0.03407553366417791
-0.03297266072370207
-0.048264545295599696
0.016068776204553437
0.17643250804190402
0.03325630322397847
-0.03001021956409555
-0.04376985852741031
-0.04592093272363219
-0.0742786419672386
0.040156578471201146
0.07783937648794911
0.03303275275189934
-0.08575062197968743
-0.057033749663823054
-0.04971767804574178
-0.028852465281588312
0.03659976141543637
0.16573045021461902
0.16007325001844622
0.0029954253618303573
-0.13490153386191997
-0.08588405961610843
-0.07429792175483156
-0.10891993373027321
0.018906813977622058
0.13106658920674996
0.05435055941404427
0.011232671941205006
0.012792370495752173
0.05558977355273797
-0.07720223691210341
-0.011245916494785204
0.025475147061439624
0.009540967379406098
-0.07202826569118048
-0.01799285869502499
-0.012028681161452153
-0.025166490326511682
-0.021238800522044025
0.035750520882482525
0.1740779973050064
0.008602322992975229
-0.061482005791933816
-0.05107246271732541
0.015139703332393496
-0.09218335701319903
-0.002676150218507592
0.05651187500330248
0.06215264048482794
-0.0040522795449646305
0.046085034387058604
0.009694055869244059
-0.1044138834765012
-0.07415474008393864
-0.06543210130990114
-0.037356294550384334
0.04892099630573179
0.2199010293907373
0.08139916788221616
0.015563142304378181
-0.01503931886673526
-0.057198115856098235
-0.15398096818424117
-0.13311099312143304
-0.0005360842488119731
0.05904233259792786
0.07553680436627794
0.08374658893355472
0.11429846083984206
-0.011797237482792874
-0.08390063381423736
-0.09883244081261648
-0.056745016965492064
0.041692958761420026
-0.004569153405314775
0.0007361908196367126
0.04789670191391534
0.11878760982522779
-0.013064718728180814
0.020920834841229082
-0.009273378052147146
-0.12469827941566228
-0.1312301805131429
-0.017218433671852263
0.04370540888164464
0.0853438378770386
0.13974902962994062
0.029471245091742013
-0.036210175698510046
-0.06039515522922331
-0.05427252612918903
-0.031739903685744364
-0.005068288889114046
0.01726981991977217
0.03067866798094943
0.03333000649508972
0.025027430972463575
0.0069069907058118074
-0.017818002829857797
-0.04258971246942331
-0.056747438137913754
-0.04635827525072019
0.0028052499374251675
0.1005643846888183
0.04738246247479184
0.031176998381542784
0.027551263112942214
0.003963831070665642
-0.07302143700907394
-0.029339504216851362
-0.07627360541001885
-0.006648977167065283
0.004480139261868366
-0.0052309744653805
0.006414204671693372
0.07687946169490335
0.030761757585484547
0.07480742432157603
-0.0026458923659241867
-0.02769298352924005
-0.03354166075780377
-0.05202462460509854
-0.10642462668864965
-0.007615239774855852
0.045629593948195345
0.0627929462720654
0.05613148433409151
0.03587153916293637
0.007818299709117849
-0.026132952143183702
-0.06540034873705187
-0.10770101402349379
0.05264268699208328
0.02409619332833977
0.01524582035199909
0.03131349664436536
0.07137790369176199
-0.07258323123250743
-0.0144754681962278
0.028925012990672603
0.04199779027420029
0.014500900967431788
-0.05483309991770161
-0.1563927567088898
-0.07073898542592352
0.026620776446124646
0.15745902290329658
0.13265069171991556
0.14717818590708862
-0.01893825015842502
-0.19358014006142607
-0.20212814857299194
-0.0582599890064193
0.04013043132197186
0.10867885706445797
0.16989158468552884
0.04576616748231994
-0.04705600834564923
-0.09843212113224531
-0.10331632094065281
-0.06018600521673547
0.028819212539321074
0.1558826454667251
0.10528709285553092
0.05342150579591353
-0.027412952847903363
-0.16193101382831504
-0.1641818477215939
-0.032753700630390285
0.04870561908156312
0.10570597273876435
0.16443952355972363
0.04431763556958098
-0.04558127122443244
-0.10545492088161862
-0.14072286483833205
0.042290887500799075
0.03878485334609542
0.045554081776993625
0.059817945360713366
0.07842862837310668
-0.10153479917323897
-0.08102007793999978
-0.05743807399671735
-0.02486881508137724
0.023239853850619385
0.08968269475076125
0.16953094221068493
0.049044385314533534
-0.09107092135760239
-0.06863090227047984
-0.09183131217527367
-0.15361422470653432
-0.03143991557024996
0.10671016533622606
0.09185691449949417
0.14286723136180926
0.058941063846577095
0.018792932605549605
-0.012904810272836981
-0.07390551316660958
-0.1916039261635841
-0.1737057444020751
-0.005995834330693425
0.14166602958042404
0.1032676826838245
0.10317538002367097
0.14649933424246844
0.016908875391562647
-0.11738382926745052
-0.09178344718061913
-0.13201932252567294
-0.04417921002003292
-0.011425619024899216
0.0017290177015132188
0.039212220494490545
0.14062346371983098
0.129952552874586
0.009296931706142108
-0.04059715810306166
-0.05351909336004416
-0.06736038705898371
-0.11368358056423071
-0.01050138144960006
0.03996422750807377
0.04862848485903553
0.03364537359211176
0.013605800758985754
0.0018993385778467158
0.003479526155995809
0.0144207146232102
0.024051675978977925
0.019068871272544936
-0.011299725621073049
-0.07039713638155808
-0.15115306823114844
-0.03656859807348837
0.09568125197292784
0.0655521646715284
0.08253498135423944
0.14048245903996517
0.01781519686976781
-0.11645212649608148
-0.09278666453023356
-0.1309628390200109
-0.03351402310090149
0.014754981900212794
0.04117290208117273
0.07578808757426583
0.14169922000213675
0.04866403917080346
-0.007750626663102035
-0.04130382560640168
-0.06650232790800041
-0.08975189324367822
-0.10390439367331894
-0.08888473198751805
-0.0191785896607843
0.12346188154436759
0.13608376763132327
0.18478457007676538
0.20426546773620505
0.10948046484509547
-0.18178143286341408
-0.3210781823250136
-0.30538583792620294
-0.2666324080085139
-0.08078926693767076
0.20394149566175593
0.5275601294058352
0.3800468367484206
0.1775156753075052
-0.13931536550288293
-0.28490820395355954
-0.39550152928024285
-0.19491769104345308
0.02967587170334961
0.23706229584339963
0.22801043058265316
0.034023469225924634
-0.09491532812728946
-0.10007563886962628
-0.12095213762535714
0.2991433938086488
-0.19211151622257738
0.03931636139581952
0.010466353888028735
0.11989484846959006
-0.2516531416639467
0.26170245429056616
0.016112741909266964
-0.03502980885299667
-0.13316468560736813
-0.1073604463240859
0.03008807021560431
0.08396283946987784
0.0726927778030892
0.022914249759121822
-0.03612890156209478
-0.07746603624622994
-0.08082589096267133
-0.0372810483800337
0.045882412301100996
0.14145435678627635
0.20240284041203874
0.16859833530346124
-0.018661396488006167
-0.19642845600738165
-0.36001147126581834
-0.25104454482558625
-0.16072419684496797
0.049343794145361754
0.31283235911389573
0.5209995722866165
0.2943050730825977
-0.026305453244389373
-0.1649016161847291
-0.2777544818380697
-0.3133360035466001
-0.17776145713802777
0.08492001710133742
0.09418015453978694
0.11885772007066382
0.053857629332578615
-0.005072536491104711
0.017278803537858576
0.16165781062883153
0.029595059598044454
-0.011994110493513756
-0.018333113325719002
-0.04962244495378767
-0.15361205794308447
-0.1525358864414672
-0.038023890470603144
0.02457799091333299
0.08396090204983224
0.1868195888587857
0.16348129691161156
0.019987107362916787
-0.06106312435138426
-0.11196083271091563
-0.16752014697376352
-0.05383716536992276
0.01791621770305393
0.051228683766004375
0.058742409067137076
0.05444186691824927
0.046777297571564264
0.03511011134468908
0.010434475270467735
-0.040195143380169183
-0.12736863079366353
-0.05367978997446468
-0.011045451428513427
0.017894112871836083
0.05486895011243514
0.11956576926156758
0.024219057546950095
-0.028859586681360155
-0.046256267752313264
-0.03985950603967171
-0.02246637934646729
-0.004268699825195665
0.008853652381178913
0.015195220071994054
0.01584710686781287
0.012932188707119752
0.008208133791229555
0.0024774764571810653
-0.004143944889942543
-0.011393080865402963
-0.017975319362781145
-0.021197224494783135
-0.0175436493397271
-0.004300443760865746
0.01813282058754777
0.04406180339393684
0.061559305522084024
0.0537863991355124
0.002970935356274784
-0.10363828731516582
-0.06769515287537968
-0.07606147739973582
-0.10161342338635768
0.09078317881519794
0.13447449693117258
0.05047743168240925
0.03987172171457763
0.0819028296963739
-0.061354246281339654
-0.034996986939587894
-0.07874514274327682
-0.015301820971647954
-0.04279350814765164
-0.13339638443409607
-0.038808534945572404
0.09841355352793973
0.13037946145719875
0.09035569361394784
0.18451659688378663
-0.00823220265837244
-0.12833732905335696
-0.2226474901018578
-0.13152744211895118
-0.08099421894483995
0.11766373372288984
0.2620338055647371
0.15074122458258066
-0.0214808348355055
-0.06300292983277407
-0.17952894329647137
-0.16695830035606368
-0.007146320962098686
0.1308899992019084
0.08471078185552597
0.0899480133141214
-0.02701047020160925
-0.05290492453781579
0.012272248283269827
-0.04219398198472853
-0.03410787605147958
0.015152499335140037
0.08345276375730648
-0.04996931275942423
-0.0027979832289920024
0.011751087402977832
-0.01421117453218756
-0.08329598316619456
0.005954085689154109
0.056823310918110305
0.0718604069588573
0.05118164827748677
-0.007303909752586084
-0.10558146602532267
-0.04214114319942715
-0.009200978756504961
0.008058383001095699
0.029873579764600165
0.07858215746095452
-0.025194732673804423
-0.06587701578997905
-0.03538240310912411
0.06518669482519539
0.024602833094752034
0.021732704788936175
0.027536260567152058
0.009114481563858325
-0.06464943001924325
-0.01701130562976468
-0.058356752807636886
0.016417278966267327
0.027488498857657088
0.006877614062613
-0.006764051151281879
0.02566295775327325
-0.06260332113999027
-0.05000183926527036
0.06863738035526927
0.07938993659242152
0.14984432386782176
0.03419951416729545
-0.11711647208597063
-0.14523834463323138
-0.07171107460159108
-0.09231407383116855
0.02173759221709687
0.11539834445395541
0.036822799505648686
0.023767833562413274
0.09320701064874108
0.03681785887958771
0.0233752982898042
0.007409340342763975
-0.058073915139235786
-0.20821612937924683
-0.05613120238416864
0.010945606689996187
0.028013034709768615
0.042472868420909506
0.10132164731967704
0.03920192421600729
0.07054381701333413
-0.012403022701537165
-0.03562630786070927
-0.03510687788963935
-0.04691686263651643
-0.09850039307268459
-0.0033723204159891956
0.03971808756200109
0.04354306027651883
0.026636932797900543
0.007048283327578499
-0.00270031730346602
0.0015041216269074775
0.014886893230877288
0.025519993889346313
0.017819674738619968
-0.022900309887114022
-0.10587185391322541
-0.03162841659272047
0.008782202154385067
0.03178919991968621
0.0572965108700586
0.10431777848579403
-0.012110955956735687
-0.08195923986693922
-0.09968454243008279
-0.06362758734727177
0.023345322072282435
0.15186471330216134
0.10422249948812833
0.05488576583861651
-0.025234401334316616
-0.1613766670214478
-0.1670848580031484
-0.03946233021538225
0.03999653103228408
0.09903233526373946
0.16535097245185393
0.058395482111453824
-0.014552261511403677
-0.0567999363174718
-0.07655890138053896
-0.08015247862995976
-0.06733576828762218
-0.030847041557853196
0.0395395020384956
0.1501417482286069
0.096743889137704
0.06147960707860766
0.015236949278588806
-0.07469177868269374
-0.23435356418149159
-0.07427973623142096
0.014315214184281725
0.05671082594515029
0.08649465242394873
0.13538723732265795
0.024898808269750234
-0.0375466738429217
-0.05746217010349509
-0.048525919720566864
-0.02659543770677761
-0.004730385240862954
0.009514829576476574
0.014368631976030695
0.012316686355469762
0.0077269060525257715
0.004525643237332137
0.0045655853693844315
0.00701862910909841
0.008859641479430134
0.0062896468828763956
-0.003250798386496723
-0.019023144562805853
-0.035588928096681016
-0.04278259595706505
-0.027529263072691483
0.02259962641753536
0.1150019556714744
0.04842174761529027
0.01175006728361431
-0.013884121853210182
-0.05023971670980196
-0.11604874187810035
-0.022272866286914213
0.0297819425518876
0.047085044646935185
0.041215916473675986
0.02416793341969393
0.005230465911534706
-0.010233883015946183
-0.02022690297685669
-0.024542596407109863
-0.023199370422140972
-0.01571816224172572
-0.001621263586874627
0.018070138099912567
0.03910599378177391
0.05311886400142458
0.0485609762558849
0.013878946299866647
-0.05764864804638704
-0.16308763869108786
-0.08738426289185879
-0.005235243290334749
0.11234130451409195
0.08858671985702979
0.13220308204963874
0.032694578996829704
-0.03820273010799647
-0.1194617749843644
-0.05064528910155693
-0.06217988449051523
0.031131162634370397
0.03209289553633506
-0.041009404946397744
0.04078753404795397
0.11141375614480763
0.004728782063822647
-0.04883580787838924
-0.023892409872674283
-0.10088318774915879
-0.06733678240621113
0.07964562844021998
0.1301722387155905
0.059357060584429334
0.028226338454322854
-0.01115195526254251
-0.10703791561617261
-0.09826964218149126
-0.006407960650085367
-0.032139088637986486
0.043268881386129485
0.05236897821571388
0.03384697796755232
0.025044322904713947
0.056461420987237686
-0.050988161998645795
-0.08628792940446582
-0.047306812275990054
0.060274444519744556
0.023464118260241782
0.022225533816813903
0.03044902062324709
0.018446008503775913
-0.0428589729433726
0.023392459118799298
0.005314514325021102
-0.09378449423514239
-0.054200514793194335
-0.04237598624647985
-0.01739012170076013
0.05967016882254727
0.2158824164698423
0.05938235908995911
-0.022337463659092574
-0.0579052371872331
-0.08295524881345481
-0.12980085791124188
-0.019479123857598698
0.041521828783897895
0.05957953013070327
0.04887242514490727
0.025381339733270166
0.002110232287051196
-0.013349482962147045
-0.01890364342571566
-0.016436074158761537
-0.009685673877385392
-0.0023646316963802957
0.0030058606213975033
0.005453385381755652
0.005293584390624238
0.003558744575107437
0.001405895879497999
-0.00030457108105574535
-0.0011890293861357409
-0.0013057562414047796
-0.000985078691598409
-0.0006162953753981111
-0.00046679287996513423
-0.0005805986930022259
-0.0007753171926593204
-0.0007324957420640285
-0.0001559688124858728
0.001046617044528317
0.002621104294338025
0.003933430563027801
0.004104783563765072
0.002333436010436367
-0.0016512716947172815
-0.007147510551449444
-0.012272072078104714
-0.014219129867657986
-0.010134566066198792
0.0014516998164546759
0.018982458795937848
0.03664317960763819
0.044288130945635405
0.02907867825175306
-0.02116991366296383
-0.11375501565030663
-0.04750449470017365
-0.01149996315908404
0.01299569201112551
0.047845761575468
0.11223818192384759
0.017903826440352533
-0.03300579985406688
-0.046951639166981494
-0.03581665796766594
-0.013042104882670987
0.009545044633860675
0.023588984969265803
0.02487378357236341
0.013312791212076652
-0.007312412573969268
-0.02982801603386517
-0.04475175232513121
-0.04255183396062757
-0.017381186905067406
0.028122068831240375
0.07830130620946106
0.10227173726434872
0.05614747558182246
0.09092319400535691
-0.03453299210957383
-0.138083663669559
-0.20107975084342014
-0.16250612651046298
-0.12455167932448921
0.02949978958428597
0.2084017197127477
0.2842803463898631
0.2711619939866761
0.11834964550689307
-0.07812030856258366
-0.24878035261108966
-0.316971844767047
-0.16857197500124324
-0.0341477582681445
0.11232435686327982
0.13980433926474842
0.13752075832725866
-0.009364121200169395
-0.03965355927734895
0.0719576424564844
0.11208105123890234
0.034547935658998614
-0.026513427636819794
-0.13931567210991735
-0.15698010501737875
-0.1047009429224427
0.02497706792519314
0.06782891224612736
0.07657125868256792
0.10644984596868598
0.0021605235594528327
-0.010657879760264163
0.07203168656579413
0.03571239571804841
-0.14570577393684808
-0.10147769634872604
-0.05700116152101286
-0.03035855035778056
0.1670924495307446
0.1276152347078437
0.044175386908096366
-0.09008124378952896
-0.07960799794222297
-0.12314595535142092
-0.011761771037288555
0.07017975474136462
0.14135067896837203
0.01891770660720699
-0.08473047451471657
0.03718090509230965
-0.0128358414863965
-0.03412947168671265
-0.0257277881085309
0.014638421745783007
-0.11024394244092704
0.000421537069039493
0.14197307134477494
0.10142276726648784
0.05712491106312692
-0.017736261836073703
-0.14828979725902097
-0.15013594194682023
-0.02379415096443443
0.04611785431940371
0.08669915297517589
0.1295321069479768
0.003383477963256877
-0.07078876649823447
-0.08180881029330389
-0.028062710440611354
0.0836086537592293
0.03922467910788844
0.019424836263008498
0.0022118781968016523
-0.03329886178585207
-0.10293356358279902
-0.014617088863131612
0.03229668028589974
0.045337454040769325
0.03572473062933811
0.015052644899869464
-0.007003714708293129
-0.02357054173659917
-0.030420544502420047
-0.025559102408213602
-0.009250284377981813
0.015286141561056574
0.04089854720437316
0.05612428698820629
0.04636171406867129
-0.002924616970789481
-0.10142056497915634
-0.04907485785802525
-0.033105497520153924
-0.028520592076661574
-0.002608927900880339
0.07755607599348853
0.0366602261925221
0.0842528663268016
0.011569484512764499
-0.0068465345769349135
-0.007077820342288664
-0.026975181976015807
-0.09694071000211316
-0.032901276731723085
-0.03347975220027119
-0.0822534904674709
0.0454921935998367
0.17362205284050197
0.11683853136649847
0.07653316079313743
0.04277792366661138
-0.19816710225551717
-0.25420254198591186
-0.12042581829704009
0.02120521185433839
0.19480435209670915
0.2192008098720049
0.09780804609309195
0.014743508675609373
-0.06079273330650246
-0.16370736750220483
-0.12037091090602252
-0.13938038211091142
-0.009424636219984229
0.09504086130132842
0.20285579718714725
0.13469312837641506
0.09594113960284012
-0.12329901349383891
-0.1416984013049807
-0.17722844159250334
-0.039331163579225996
0.07402399263381944
0.17402391773413173
0.07574043134246224
-0.0068084322833238215
-0.06303377906031639
-0.08548501506563122
-0.06849570670882953
-0.007706044049940036
0.09857623336324252
0.046722566120572205
0.02545192402974841
0.015463389215859005
-0.008225070690563122
-0.0716901976232316
0.0033906313554832907
0.0045325824266393136
-0.06876541397531626
-0.004907334193116064
0.01724894312645536
0.023857629973814954
0.040821390240873716
0.089307422968146
-0.0167238067665736
-0.07055630440111486
-0.07095375622750653
-0.019948761511218636
0.0785611680886395
0.019016151871150182
-0.006280295382101754
-0.007475286231460447
0.003187631163166727
