0
6.838839468868524e-05
6.838839469212348e-05
6.838839469462029e-05
6.838839469439873e-05
6.83883946899902e-05
6.838839468113705e-05
6.838839466962247e-05
6.83883946595763e-05
6.838839465680176e-05
6.83883946668869e-05
6.838839469232571e-05
6.838839472949324e-05
6.838839476688037e-05
6.838839478618945e-05
6.83883947674116e-05
6.838839469769401e-05
6.838839458182782e-05
6.838839445012794e-05
6.838839435830814e-05
6.838839437476655e-05
6.838839455424019e-05
6.838839490290023e-05
6.838839534712159e-05
6.838839572345052e-05
6.838839580701834e-05
6.838839538671363e-05
6.838839437720709e-05
6.838839293401118e-05
6.838839151663275e-05
6.838839083856733e-05
6.838839166309824e-05
6.838839445603494e-05
6.838839898349037e-05
6.83884040210193e-05
6.838840738209691e-05
6.83884064372578e-05
6.83883991528486e-05
6.838838543907769e-05
6.838836832254385e-05
6.838835426352194e-05
6.838835196523232e-05
6.838836938660806e-05
6.83884093879785e-05
6.838846536205833e-05
6.838851899484293e-05
6.838854249614532e-05
6.838850679484342e-05
6.838839512217165e-05
6.83882184163471e-05
6.83880260140058e-05
6.83879036238299e-05
6.838795219918905e-05
6.838824703494486e-05
6.838878576775911e-05
6.838944446556434e-05
6.83899681413169e-05
6.839002034695069e-05
6.838930169869515e-05
6.83877189321921e-05
6.838555050298939e-05
6.838352511625946e-05
6.838272394627096e-05
6.838425239773084e-05
6.838870940602867e-05
6.839559830032593e-05
6.840293564830451e-05
6.840736576579649e-05
6.840501796240586e-05
6.839311516363917e-05
6.837197727306725e-05
6.8346661099997e-05
6.83272177173693e-05
6.832663793280861e-05
6.835615649184893e-05
6.841869611499393e-05
6.850260257012e-05
6.857892717817158e-05
6.860565502376209e-05
6.854082663282158e-05
6.83632485561511e-05
6.809499113704466e-05
6.781562348464472e-05
6.765637441337349e-05
6.776544535381828e-05
6.824482538322008e-05
6.907320604227606e-05
7.004491682517273e-05
7.076427395631372e-05
7.073029107008882e-05
6.9522453655845e-05
6.705466473337181e-05
6.381178133734293e-05
6.094206743293563e-05
6.007637019723132e-05
6.280451472026294e-05
6.986799845803584e-05
8.030217214204972e-05
9.092133666314297e-05
9.659954881492044e-05
9.167060375535343e-05
7.240686173178772e-05
3.9981501677591487e-05
2.734943074029532e-06
-2.3775383739336336e-05
-2.025306600243843e-05
2.8997845224712832e-05
0.00012624767768256985
0.0002514294691991079
0.00035906278661041347
0.00038591606064258973
0.0002718642011484224
-8.678567561916993e-06
-0.00041410290649365744
-0.000817108305169507
-0.0010176986083892626
-0.0007995386935065886
-2.7057373132597135e-05
0.0012409249062332948
0.002667480584326943
0.003642439147547872
0.003424917694913125
0.0014332631605983128
-0.0023748680739305596
-0.0071673734831963634
-0.011139248783927762
-0.011838148329341455
-0.0070030643214926145
0.004192058918987117
0.0198533488470504
0.034624064574712544
0.04012106728371277
0.02695388720045095
-0.011838281054149647
-0.07689103505655885
-0.15983003910676047
-0.04360442185553789
0.09321816885576556
0.0690288716288475
0.09129677126314022
0.15167033671147562
0.02667848794982924
-0.1154526994950706
-0.10390487777346243
-0.1542718615189327
-0.061798677525968695
-0.0016755725324260888
0.06352860542664389
0.1719832035259791
0.15063894538803804
0.007483777632162891
-0.06957893482795076
-0.10766050386861399
-0.1404573343415272
-6.756044039955596e-05
0.0884191620605495
0.10913297719689811
0.05577644063234265
-0.06816049802844973
-0.048643518592061105
-0.060619111776604
-0.0694659057902921
-0.035654008886347045
0.07738079030075837
0.09369563381992162
0.016321360800918044
0.022634652492606166
0.06563678974285049
0.08173629898567866
0.004148609713384407
-0.020423214368479835
-0.21558410976023015
-0.164271400943338
-0.20753468683383208
-0.05551514779779257
0.19074301614399042
0.41239947346618244
0.24959457761128578
0.09034389850784787
-0.12417153929177958
-0.2800248128988767
-0.26428305013541054
-0.14169717343366484
0.0581817739218025
0.1409264646525273
0.13684977959120234
0.08608385378236454
0.025041481401064287
-0.021931646627074013
-0.044760920569648324
-0.04502669311077984
-0.030932613578719233
-0.012196958805865727
0.003581318785021793
0.012528403120753167
0.014336789763221097
0.011048461997818752
0.005551795533242312
0.00036726791233267805
-0.003005255313213907
-0.004180534894785387
-0.003599374834954271
-0.0020881346010518088
-0.00045961388168775795
0.0007353474551095233
0.0012834011268807717
0.0012512637797797432
0.000862057068188785
0.0003682941497644772
-3.765185559275289e-05
-0.00026144549995792376
-0.0003001984125595759
-0.00020978420628926407
-6.583423312835487e-05
6.710266422017633e-05
0.00015161804639392273
0.00017914119974208925
0.00016202073087970157
0.0001219910942615301
7.994816690810546e-05
4.974135181702846e-05
3.644288168235987e-05
3.7989700309123644e-05
4.8447323519867185e-05
6.128222622354456e-05
7.161919473697575e-05
7.715250700282943e-05
7.792119119561243e-05
7.543561921084116e-05
7.166603467234886e-05
6.825917103224602e-05
6.614353597975425e-05
6.550376722402163e-05
6.599654070230701e-05
6.705195322864079e-05
6.813487931139711e-05
6.889929526890556e-05
6.922652643381197e-05
6.917796981791935e-05
6.890849268155255e-05
6.858229442446474e-05
6.831719834325674e-05
6.816509017158191e-05
6.812196720437301e-05
6.81536807582159e-05
6.822276107968007e-05
6.830570620543176e-05
6.83962669627123e-05
6.849639674186384e-05
6.86011793465034e-05
6.868634952278222e-05
6.870654293883104e-05
6.860903962768173e-05
6.836184329037726e-05
6.798758993151058e-05
6.75881467262212e-05
6.734187297787191e-05
6.745950897409535e-05
6.809737427544903e-05
6.924683124063098e-05
7.06413711010877e-05
7.173760613429465e-05
7.182236585247495e-05
7.026605677409116e-05
6.688202531198935e-05
6.227612167033712e-05
5.80083904666809e-05
5.637814930857071e-05
5.9719838635551745e-05
6.927278577546653e-05
8.393464749763862e-05
9.944538626876218e-05
0.00010865383829289255
0.00010336385985970501
7.77670476645351e-05
3.269119595524084e-05
-2.095576859708549e-05
-6.171059247785401e-05
-6.200558807037042e-05
1.7885928360259878e-06
0.00013543182506013782
0.0003136035345587637
0.0004743403802737827
0.0005283031795756224
0.000386913405920695
6.445653301102462e-06
-0.0005643914582745173
-0.0011548076709596991
-0.001485231283267123
-0.001241919104965365
-0.00021166995581225654
0.0015549040487293367
0.0036155077637264367
0.005127371478787119
0.005031139863759959
0.002448818987761303
-0.002776025081170657
-0.009579797808218712
-0.015493392500577827
-0.017046537853045166
-0.01091375879744287
0.004314286766634391
0.026209477635716242
0.047233253505651406
0.05501480992116995
0.034794126258918354
-0.026106708055205628
-0.1329746042607921
-0.07965785104326005
-0.04802329366033485
-0.012164902370722397
0.05327487551274298
0.16328205129343518
0.11493822952845566
0.08576092181701092
0.0397604350959868
-0.05976160002520113
-0.2345937982788133
-0.27906188053775705
-0.15640638822038183
-0.007385389163490672
0.23028783726836635
0.39811607284235734
0.2980340261079495
0.08717630173359107
-0.11027260195663995
-0.37768232534749113
-0.37650476563979113
-0.12416782508888365
0.012176248444525061
0.10398968406148483
0.23656907159446874
0.2803374098861279
0.06802481431667072
-0.015265955572804657
-0.02693183743798581
-0.049329255763279
-0.16566871704955408
-0.036224904304649405
-0.0809795277082869
-0.07287701339457879
-0.1433628581954977
0.0007546399454599363
0.052663874438707084
0.27907893525469274
0.2994774827231068
0.2782489747176269
-0.06617656191865251
-0.23674710316385258
-0.32542176896388375
-0.38455464197273104
-0.21306146599510176
0.2366034492786844
0.23218045555503636
0.0244583520315745
0.01108543048661763
0.3125417026101158
0.16843692798319973
0.3585337435702636
0.2484672937665255
0.054322325087574105
-0.6868268091271089
-0.659849138919366
-0.950164545689723
-0.8757529935165875
-0.47711270233347
1.5502607686288548
4.317136397296693
-3.756886081474979
1.0401506517683592
5.9918751364063025
-3.6851411300799026
-2.4382655792804684
-2.7994511504935224
-3.108726217123489
-4.7992780347001895
5.356944053734521
7.52428197791217
10.144179408153404
0.08929959045442694
-9.507330414025338
-5.82969952225972
-7.759091001716015
-0.4616920793965067
5.11802548622848
9.514536333746397
2.1209255856209404
-1.9200514398657431
-1.2033877375408943
1.8669962492881933
-6.266512605421566
-2.2511913633838305
0.9485050447304804
0.07754967789664437
-2.1233835530076575
6.886065859827331
2.8528437313614434
-1.3797955702441649
-2.658311280175121
-1.9974089464533769
-0.4124855937137306
2.42846263382287
-1.3027871357063685
0.4383459360793751
-0.045731965162894336
-0.44728884196779184
-1.9368181238819966
2.3298017238525897
0.6949490717066557
0.09645777190299755
-0.3977021728046445
-0.003347722764330025
0.21693181237548922
0.4319832334685306
-0.2510840200774841
0.13467444425033173
-0.26440876977829403
-0.6250932612979965
-0.7925784591312165
-0.4858303103848834
-0.37058306844795297
0.006863348056116453
0.848546229162256
1.3336449166947622
1.2899197728663014
0.5437018353994054
-0.23547972980504725
-1.0071438046021983
-1.385683282569692
-0.8690327572801086
-0.1143858895579951
0.5146011426810185
0.5297263588941007
0.24920180860584853
0.10478870243555706
-0.2515367273023883
-0.22660156622896035
0.4569424828861097
0.5303117409202356
0.9790557155012629
-0.7245084223374049
-0.7636300638946255
-0.5111974342272266
-0.2778120098971655
-0.8914311198751796
1.0868220054152273
1.1211362657466222
0.2547382045168296
-0.11956067687876747
-0.2606326485248893
-0.45566424229726415
-0.3863272169197026
-0.10047350258607939
0.20021603111403266
0.15481899041219344
0.22553090394692996
0.07658976432760613
-0.04258449421126796
-0.10611246449834255
0.08780873750647156
-0.07776565671026787
-0.030265656358967382
0.0010590826802495841
-0.007655385885672367
-0.0703129441250859
0.01061465818098818
0.042668195831677594
0.03993817266897317
0.018845947777902387
-0.005569540274218258
-0.022123529624626246
-0.024674464764486457
-0.012437093839493664
0.010161262932277855
0.03398551768549345
0.046340904482062115
0.033169613634992164
-0.017618317276579067
-0.11229394566492079
-0.04826129771155633
-0.013307900802064577
0.012039485210504372
0.04954686848646825
0.11739815162381566
0.025600446400138307
-0.025646925575708253
-0.044215229659625696
-0.04196214815781442
-0.030164002292242666
-0.016254163514723665
-0.0028909033588432696
0.010613834689645905
0.025315181703357
0.039415625851255284
0.04620054917803061
0.03418308697895118
-0.01021706064865476
-0.09810289827811984
-0.033152179532393765
-0.008140702046817576
-0.004328719208129577
0.005916792224610545
0.0539191259767329
-0.03182615100813271
-0.0321010057931895
0.0578512337029112
0.02539764606269591
0.04071305020658355
0.06074391300023089
0.036975394768910035
-0.07396850585517793
-0.09902102157283903
-0.03964192863917511
-0.06804625041094572
-0.13063465176842515
0.04125310130253658
0.11526141404549056
0.14053494133183667
0.13375636406187055
0.07304270894443592
-0.09822637265659952
-0.058681515339335674
-0.09103199141542724
-0.0638098956317037
-0.017151179049683354
0.04468349296329695
-0.04673551807989075
-0.0308609133186416
-0.030250292119359447
0.03421726561695719
0.02759745183046192
0.18772327594619811
0.11781233476068353
-0.012879877492652294
-0.06010888166777874
-0.08975182070857902
-0.16138575633308372
-0.1152246467649725
0.034004695126003105
0.09525040141834037
0.09320404929410202
0.057899472062718685
0.015611261548967097
-0.016531226796093205
-0.031689913697587696
-0.031215832806915627
-0.02099109319826829
-0.007824956879266423
0.0030528692284488485
0.009056578978694654
0.010081245802860926
0.00762209533588139
0.003717662527908521
0.00011221226328570766
-0.0021817195181625024
-0.0029313267117597663
-0.0024703323274383
-0.0013871606902187896
-0.00024805553575242057
0.0005712790729762369
0.0009328307514691645
0.0008920127470270279
0.000609346377668233
0.00026180529596695715
-1.841053145626373e-05
-0.00016865300927754932
-0.00018981499772989058
-0.00012271184962213823
-2.06871206341911e-05
7.162726034219996e-05
0.00012903132115032234
0.00014647597105517835
0.0001332279355864544
0.00010470793711598161
7.54055914722318e-05
5.469192647762797e-05
4.5779642352176736e-05
4.7006015334524195e-05
5.418593304709064e-05
6.289881767389259e-05
6.999992070707913e-05
7.414142207151526e-05
7.547838069780264e-05
7.494058299858778e-05
7.347714350558829e-05
7.157777341592006e-05
6.92080207081862e-05
6.612153008411203e-05
6.236992344798205e-05
5.8746578102965316e-05
5.68938865072295e-05
5.8888635390958194e-05
6.629834998693979e-05
7.894760482298643e-05
9.388310979869216e-05
0.00010517665497873548
0.00010513630955498172
8.71204901825783e-05
4.947249406770342e-05
-7.310468564099775e-07
-4.6080323283611746e-05
-6.141489672518184e-05
-2.173660340570081e-05
8.536087359727255e-05
0.00024625579750595393
0.0004128958727199995
0.0005064921256085863
0.0004385080553513667
0.000148636636068953
-0.00034909167127795943
-0.0009300722893822153
-0.0013563438909333623
-0.0013280367376821444
-0.0005951507830807783
0.0008904486420394081
0.002834452871721488
0.004546968410016163
0.005053904667132935
0.003413657996368046
-0.0007977535237969057
-0.006974745830712558
-0.013181534048043479
-0.016337397366033814
-0.013087287723307639
-0.0013446144985516258
0.017829330956165384
0.038678611379224064
0.050392991026422314
0.038652098932269924
-0.010771430070099815
-0.10709415582664629
-0.049916637871533706
-0.026894306807774732
-0.015089608742260391
0.013862481430919194
0.0860326374661542
0.017106937956978988
0.006304498457602974
0.034153831629437685
0.06503886787994156
0.05441656159799082
-0.04038767452812684
-0.04798149219067165
-0.17249843040050933
-0.18858432567564573
-0.04453898874372627
0.12595195645430426
0.18629297082022855
0.17916680750768246
0.11457721335406253
-0.03209061941840384
-0.11155798072251125
-0.18502885783152145
-0.10699406931408827
0.08817225744751626
-0.007372179119770753
0.024097502315336933
0.01914892002941417
0.02301193626133852
-0.12197328611533233
0.012377886372693592
0.030639804732232333
0.10800083601906693
0.19052410698713637
0.20363963161032642
0.06948637853580515
-0.2694212847459237
-0.42657553697039424
-0.3568578699298045
-0.15893524645241452
0.10262227533697732
0.560776142825575
0.7072989616265086
0.166413617356045
-0.30926786087057767
-0.42033270834182357
-0.48931762181296123
-0.23052494201733073
0.2685163683231119
0.5516938869038909
0.39088454134681666
-0.016731262705608856
-0.44549904284860875
-0.4346351516313529
-0.28620457681256706
-0.07567296096324778
0.32313124239477875
0.6051484804023065
0.40560054248885447
0.08801161831233087
-0.2456101418130234
-0.5265032054616113
-0.48479029009175567
-0.22296989741571197
0.19381116215331992
0.5311713416501928
0.7719112253494691
0.30812769097277903
-0.4528027312001193
-0.8707251393459653
-0.8564404625188426
-0.2724168672136784
0.4415886715773752
1.4251740982388688
1.3568307014392846
-0.16058265948633962
-0.7778081641240717
-1.3514744752111734
-1.4990908192266497
-0.7868447859735106
1.4366127520631438
2.1748779861963494
2.1246696418017375
-0.5362975448603935
-1.0958217983790812
-1.6056221036324307
-1.7774342498295372
-1.1264797800578747
1.6098109742653874
1.785473230802024
1.1307616659185464
0.25700432556310226
-0.38423026549972883
-0.8825468224307826
-1.0115710795213113
-0.36506072868796136
0.28752448594028013
0.4158770048362985
0.5209436115167643
0.5207033828102771
0.14529355911307765
-0.4515976310772515
-0.669680397693112
-0.24054547031503973
-0.2222762368982368
-0.018531897529136598
0.17987955464419927
0.5423986122610027
0.5518060410036358
0.3792678779188484
-0.10880134919030261
-0.3128535631314924
-0.4431397003360368
-0.6621292391519474
-0.24485068585571526
0.23155796173260376
0.8688844914988377
-0.39066602764358715
-0.008293579009315917
0.11427328888162776
0.21137261239572522
-0.15291318884960414
0.9274437598335936
-0.06973705594130049
-0.652564952199604
-0.6715332881951668
-0.4902412113629646
-0.18406373247671923
0.4291160659419734
0.7352528744310896
0.6668382438793756
0.06302108559653143
-0.139257101036054
-0.2823693373651964
-0.3444004041495621
-0.491673517758879
-0.04291829592688405
0.14599178165580504
0.2764946580403538
0.18802881227371485
0.1351078982817112
-0.03065657357470498
-0.06949794419432435
-0.15402139782441612
-0.06490021736943426
0.014137591052034536
0.09931063765099006
0.0071284927289003664
-0.0471175268256446
-0.05163677891850724
-0.0005212081816462603
0.10422570501124644
0.051727322615473685
0.02329444203609509
-0.003954254246710234
-0.05147976776474274
-0.13348050580603685
-0.05315229262517775
-0.002916141229338557
0.030965201453770172
0.06080768601707493
0.0898031524963535
0.10741678509983629
0.09033210721470754
0.009639016585097656
-0.15739107180108108
-0.2148762649941092
-0.14037054714980554
-0.08570260377029777
0.012014109395444736
0.21188655924713387
0.3494937749960178
0.22354698483767638
-0.0050756333948923345
-0.2005919747723622
-0.23030882046476936
-0.34188339333588935
-0.14877436572194797
0.17074551525188494
0.2614890662338306
0.17205252820838812
0.13658759183919025
-0.03562995615015423
-0.16030279437963788
-0.0697285478665698
-0.0003413134050391901
0.019248583388452905
-0.023421119893274223
-0.1214497212307491
-0.050800677945477324
0.022573100696968017
0.13239467501724164
0.10150204405333449
0.1346595343538194
0.01753301588562055
-0.07756774976214963
-0.1812888910526679
-0.1162926826561467
-0.09017415464171448
0.10508128920314962
0.08733276560837572
0.07512074686582104
0.07919678614788038
0.09818737026088185
-0.08008905712509697
-0.07245676525035698
-0.09210107017449401
-0.14174770588684246
-0.011259346307828008
0.11928455340145758
0.07233441114663593
0.06453190611165747
0.10070475822884521
-0.027573954735953518
-0.13865053855346007
-0.05437647111724617
0.006723869467889071
0.03441558393522668
0.028851151432560816
4.1469633152167325e-05
-0.03457871722298364
-0.05394305520689029
-0.03821743951840803
0.025694989808747782
0.13907076339607324
0.0884739541997998
0.04689423413335701
-0.020298344081630365
-0.1457306743079847
-0.14975638068100844
-0.03328294009311211
0.023527134342251958
0.05617383298576784
0.10626058716657165
0.010751913439897053
-0.006731789184947688
0.05949357940297847
-0.0026804159446442897
-0.018852381552095777
-0.021053110897129575
-0.03984318183190272
-0.09761009697313022
-0.004743116118619825
0.04051987019606481
0.04898420035108876
0.035599198491115445
0.01463283867083376
-0.0036288036059655845
-0.014086829103848795
-0.016214447429740365
-0.012387373391605864
-0.006003647969292502
-1.7438468451861562e-05
0.003830050775302024
0.005110286325633579
0.0043580444241857474
0.002549268130887523
0.0006333077866953185
-0.0007543511815063428
-0.0013756161964409914
-0.0013184544669799041
-0.0008499131928280906
-0.0002671780161468051
0.0002061203073531763
0.00046260773444786393
0.000501946803477334
0.0003916310581557667
0.00022102833632705373
6.548139502962737e-05
-3.203392809772168e-05
-6.242183300936897e-05
-4.085959048373836e-05
6.849933103438485e-06
5.622678558912946e-05
9.126163784246433e-05
0.00010629702518847349
0.0001039896750549844
9.142857719085932e-05
7.62965994858921e-05
6.425656912755647e-05
5.79272332505459e-05
5.71845660786899e-05
6.020777511943721e-05
6.467037985009734e-05
6.865167760523824e-05
7.108700596447115e-05
7.178564370997742e-05
7.116937251809318e-05
6.991564208231483e-05
6.865158063847329e-05
6.7775729789469e-05
6.741656998784716e-05
6.749112257448364e-05
6.780922277443327e-05
6.817454048429076e-05
6.845182092601124e-05
6.859074476046783e-05
6.86130800707794e-05
6.857845822258582e-05
6.854567111845194e-05
6.854321776721291e-05
6.855748636243126e-05
6.854118232713625e-05
6.843910912633262e-05
6.822332107947567e-05
6.792533843034306e-05
6.765066480155149e-05
6.756217651635501e-05
6.7825995483007e-05
6.852683068367461e-05
6.957733307787529e-05
7.066206063297027e-05
7.126261992617482e-05
7.07975887303533e-05
6.887412223443322e-05
6.55917734269239e-05
6.177919554494511e-05
5.900842463239441e-05
5.925095263800714e-05
6.413743505351584e-05
7.395593136021769e-05
8.673060520204902e-05
9.788154266777518e-05
0.00010097053120914802
8.979550117259266e-05
6.158420286045161e-05
2.0351231009097833e-05
-2.1141185739082148e-05
-4.259534715452394e-05
-2.1807499292358153e-05
5.549582942721304e-05
0.00018402020120150453
0.00033015394147453627
0.00043209524770194876
0.0004139451341435898
0.000214927250025325
-0.00017188466033420954
-0.0006648964914860231
-0.0010828163055658765
-0.0011761022782462596
-0.0007102557709557495
0.0004100389304222985
0.002013470191860783
0.003592350847542301
0.00435858094341053
0.0034708709895591022
0.00042071033804144594
-0.004521329150186921
-0.009985278480442368
-0.013542239782858697
-0.012303869402045827
-0.004128086103483704
0.010776556448259549
0.028345389839387683
0.03994924827266501
0.033145260567471996
-0.005824787061256182
-0.08816758820144348
-0.018376691740399003
0.00884175526018055
0.009494851168075176
0.008756750713285933
0.03727663393565838
-0.07409585500982083
-0.10069845236426023
-0.031127368242477232
0.12589699333961205
0.13677117333015573
0.14313680558722416
0.06936647579910128
0.03789822897224587
-0.2101843270695629
-0.29488666596899393
-0.18432342414116604
0.005216425916603038
-0.0057465550939104606
0.1133105849137618
0.27165353923154056
0.3307208348670874
0.09028904267722511
-0.10843940395866518
-0.16423546881313023
-0.18835637468519345
-0.27739174516274395
-0.09469494919861422
0.13520913161856093
0.21997503561202317
0.18562069121083916
0.06230798479395079
-0.12508119018661595
-0.1599611722896906
-0.03235816194237777
0.06449966000209505
0.1372619576581623
0.19482535485245392
0.05023161829623569
-0.2789737487174475
-0.5755255199836149
-0.6375154917957062
-0.506600500775628
0.6957144730644859
2.1405761411899893
2.6990111951315705
-0.7939252137121249
-1.218926991439224
-3.4323478073067535
-3.169080708316098
-1.6474139900255784
4.505630215439821
7.2505078338204445
-2.260057288318013
-1.1852256553745535
-0.581115961299685
-2.503130754244093
-4.692951976164118
6.0955698457321414
2.5181715359203514
-0.7635665978942114
-1.4731268364647525
-1.4829234713220327
-0.9703229604758261
0.604189708944433
1.8834499086857057
0.3766803484709107
0.42435355123924234
-0.6165251684186166
-1.1669750964698722
-1.2175241216157513
0.26248037545198066
0.8879696132490987
1.0028005961416406
0.4295115363050013
0.04845510741625479
0.017984589244644484
-0.9701390688779266
-0.6192168720837574
0.036994182991065175
0.07467941434344773
0.29053568762126414
0.38800762899716496
0.15009119913023602
-0.19167994545602154
-0.38786901935617724
-0.40274980179709474
-0.2502353247689073
0.16584701957124562
0.8142733785782184
0.9157866895692613
0.3549183044394508
-0.06720234341383034
-0.544904581123083
-0.9662320938323292
-0.8277244907739982
-0.19395152504100485
-0.11725633874419082
0.2853119606498622
0.518144833505121
0.987111719574956
0.5057472681877444
0.25222952084550376
-0.01286980394250274
-0.27546815304705774
-0.9655433626065989
-0.6530534093289087
-0.170364969548536
0.020788599815620565
0.21493336517542674
0.4123639950062663
0.6521124192269123
-0.25132215002926744
0.04727712999792058
0.003763906297327232
-0.012337347468686073
-0.2975285726036546
0.41628262029998353
-0.003706151345738246
-0.2584736220166037
-0.3918626549890637
-0.1784661297919174
0.07101197337093358
0.08703344553935642
0.20698009403661438
0.3393113154747119
0.13661791331296008
-0.014895290862701012
0.012787977089170803
-0.08694615317702202
-0.22396433130886573
-0.28147608694741366
-0.09604582215092994
-0.05279886420686252
0.10374593460852785
0.24780188975740544
0.247372064930184
0.14470675980461553
-0.05198376018488026
-0.16441836585674194
-0.2313959980232568
-0.09362881001226069
0.017689569707385642
0.08544853355737334
0.10484189339778208
0.07826779050731442
0.010364962586671233
-0.09464477816214446
-0.033064034990591615
-0.00045437778976082266
0.009513412276709708
0.005192297538273511
-0.004039319991217329
-0.009555341104127911
-0.005568827198093459
0.008945149034243881
0.0290097791559838
0.043668318687871244
0.03775936897263378
-0.004453337357140334
-0.09439754073388155
-0.03440919702564603
-0.014746811543018969
-0.01371169826860711
-0.0012023859280057743
0.05504385858288237
-0.01798562305805947
-0.0054451735597785015
0.0907177544582717
0.05061667866925424
0.039538729999506084
0.01520666972592843
-0.06215674242812755
-0.21958703522163042
-0.06424901472263167
0.01787666373432222
0.05675248448818225
0.0883127379405874
0.14344325367148675
0.03986145136842807
-0.020470670623937422
-0.04800983187348748
-0.05819814079969976
-0.06309328039008529
-0.06530598986319901
-0.05652249587345057
-0.02130865560267882
0.05491075212372794
0.17645664043512724
0.13034011617518385
0.08504475530874812
-0.003178221032392904
-0.17777986765685105
-0.2673187754446864
-0.07436629874898569
0.02756330312434357
0.08773581535866336
0.1650386776415542
0.11285130866818564
-0.033051528707898306
-0.06046535964145623
0.019862800508093085
-0.020136476494992058
-0.017576233173154345
-0.00990415657216955
-0.027536112074544775
-0.08914145346358916
-0.000345870604047497
0.04414732274492707
0.05597625499388209
0.04784928725714747
0.029532968749714037
0.006421955534104097
-0.019124389790551224
-0.04464268830727865
-0.06433932836098268
-0.06761914943297666
-0.040637663228575226
0.02903989590644261
0.14608282349223417
0.10198772034160004
0.07354086293881139
0.026960861807950345
-0.07270434381212446
-0.2498073375675885
-0.10839078638332934
-0.028730997679934207
0.02788168767463244
0.10745641098295786
0.24890462040494712
0.07224739269245013
-0.026345482569383228
-0.07129269058208852
-0.09801554388582498
-0.14113910179984648
-0.024857370482149182
0.04164599409605049
0.06318849258182681
0.05359324286077227
0.029358054464953837
0.0043945071859545935
-0.012833399453621212
-0.01965183649857154
-0.017730015416290743
-0.010890426514355131
-0.003093974211964273
0.0028576226150943645
0.0057724462135255224
0.005848191505436177
0.004098708870491752
0.001736816747566862
-0.0002778218350489327
-0.0014454112421058772
-0.0017131265985827974
-0.0013274581926164288
-0.0006475101304529633
8.046366093690557e-06
0.0004449461955158263
0.0006074936525074744
0.000544374003801074
0.0003548868889536133
0.00013991944345150063
-2.8602489448253257e-05
-0.0001172193610909761
-0.00012482967186869628
-6.972274003127329e-05
2.2408750377881013e-05
0.0001251968897516621
0.00021303618202528644
0.00026043236930586736
0.0002435823752213117
0.00014716850345933128
-2.399395909244107e-05
-0.00023299107409523667
-0.00040634336534410944
-0.0004453505985411642
-0.00025782511127583056
0.00019339893077934163
0.0008397274514624659
0.0014781796405903293
0.0017924174486246087
0.00144230132633818
0.00021778135215108591
-0.0017814298933973235
-0.004014253910152615
-0.005508044819397831
-0.00508822125605345
-0.0018446240660610837
0.004252889039326127
0.0117970191446599
0.017735735767307765
0.017793610013526903
0.007639567424618813
-0.015389932790735925
-0.05057850830355261
-0.09295323760302887
0.06603637894500344
0.03617100329893676
0.025213170785827667
0.03611701848132516
0.06593636162255653
-0.093079790364258
-0.05069671673152618
-0.015450717261077508
0.007688622072498807
0.017986592051896164
0.018060703307756644
0.01217340215955425
0.004529196139804541
-0.0018590586998804848
-0.005552950670578225
-0.006454955470883261
-0.005257329588783387
-0.0028812826022536586
-0.00011488901820860192
0.0024855881924690927
0.004497100264173344
0.005479087689385558
0.004925392494664353
0.002415443930794408
-0.0020463460472093407
-0.007638651949817339
-0.012511851862471073
-0.014012224791426593
-0.009504965231670949
0.002254549493016965
0.019545892322289257
0.036523455892429495
0.04319773089922644
0.027086173135994537
-0.02350142723582553
-0.11538324553469603
-0.04715430600118274
-0.008154774033383121
0.019453025827497698
0.05606697596332409
0.1192379105913886
0.019594905090291433
-0.040422606452342226
-0.06493214495309212
-0.061383170841331165
-0.03768628145284736
-0.001195862204509222
0.040163259089868605
0.07564559066440357
0.09013436315946902
0.06503132965692113
-0.017712994065046884
-0.16942897897615125
-0.18905834775284094
-0.061211576685832936
0.04002387894085433
0.14224485254456384
0.26450654165604937
0.21073896563602823
-0.02937183285569483
-0.2718169339797493
-0.32618667480511915
-0.18695659617775007
-0.03407131164130793
0.15573014569761948
0.3912090707421167
0.4509995539741689
0.07862161766218297
-0.2077513196989238
-0.4939382552620952
-0.44638095544896966
-0.29801636849123314
0.14990265273481493
0.512233640926563
1.0016397993326105
0.6222927145938864
-0.21447709092949643
-0.8554077834532439
-1.169266705119053
-1.5358489818405217
-0.48118913535301044
1.0393737751179466
2.335795533960454
3.902637620982396
-1.5890850914178172
-1.206867056772094
-1.4022750982852934
-1.8471557488355927
-3.127459789102747
2.862801985968037
1.6275890100586485
1.1161189438495336
0.37227511657146906
0.03624888058346783
-0.28170606560314687
-0.765517033857741
-0.9231570794545503
-0.312934211822014
0.11141874894399108
0.4298078045935067
1.167418956935502
0.9059017233993933
-0.29163785838108214
-1.0408301149529013
-1.197621585362894
-1.048036816305962
-0.548666499307739
0.7787161231221885
1.9208214392217642
1.857416285974473
0.5027209931843368
-0.4687037567432104
-1.1169992546587635
-1.4905159197258433
-1.4911861279443317
-0.19858760283717566
0.7252834538697674
1.1603434612632666
0.8169015147669432
0.5318290671553023
0.2063758892354224
-0.40087455991319043
-0.6336712378224125
-0.47253430434682053
-0.2701986112866466
-0.10871352237512368
0.21241130543271855
0.15929406047369052
0.02835415768973028
0.10599944295913148
0.23581392658832803
0.6027022832491951
0.1393237057534915
-0.2455655680808733
-0.4246914095719848
-0.61050604867773
-0.7312889625216991
-0.03766215569346157
0.6589592728765857
0.7278395668883505
0.46167755925432247
0.24239289381820292
-0.05747433873123413
-0.43908870363721314
-0.5209321665915359
-0.28128677868186847
-0.21759181931358995
0.06695817468184055
0.24931249093633318
0.25332636023330757
0.21024773492862622
0.22542216155595637
-0.04053387544522585
-0.1739423270234152
-0.19723173998432997
-0.15209624363436428
-0.0838473095706382
0.16857546111297395
0.1764466783576075
0.12158339250210305
-0.003461580525579292
-0.19371866578650895
-0.22986055821566737
-0.0790594996590425
0.09892801635826921
0.14086974166024932
0.2680304879451122
0.07817695453460158
-0.05451653919003267
-0.17123707605756433
-0.11526780114621422
-0.11899559437720805
0.00405860126186808
0.05995610989823219
0.06859278216421572
0.054443624665768006
0.0374143792643315
0.02670989367837266
0.019198395471839696
0.0022320230176409565
-0.040366411044591384
-0.12128193518512986
-0.044075184712567085
-0.0009044484084551375
0.025667392245654844
0.05763497260890931
0.1153459040621307
0.01247701999275608
-0.04620584316779943
-0.06410925826574358
-0.050240358873383
-0.016485476316921422
0.024066615433590094
0.05765438620029987
0.07010769507098898
0.04804671057490774
-0.018322701495833968
-0.13132709746283924
-0.08256642463057404
-0.052440100843353134
-0.013842731162221891
0.06037671978896103
0.18856902053943386
0.17360767108001116
0.0015951344677134656
-0.1528773967825296
-0.11674029901365472
-0.10790840835035612
-0.128719834856284
0.0339588251440978
0.20228924454301886
0.19782141093890304
0.033087671585680684
-0.09214259949415475
-0.18932090076535052
-0.07647735172235523
0.026323582802728996
0.09945570018616169
0.12443711526887045
0.08475889774045754
-0.03142833623564453
-0.22671576718969952
-0.0898791897572022
0.005815853587350868
0.0996483131669348
0.036279856591325335
0.056802045336540326
-0.009091150391782396
0.0523005083077676
0.038095244330539076
-0.06820807911776473
-0.09163031147443527
-0.060453901625728695
-0.002653481173482864
