0
-1.0274790909943553e-16
-6.9634201835106415e-15
-1.6344901284502472e-14
-2.5086979650907366e-14
-2.851026845637355e-14
-2.184051744198303e-14
-2.5063899344663744e-15
2.7314695631382158e-14
5.901331307598159e-14
7.805757603349978e-14
6.771714045798891e-14
1.6032174153634314e-14
-7.552366411447108e-14
-1.8497225634970864e-13
-2.687608240743863e-13
-2.7070294021335237e-13
-1.4233527673861922e-13
1.2871604623083433e-13
4.916899496163247e-13
8.210609055191031e-13
9.350046320599774e-13
6.523269154911584e-13
-1.1787482404143584e-13
-1.2790049995283658e-12
-2.4857441986788276e-12
-3.1698619500076586e-12
-2.690866704945808e-12
-6.097093322091765e-13
2.977921939588666e-12
7.178380310237057e-12
1.027730616658964e-11
1.0108128004791557e-11
4.857311080286345e-12
-5.836985701642889e-12
-1.986397982261709e-11
-3.224531037256989e-11
-3.5924034863697095e-11
-2.4035947637310865e-11
6.595742395210662e-12
5.175454072962822e-11
9.761734151468789e-11
1.2199073440757428e-10
1.0038994287733956e-10
1.6775394288888502e-11
-1.2364082439594032e-10
-2.84628457401217e-10
-3.987901126686003e-10
-3.8268556938376674e-10
-1.6864090464627288e-10
2.527492995900457e-10
7.941659465635489e-10
1.25845598176213e-09
1.3720420256779955e-09
8.753873116474597e-10
-3.409501957292136e-10
-2.095263110243512e-09
-3.83525123116328e-09
-4.69510172554276e-09
-3.740205232408847e-09
-3.878169782803788e-10
5.1015227241632e-09
1.1262918752017218e-08
1.545000368046739e-08
1.4453353377076812e-08
5.755334918393397e-09
-1.0827620351901711e-08
-3.169978755419233e-08
-4.9064568789191666e-08
-5.232848365746628e-08
-3.1698434739699476e-08
1.6527506054885997e-08
8.460021548819172e-08
1.5049188491495416e-07
1.8046393959948628e-07
1.3889673979027537e-07
4.751768543761212e-09
-2.0959686299656716e-07
-4.4506688115792714e-07
-5.978738201231038e-07
-5.447313856063947e-07
-1.922897520654895e-07
4.594838644257636e-07
1.2631249453620774e-06
1.9107329003254776e-06
1.9925880933123215e-06
1.1399703141637137e-06
-7.693317546527847e-07
-3.4077111349455356e-06
-5.898104817054863e-06
-6.927305237134989e-06
-5.139981266616581e-06
2.178396657761813e-07
8.578153313939028e-06
1.756358612695729e-05
2.3108796159341684e-05
2.0484201380671815e-05
6.241261682315879e-06
-1.9344459148856366e-05
-5.0247513809347284e-05
-7.432462677756736e-05
-7.57481885155097e-05
-4.066798890930648e-05
3.481519472474957e-05
0.00013695172904890773
0.00023087453667605483
0.0002655238180290718
0.00018940968632092265
-2.426469556763823e-05
-0.000350066861826459
-0.0006925533069579058
-0.0008926619877555799
-0.0007691486088204462
-0.0001949633802638782
0.000808834260545017
0.001997800649474853
0.002895506126431784
0.0028947098814495072
0.0014823559516458427
-0.0014505152322430623
-0.005317637122512946
-0.008720808365337342
-0.009669974228857363
-0.006235649672437478
0.0024189018902427265
0.014879066315837552
0.02662856390622724
0.030000653654080736
0.015261555226117133
-0.027258417431153065
-0.1046282945053293
-0.019421212716244828
0.030612675935521555
0.05113516109965423
0.0488857822619751
0.029769026983079556
-0.0015896672192626956
-0.04069138215632156
-0.08129296400283609
-0.11425358670919873
0.0717183658963994
0.08732232701744208
0.13923183877328857
0.028029425868388844
-0.0510493323853947
-0.10489922032607589
-0.13903289048440806
-0.15664454940237443
0.03791132494281582
0.231853550692324
0.19632159951632888
0.08320407572355672
0.030287656656568424
-0.024700147579327224
-0.12450420240399984
-0.273441717800229
-0.22627520440705856
-0.09040053284070158
0.056921888735807835
0.13966880788610148
0.25044935251166583
0.4244091515568307
0.22877393082669048
-0.027316517406607246
-0.264950716944553
-0.5989536983181927
-0.5063395160065955
-0.21192700959433616
0.1040331745343269
0.6823101109255174
2.7608938367468467
-1.6313053473500672
-0.655199349207469
-0.4268166034725472
-0.7919513635776105
-2.335322742828491
2.1651289822258124
0.8506712024037878
0.8939667933165469
2.4529958383707156
0.09788767485385541
-2.4861960770069333
-1.1505813043931392
-0.742625403400295
-1.8267839541894997
0.30307846525952464
2.5257284136881544
1.146258800311268
0.15420343214417276
-0.26873413668502244
-0.17120098313467313
-0.1914565276767638
-0.07537755197348506
0.021450040586105112
-0.37480248547150835
-0.5891472131290444
-0.36847528028011833
-0.09711402602879654
-0.05528463659933902
0.29217491666376333
0.5985543538935556
0.7557221347989731
0.6566451808587348
0.4154637543008547
0.045745323550779426
-0.6201250190492185
-1.6030266375866002
-1.081141380946416
-0.5617944261752901
0.061400658790422225
0.37555857432932704
1.2749424279926327
1.1974725440194305
1.4224000562946975
1.465126162592252
-1.8225796868027837
-1.4722861040526545
-1.191610270382095
-0.9920191408575657
-0.8989630132528063
2.6395455154021863
1.0623777073093423
-1.0409572211735516
-1.0763039859235701
-0.5791626397072708
0.8722497609721804
3.3764389767831506
-2.1198664589509337
0.6203817370808962
3.439714047224681
-3.4457767039031597
-4.465265629657346
3.0501640352395167
-0.27164069605652075
-3.483576533186738
2.5558915556344606
2.0123631610664336
1.5120284700164108
0.43762470701580514
-0.08284617260639912
-0.896426057810606
-1.2905698790252447
-2.0578081388513336
-0.4110149688253497
0.22101931840822903
1.1205222667792105
1.5637917692283523
1.5100816927079856
0.34074685038501096
-0.9309269269417664
-1.9907976499459397
-1.3325014315847579
0.014374067982927395
1.3116828544526553
1.0994731800370552
1.16814007716372
0.14484248845486103
-1.0934473070042834
-2.1923293581312615
-0.9069946523647949
0.068535151179488
1.2237264765766223
1.5287251434259224
1.5499416639350359
0.82648649970386
-0.8724762024913114
-1.6228473097109708
-1.3958278843217016
-0.7372331651020225
-0.3181560185601802
0.8288135189297208
0.8043657194118781
0.9057474245544508
0.3010092888000808
0.14679194836900425
-0.23599298571064398
-0.33250683475018694
-0.36659709807951735
-0.016183133483936074
0.0706620921731872
0.34711461095617346
-0.17965047615776972
-0.9178409024822742
0.11420057280703444
0.465858216202199
0.20716655930065808
-0.13540665206375757
0.14929849383018218
-0.9150370586023886
-0.4608343710683506
-0.03699012284723063
1.150008859547125
2.4342545786929484
2.951328600137064
-2.827057524379755
-2.3050571550394756
-1.7783374243132655
-2.127188942042221
-2.2418429917865628
3.413714396350225
3.350026385399344
3.6044160404456043
-0.6067143282810248
-0.4792693464836122
-0.2654673260531468
-3.6368288428852744
-3.6587472077210363
0.9408727132296055
0.9671464380214677
0.4326104417829495
3.3730214726442287
3.485311007620842
-1.9480941667836102
-2.0274487506829675
-1.7266520153625113
-1.1711753440395067
-1.7652274638395222
2.8027142775876737
1.890157439259866
1.0120617581930822
-0.016366483541431553
-0.8780338085862764
-1.100342970033855
-0.7819108116831991
-0.3372152830769951
-0.08404426125764677
0.3225297416056455
0.6255633898492965
1.0987375995933966
0.9050016777381344
0.10121555540440338
-0.709123532088251
-0.8937181601696178
-1.3137051747222577
-1.2862733567488758
-0.2104142943700665
1.1464398536721123
1.9313331191188754
3.1079938582976854
-0.9732662619876928
-0.9153427724782277
-0.9410042152663809
-1.3366439611054817
-2.5330336601688566
1.3324111733641897
0.9586158852217398
0.3497690448628108
0.05354087887867909
0.615674312303325
0.8873346208173679
0.8064463809967899
0.4587759576139987
-0.5929033829252178
-1.5423036342852248
-1.3813598957787812
-0.9981207835955973
-0.3639263573624323
0.7853655250262128
1.4008456498502693
1.3538792916820475
0.7052082495534896
0.24929826200147387
-0.2539020029815664
-0.7768124927611441
-1.289783387079318
-0.839884517710799
-0.48115448798345734
0.12460025632705737
0.6418462910314235
0.9569502013030139
0.8732955643134741
0.6416159508857284
-0.052835414019186316
-0.6454702267797584
-0.8091801484498214
-0.7641831455946995
-0.4122588071882238
0.08471795659684397
0.479606064983102
0.5823679697080967
0.5936111563830787
0.25262293784247647
-0.18558997104156105
-0.3427173819780236
-0.4891022282852549
-0.5111293344731189
-0.08818021158102957
0.5146465951109294
1.0420295987023689
0.24306273346848767
-0.7250009481957456
-0.4828084105136188
-0.41408059823053833
-0.6629980153617172
0.44899594215437044
1.3916323299215436
0.5948568718955547
-0.16368406917874206
-0.5436707563718396
-0.606009975429739
-0.5739688253668747
-0.21133620557188382
0.17135356620611136
0.48485509838325136
0.6173266149848221
0.3973051168190623
-0.02094392412048618
-0.14385345087141632
-0.3024756433486841
-0.6081716724366375
-0.31688093359029496
-0.014903004800984125
0.16943349273808536
0.33375187989737465
0.3621166436372952
0.29292134021393357
0.10555458316816484
-0.07004923426954943
-0.32516851702603433
-0.33607580998937686
-0.3331295437074949
-0.08623638137344386
0.08843865944144944
0.3034158096638536
0.26577940233748504
0.24587638561268052
0.058796030243781036
-0.13673411448242248
-0.2237546689901405
-0.10331968602190855
-0.06973502352507938
0.008662978770614073
0.0999966425691725
0.01060796483239236
-0.020088559432802952
-0.12952932948943177
-0.04499565149131517
0.1019136942196284
0.16161275456257232
0.15685018299077347
0.08011342999826003
-0.10063469259151607
-0.22970494954644577
-0.1494763081186281
-0.08958332056805296
0.13694550396149152
0.1304821584467019
0.09756401803058418
0.043865672265461245
-0.02947970120402353
-0.12545187208252037
-0.0480472684185928
0.0010959400992673813
0.02446305225988745
0.028262844092082927
0.020520880061095016
0.008819576677172187
-0.001363007439452763
-0.007291277188325258
-0.008666282386306567
-0.006753062493350899
-0.003382250551165826
-0.0001615707144430137
0.0019453068806310652
0.0026815454908791225
0.0023159006847447705
0.001364414506081529
0.0003376532115011718
-0.0004171319839655154
-0.000764676801635385
-0.0007462251892919476
-0.0005019409932390528
-0.00019091545442205174
6.537586058105504e-05
0.0002071326126125745
0.00023222597294134234
0.0001756833020547001
8.512115227160132e-05
1.2748162101600395e-06
-5.217599882045261e-05
-6.972678169132123e-05
-5.9089342174201973e-05
-3.393307600755677e-05
-7.434438044487991e-06
1.1650780269476218e-05
2.0094144035101498e-05
1.9171213683254705e-05
1.2609555069243606e-05
4.525803283890186e-06
-2.0008734841570244e-06
-5.507768294006722e-06
-6.010814435027269e-06
-4.456246117887282e-06
-2.0836211789952428e-06
6.844937474174703e-08
1.4120036496016797e-06
1.8267772686775202e-06
1.5248682169917501e-06
8.615467677737165e-07
1.7151770517773163e-07
-3.2711406742058336e-07
-5.558078714087103e-07
-5.454156349337372e-07
-3.827896462577619e-07
-1.610086884666342e-07
5.0684372952142356e-08
2.1375613672198102e-07
3.1064260170382323e-07
3.3007804206036644e-07
2.588695291410563e-07
8.671349811169934e-08
-1.767671139589257e-07
-4.812588007032315e-07
-7.250266850955116e-07
-7.682958170266174e-07
-4.784638137114724e-07
1.9811758264471462e-07
1.1598715123277258e-06
2.1061035778862635e-06
2.5670588737793226e-06
2.0363592120102105e-06
1.9967614767059455e-07
-2.7977975470939743e-06
-6.154976500506779e-06
-8.428072262939757e-06
-7.868647871151234e-06
-3.1084586204388984e-06
5.945298547582733e-06
1.7323581361248936e-05
2.676882061025747e-05
2.850462663854748e-05
1.720089786343314e-05
-9.140302018011527e-06
-4.6265925703048455e-05
-8.213956172908405e-05
-9.835544437286549e-05
-7.55122023454222e-05
-2.1964389060908474e-06
0.0001147558377598671
0.00024303518458547988
0.00032599511784869536
0.0002964413931660422
0.0001036225506878662
-0.0002522172448394825
-0.0006903613316413305
-0.0010426905835794011
-0.0010857973122854706
-0.0006189676233637572
0.00042379820610866217
0.0018632185332649843
0.003221021993763238
0.0037826836990347916
0.002813437041914479
-8.974599082139188e-05
-0.004604647322434358
-0.009418848692200778
-0.01229976998429907
-0.01066317801992384
-0.002657691568079583
0.011452047096777555
0.028077652994637176
0.03991028139688762
0.03689889128080145
0.00876495204979959
-0.051495695713118086
-0.14446941087660542
-0.06332297207304435
0.003695492747708633
0.06732036564636282
0.129851696478199
0.17952243006398502
-0.010221676662901998
-0.07514997159633294
-0.04966509196153515
-0.1547871335128953
-0.18908567105835467
0.07408385907314045
0.08212923925257012
0.09355104117419426
0.16710267785117827
0.15401725678884298
-0.10424643906619735
-0.17329494905824278
-0.22163298193073178
-0.21988541786898264
0.05308326206863723
0.19739192904155342
0.3773715015179734
0.11215902515875358
0.07823394396240582
-0.07368970030994919
-0.09056256807993956
-0.2853132816394893
-0.3110242091036002
-0.14916143157329995
0.08402356117158634
0.11466329784693993
0.27942236877815363
0.4952613093027638
0.24084549605704053
-0.24496541694193902
-0.349441034813464
-0.46614275792568954
-0.3811571224508715
-0.07475127821465424
0.46016186574392093
0.5907777186650647
0.42266820629731594
0.19745901275524302
-0.283579174481484
-0.4144559973892447
-0.3315322684846422
-0.06977306451398929
-0.14211860871966078
0.05117191456667372
-0.21619206741822578
-0.45831482820549074
-0.2514636148716812
0.6939471916920286
1.6839620632456376
2.4373260307074927
-1.8563749912416259
-1.0211154264594158
-0.9532920238814236
-1.304406518210793
-2.0322894358729235
2.3588658355345706
1.3022453827863298
0.6161506992816985
0.5656312514655655
-0.2245827818379054
-0.5936508625787675
-0.8154014149346225
-0.3383726457569407
0.2843872386780225
2.2655308641565584
-1.3459527297910863
0.009046506022184429
0.2716310612862135
-0.7806670153273572
-2.516931644332325
1.3108888183795473
0.07565298360266737
-0.2574295451068266
0.5299095318691307
2.4042579161217232
4.448450978352524
-3.4760050954412303
-2.18273117837408
-1.5816355673902447
-1.7420214944784902
-3.0590064430277066
4.8601138076754715
2.8268098917931415
1.2948759800605196
-0.14618676472540004
-0.9677296759435856
-1.6013902543161516
-1.0927943626081227
-0.5694814834191511
-0.1659646415049869
0.38039187398961555
1.476964604028133
1.398514521868843
-0.38174456417761116
-0.8328232264391322
-1.1801870230360016
-0.9120328385003997
-0.3971530203291589
1.6811570177962327
3.0921739585684214
-0.5440160802007972
-0.7039828415922278
-1.0571798844391787
-1.1427189339039892
-1.6706766253801093
1.9183607059615035
0.8262606482947377
-0.3823645178855073
-0.486578388937164
-0.5201071968682864
0.32662898690647374
0.42448565603170973
1.258830971854708
1.4363176666256021
-0.04254912529043431
-1.249965816769737
-0.7643887284246966
-0.9164457393507667
-1.894512620993021
-0.14199415999477047
0.7485695866532315
1.269721461965401
1.0105318185311536
1.301898314381062
0.5406946152295057
0.011906515534889637
-1.002778272757099
-1.2676027638609972
-1.2380814770835793
-0.757380860781542
-0.23282764731133954
0.707015518648578
1.5024503725425418
1.545740747057218
0.9042204739504219
-0.08679814005422742
-1.5614098768111446
-1.221202795399165
-1.0415893667397438
-0.6301966891615665
-0.05906444814067452
1.2376362091433826
1.1348260105915333
1.3044985630896655
0.9642294820996347
-0.09036729394294174
-1.1755265934752603
-1.1663393662458208
-1.3522420265956678
-1.350344282108124
0.2942301753849274
1.422964310973272
1.3262267317980911
1.0038525586035847
0.8718956770251047
-0.45834031937083053
-1.5332002846819535
-1.3715190727626447
-0.582092914241362
0.6843965306951323
2.1401280714817
-1.2644262058130713
0.028966587220411677
0.7669854124613036
0.8818720196150731
-3.49864284036
1.7631216327483263
0.825012481217692
-0.33245215146872764
-1.507624308789572
1.922201854660151
0.20508218626852248
-0.3759954222312027
-0.4897285448270314
-0.5464806277643733
-0.5035463703450644
0.10486737326602821
0.11338730818235546
0.4593807393963787
1.1259702852071292
0.5165580886794208
0.0762662497316938
-0.2385555038542495
-0.6585666823527043
-1.2961628391878945
-0.46878488373463684
0.12520773468284208
0.37106327545341833
0.25449422082106965
0.3559476610758354
0.35087421167213984
0.34008349539272137
0.4255837895118802
0.13701717192542057
-0.09696556134843792
-0.24829119015671353
-0.5838815558139325
-0.9822596603546051
-0.696852747952434
-0.18041553475238115
0.23136361669027372
0.7977032830306804
1.4473063418221184
1.2894257241505687
0.1919972011644751
-0.7643353553260985
-0.9749074978324316
-1.5828143337444809
-0.980255345459713
0.026630794136093816
0.981453985407627
1.0902647823148715
1.3225474747578376
0.14101612552042797
-0.31518620808708436
-0.5938188091593857
-0.8609300567882224
-0.8318050426813535
0.07091802012101284
0.31854304883473017
0.44118118338070456
0.373841164743165
0.4060216521378349
0.15284950178987297
-0.043716809374309384
-0.28577174153688856
-0.07319776822464796
-0.2555429115346408
-0.39730851585515814
-0.36826887071407555
-0.16432400693430904
0.04356555901208076
0.6436002040067473
0.5190076685542605
0.6065465708414826
0.49416405803964586
-0.13678242719262898
-1.0339361520233996
-0.4832025394656895
-0.4329637573543519
-0.4569424808076804
0.033462778157696965
0.5323541170720338
0.556267282443737
0.5601098894864143
0.27612664058936
-0.10894778184831508
-0.13626819854641314
-0.4264328596894967
-0.41691206633915046
0.0972410343251845
0.806566497559221
-1.0919833010659368
-0.2980451320810346
0.16601916417831236
0.10919374084244138
-0.28513522858593304
1.487541137087849
0.6202105918106303
-0.20456201028907223
-0.5773440843448021
-0.7003036742722613
-0.5240746609729723
-0.30608565856527414
0.19639827798264525
0.49974155223674227
0.5475768273850978
0.26394299384811
0.12260195356153411
-0.2596424618064241
-0.30831829755404927
-0.26565708800033905
-0.1664329524056413
-0.02462095852358316
0.16593479338888328
0.21990754470822127
0.14496099366386225
0.12989658968462497
-0.05848383844931241
-0.0689350911388004
-0.15281531139694723
-0.14994008381470114
-0.07853019549471116
0.0674980227287958
0.11375058897924592
0.09576806748369247
0.048684963396241496
-0.0003422335078980279
-0.03526530012325023
-0.050218174536277034
-0.046281694802890946
-0.028007154275645672
-0.0011979418569429286
0.027591528019888602
0.05041446470921717
0.0573532028764658
0.03720043129682814
-0.02006960152487526
-0.11959581436599066
-0.0582504949963072
-0.023453206251015945
0.004673403514444126
0.048120800548588485
0.12454751934095458
0.042042206645662106
-0.002791836189794557
-0.022622914432243037
-0.033899872779571266
-0.050198654565224966
-0.07693651445436984
-0.1095432547316207
0.0639435046300414
0.056486270090534155
0.07411934463845454
0.10971502267640112
0.1414254626292887
-0.06272090502476181
-0.13490711456790916
-0.09547405879079685
-0.14319674003229363
-0.0518429819718399
0.02524271299266942
0.14375371259063008
0.1539920033165465
0.08823423621194172
-0.046134586298826025
-0.06616268820865723
-0.006735619390724647
-0.11081578557634848
-0.019788298490138523
0.03368222567552162
0.029254403975783938
-0.04078515628348062
0.026466463028628835
0.04133396432122883
0.018159476688470823
-0.02761370016205031
-0.08156364100258542
0.0682943348781464
0.030614944891772786
0.010416775559406732
0.009626758221350907
0.028523463802618956
-0.13242288003759545
-0.0712980866059356
0.014946915604934009
0.12840022959989864
0.06729444140203909
0.024112121350077953
-0.01386233756280985
-0.06147331297063166
-0.13152092322597905
-0.03158385727881489
0.036563686119109824
0.07478616168481068
0.08511200726353897
0.06719697046338613
0.018508932508858326
-0.06247520321127329
-0.17155825333479952
-0.09529290079170047
-0.011204899796047147
0.10726863628807949
0.08253357821913375
0.12451348349682945
0.025729016154020158
-0.038106760637922406
-0.10208012073676101
-0.0027100247973143184
0.03185901545159346
-0.010500205420576806
-0.12216085563944507
-0.07688225871487248
-0.03608740689574905
0.04059515357143836
0.18303517775573938
0.20048703681988714
0.07774728894599826
-0.020084953113263766
-0.13519862169107505
-0.30137769111836654
-0.13120749714302637
-0.011493179411267438
0.09117295250223788
0.2171223956385439
0.19826752951982476
0.046978039759071874
-0.046731188375626086
-0.10940570382310821
-0.17301360925721046
-0.0634738336642592
0.006727722358980641
0.03971423403779162
0.047795812590736654
0.04599733197653032
0.04468997239259235
0.044951911393972616
0.03812803091833593
0.009682753095304366
-0.05392328718864663
-0.15774196603479174
-0.09320383721173889
-0.03784858821440701
0.03924634121908287
0.16789492414803675
0.16666569394221725
0.03630648342372582
-0.040510698452307654
-0.093089113148566
-0.15292025101064632
-0.04420984435070868
0.021852487172393423
0.047617848255423895
0.04507490409901975
0.029738552159887383
0.014777581368558798
0.007147109600008495
0.006489107148312497
0.00667535446072277
-0.0007538502277858092
-0.022385849625591966
-0.059304171651136516
-0.10535827422626015
0.051725588250417
0.02634614988444384
0.029285144144295956
0.062283308031882825
0.11514656437177138
-0.033096866832433645
-0.008773268678886769
-0.03520707447021709
-0.1240221783635258
-0.069138633667042
-0.04591126023254442
-0.01634563500463144
0.06069491542492494
0.21726590726915765
0.06610259448833633
-0.004047616248799938
-0.025838402368875996
-0.04441560618389025
-0.1052185173080973
-0.04231830800535061
-0.07059532620427034
0.016377699447593905
0.042707467126172315
0.04243489105547975
0.050311538068358475
0.09383598709623203
-0.0114582717402301
-0.06277663486963139
-0.06764300267690276
-0.040017126519507146
0.0032541472639248795
0.044700477349386106
0.06743474408819747
0.056315652966405894
2.668302993718983e-05
-0.10581716921293749
-0.055563698794440376
-0.032133180187487724
-0.00876672598015693
0.04581623579112343
0.1599244071729893
-0.04908618412364828
-0.18163686023991985
-0.060862468516845056
0.0644589954876498
0.11966536925387725
0.2087145291626757
0.22618920569223017
0.07828842591715496
-0.08910451392396064
-0.26170094461499566
-0.5376553610661091
-0.7291585175156092
-0.19228963406814734
0.31615855148862476
0.9681748648970142
1.003858917343567
0.9063071007754054
0.028338378515353393
-0.9318634571294961
-1.8306467699498268
-0.9923196447351945
-0.17128619724258365
0.6218456101347852
1.2429258906233764
1.5205047938209706
0.585914470600402
-0.34585280062231544
-1.1429687041841943
-1.2951076953572236
-1.0599052054877096
-0.24826957178257059
0.7422101530508093
1.8634310344572753
2.159686270783637
-0.4440331973148053
-0.6892565461043804
-0.8796561579799829
-1.7653282242639918
-1.664518594562661
0.9418417766612506
0.9360563349434373
0.6346368748436162
0.8489421016407147
0.5809454350485528
0.3845654271455863
0.40120080338914443
-0.7433554543716945
-1.2108423545282259
-1.0314760864931927
-0.8326885798690111
-0.639863135172946
1.0511569178836129
1.9562731273352507
1.2845452696026365
0.2641218793114547
-0.46090303535720806
-0.9667171067836684
-1.3499123349408264
-0.8333037459646212
0.28859618651813135
0.851558535171423
0.9816550462692158
0.03836690475613391
-0.2345060187978713
-0.33716654748924063
-0.2219600347905573
-0.08919255966905876
0.42214207526724296
0.44622393441078806
0.10598128082033811
-0.46731350825752943
-0.9149264684435219
-0.2409398837826624
0.18043012286640397
0.5811489454152584
0.9706772361979171
0.5192673398507275
-0.43391375357548506
-0.5475539655639499
-0.6338154353237054
-0.6245690309378306
-0.16716974426784809
0.5429185980464942
0.09990849801216717
0.014427985510066575
0.45216432525641675
1.2053305980481817
1.3114748768072728
-1.2767962249666573
-0.7840868261280938
-1.096991562165657
-1.0804584704046363
-1.1569842081040025
1.6423290646028246
1.5735205460478745
1.2624623219334035
0.2187871257237941
-0.5914244698275042
-0.7154146029508548
-1.1521571969164266
-0.8953739127335173
-0.10977562700002386
0.8501091108273102
1.191453511539016
0.8333039115903043
0.38474841318981823
-0.43336771669054186
-0.9290791754345977
-1.1665617421209005
-0.7109128806864625
-0.01321454466544686
1.1605954891508286
2.0747266289653457
-1.4278220678795428
0.6529279373139292
2.090951717992975
-3.1199013865484244
-2.7154656250201366
1.8641113807917897
0.45430648183429223
-0.8960935750377663
2.7971881780073145
0.7957926353930784
-0.37338237239844796
-1.0784316604401327
-1.5091600964878658
-0.8045898180755457
0.3867393108224578
0.9010122110534412
1.0192760981734867
0.21947884927322092
-0.05500886532490595
-0.39964754208812464
-0.6313680844092876
-0.5651526783133921
0.19986213750406756
0.4772492837627266
0.27645562825976266
0.18297718036382274
-0.053408132270011885
-0.11669281933240652
-0.11005662946973949
0.06584877333529848
-0.06488814201433243
-0.1363316102269857
-0.13263992813709288
-0.1912885370412123
-0.017594398650395526
0.2925397220816284
0.428066202426752
0.24458955616578343
-0.24095824183994496
-0.04143318366305429
-0.38131898290554717
-0.2780719260169351
-0.13122804778768477
0.4768852429438854
0.17103262629117405
0.17023591085266437
-0.12068644127499098
-0.1116431738606724
-0.020970855120868243
-0.06633157558250002
-0.05709276591652245
0.008947100158070742
0.14344483770866787
-0.2395681019428865
-0.13446189501307848
0.04333959827307344
0.2456689999741502
0.18536248738331118
0.3408709733603298
0.1756963964600166
-0.027781980021886414
-0.3267488250218383
-0.6811698817185197
-0.7369884127037905
-0.24148062757781363
0.3066158849123076
0.9832027248102658
0.7639832116874687
0.6750481289238669
-0.012625827505738313
-0.7428590041489831
-1.2042096271086444
-0.4572030888838623
0.11565731300779292
0.42472309956651777
0.657693605304831
0.4504600692333217
0.06239721721774011
-0.43357010600959667
-0.34714647654491904
-0.3626766062642656
-0.13837133724592998
0.08073384617746239
0.6377038448962894
0.23510620176935187
0.1138135771454657
-0.15329774166325696
-0.25232729232734064
-0.5101051700053894
-0.07526536579223181
0.29546642667758827
0.44588789384850014
0.4295367986855438
0.1263780323302338
-0.33085225210778524
-0.5266248470571703
-0.5417617122909623
-0.35579619856697303
-0.08066376977157744
0.3771611183563481
0.44063884216629107
0.5945510797727994
0.7493869111749994
1.0529294639780542
-1.047668840615637
-0.9076789519905
-0.7800440123658834
-0.7392821212915741
-0.8608383558630897
1.1367309575743874
1.0018437349241311
0.6442309510675702
0.44979767872855947
0.24215110686959704
-0.5020778525499727
-0.5959691178872524
-0.46714219006119706
-0.49123857359493733
-0.35396223063111504
0.5509651088054855
0.6942496018561717
0.37006100684777343
0.059999496895677074
-0.18590043617650398
-0.3496703111713628
-0.4348739847375729
-0.055567655892204304
0.167851857238506
0.4051885170015005
0.21078503364524223
0.12316446449047247
-0.12536603977102556
-0.19025954310326343
-0.2938533028992894
-0.2107585483082347
-0.06656215504700064
0.047789548173318916
0.24934012519761917
0.23228896760783055
0.2428682369218955
0.06812910608414832
0.0422787577812026
-0.13157095821807704
-0.351463254975956
-0.288479592366188
-0.16996398086014552
0.0203515124063953
0.12604868974402972
0.392579451931504
0.4435107408987209
0.2689505035134443
-0.16818920762334139
-0.5103828214969985
-0.5781584886475142
-0.3506188714149756
0.23633131979821323
1.0732543846118268
-0.3494168143710877
0.23471793193923246
0.05580707188690859
-0.2913210326251881
-0.8378718456456797
0.7695874405398994
0.07638505144219863
0.023401626575238366
-0.04976605617004852
0.00047415362407065984
-0.07108901117781134
-0.0916568570952868
-0.06661812006719615
0.01958622623862902
-0.0021205426990514183
0.1059163134099342
0.17928386144133107
0.045563948489529854
-0.07689713078842622
-0.17587035668168194
-0.040305047224075394
-0.05691556570393914
-0.010595338521533713
0.11122966749743435
0.11227802132924636
-0.017874275559575256
0.09461448722704816
0.011166984746934857
-0.11163298782447836
-0.11240460322852495
-0.016261299310980512
-0.02964337347611413
0.060122308073037686
0.08111945003798259
0.0707767632396362
-0.13066294395376055
-0.08604606695682136
0.03356210728988574
0.044479300833281464
0.14742266064498255
0.12739502801842686
-0.042366336999644705
-0.19278850219708693
-0.15025398853494293
-0.13050907636074438
0.0619927015439458
0.22927899980891597
0.17263928230424236
0.08752365703598308
-0.03610372140371106
-0.20786182659960828
-0.22881743547110997
-0.08602693732010189
0.04652574113719518
0.2002502017377564
0.20085030141237664
0.05898595523436069
-0.033067924575006416
-0.09759924695658262
-0.16267284150911235
-0.05248489918134122
0.01930653319759735
0.05137701478595192
0.05212453489654768
0.03470303826035078
0.01204145048209961
-0.006530191503805611
-0.016506113845232144
-0.017638502199894636
-0.012395312692606951
-0.004274835844250832
0.0034660981619473387
0.008484626321864506
0.009540387354817312
0.006453461199218161
4.875501072651917e-05
-0.007852524922074566
-0.014517385070344889
-0.016696046187549874
-0.011526158314408393
0.002060272919775545
0.021758337324278853
0.04079010224318518
0.04807112579021046
0.03022277382556187
-0.02461347989400803
-0.12210319790445234
-0.057905161691636925
-0.016539629168118394
0.02609566427224386
0.09709348839825482
0.01964872624754825
0.007225632379016753
0.06054823316919504
-0.03193225804595401
-0.09057046089611479
0.060673480142348496
-0.0003666406677627576
-0.08976836263972093
-0.015174676542143906
0.02423822358202769
0.03568386025408053
0.029431595148597285
0.015453248194393482
0.0011212633511825513
-0.00956582281567487
-0.015417076913096094
-0.016771061255599268
-0.014254444533505769
-0.008157138810014593
0.0013481132676654065
0.013321643515294712
0.025027521255709596
0.03143868655906844
0.02585527042760044
0.0018248404644216675
-0.04405678601369647
-0.10950849576984281
0.014568636486025554
-0.05727301784771451
0.09112161506909985
0.07240480209845553
0.09137884729966318
-0.056727954219180615
0.015405116418398165
-0.10848988920605626
-0.043142114912169204
0.00218533671904069
0.025172645549289212
0.029418351436974452
0.021846702848210907
0.009831553316713674
-0.0009473438052250717
-0.007466277971394222
-0.009223925099123913
-0.0074206919835533465
-0.00393628264829033
-0.00048480499047937883
0.0018617879931039968
0.002772388357482236
0.002487326020271101
0.0015328827210794945
0.0004516231555516704
-0.0003731379321632127
-0.0007786014432035856
-0.0007923888625589132
-0.0005540615838618462
-0.0002305230928692235
4.605344075972972e-05
0.0002066798306591742
0.00024385846572622544
0.00019133734372261637
9.843925740007854e-05
8.96223018769069e-06
-5.044837838522485e-05
-7.230880057456623e-05
-6.359302432824578e-05
-3.824826913090049e-05
-1.0284848648893943e-05
1.061579252082226e-05
2.0530181406576377e-05
2.040157815837805e-05
1.3958481738941777e-05
5.529078838628044e-06
-1.5286370624134394e-06
-5.517659328109645e-06
-6.321122140183932e-06
-4.858417985430848e-06
-2.4179303906240165e-06
-1.1976722429694324e-07
1.371716195940912e-06
1.8876996965785395e-06
1.625549820042329e-06
9.527897545327837e-07
2.3000434771805584e-07
-2.990512101939122e-07
-5.40553435436349e-07
-5.248029926696477e-07
-3.5119019448203933e-07
-1.3182863359880306e-07
4.8077446007125656e-08
1.4691923344254043e-07
1.636471220677685e-07
1.2320218123377973e-07
5.9193531399501726e-08
2.3472922641428734e-10
-3.714398816754353e-08
-4.921251584843521e-08
-4.1503030569357654e-08
-2.3683241390881083e-08
-5.022932752920277e-09
8.350446636416035e-09
1.4208419500770287e-08
1.3484435153900963e-08
8.821544457922447e-09
3.1203609097130857e-09
-1.4600151600491393e-09
-3.902928712881448e-09
-4.231613574994251e-09
-3.120039652693617e-09
-1.443767142420503e-09
6.710536630497528e-11
1.0021769286526335e-09
1.2813049865908148e-09
1.0583120767773045e-09
5.871092590266334e-10
1.057823695029827e-10
-2.3181826918411304e-10
-3.731091842213472e-10
-3.459951844079679e-10
