0
1.3958202512393657e-09
1.3958202512393657e-09
1.3958202512393657e-09
1.3958202512393657e-09
1.3958202512393657e-09
1.3958202512393657e-09
1.3958202512393657e-09
1.3958202512393657e-09
1.3958202512393657e-09
1.3958202512393657e-09
1.3958202512393657e-09
1.3958202512393657e-09
1.3958202512393657e-09
1.3958202512393657e-09
1.3958202512393657e-09
1.3958202512393657e-09
1.3958202512393657e-09
1.3958202512393657e-09
1.3958202512393657e-09
1.3958202512393657e-09
1.3958202512393657e-09
1.3958202512393657e-09
1.3958202512393657e-09
1.3958202512393657e-09
1.3958202512393657e-09
1.3958202512393657e-09
1.3958202512393657e-09
1.3958202512393657e-09
1.3958202512393657e-09
1.3958202512393657e-09
1.3958202512393657e-09
1.3958202512393657e-09
1.3958202512393657e-09
1.3958202512393657e-09
1.3958202512393657e-09
1.3958202512393657e-09
1.3958202512393657e-09
1.3958202512393657e-09
1.3958202512393657e-09
1.3958202512393657e-09
1.3958202512393657e-09
1.3958202512393657e-09
1.3958202512393657e-09
1.3958202512393657e-09
1.3958202512393657e-09
1.3958202512393657e-09
1.3958202512393657e-09
1.3958202512393657e-09
1.3958202512393657e-09
1.3958202512393657e-09
1.3958202512393657e-09
1.3958202512393657e-09
1.3958202512393657e-09
1.3958202512393657e-09
1.3958202512393657e-09
1.3958202512393657e-09
1.3958202512393657e-09
1.3958202512393657e-09
1.3958202512393657e-09
1.3958202512393657e-09
1.3958202512393657e-09
1.3958202512393657e-09
1.3958202512393657e-09
1.3958202512393657e-09
1.3958202512393657e-09
1.3958202512393657e-09
1.3958202512393657e-09
1.3958202512393657e-09
1.3958202512393657e-09
1.3958202512393657e-09
1.3958202512393657e-09
1.3958202512393657e-09
1.3958202512393657e-09
1.3958202512393657e-09
1.3958202512393657e-09
1.3958202512393657e-09
1.3958202512393657e-09
1.3958202512393657e-09
1.3958202512393657e-09
1.3958202512393657e-09
1.3958202512393657e-09
1.3958202512393657e-09
1.3958202512393657e-09
1.3958202512393657e-09
1.3958202512393657e-09
1.3958202512393657e-09
1.3958202512393657e-09
1.3958202512393657e-09
1.3958202512393657e-09
1.3958202512393657e-09
1.3958202512393657e-09
1.3958202512393657e-09
1.3958202512393657e-09
1.3958202512393657e-09
1.3958202512393657e-09
1.3958202512393657e-09
1.3958202512393657e-09
1.3958202512393657e-09
1.3958202512393657e-09
1.3958202512393657e-09
1.3958202512393657e-09
1.3958202512393657e-09
1.3958202512393657e-09
1.3958202512393657e-09
1.3958202512393657e-09
1.3958202512393657e-09
1.3958202512393657e-09
1.3958202512393657e-09
1.3958202512393657e-09
1.3958202512393657e-09
1.3958202512393657e-09
1.3958202512393657e-09
1.3958202512393657e-09
1.3958202512393657e-09
1.3958202512393657e-09
1.3958202512393657e-09
1.3958202512393657e-09
1.3958202512393657e-09
1.3958202512393657e-09
1.3958202512393657e-09
1.3958202512393657e-09
1.3958202512393657e-09
1.3958202512393657e-09
1.3958202512393657e-09
1.3958202512393657e-09
1.3958202512393657e-09
1.3958202512393657e-09
1.3958202512393657e-09
1.3958202512393657e-09
1.3958202512393657e-09
1.3958202512393657e-09
1.3958202512393657e-09
1.3958202512393657e-09
1.3958202512393657e-09
1.3958202512393657e-09
1.3958202512393657e-09
1.3958202512393657e-09
1.3958202512393657e-09
1.3958202512393657e-09
1.3958202512393657e-09
1.3958202512393657e-09
1.3958202512393657e-09
1.3958202512393657e-09
1.3958202512393657e-09
1.3958202512393657e-09
1.3958202512393657e-09
1.3958202512393657e-09
1.3958202512393657e-09
1.3958202512393657e-09
1.3958202512393657e-09
1.3958202512393657e-09
1.3958202512393657e-09
1.3958202512393657e-09
1.3958202512393657e-09
1.3958202512393657e-09
1.3958202512393657e-09
1.3958202512393657e-09
1.3958202512393657e-09
1.3958202512393657e-09
1.3958202512393657e-09
1.3958202512393657e-09
1.3958202512393657e-09
1.3958202512393657e-09
1.3958202512393657e-09
1.3958202512393657e-09
1.3958202512393657e-09
1.3958202512393657e-09
1.3958202512393657e-09
1.3958202512393657e-09
1.3958202512393657e-09
1.3958202512393657e-09
1.3958202512393657e-09
1.3958202512393657e-09
1.3958202512393657e-09
1.3958202512393657e-09
1.3958202512393657e-09
1.3958202512393657e-09
1.3958202512393657e-09
1.3958202512393657e-09
1.3958202512393657e-09
1.3958202512393657e-09
1.3958202512393657e-09
1.3958202512393657e-09
1.3958202512393657e-09
1.3958202512393657e-09
1.3958202512393657e-09
1.3958202512393657e-09
1.3958202512393657e-09
1.3958202512393657e-09
1.3958202512393657e-09
1.3958202512393657e-09
1.3958202512393657e-09
1.3958202512393657e-09
1.3958202512393657e-09
1.3958202512393657e-09
1.3958202512393657e-09
1.3958202512393657e-09
1.3958202512393657e-09
1.3958202512393657e-09
1.3958202512393657e-09
1.3958202512393657e-09
1.3958202512393657e-09
1.3958202512393657e-09
1.3958202512393657e-09
1.3958202512393657e-09
1.3958202512393657e-09
1.3958202512393657e-09
1.3958202512393657e-09
1.3958202512393657e-09
1.3958202512393657e-09
1.3958202512393657e-09
1.3958202512393657e-09
1.3958202512393657e-09
1.3958202512393657e-09
1.3958202512393657e-09
1.3958202512393657e-09
1.3958202512393657e-09
1.3958202512393657e-09
1.3958202512393657e-09
1.3958202512393657e-09
1.3958202512393657e-09
1.3958202512393657e-09
1.3958202512393657e-09
1.3958202512393657e-09
1.3958202512393657e-09
1.3958202512393657e-09
1.3958202512393657e-09
1.3958202512393657e-09
1.3958202512393657e-09
1.3958202512393657e-09
1.3958202512393657e-09
1.3958202512393657e-09
1.3958202512393657e-09
1.3958202512393657e-09
1.3958202512393657e-09
1.3958202512393657e-09
1.3958202512393657e-09
1.3958202512393657e-09
1.3958202512393657e-09
1.3958202512393657e-09
1.3958202512393657e-09
1.3958202512393657e-09
1.3958202512393657e-09
1.3958202512393657e-09
1.3958202512393657e-09
1.3958202512393657e-09
1.3958202512393657e-09
1.3958202512393657e-09
1.3958202512393657e-09
1.3958202512393657e-09
1.3958202512393657e-09
1.3958202512393657e-09
1.3958202512393657e-09
1.3958202512393657e-09
1.3958202512393657e-09
1.3958202512393657e-09
1.3958202512393659e-09
1.395820251239366e-09
1.395820251239366e-09
1.3958202512393659e-09
1.3958202512393655e-09
1.395820251239365e-09
1.3958202512393646e-09
1.3958202512393644e-09
1.3958202512393648e-09
1.3958202512393657e-09
1.3958202512393671e-09
1.3958202512393686e-09
1.3958202512393694e-09
1.395820251239369e-09
1.395820251239367e-09
1.3958202512393628e-09
1.3958202512393576e-09
1.3958202512393535e-09
1.395820251239353e-09
1.3958202512393586e-09
1.3958202512393708e-09
1.3958202512393874e-09
1.395820251239403e-09
1.3958202512394093e-09
1.3958202512393977e-09
1.3958202512393634e-09
1.3958202512393105e-09
1.395820251239254e-09
1.3958202512392197e-09
1.3958202512392375e-09
1.3958202512393289e-09
1.3958202512394912e-09
1.395820251239686e-09
1.3958202512398361e-09
1.3958202512398415e-09
1.3958202512396155e-09
1.395820251239135e-09
1.3958202512384897e-09
1.3958202512379013e-09
1.3958202512376931e-09
1.3958202512381884e-09
1.3958202512395514e-09
1.3958202512416137e-09
1.3958202512437654e-09
1.395820251244998e-09
1.39582025124417e-09
1.3958202512404937e-09
1.3958202512341278e-09
1.3958202512266482e-09
1.3958202512210947e-09
1.3958202512213222e-09
1.3958202512305736e-09
1.3958202512495278e-09
1.3958202512744756e-09
1.395820251296601e-09
1.395820251303362e-09
1.3958202512825087e-09
1.3958202512282901e-09
1.3958202511480594e-09
1.3958202510662576e-09
1.3958202510222866e-09
1.395820251059774e-09
1.3958202512075262e-09
1.3958202514567295e-09
1.3958202517434572e-09
1.395820251948185e-09
1.395820251922424e-09
1.3958202515450864e-09
1.3958202507980658e-09
1.395820249834932e-09
1.3958202490048963e-09
1.3958202487942698e-09
1.3958202496663775e-09
1.3958202518198812e-09
1.3958202549372563e-09
1.395820258041664e-09
1.3958202595956677e-09
1.3958202579335233e-09
1.3958202520076144e-09
1.3958202422635172e-09
1.3958202312871075e-09
1.395820223772491e-09
1.3958202254323412e-09
1.395820240773798e-09
1.395820270177537e-09
1.3958203073150369e-09
1.3958203383731662e-09
1.3958203445172506e-09
1.3958203082584878e-09
1.3958202228539387e-09
1.3958201018668049e-09
1.395819984268545e-09
1.3958199299807608e-09
1.3958200025048372e-09
1.3958202397051046e-09
1.395820620268056e-09
1.3958210398573865e-09
1.3958213143438452e-09
1.3958212242332321e-09
1.3958206023102803e-09
1.395819446389741e-09
1.395818016181851e-09
1.395816857314591e-09
1.3958166983936597e-09
1.395818198138069e-09
1.3958215801868525e-09
1.3958262703517127e-09
1.3958307165039083e-09
1.3958325858650156e-09
1.395829461529944e-09
1.3958199847326723e-09
1.3958051386479514e-09
1.395789123199641e-09
1.3957791523615575e-09
1.395783648425971e-09
1.3958087926879188e-09
1.3958541784446077e-09
1.3959091875479247e-09
1.3959522961845476e-09
1.3959553522225276e-09
1.3958936018202303e-09
1.3957598610496551e-09
1.3955782543912751e-09
1.3954104981152272e-09
1.3953473048035395e-09
1.395480508872658e-09
1.3958584600245635e-09
1.3964369557446662e-09
1.3970473049421428e-09
1.3974072050065838e-09
1.3971939221003976e-09
1.3961798728165515e-09
1.394400009743476e-09
1.3922869802130726e-09
1.3906887440614029e-09
1.3906917436120287e-09
1.3932239074628835e-09
1.3985053438574584e-09
1.4055290264050268e-09
1.4118448083062715e-09
1.4139292681287799e-09
1.4082991550935964e-09
1.3932513156774341e-09
1.3707352627427404e-09
1.3475125403815718e-09
1.334617562194508e-09
1.3443997543934854e-09
1.385200804583292e-09
1.454917508354723e-09
1.5359757281936877e-09
1.5950114438984843e-09
1.5901482205572543e-09
1.4866938196743758e-09
1.2784071052445938e-09
1.0070876925595592e-09
7.698606669437403e-10
7.034241656940608e-10
9.396514375148504e-10
1.5378007553364596e-09
2.4131638624404117e-09
3.2952491296496107e-09
3.753250397691312e-09
3.3153046860699474e-09
1.6772043322639369e-09
-1.0503715112865161e-09
-4.155588440628361e-09
-6.32733279940173e-09
-5.95351244858693e-09
-1.7408283033314953e-09
6.46282662476157e-09
1.6931022830750838e-08
2.5819249852830965e-08
2.7830162188132136e-08
1.798093849541106e-08
-5.7585324569832435e-09
-3.975133101878098e-08
-7.319652745179997e-08
-8.929386606458798e-08
-7.004104673868485e-08
-4.407887036143626e-09
1.0218096699677924e-07
2.2096851411149644e-07
3.0049455699060585e-07
2.7877859912990707e-07
1.0775867039523038e-07
-2.1494410242911732e-07
-6.183372576287667e-07
-9.504563978761707e-07
-1.0062574306177589e-06
-5.978569834993767e-07
3.42914585571291e-07
1.661432369392015e-06
2.9271620579512693e-06
3.4856888263471385e-06
2.6512778545025254e-06
2.663801538949976e-08
-4.133864052506629e-06
-8.671318131103731e-06
-1.1568377587478169e-05
-1.0445181812040113e-05
-3.521780862015634e-06
9.156466077640456e-06
2.4681779370192206e-05
3.7055530157385186e-05
3.835045248726982e-05
2.1497907460738275e-05
-1.5730186584779677e-05
-6.681370876776444e-05
-0.00011461985983514825
-0.00013368663828436326
-9.793655821207738e-05
6.82892225086919e-06
0.00016903679257637593
0.0003420865705966858
0.0004469836970250688
0.00039246528219534407
0.00011285308387369897
-0.00038473074292111917
-0.0009816171966325162
-0.001441318568082193
-0.0014576594508882393
-0.0007651445278115943
0.0007067466438121985
0.0026859527112692815
0.004493648145045643
0.005143688767069958
0.0036518094720428503
-0.0004760071038296587
-0.0067130272275786745
-0.01317754278534427
-0.016777426539668048
-0.014048966211684215
-0.0026978390547203815
0.016474801847324347
0.03792512336974155
0.05087118389930618
0.04071351702279534
-0.007401668205473513
-0.1035443162942097
-0.048062708486752086
-0.028714221376558782
-0.021349748130246815
0.0055728884986279426
0.08374649479973384
0.037130796978585213
0.07579524818274935
-0.006669537828959659
-0.03149925482170237
-0.029558973644498693
-0.03432049304272289
-0.07504962975728412
0.028166350079108213
0.06680388942628808
0.0439167411176308
-0.027448363960335474
-0.1268049805266647
-0.029678501810547556
0.08789948934516512
0.04428420815505449
0.04784986417916158
0.09507179553455247
-0.027891251951107875
-0.14044679331997176
-0.06138412395399097
-0.00364288594564513
0.02812858612607451
0.03682714790966297
0.029957545130026755
0.016108096794704263
0.0022041494648191544
-0.007786360621989857
-0.01273459281722714
-0.013337098954374738
-0.010886546422983557
-0.006398088950563737
-0.00038804581625645506
0.0067234448768166595
0.013890790743870236
0.018861867544098916
0.018181533781669805
0.008021431371388492
-0.014281388628918906
-0.048511495396992656
-0.09051318114547117
0.0674681213483989
0.03485446592070504
0.019858188308939095
0.02685333788683582
0.05507005717669607
-0.10099512796046868
-0.04988578172298694
-0.001172251111435679
0.036012982098956495
0.05370915955824983
0.04568769526611615
0.008563238775239186
-0.05639263564246509
-0.1415084645821848
-0.03242159120563165
0.08967137876240304
0.04334898785749148
0.04141720550596918
0.08663437586379702
-0.029671424901375525
-0.12575758449382315
-0.02535483073932711
0.047137919958213675
0.07094188154836116
0.0323500086852294
-0.07246851377818668
-0.03542829916960232
-0.03603095240497827
-0.04341947094667459
-0.02145962468433082
0.06371433210868596
0.0353321300665182
0.09914033576909116
0.04040630600930892
0.026256396070646358
0.013345393609606668
-0.04082924455954697
-0.16604723643191066
-0.1706601636578851
-0.039307853734484054
0.06159524013764203
0.17214709890961571
0.12519927439795206
0.13570969033940025
-0.0029013204620496683
-0.11442455675870365
-0.22982983893504047
0.024144406556344103
0.033486730914267626
7.918186390133369e-05
-0.06050226257008103
0.07500012115605642
0.029840454006452286
0.020103057973691447
0.05000963680243087
0.11104520738820174
-0.014749189436562293
-0.14825319387623742
-0.1057556978801469
-0.09338517153233937
0.09422677732917634
0.07066856154650607
0.05160938793776683
0.04865418903092594
0.06566890843545257
-0.10135026964594654
-0.06141088741251917
-0.024358724095499384
0.002661382111571714
0.016895008540562167
0.019691372487617473
0.0149353023286074
0.007143678088379707
-3.104699708945927e-05
-0.004541967095151346
-0.005954786763702932
-0.004971208307629494
-0.0027844731449745246
-0.0005237631042995714
0.001075018441494909
0.0017540667804905078
0.0016380621771147927
0.0010544469479603906
0.0003565866607885264
-0.00019610896020344409
-0.0004846696546509093
-0.000516138645485285
-0.000375123808848786
-0.00016894078171015596
1.418583594686536e-05
0.00012562119054407625
0.00015694737823718813
0.00012782023806836803
6.953123810917732e-05
1.0976610447951694e-05
-2.9475872296275913e-05
-4.585230105362243e-05
-4.1889386762401665e-05
-2.6307585300091906e-05
-8.26213234937872e-06
5.677545767101082e-06
1.2640374613642498e-05
1.3009639595724696e-05
9.126279405682571e-06
3.847533470493713e-06
-5.462735572856796e-07
-2.8892831644204866e-06
-3.144467678650507e-06
-2.065473412529918e-06
-7.116435098273398e-07
1.2743363197331211e-08
-3.14717151837374e-07
-1.4960328171906153e-06
-2.7796001250440736e-06
-3.1232215659868842e-06
-1.6132883253852786e-06
2.047649382373131e-06
7.132912318296431e-06
1.175891622836663e-05
1.321779473600503e-05
8.86814006298652e-06
-2.5268615958338824e-06
-1.9399458742122385e-05
-3.65535097376197e-05
-4.564499988198034e-05
-3.748120202727798e-05
-6.060853473946125e-06
4.662160613275527e-05
0.00010692703403835586
0.00014954251871133242
0.0001431852866504371
6.255562196804956e-05
-9.572387553317331e-05
-0.00029872246673890985
-0.0004723581925713236
-0.0005140208178743425
-0.0003265742679575224
0.00013061532155733092
0.0007889024042422117
0.0014408488990543887
0.0017620523362507263
0.00140339778234789
0.00014918724940696696
-0.0018985346097182482
-0.004185193794003034
-0.005714012957750668
-0.005281643460312493
-0.0019561553924991467
0.004292562628238871
0.012022812263436579
0.018110903951323313
0.01818627052121571
0.007832532864461247
-0.015641559558112594
-0.05144266986053046
-0.0943934600209642
0.06436167104414088
0.034917262497778476
0.025208976573638728
0.03805646898770857
0.06995950851715589
-0.08777642621191808
-0.04600976595088099
-0.014066261250231346
0.0031660136309045357
0.0063721600047143175
0.00100535876161156
-0.005001039521404932
-0.004279881434968564
0.006931235717038619
0.026520599515146764
0.045750138712567764
0.0506377947320603
0.02567996928932216
-0.04065446144549686
-0.15021116053561231
-0.09150475702491807
-0.04028775604179645
0.03486792309075035
0.16334407013009164
0.16289793092182173
0.033596342312340696
-0.04215538307507606
-0.09351724979304966
-0.1516764964074908
-0.040741911687054086
0.02766994959490717
0.05486712213444761
0.051432396950657544
0.03172458579782696
0.00883952209886351
-0.008501965716909275
-0.01677862390149646
-0.0167055161218059
-0.011381469987049996
-0.004414908866580011
0.001400648276191425
0.004661533275245352
0.0052808836738720225
0.004030866227174557
0.0019851871712607914
7.263138717286609e-05
-0.0011599216200530937
-0.0015781169483014073
-0.0013507041351326905
-0.0007856942459589066
-0.00018321661675844484
0.00025514768733244265
0.0004530113089835615
0.00043700452627268207
0.0002906257717543404
0.0001073203996291945
-4.22912723318801e-05
-0.00012401248169356565
-0.0001373038525641657
-0.0001030433602395364
-4.913469267614899e-05
7.322734318866634e-07
3.280914599177759e-05
4.375762338463194e-05
3.769465037976068e-05
2.2074856342260265e-05
4.213046166099802e-06
-1.0641976224460067e-05
-1.9667058749941025e-05
-2.1851703719515614e-05
-1.720883761482314e-05
-6.431444063795251e-06
8.803833683143753e-06
2.5172186921404298e-05
3.732592580516448e-05
3.854212312840313e-05
2.2831350679144654e-05
-1.1706620065721673e-05
-5.934454848145645e-05
-0.0001048076705940206
-0.00012498765694732693
-9.562416892317207e-05
-2.5532308413289054e-06
0.00014540243766725998
0.0003073486259488253
0.0004117693223309523
0.0003739373551902028
0.00012997759889554604
-0.00031954493627663283
-0.0008724773205419117
-0.0013164279059528104
-0.0013694204306888445
-0.0007784284646458748
0.000539197028695508
0.0023562524467732517
0.004068098933974519
0.0047721115512863845
0.0035404819547068455
-0.00013571247224298123
-0.005850609200177388
-0.011950557727905854
-0.01562417197254361
-0.0136204932754147
-0.003614597010507806
0.014058916888944097
0.03491216932045483
0.049867486871959535
0.04661417643416202
0.012997657312369567
-0.0582080525169435
-0.1648047857204924
-0.0932117025267034
-0.020877686797191763
0.07678306345878054
0.21713804814660428
0.20274984271631366
0.019405737335962514
-0.15852903869937096
-0.15726464580000946
-0.19198844849276045
-0.059817362891311135
0.05952406068784947
0.19575917987721317
0.17657083515954428
0.01757660246912264
-0.08246554210147933
-0.14034244839026797
0.01719771446814762
-0.03960682310005228
0.0626027704088206
0.10492488938716783
0.07961729906930695
-0.20742724572887647
-0.1358573915234711
-0.07329745241994365
0.017737983718184712
0.16921566375930822
0.19649905572961165
0.09135828384995022
0.02269558431049859
-0.05427241106634626
-0.18312990080979802
-0.1909508754837356
-0.07831076385271324
-0.018571454861819298
0.033000581126386486
0.12337388864830026
0.28479401150193273
0.12297471696841006
0.01503950603212953
-0.08173552929533046
-0.21354783647729955
-0.21232574958353762
-0.08345009333210465
-0.003585579600666193
0.070710228091951
0.18701807302832876
0.17974164890558755
0.05770350562664184
0.0008642059478377823
-0.033067509251710356
-0.09482158801459188
-0.2274796022106626
-0.053478990128325354
0.031305253123558335
0.055117737536551456
0.06118048788509228
0.09544113965777741
-0.004899824484763046
-0.019217669876109386
0.05363990085371355
-0.002748055090055136
-0.016757535456636143
-0.021002070168069167
-0.04444986844337317
-0.10635202720468873
-0.013552135618673203
0.038198097829133824
0.05962116971833178
0.06191657596569323
0.05180077485491125
0.029494573117307556
-0.00969665004767985
-0.07106830336386434
-0.15553228757417076
-0.056447764816754044
0.03996481884036138
0.15060184543882899
0.08975985761833444
0.06456411551317993
-0.1263679903503901
-0.09087903478538788
-0.039495699918766156
0.0179083220670134
0.07376944841695127
0.123030865589154
-0.03706070602755003
-0.20682347842291393
0.01601428582253986
0.035543183441828524
0.05556405906688746
0.0769833302120805
0.0963217135634151
-0.09347214088951777
-0.10005284384560592
-0.1281034407357862
0.022815307707952023
0.15787606696988873
0.0846872451272199
0.01095367420387048
-0.05631218252828403
-0.1099688868368456
-0.14178268205666755
0.05687751196797443
0.09203581701223626
0.16302777598691479
0.05986046563027571
-0.03580010331006744
-0.14570394389736288
-0.08808138769378247
-0.07178508223234623
0.1060093835427124
0.05794757333107499
0.00178551887624627
-0.04503853008338454
0.13023971444426766
-0.0666468472686693
-0.037202627784910604
0.011371551733556952
0.068738536588264
-0.07574202392978478
-0.03051405775637175
-0.00018203680376261878
0.014886395492905399
0.01770511846371248
0.013031281864825675
0.0056426298054478435
-0.0009003774354625035
-0.004764365918297354
-0.005696467837303959
-0.004480073582385027
-0.002290131721478997
-0.00017478725641475472
0.0012275885761948086
0.0017373786254063937
0.0015208835230913276
0.0009109219200303814
0.0002414757099609096
-0.0002571750995216829
-0.0004923664049176654
-0.0004875295201975198
-0.0003323312012057651
-0.0001304409684561958
3.791636066249678e-05
0.00013238255294057864
0.00015046679243133228
0.00011450526008364683
5.567361830845146e-05
1.0757359516379962e-06
-3.324543983237377e-05
-4.340590860093748e-05
-3.47032648680668e-05
-1.692172263218673e-05
1.1771656224699076e-07
9.633617231897909e-06
9.27665638112948e-06
1.0568477519673841e-06
-9.790476201316243e-06
-1.66380650397365e-05
-1.371965463449937e-05
1.51172827839335e-06
2.6428816591373146e-05
5.2443408786718084e-05
6.625698070935303e-05
5.372867630908916e-05
6.116488704651787e-06
-7.28267963335754e-05
-0.00016175655760813904
-0.00022222969145830682
-0.00020777670382129057
-8.20944121913969e-05
0.00015725995218509402
0.000458108553079266
0.0007077299243297873
0.0007532941319817763
0.00045389087608622324
-0.00024313704887092243
-0.0012250484901378637
-0.002173278139957883
-0.002600949814380272
-0.001995057961056388
-5.3962847890844696e-05
0.0030415855453063585
0.00643810605523186
0.008640511964902089
0.007878077088228613
0.002819315522611596
-0.006514304670827745
-0.017971998968498066
-0.02710059098732592
-0.028018568528478095
-0.015531808586184692
0.01179733376521801
0.04852662479849469
0.08056487740490931
0.08626710672003786
0.041327230367426256
-0.0729097135786087
-0.05981811157821807
-0.10009857375199005
-0.15063043559931702
-0.1526860934907161
-0.05045713935875127
-0.017722578184016007
0.11303341426954154
0.4277861845182057
0.5245213517586911
0.13166164341078432
-0.04557937570047142
0.1436792521030413
-0.22679711469296596
-1.0951967420222446
-0.9807336625836018
-0.40468563263748514
0.031233994367419263
0.7225422120577495
1.9276097058488626
1.2627167270143347
0.2620694485132247
-1.183592346842241
-1.7258435542044956
-1.2336469777561512
0.7134638283139
2.289582535126422
0.24412923193172245
-1.505378458658117
-1.5014813414596442
-1.2014011479263704
-0.2658389845835964
2.7277626435922024
3.9835988389833386
0.44757519424643355
-1.1366506223490684
-3.0851525266829114
-2.6013208031228743
-1.449399155597639
1.8721294406057205
2.0533140516449047
1.436118783609553
0.48372400135666094
0.30731280685039275
-1.5327470418167324
-0.9687264312201049
-0.14660896864164838
0.0382060024680866
-0.4297166282258864
0.7069118127800444
0.34600265163393185
0.18659351919705305
0.2982125680036531
0.10896850189059572
-0.1866402849508794
-0.8074380508268857
-0.365051080364007
-0.25500109030829976
0.5354132455028751
1.0076628550692492
0.3343430336801317
-0.3430653257481229
-0.09603625424491806
-0.17760125880133223
-1.5932599660495417
0.10976261444352488
0.6264549038766222
0.6556424867380092
0.25588318604786225
0.6161355579811615
0.05515184186869493
-0.34922382910737504
-0.9125650479036581
-0.8980987182140038
0.10751278991305237
0.38651388332199227
0.6551304952858069
0.6184065517501706
0.13505963808287338
-0.1942400212731253
-0.4140441939948226
-0.5866860412190165
-0.1649131512075607
0.22367346243538933
0.3768138548113449
0.30725976011156453
0.030719898252447517
-0.24113359558793016
-0.3014030240188232
-0.14614437157345816
0.025265805249990794
0.4057712670519341
0.17482336859246028
-0.10395704334420075
-0.077951601582875
0.406447224435032
-0.680584389546541
-0.1386184976726966
0.06938266721745887
0.21293761806587294
-0.4197257102185405
0.6594897916893566
0.1208567660025038
0.005770730311825276
-0.27499749054565803
-0.1352581487001051
-0.2044045342511515
0.0794853406337246
0.2722598149307438
0.12355656353896356
-0.022509135732623746
-0.023082193432578862
-0.12876608855521118
-0.1749547422042804
0.02414414180211992
0.07635422534116149
0.007062450053615138
0.05131349776562928
0.045210994900773585
0.019002215349314372
-0.0067959208011958445
-0.022006059714292935
-0.024848495499723476
-0.01868568332083339
-0.00871380109090885
0.000505710113593936
0.006309008894189892
0.008089369500688587
0.006736167962800273
0.0038056051376515066
0.0007854353783985932
-0.0013497513087689487
-0.00225994464157998
-0.002117761263311441
-0.0013690901772281754
-0.0004924564780682138
0.00016843033992228432
0.00047306673300500355
0.00046566158637978286
0.00030220512280164087
0.0001594244723718748
0.00015553307010574282
0.0003025655216877857
0.000500457735463775
0.0005747296275518681
0.00035113317945002727
-0.0002497955229075436
-0.0011273664435908467
-0.001963549566210518
-0.0022741936036327634
-0.0015745467648449693
0.0003478009734382997
0.003105366291370932
0.005424968922236239
0.0050182914140611485
-0.0013039490649156657
-0.01726016472944871
-0.04652992548880146
0.10795822878630339
0.04495474553216232
-0.033852023116620694
-0.12246572541125396
-0.009946940880766468
-0.08164062254383965
0.07721905955555367
0.07632107912271453
0.11550897707792276
-0.017248940660137095
0.05630349325649236
-0.08915978352425026
-0.07437601863718886
-0.10818696568406058
0.016125570813666536
-0.0807088299816885
0.029565426051352536
0.17341609963303656
0.16670738765781803
0.009784093054456072
-0.11155959859967651
-0.019757965853621745
-0.13665352732516906
-0.07591136106088373
-0.03956129905819349
0.18039689824449429
-0.0034395225868465024
0.019535680797316227
0.05297966663889009
0.0920579584875509
-0.07429443214993718
-0.05825243558339957
-0.06713989046754419
-0.09910455356514254
0.05762681190836206
0.02136919048067481
0.0105476904616634
0.03638897268851672
0.09716655922034703
-0.024030709145321003
0.04305562922920733
0.06270446795814104
0.003264646562994234
-0.15200331724623106
-0.19655452445407898
-0.09806602927995212
-0.003995713186937134
0.14536832590241766
0.2001442583724439
0.1861931844922763
0.09801691304935625
-0.09812834515832752
-0.2523707979654465
-0.21564667406223959
-0.026650525464275363
0.09427318654244395
0.14369031931442872
0.12903247344876453
0.06229448389799577
-0.04330538818568262
-0.17309864754769005
-0.10906264305693898
-0.029143179152042543
0.09023386561079623
0.06870501965957235
0.11584036170535258
0.02728219327352712
-0.01484119728153752
-0.03709441168092973
-0.06722376462632533
-0.1267266616568777
-0.026194222496240094
0.03501753706168829
0.06501520083928115
0.07341806548188576
0.06598580211134543
0.04219005282638686
-0.003268985967114474
-0.07576380150299274
-0.17514873135758285
-0.09224561617457355
-0.009720967947282742
0.0923279196923561
0.22832725050564073
0.20074747509686827
-0.0010080974597516665
-0.19503774402232768
-0.1970449682136054
-0.21118405881942479
-0.026737401859657173
0.17716187261710079
0.22075285152030968
0.11200445681537456
0.03976119111122273
-0.02503113519586085
-0.12043017290141703
-0.08047569622065018
-0.12296278771143603
-0.04237492401534491
-0.010367077055282673
0.016393330986426216
0.08359186589944131
0.22593371222451267
0.05747739659778964
-0.031209961207790106
-0.06840105965598045
-0.09118529234198093
-0.13401388907964332
-0.019823893980272192
0.04374026477354365
0.06273096111704211
0.051629153875440134
0.027022147284842132
0.0025253768402480267
-0.013843986948321643
-0.019815510242190623
-0.017310851188758615
-0.010234399970748164
-0.002499339695040924
0.0032054093762939355
0.005808548525996273
0.005602806228713554
0.003663163869847051
0.0012367615440284825
-0.0007003096051524033
-0.001649528424217556
-0.0015882184250502903
-0.0008376211796018078
0.00011745862248874843
0.000799986876605483
0.0008761151181566121
0.0002478905798834365
-0.000900215961540026
-0.0021133183792807933
-0.002757726160583978
-0.0022076424140021053
-0.00011368483896004051
0.003309406528803606
0.007091552260553111
0.009555925813052167
0.008720555631805025
0.003057215133850992
-0.00756878515042381
-0.021158990537164225
-0.033563461170960776
-0.03966819175531543
-0.035961121169369926
-0.024023215359791513
0.1863719123285962
0.17665211571836803
0.12349217882682702
0.0082665546006642
-0.17026504214846935
-0.3855927448233435
-0.3829230767972849
-0.2947724660751845
-0.07387200143692171
0.4635013329484511
0.7989802709087453
1.0982707866893153
0.8391746586810312
-0.11363876744665452
-2.00199358982309
-1.8704143155897288
-0.908334244802641
0.1303373372250215
1.228910473058635
2.5634360319673073
0.5647007195398549
-0.3649432752999816
-0.6572315289705697
-0.11559084295054821
-0.6161784688399342
-0.4091141311842018
-0.6496377571994043
-0.5765320981580477
-0.1407125020525781
1.5285330705679583
1.0458567427662242
0.5130605395224999
0.3087053855185777
-0.269323227086697
-2.324406700772568
-0.47673952388181406
0.9932882004406706
-0.44493279621313114
-0.20699835361443855
1.1444780754956876
0.8336186314376325
-0.5784702240631927
0.3856263621954401
-0.47139323720354964
-0.5932920067926378
-0.23804281047799106
0.1453568792198627
0.3251698411437123
0.28282983939926465
0.004106221447146355
-0.12720755539048492
-0.1300132735442394
-0.0223379158706027
-0.01666470619703978
0.08338527344654392
0.08437114256967217
0.002943833614619293
-0.13503612515703137
-0.09639949602634505
-0.04447961586279731
0.05470306228094119
0.2249428215727677
0.07365624411545897
-0.010106424242942492
-0.052049656563542636
-0.08450864301630703
-0.1368878573260727
-0.028197337490600036
0.03590213884889845
0.06117183977870683
0.05957593685470393
0.04337781914979429
0.020931317046047136
-0.004576344826947843
-0.03356235058890559
-0.06692395965460149
-0.10313749767425723
0.06287131350642311
0.03849508407494623
0.03052185254959705
0.04206714104478162
0.0709194625313364
-0.08990288038298941
-0.04967075036722789
-0.016716837786174887
0.0041127334903800425
0.012407655213805855
0.011476632175761614
0.006541542620173795
0.0026203496428920652
0.002753186555373122
0.006990179085316595
0.012341392508047673
0.013710803672794133
0.005652445298209212
-0.015447351239857746
-0.04942017729688178
-0.09141437187410083
0.0673085070693191
0.03685499556984466
0.02529868175880782
0.03579577230981392
0.0654653254622831
-0.09349145743211144
-0.05094948098977278
-0.015560793390502876
0.007627185653190257
0.017863938675267872
0.017815073053132225
0.011836001285514049
0.004232983860449683
-0.0019166570034108057
-0.005191779820230469
-0.005620309973229913
-0.004118281779370648
-0.0018694307693202011
0.00014531264724440614
0.0013798922500353075
0.0017334818633386012
0.0014179947031901158
0.0007767746274944278
0.00012900173343879026
-0.0003211190306520249
-0.0005058894451426515
-0.0004651308645862674
-0.0002942988456075292
-9.431015200642669e-05
6.188889246325061e-05
0.00014173619011245933
0.00014831245692586723
0.0001062511088727332
4.615944313779194e-05
-7.01991076274931e-06
-3.9526735129588504e-05
-4.874941171162561e-05
-3.977400372607781e-05
-2.0958613259756574e-05
-3.6902458102478545e-07
1.610058713214863e-05
2.504983971537458e-05
2.505244141235602e-05
1.6124543302092717e-05
-2.8521345644216903e-07
-2.0780550755296117e-05
-3.9504621597412614e-05
-4.84545992900523e-05
-3.9337764332699386e-05
-7.101096959340715e-06
4.567888963817705e-05
0.00010536598351545197
0.00014721848751292642
0.00014085028902390193
6.177067769876295e-05
-9.315321699903793e-05
-0.0002916934369285943
-0.00046151810448690877
-0.0005024643714249507
-0.0003196789476598451
0.00012659397111708587
0.0007694711424109643
0.001406552395204911
0.0017211370718943138
0.0013722049175185623
0.00014877481722093183
-0.0018500534968864328
-0.004083301028807671
-0.005577908051925891
-0.005158545698517777
-0.0019142903706312387
0.00418540033256333
0.011732925481760224
0.017675094449232383
0.01773462453295549
0.0075784597488314015
-0.0154581323745949
-0.050658140371524635
-0.09304547506032886
0.06593595266739803
0.036073447125544354
0.02513456849281676
0.036073448056032284
0.06593595533452984
-0.09304546966405171
-0.05065813206415867
-0.015458122721628782
0.007578467083810297
0.017734624471787364
0.017675082375612484
0.011732899981085166
0.00418536588404177
-0.0019143221245573143
-0.005158557544669239
-0.005577882508147146
-0.004083228864605964
-0.0018499431202260717
0.00014889123974475935
0.0013722735179308918
0.0017210962402728865
0.0014063586611769115
0.0007691311381456528
0.00012619025550766967
-0.00031998447991295025
-0.0005024641542920925
-0.00046103450465987035
