0
9.35148222497029e-07
3.134368838227523e-06
5.0640037301507e-06
5.616617265486365e-06
3.7206053929657697e-06
-1.1109003297948587e-06
-8.200696297874735e-06
-1.5365581780784788e-05
-1.9118153090194996e-05
-1.5628460569378764e-05
-2.4126539559656283e-06
1.9661613006304382e-05
4.485746236803178e-05
6.25697840007141e-05
5.972595863759005e-05
2.579606922660345e-05
-4.0541897392668995e-05
-0.00012540598849476278
-0.00019772672995365745
-0.00021458260813688197
-0.0001354733898594021
5.631502682453988e-05
0.00033166699817090226
0.0006033841622527741
0.0007354442448570723
0.0005816947190974264
5.199735111220268e-05
-0.0008108395946350845
-0.0017749914683847273
-0.0024241457983578563
-0.002255559299079539
-0.0008775830640710548
0.0017329955966816544
0.0050059695212452
0.0077148556614709115
0.008201400988279905
0.00494377131657038
-0.002612031784771317
-0.013214779505350207
-0.02337518485433089
-0.027789417655646728
-0.020915794061354263
0.0003853185427658708
0.03379817732707785
0.06928889043358807
0.08910695571742572
0.07121502876906649
-0.0037447340450508224
-0.14350019133197708
-0.1364620608319635
-0.1493819936304367
-0.13364564385391986
-0.040954668181232154
0.15449006010187533
0.23382363679023518
0.3201847878343459
0.48272277020234405
0.3627569389089728
-0.18015633300150113
-1.0137005246954829
-0.689461398766713
-0.6327515572246445
-0.5804059670468056
-0.26546345455478493
1.4721058278390884
1.9866766581964004
2.3856308056239004
1.180476468011989
-2.36572205831259
-4.834439592367101
-0.6655913593899571
3.1348222382912487
-5.247222796828694
1.7999338968374834
5.873034937381749
0.10981909642518356
-5.18890258276876
5.373097961656736
1.1376159876209526
-2.059207240724801
-1.8749175764776518
-0.836885931267415
-1.366056976476427
-0.09404505214854336
0.713241245129746
1.246915687131882
1.0057787618757414
0.4557321521044942
-0.06500352266913229
-0.38030059657280557
-0.4577461800423966
-0.3587737293634972
-0.18141858892929158
-0.014177818180172995
0.08994945692080905
0.1190070600501349
0.09268561872559866
0.045456698153085756
0.00887300010693032
-0.002527398029772156
0.0004704808107666241
-0.020171956378872057
0.07447291415845729
0.2101032522373497
0.1135951982443293
-0.07015455537342015
-0.3633684204013709
-0.5493190841197139
-0.5821797565803243
-0.01588451003991874
0.5537382738592371
1.2501055372425676
1.3038219438215624
0.4878666558043239
-0.5952649524742498
-1.3937771265608903
-1.2951090740709421
-1.5714895845653911
-0.8194102930718111
0.09847374461045116
1.8363454307242197
1.931804804256798
2.42942928722837
1.0244528760557945
-0.24525515727173036
-2.179587024818515
-2.5343842077220833
-2.165122306109063
-0.2732277693729291
1.0075882082180663
1.6991271620214607
1.3954705579360909
0.6776142951754388
-0.01901757906586904
-0.4595243491587736
-0.593326031824701
-0.49328337468634825
-0.282047510045975
-0.07124049542931626
0.0729818870998872
0.13650416963466902
0.14297647127216492
0.12950880919444005
0.12296728702158746
0.12481685365435716
0.10864822463410778
0.030465932198116823
-0.15205539652348468
-0.2583683401849473
-0.2707052801688846
-0.33471412437648995
-0.17951802886668422
0.04465532909170471
0.3206345124543428
0.7261391442529119
1.022005063101155
0.6819853354695355
-0.4320258464502302
-0.9629123798130951
-1.3501573691607167
-0.5594488895332371
-0.4822462301710644
-1.4175880408726595
-0.22228094697367767
3.5104144296328643
6.903563799315189
-1.0575345873299888
-6.4570427889548805
-0.689943926882652
-1.0967116720395929
-4.476606925349009
2.883816708075062
8.696971215057653
0.9545675876203784
-2.5141078233388114
-3.371642871710965
-2.2285536249556257
-0.30759882099170704
1.0160364273212517
1.1809824744394934
0.9415122995571484
0.4542311262965318
-0.0083159284913617
-0.2967813072212764
-0.37870397749428697
-0.30263114735717017
-0.1525147544379371
-0.008408759917296558
0.0779594126681322
0.09142157030452823
0.048818989112521693
-0.01322361756534096
-0.05362133252504289
-0.04202440732232464
0.028351669420975303
0.13235438174662792
0.21139750674252764
0.18109077451146602
0.14863202303242995
-0.162777023676332
-0.589581160119249
-0.7139999028621272
-0.27054141701014317
0.22354105912599145
0.8214133481281234
1.1018655972529119
0.7488925798475522
-0.6292021523711043
-1.242493940793138
-0.6426545039659547
0.34663418336997515
0.47146377931512073
0.25521969666182537
0.37656352189812087
-0.7755311287411304
-1.5681807286093143
-0.8150974899998953
0.9107279586296698
1.359488631650567
2.7177131322436257
0.9940526833330005
-0.6962339814412951
-1.5571807252453391
-1.6954701884734673
-2.329165633260934
-0.28243637405696637
1.2051893639102664
1.5689753786330782
1.1565665706375081
0.47219150082267675
-0.1272725834578035
-0.46714659433752087
-0.530388568104117
-0.3989898739183206
-0.18908914457755083
-0.0003381036919490308
0.11105801220831625
0.13624393993323347
0.10139313783896559
0.04793123966525911
0.01288068677133722
0.014297695863651825
0.044182832909594905
0.06934823141497352
0.03945021486929698
-0.09967765822872049
0.009633409954345406
-0.04901514098013819
-0.05771716650112254
-0.16529303142906834
-0.3002607159967211
-0.3963012516607411
-0.02727789935997181
0.5565688858702958
1.2057866748203958
1.2798423003937907
0.49863513125746506
-0.9663595541046534
-2.588255873881989
-3.4136582661869115
-1.4684079283861549
2.7459279487350674
9.101995515152089
1.921969641855697
-6.048310142893447
-2.7556863381273677
-2.114576495431284
-6.341625924134676
3.5860669495866464
10.16724751556491
3.0021397384132196
-2.075590401925827
-3.0984983308553145
-4.33351089375495
-2.0283911575756757
0.5512527595918507
1.7390142761142153
1.7558477253483882
1.1348803926496847
0.35676743801691263
-0.2542151621719256
-0.5586875915666576
-0.5700406311820777
-0.39098959013506734
-0.14803321104058392
0.05646235076648837
0.16722452890771325
0.17691271200637607
0.11307883656613046
0.020136232998235026
-0.05728681898942552
-0.08672375289077136
-0.05577261958352953
0.02368110113776918
0.11465579474049203
0.15853335708485738
0.08416337132682922
0.023090592014469648
-0.07089968480038436
-0.2024863260425246
-0.3222579864907673
-0.12731149009688483
-0.07875762109113253
-0.03505137518326834
0.10554168963993091
0.5646469182557144
0.8590640810107769
-0.19683938528120384
-0.057044574424189254
-0.18416605128487845
-0.5800627087285609
-0.9273316652759018
0.24025124547500837
-0.2709043947272992
0.4421586299597677
0.7150624720440947
0.6528481300776595
0.08653408495124126
0.1594944289994636
-1.059673389678545
-1.1530314684960838
-0.3375981552628146
0.5289051250667082
1.1234173376606538
1.2324876062347323
0.3509053339134582
-0.6814682697733215
-1.010134469693815
-1.087949531792558
-0.41959692025234524
0.4497274923735391
0.6991175771613242
0.566892437270492
0.28151687053588254
0.011122984446612584
-0.15720696276724916
-0.2098563661408523
-0.18076633459269847
-0.1199410960779051
-0.06722741460031537
-0.03795285616791636
-0.022366459775317385
0.0029814581645648554
0.05639130400721781
0.13066250702775153
0.17766781043465205
0.303565583563105
0.17812419000789415
-0.342305828417002
-0.38362974988236104
-0.22414083552768396
-0.2758735009067399
-0.28285788041341914
1.0654853014355803
1.114870001817855
-0.3675393082068968
-0.9943698405332522
-0.3517021709189552
-0.7993693945592322
-0.49106595151498506
1.384406826897608
2.3550458048964034
-0.16564674851090372
-1.0749382284401074
-1.543823109987281
-0.969380253563246
0.05538590307483099
1.5409946831541903
1.280830170259796
0.8366330850593781
-0.44682767349506086
-1.794774095528708
-1.1432345880434929
-0.09874225894302352
0.6605477925744159
0.7416747161711722
0.5715458865214706
0.3370025612835013
-0.04890658424063174
-0.34802623021317475
-0.3731207056073705
-0.3545418471901606
-0.31387048289620145
-0.055181733931962795
0.2244305987091648
0.512419936283736
0.5596624643379492
0.4742135014358127
-0.0625362732230358
-0.7606410927866545
-1.0819624717697378
-0.6165421597426585
-0.09097419940232143
0.38972874261617035
1.68366525469361
1.5668081988392635
0.5302545648474225
-0.967795123268654
-2.2108810453500722
-1.7339407915595328
-0.479304872288754
0.9747646927125142
1.521707318117106
3.4102935923655053
-0.6464895029282215
-2.10637638074259
-2.3810967606882203
-0.4011983874635107
1.003273758487004
2.2979298469985405
1.4375753849106452
0.29185671268149693
-1.079890093636119
-2.920006747771513
-1.0720373276923212
0.46684724912261893
1.1191726556288393
1.0396474807590421
0.6049016070998173
0.12113949717046696
-0.22527237080928808
-0.3706459987281285
-0.3429666339950174
-0.21659192861267546
-0.07037031835562868
0.03994927892441946
0.0919935377671312
0.09271865198389621
0.06604388769504066
0.03841606825372881
0.027064791255671974
0.033595711312600945
0.043598788504376644
0.031383656246348014
-0.032294160732300195
-0.17270255303458695
-0.207645957521798
-0.1515447886854339
-0.2286268667991179
-0.09299638327103166
0.5516101972310965
0.9442115529166
1.0845378974092141
0.5848640336359421
-0.8499678173636704
-2.9398698476866456
-2.7853513502692664
-1.9003670897065732
3.069534039855287
9.185508253078282
2.291954880301305
-6.594778469660039
-2.5773493386403077
-2.3214989640137
-5.761129934430637
2.6657796484509344
9.863709324207166
3.500065151896625
-2.0835195106318225
-3.602076757409274
-3.2281872737971073
-1.5625371681616513
0.12151946875780278
1.3061782971218097
1.5415994886478535
1.0970887601600408
0.41490379289183094
-0.18749710386125146
-0.5507283309753817
-0.4526013943813633
-0.3576304546156632
-0.16243425307978082
0.04536704083208004
0.20801392007389002
0.10054421050433174
0.12301088817636666
0.08975506345099754
0.021141211473387003
-0.060293042139755115
-0.13045962655618965
-0.1642878672315054
-0.1397181293990724
-0.047047948628792
0.09748203837472796
0.23849786777933085
0.47589422270389614
0.47407521961578464
0.0896289893320745
-0.38639876170997683
-0.7846675898284904
-1.2318772365761415
-0.9622309921949119
0.4262478637216806
1.4827999596547317
2.0155214633933136
1.0463541349789531
-0.1578816298905869
-0.7743644141030775
-0.8630818121403043
-2.009277186463775
-1.0271673387293787
-0.16652560474491362
-0.4338040119913357
-0.2050901055431668
2.7210400163580504
2.4999637786729654
1.5158375423839046
0.40136334529032464
-0.9943168701846922
-3.1364797401620237
-2.3170200186801653
-0.835755898816836
0.4898025511466923
1.2762227595303528
1.4249615052984164
0.9355791079519326
0.34276349901987296
-0.18381893978477576
-0.46714336791759675
-0.49230503078766513
-0.3445830188288513
-0.14310847827515188
0.010649595012190762
0.06095778239293595
0.0029113846767512288
0.07055102184200315
0.11613649156743436
0.18860441000271885
0.11783794304170246
0.10894377869345637
-0.05266486927725352
-0.1884072129131446
-0.31208363228452757
-0.22121001090139314
-0.0997966954194942
0.0662855359047983
0.2660819181879325
0.44213507032496263
0.4823338319592432
0.233815650977414
-0.05943899776482517
-0.303553195888907
-1.1037042235649166
-0.9370578507495472
-0.3679980438168675
0.28900890419190217
0.6726284476413878
1.4752780206464495
1.3803604644615057
0.668492989671015
-0.49606406963778016
-1.11690149787929
-1.3994896268645254
-2.6245509207375424
-0.10901498270093463
4.3249243742044365
-4.612128652945555
0.310743877003365
4.434418382145978
2.4542794876729963
-3.6339423669439794
4.137823238609709
-0.9043916607790371
-3.6268615899477483
-3.246108367482201
-0.3678025128302926
1.445523231095794
1.77904409216699
1.3921256506022825
0.6374204625784105
-0.06956574613107308
-0.5049228718151165
-0.6216388747488407
-0.4924815570618419
-0.24161028770794984
0.011260895780213056
0.18291356348878282
0.23543708728876964
0.16958133238965256
0.012143378650473548
0.004379635561185286
-0.005848488668935745
-0.16928994930893132
-0.24107438194866299
-0.1903076652027991
-0.014775474840438048
0.241750497189049
0.4764733113873519
0.5283169774909241
0.4005225212370773
0.10651796495262787
-0.6701593371286458
-1.722097697352918
-1.096229361294904
-0.32413000969526345
0.6946404608838693
1.9818155089043525
3.3891134845047866
1.1749863221211523
-1.7266375334000326
-3.1668680687560236
-4.636538932532426
-2.7933312267838497
3.693867188270949
10.207449991704422
2.0374636247985425
-5.874469709476667
-3.2750593382861863
-2.8843341660017536
-4.329522423698734
2.20329127202272
9.814217034053238
3.9230237366821545
-2.195679290559711
-5.11636288960462
-2.6429982768553115
-1.17292087944827
0.250851836975937
1.3519794525749118
1.5178149430912278
1.041049871369346
0.37072348178309206
-0.18335435978768838
-0.4789886066575418
-0.5148339984019925
-0.3741410307189396
-0.1654411600561661
0.021373196121451665
0.13620733903974686
0.16935243497762326
0.13921678222091935
0.07606702012818511
0.008585209113209912
-0.04347211083798053
-0.07059699767317612
-0.07110596610030541
-0.047887965670433
-0.006562644595671344
0.044168751746553214
0.09074095558670268
0.11325837590853181
0.08605952954031038
-0.01917394861265782
-0.22930663313831928
-0.3681955286311024
-0.2618172670505836
0.04800818805702034
0.28447502007424263
0.5204789317335603
0.5801143847398569
0.8684027786190897
0.43261469773407896
-0.7552089157580623
-2.721059092870714
-2.0547164275091063
-1.5515160695323498
2.264060415024936
7.770097487620865
1.505288432736968
-6.481186279974911
-0.574166247611431
-0.680438474155406
-4.134066325548706
1.933930606585114
7.96763850076391
0.5501850095421504
-2.9827296787237847
-3.6602225941080624
-1.1623364109953847
0.4591689695174808
1.181267186518032
1.1349636602446755
0.6949374284308866
0.17986470152416173
-0.20611879325616203
-0.38364136808737975
-0.37129563012502803
-0.24151610846044586
-0.07777568862833145
0.05506386433300772
0.12364197458350673
0.1250357394513615
0.07765641294709069
0.009964970363145894
-0.049179437998501566
-0.07727238411366924
-0.06258657023138905
-0.007349401814594924
0.06994107999974054
0.1339402110701999
0.1353901883594938
0.0190589088802791
-0.06349016619515153
-0.13895313963603698
-0.19990791986028394
-0.20023922293058652
-0.06192652910834934
0.10681274660314034
0.1864017493112888
0.4216788196666572
0.4073544609362099
0.08917188222218742
-0.41951920998689196
-0.8139404713325725
-0.7804571163097435
-0.3978869969902146
0.4399971390889392
1.393747652422581
2.0656443922664907
1.4335461147292554
-0.4562135289311085
-2.755770160069833
-3.0953563644884516
-2.344401096592878
-0.9051395212655471
2.4604343713525765
4.731857176042861
3.3657103538681876
1.1720185794427298
-1.2109730767743383
-3.264430351991229
-3.449577292858491
-1.7009465468891751
-0.04975245111822063
1.5836610611731905
1.8548824712704728
1.3886119198022955
0.5793030154473947
-0.1433539113548425
-0.5630452807766375
-0.6515998338352595
-0.5010131387272091
-0.2467794942481823
-0.007789953069784027
0.1456116108099892
0.19631573786901826
0.1665862779113841
0.09673058323102698
0.02556142323365132
-0.021992443880138483
-0.03878761791693901
-0.032425247315098854
-0.018179412627730845
-0.010916992824832548
-0.018444817134841262
-0.03794155445358231
-0.05640972922602061
-0.055384566232078936
-0.019282164757483084
0.054346281784997875
0.14559949705023503
0.20779592306476394
0.17125075481664784
0.1566723228466356
-0.10410908255603638
-0.44692694672451466
-0.8640948664076766
-0.7139712356698521
-0.15615128167784859
0.9952303034638904
1.6227303670173958
1.6936658847105455
1.312697428394219
-0.5559807427112546
-2.92685840371815
-4.054769124419118
-1.994511700415927
-0.10841724751721284
3.4858418490136174
3.801259674130082
3.915866099097771
0.06053121188802707
-1.4928876742769321
-3.7760892395990964
-2.3980366399813153
-1.4626617597601412
0.9852746486374339
1.1613000614992113
1.221667335253078
0.8872484626548455
0.47563929655935794
-0.014838683220747826
-0.353699008446501
-0.46777103918629853
-0.39394549672646334
-0.22064701295849293
-0.038156649935788156
0.09162404430197749
0.14480017104744944
0.1297608569983143
0.07383256163247334
0.009186616802212362
-0.037780239702129764
-0.05226416001109815
-0.03275431757170017
0.009977905339704102
0.05551501456383041
0.07769330498637532
0.0498206871694596
-0.04907400155180315
-0.22826488206522033
-0.08192711477544454
0.009432777258931832
0.07206438490479625
0.12844720016735117
0.186963959744019
0.035772904169946024
-0.15685598470508727
-0.23625683318589835
-0.05188310842168525
0.1524447771007019
0.34758403137717936
0.3286946023508388
0.12670286136454503
-0.7807198471915074
-1.0664546855474095
-0.5700604949463054
0.26165386575617494
1.3173684372074634
1.7704813959972068
1.264613469065914
-0.645166901193349
-2.4018637832915903
-1.9419817548131477
-0.6252585584601833
0.96617846560818
1.5576960484196742
1.273188566500142
0.13373509951211054
-0.19984937408858336
-1.0291572285766943
-0.37718564201795873
0.47261750417133
0.23674823143313678
-0.31982941421566463
-0.35124712334409014
-0.31647160543007496
0.2154404358422495
0.3425120553656183
0.1965013309750635
0.10921788962469492
-0.012658401043839222
-0.10012506923751242
-0.12272316408147993
-0.08178844115692324
-0.0006497726566269111
0.08513233995563077
0.1365387115065803
0.11939754038495001
0.012660441297716681
-0.18458639177352276
-0.4509266548913247
-0.3500126181710406
-0.050630065151035394
0.4428036126240627
0.8586311206811019
0.2392838615500013
-0.2520534543382792
-0.29537111486762396
-0.15472654855854517
-0.20901096876359546
0.7143176041207294
0.992994482967762
-0.15640436383589512
-2.6763270031181587
-2.11635711481354
-0.9503755153288197
1.2373900274805176
3.5341707292458224
3.9198605206317674
1.2065412626914804
-1.0581428530745651
-3.1418565507114793
-4.013645571604442
-1.674843827968007
0.7764429675623215
1.917423365802705
1.844990620953472
1.1683580260888269
0.2271081096264414
-0.417138107964113
-0.6055734780937592
-0.5434075433153337
-0.33018143617234347
-0.08960256854840859
0.08168831836668988
0.13953340335201747
0.09430593747234806
-0.003488129876606126
-0.08674121780806704
-0.09871380437160551
-0.019267007784966303
0.1135883850190092
0.19169162140934548
0.4400022635277736
0.6400368774426777
0.17442253999013982
-0.7141354009045153
-1.2658894285358218
-0.9722622902812047
-0.5897019347272455
0.39538911156111806
1.6681109871911644
1.9906853265001765
1.156318617462347
-0.17886977139938384
-0.9876860616296722
-2.325032975692337
-1.002889330086467
-2.3464480226399846
-0.26510925025272686
1.5694955477147634
3.489890373440441
1.4242049658256004
2.393122079132741
-0.4411564269888604
-2.382786920644249
-3.1297901339162015
-1.7136745040540398
-0.5358619152689729
1.2561249307929394
1.6648555180817335
1.2663571438609573
0.6294697070730814
-0.014432171909538103
-0.42716288829129084
-0.5507618408763632
-0.4507743785387887
-0.24581338845688533
-0.04762756097847598
0.07515468994666161
0.10739751094023393
0.07730693718056475
0.03443313375451651
0.024497348943107372
0.06803424810330434
0.14782667163528035
0.20825047325257792
0.16759432187183926
-0.058464631065905354
-0.32786892095527825
-0.44699816853109536
-0.3600759137032547
-0.16126978361312438
0.06937430113168955
0.41414739013443946
0.6658304513504565
0.49472207427129317
0.05003915359998906
0.20165169212965178
-0.18438750634402518
-0.9542285244241879
-0.5825892970131678
-0.12050356167665863
-0.38957059675008615
0.5757299031163093
1.0497241929578531
0.32150081866695207
-0.7952478864381665
-0.8375900288569369
-0.553170386064899
0.8534657739441427
1.0932562783864168
0.9991796744096851
1.1845267086063154
-0.6416623405866805
-2.1193011455133224
-1.6817103545215177
-0.24772483480555268
0.004149977478592249
0.9752168261911163
1.1262818963752328
0.7412308692875852
0.21640739806102155
-0.1986009497962038
-0.4049630969458174
-0.41759142956813783
-0.30999736876471745
-0.16289672926976811
-0.031023277948823175
0.06696880865581974
0.13896991922835536
0.19897645947197212
0.24624678601149275
0.2531746280014603
0.16712390399549334
-0.07416056077738876
-0.520227696175607
-0.7903840841027058
-0.8737175394222451
-0.1538629972490053
1.147030680565974
2.1264359637644277
1.7926901056946098
-0.28607745975577964
-1.276358171127764
-2.1529509723626115
-3.0130218567957976
-3.490340561655074
0.9039128803488055
4.545566757999937
9.460019529417844
1.8042425216565332
-5.24694751348134
-2.822450090229137
-2.6007385116010826
-9.344185474058737
-0.8524158185991816
8.629926108760358
5.631831779824723
2.0660571323073365
0.7989175996214134
-1.1327519583591983
-2.6821000787352194
-3.838481063875581
-3.0956248034306695
0.34749799431940903
2.0049142278921868
2.1657804270659766
1.4774484371690255
0.5381598873185834
-0.23758243815344499
-0.6601858229216446
-0.7289200853893854
-0.5546741179869678
-0.2790436025807686
-0.016213204317286622
0.17176662572130116
0.2698611435970148
0.287361587678597
0.23226463164166578
0.09447354093798307
-0.15644677539034718
-0.15992047109145555
-0.14543904286554551
-0.11401205337223556
-0.026623954534093507
0.1969634831754408
0.06920365955848201
-0.08216220791599499
-0.1364704438339845
-0.20645737314979068
-0.26752129942994907
0.012613923566628634
0.44999510843780227
0.7366727731864344
0.6612910926180486
0.3664746393910519
-0.5591159893107037
-0.7706999204099908
-0.6680787817131025
-1.5393149748991939
0.028861829469222708
0.8686003379177506
0.2934834023643969
0.7407700497517096
4.433266254744731
-6.109138221791673
-0.6997270473918983
3.130904824197204
1.380804296344434
-3.5509708380712826
4.8394929804936915
-0.706236580384067
-3.6665146689852803
-2.2223534817034474
0.39452221195294096
1.4638618073295857
1.4606532021885799
0.9053193125650981
0.23389174654056705
-0.2758140701580403
-0.5143646614679216
-0.5028929136662078
-0.33364599782740895
-0.11357963946141797
0.07357790629010577
0.1825548231167759
0.20358166035098482
0.15001379142955018
0.04503172673022282
-0.0873615103516111
-0.026078748298739622
-0.15383465455785977
-0.25904156655104216
-0.14188620988051054
0.17483563261469842
0.23340186505058752
0.5342148537957188
0.5420522158323885
0.10983929191309158
-1.0837870724431589
-1.0964974412045376
-0.7024606384061229
0.39586875554890094
0.9267191700618382
1.7995324508569632
0.6773410015469802
0.3941702624739986
-1.5815694313396536
-0.8637792255465049
-2.4895453370092606
-0.9270518016017537
-0.17103209940523936
2.6903654833894817
1.890242100633475
3.2515424350209066
0.1710862805883246
-1.4603017487144576
-3.0356174867976393
-2.3848052765929832
-1.3906110054636898
1.274039691492024
1.8807595213149737
1.495683496114642
0.6115924201332591
-0.17973356999463147
-0.4467724067722523
-0.5129341258766895
-0.41045047068996693
-0.22187286243820553
-0.031063231912048683
0.10548254992872694
0.16645901440953767
0.15890275889423852
0.10517372215662907
0.030991501730555038
-0.04154649131041587
-0.09567274895798451
-0.11875216309203686
-0.10152816866327308
-0.040375612950316865
0.05697777942424037
0.16436800080970662
0.23282567788042655
0.19334476526791242
0.16931447130129013
-0.10287737843166447
-0.45165041333331146
-0.8572170524759641
-0.45911894174474693
-0.1902903906184086
0.5678872305590527
1.3289641384364779
1.672085754370048
0.46679232616265814
-0.23779930010139924
-1.6762789404267693
-2.0255553948115805
-1.112880126562923
0.18403846574076219
0.4326564888391728
1.2607235384767457
0.7403381935795902
0.19707618008729705
0.6897599820362973
0.9865396552805641
0.04144118606241648
-0.0444287344115179
-1.0109207236931712
-1.8238801590812914
-1.50902565799875
-0.07566794909231453
0.654551732252925
1.3315528918859019
1.1171387900935974
0.5337016739802506
-0.03839217547414525
-0.3981230681076542
-0.5033421862665609
-0.4154788373015687
-0.2361166454118348
-0.05633924054129935
0.07062369351519207
0.1331420384521252
0.14810483820936618
0.1408044107884106
0.12705294863899708
0.10397349783795926
0.05200154805344187
-0.053438077730585634
-0.22567796002588963
-0.25343895710276143
-0.29813585315301205
-0.30726495276839455
-0.04413568299348309
0.27283953602384853
0.7351986485941631
0.9320979901250351
0.7772264999763124
0.3817522436055198
-0.23724540475742067
-1.64378602368401
-3.112244910398034
-2.44762852619865
-1.525072188109368
1.0685117912410065
9.96658680371589
6.249948761260342
0.48389621920873177
-6.396607367607189
-5.040155125656643
-8.657488739918353
-3.2246389119656977
2.1787975450340307
9.132992827650984
7.515765836010092
1.8454053263449903
-1.4930805482046605
-2.6908211863708527
-3.3163260789316644
-4.442661371788798
-2.2685012270349123
1.2583894086437837
2.5938900927565207
2.385974049741956
1.4030719659285247
0.3026967734199924
-0.49963379736079955
-0.8517143954011792
-0.8049579701169814
-0.5185628173755127
-0.16848670098001045
0.11352120941349364
0.26381521438058875
0.28067008560509127
0.20178508300095588
0.07911243723569933
-0.0399626838985164
-0.12212662007387913
-0.15034996331717043
-0.12330917192857511
-0.056231963814922556
0.014976860089470684
0.22767504894872387
0.2884837333819246
0.07614901822106535
0.054248653029501166
-0.3073065489125476
-0.30747501869242383
-0.1939366194542521
0.24559562812975952
-0.12190573375472677
-0.3913674790674914
-0.8407983872610274
1.653057271689418
5.618398712192034
-3.976179071039722
-2.8585163039528343
-0.3954975267917526
-1.9937165817089957
-4.196086210292828
6.732175574140603
4.587320659735969
1.8740126459600832
-0.200718194189126
-2.9621912030346595
-3.786169103939682
-1.6065802956605222
-0.5171002786995326
0.8767503470760056
1.7620148013046957
1.5354245466281797
0.8074046567948289
0.05441023171091747
-0.44999954561457706
-0.6281692937161866
-0.541016817534061
-0.3133421256297388
-0.06920109717164163
0.10755058911943294
0.18521356754107798
0.17538648099429868
0.11374149745386752
0.04011712905711162
-0.01578123563674315
-0.04077268441768249
-0.037514296175357
-0.019223394042676048
-0.002596344411959979
-0.0011911756056286736
-0.020784017148146778
-0.05757869557231075
-0.09966936792028269
0.06841697060038875
0.059164970619000695
0.07561085015819782
0.10765699109397725
0.13336181006222006
-0.0742022188302787
-0.13625249007439627
-0.25771802074948336
-0.02172487099807356
-0.19294069455180604
0.06959837543406025
0.19358540973562932
0.3752458192714762
0.1699452200692742
0.297929102960003
-0.13340250132716774
-0.39597630338607465
-0.5075326882448357
-0.41178631627937706
-0.1828770886791502
0.14351829090224721
0.5206521839898056
0.8397229722441114
0.6973165585921961
-0.004079286093384967
-0.6204428534647966
-0.908721377206806
-0.7713723434486418
-0.42682166503406177
0.3817631782844728
0.944775952489115
1.1326078408936302
0.5569931772304598
-0.6336331133211762
-0.7232683466947268
-0.5785764843536896
-0.6055966595513579
-0.33390186679611195
0.7647012834354229
0.6319490304041423
0.7736965332400064
0.027253193007628795
0.3587223310524687
-1.3110602377219025
-0.6668226290807296
-0.3659851423200075
0.5717923110215478
0.15034410072342114
1.1695251243689802
0.20237405153652754
-0.40935426553757726
-0.5391076010348311
-0.6488524557544993
-0.16728644563741607
0.31555173188932
0.6361272993299383
0.036461414502237
0.34688044707982546
-0.018678440560658816
-0.45376472124739614
-0.5432970108986779
0.1498413719257391
-0.11257159038925822
0.5457418932908287
-0.2029698628871153
0.09014028950723141
0.23689963478322662
0.007819910729717383
-0.46242812779950015
0.5382179677736033
-0.08328894577402678
-0.40725035296374007
-0.08688035617394599
0.058990307517323044
0.04425480112484817
0.10605487315303568
0.09134907521082633
0.044134751446352385
-0.0032428706351863555
-0.033341126701721804
-0.04206781632867935
-0.03421934808000345
-0.01829483646072691
-0.002286705358652995
0.008708344739518321
0.013043018569161388
0.011770961229996402
0.007322923291670888
0.0022381491136035064
-0.0016714050354344032
-0.003621870185004673
-0.003726124051955861
-0.0026302902960243647
-0.00111697356414331
0.00018862772338956547
0.0009557425611195314
0.0011429909262712853
0.0009049915068575672
0.00047216481447230163
5.104702032181682e-05
-0.00023133737672785488
-0.000337880310599635
-0.0002999364784352557
-0.0001824011761952893
-5.115543838504194e-05
4.783972483993562e-05
9.555945624776182e-05
9.595495380044273e-05
6.628319905539515e-05
2.6839099947905453e-05
-6.488690688661574e-06
-2.5554017142813132e-05
-2.9649883203917713e-05
-2.299679915048621e-05
-1.1617039107351744e-05
-7.950261352562018e-07
6.29950036426543e-06
8.823248278670386e-06
7.667918706525944e-06
4.544955195929384e-06
1.15081262579834e-06
-1.3565356953891477e-06
-2.520920081520874e-06
-2.472474497723751e-06
-1.671730900368123e-06
-6.44671326236337e-07
2.053239231143797e-07
6.782336292483339e-07
7.650814436728735e-07
5.805715715569934e-07
2.8189802205417154e-07
4.122672805864515e-09
-1.7381217561438851e-07
-2.330894675438288e-07
-1.988033574042367e-07
-1.1600733189466918e-07
-2.8335101725724453e-08
3.508406737649584e-08
6.338167852788741e-08
6.063260465419314e-08
3.909631973063564e-08
1.2388197409579833e-08
-9.264077150469347e-09
-2.0965592346942035e-08
-2.2722046862534843e-08
-1.7638168622448097e-08
-9.811428664506109e-09
-2.6897497153341787e-09
1.7650896653975101e-09
3.1433842939344914e-09
2.145242488133565e-09
-4.531690851192368e-11
-2.3072931952178588e-09
-3.909116144145846e-09
-4.5937454459942004e-09
-4.484545966817608e-09
-3.907111390109357e-09
-3.2134650489538057e-09
-2.6625835377192854e-09
-2.373813699331559e-09
-2.340937843831005e-09
-2.480227563713772e-09
-2.6850190546064853e-09
-2.8673968762242547e-09
-2.9787226695421236e-09
-3.0103768824328497e-09
-2.981749209301282e-09
-2.9239056829144744e-09
-2.865613231364566e-09
-2.825213792259119e-09
-2.8087335259751777e-09
-2.812526813230064e-09
-2.827965121106929e-09
-2.8459576293318796e-09
-2.8599557588101415e-09
-2.867061518109085e-09
-2.8675904514544947e-09
-2.863793037053103e-09
-2.8584423047214305e-09
-2.853777221924241e-09
-2.851000667318168e-09
-2.850284857905435e-09
-2.8510961694480955e-09
-2.8526207621451205e-09
-2.8541212688289548e-09
-2.8551386393178344e-09
-2.855533068872773e-09
-2.855410346394271e-09
-2.8549986697436652e-09
-2.85453253179972e-09
-2.854177287716127e-09
-2.85400298459517e-09
-2.8539975219746038e-09
-2.854100594672231e-09
-2.854240201194651e-09
-2.854359391230275e-09
-2.854428496485705e-09
-2.8544443623853903e-09
-2.8544215942887367e-09
-2.854381480634039e-09
-2.8543429002283254e-09
-2.8543173203206377e-09
-2.8543079428000417e-09
-2.8543117413101115e-09
-2.8543226923347035e-09
-2.854334754221827e-09
-2.854343757783911e-09
-2.8543480186740614e-09
-2.8543479500264598e-09
-2.8543451633131786e-09
-2.8543415257495857e-09
-2.8543384841283415e-09
-2.8543367680754847e-09
-2.8543364259115294e-09
-2.854337059782628e-09
-2.854338113562239e-09
-2.8543391043764526e-09
-2.854339746273546e-09
-2.8543399670952676e-09
-2.8543398525140867e-09
-2.854339561425769e-09
