0
-1.8153391447564937e-11
-2.7851513140481118e-12
2.2864646461811536e-11
5.212304258764392e-11
7.266550146189241e-11
6.930931985795074e-11
2.983697437826953e-11
-4.726177511306872e-11
-1.4583077218437376e-10
-2.2975539194793153e-10
-2.4917598143756623e-10
-1.5708157703642173e-10
6.586875689703083e-11
3.857538159026154e-10
7.01192254433248e-10
8.541492283606927e-10
6.749354380771984e-10
5.9068541843412e-11
-9.433878772682135e-10
-2.0627933247390575e-09
-2.8153649646311827e-09
-2.617299882969168e-09
-1.0144291915561731e-09
2.018715550116457e-09
5.817519989656424e-09
8.954275766114854e-09
9.498858141431446e-09
5.678309077746022e-09
-3.158191875748398e-09
-1.5567267809644472e-08
-2.7507130192982462e-08
-3.282124825908584e-08
-2.504493912144817e-08
-4.1242184346853843e-10
3.872080982831978e-08
8.148584072712124e-08
1.0891528271320276e-07
9.859014909880467e-08
3.368493052502335e-08
-8.549385569400121e-08
-2.3171476367573564e-07
-3.4861351530992405e-07
-3.6156075860516694e-07
-2.0383917553847915e-07
1.4588460179502845e-07
6.267042621936788e-07
1.0777551115164726e-06
1.2594722210175998e-06
9.259723928423425e-07
-5.7437378571429266e-08
-1.5833424721574357e-06
-3.21462977887604e-06
-4.208537893443785e-06
-3.7052959083226885e-06
-1.0839184552514818e-06
3.5931627051080076e-06
9.214189717511673e-06
1.3556912037424835e-05
1.3739188154962233e-05
7.256336989049773e-06
-6.565419257649674e-06
-2.517419184005254e-05
-4.2177766272364394e-05
-4.826475901733794e-05
-3.4099061920357466e-05
5.093504312365275e-06
6.452450509292257e-05
0.00012665228914862675
0.00016242448393728238
0.0001389143709576997
3.329899517621756e-05
-0.0001500287366028193
-0.00036582809375791203
-0.0005265968232320108
-0.000521164394565956
-0.00025574196536962504
0.0002897661756145008
0.0010090822383814959
0.001648574411641138
0.0018467147889096964
0.0012496107451945842
-0.00031016803628938414
-0.00262284830291785
-0.004985860458420585
-0.006263929339725459
-0.005197107558733218
-0.000948676586967719
0.006238189136052377
0.014535978583089445
0.020518266765094318
0.019927298079308535
0.009299851895351716
-0.011852862779216744
-0.03906952970760045
-0.06227507695058516
-0.0675543223605406
-0.041980561419668876
0.018958308843457054
0.10322066960696902
0.17651237067209868
0.18258443250496945
0.051992425402641367
-0.08093050414790098
-0.25674247643148146
-0.27203864050311244
-0.2705900880626666
0.05052150394196863
0.2199383888526119
0.36219717454951605
0.16871696610523748
0.07897420262749477
-0.12295709630507937
-0.09718769629920893
-0.12758380328821362
-0.09960422250820414
-0.08310736493263175
-0.12428629204447364
-0.04766480801667047
0.13415765473548985
0.40814220314608
0.35251731600603353
0.1382085313890088
-0.4588103587850094
-0.6396263251200507
-0.36933059509063926
0.02140886574141205
0.4173923061280046
0.6896633475120412
0.46985857372937484
-0.05873962922655602
-0.5484248423218744
-0.45853189065599864
-0.22462540492531913
0.16114770137962386
0.15169938741987324
0.23006972408595444
-0.11545363506557249
-0.21894866852271933
-0.2620716233990166
0.10673984631213781
0.5636841111458516
1.7186588579757667
-0.8513537772260861
-0.3451719540879637
-0.8702047781400363
-0.7896488046814211
-1.5087771538141768
1.4874795248722164
0.7537818650370444
1.387735971018272
0.15234967206710015
-0.3563747725133474
-0.691182579798307
-0.6990480597473938
-0.2540828783656346
2.0019639410530776
-1.6980958419728245
-0.22338128896775863
0.8603950383947976
-0.12211629443028016
-1.7861270716435227
1.8701929949651908
0.017284732252321182
-0.44878266256348254
0.46807990060455634
1.6641998805289697
-1.6362482582771654
-0.8329288935184089
0.3052486807593724
1.4839542054887407
-3.2954251325370825
1.4589888622350615
1.3009417597861739
-0.1971359617943127
-2.088948911711012
1.910477658132759
0.8056449255308767
-0.27834095403760595
-0.47204668268714006
-0.31993089393177787
-0.33414744280377967
-0.36053126095330673
0.23195194297100175
0.13633801129505246
0.0739308980300894
0.15315147202761234
0.23305974265471788
0.10117719094351676
0.07125210251867972
0.20203564375673633
0.13345387980513865
-0.467836213166326
-0.46516111420242756
-0.4241111090791166
-0.21130528804460547
-0.023282167675964034
0.5611075047592025
0.720726433315421
0.7447712476848467
0.014679802867722325
-0.5790326832173193
-0.7937517030311226
-0.5849178187987654
-0.06971079182573436
0.4845049460710445
0.6495408272762281
0.4167354879560877
-0.016550440100105764
-0.2458974628327107
-0.4464876812833199
-0.3579290723631319
-0.2795433075398048
0.11629571797590177
0.15366898200615375
0.5147233649593682
1.0073849623584712
-0.84792950549592
-0.20668550470360303
0.1327331148774708
0.7731789959693692
-1.8372144454754897
0.8293704510954344
0.19799878375106225
-0.21197824200324833
-1.2097444579776153
1.0281726400771198
0.3097145046542404
0.18015423127991875
0.08872783443432984
0.17877353191063416
-0.09606100243424245
-0.13417923615664434
-0.13633289406009413
-0.05518090476657165
-0.15488824060573309
0.010852873344694746
-0.20280168353061345
-0.5589781187459039
-0.39003848813195086
0.13437718756817307
1.1362247567654742
1.7761407096231718
-0.35858052318936673
-0.2124452839065047
-0.3737127755315013
-1.166507581697427
-1.5589039452654914
0.6823466161411812
0.3766536929441726
0.26188417245235174
0.29888002204393704
0.5784278289485432
0.6559984524515506
0.12923927418095793
-0.3394057585398162
-0.5656576090505683
-0.7727897387350715
-0.33117747246657303
0.27433186697904544
0.2439006468046575
0.2364105750904249
0.3322880425361178
0.20066935581667011
-0.1188941097592513
-0.017161664484253818
-0.10189745228300479
-0.17821561587288617
-0.23136257605043276
-0.21921786872635898
-0.07834456729683847
0.2574090594009509
0.4318809491384018
0.24469310968334493
0.04168888035924977
-0.07764356878895681
-0.2378822903213053
-0.35829944218432025
-0.12626198992260973
0.41878621898346047
-0.3123263523234761
-0.06819651293499794
0.22573391728474265
0.24724474042174713
-0.13981279704444005
0.30456368147045254
-0.004054584626852021
-0.26693782161947693
-0.2905882616574066
-0.07675966656426728
0.18129597332027259
0.09525116199485506
0.07360387171296752
0.11376947206540405
-0.001721149784776824
-0.10339578386108365
-0.028365977601720195
-0.011783592796265637
-0.07911962277790784
-0.041403591772980995
0.105673060580093
-0.02087478553683323
0.0037618841011730084
0.006566959076225628
0.011729928150347723
0.037288844176206114
0.09400848749295217
-0.013296930477566029
-0.08250326147365872
-0.1104267103636613
-0.09065771284036865
-0.01468176196892886
0.1235366510388663
0.1213570820362174
0.16287990096900973
0.01898385633796123
-0.14695665539467437
-0.16940754010030265
-0.07090527600258993
-0.056174822708543744
0.0877848992353145
0.18639874582643276
0.06990573914143683
-0.03325815334952154
-0.10021878971685416
-0.11489952297504336
-0.06851175397118461
0.23913115009579733
-0.20260323877901454
0.18317631211982133
0.1618572824576014
0.09249641080426235
-0.262669681059235
0.07363229085062542
-0.29604864142755577
-0.1397432098114274
-0.0009116327317457931
0.1880176050185265
0.2873415731108293
0.13324931826771022
-0.07176077641619984
-0.15866320820604785
-0.18346232965160805
-0.014657364012166335
0.2794838499626956
0.042092477315850356
0.037421703541039214
-0.14086080476470023
-0.2645707017349614
-0.27238560029922837
0.11960788398878203
0.19869773256663598
0.2324861470085777
0.24968196231207662
0.03190999506523829
-0.0801380838850435
-0.16815052560057758
-0.11150601998417217
-0.1644758288577501
-0.1422559982071146
-0.019644827717744097
0.057825958854355854
0.15434569905484086
0.32259247716168926
0.18812270244504126
-0.055378657202567676
-0.23907646326955986
-0.2041776441339897
-0.18635151951886664
-0.005942946262607266
0.13298501241834929
0.23630194415971434
0.11091177586375817
-0.04148680968937502
-0.02499290087332455
-0.044806070381248994
-0.10020582187107233
-0.17908693101204834
-0.057215717173977866
0.09656080334228635
0.1105535284116708
0.19968600053231506
0.158798710931683
-0.036894014801998394
-0.2240121713308915
-0.23918717453492927
-0.10846819705776889
0.15766020095149513
0.16257149598272158
0.11763801096769841
0.036375022044275736
-0.06838093727621922
-0.18395038832559918
-0.09602188104716136
0.011694484430510717
0.15499513382268315
0.14478378113251866
-0.016824567784279314
-0.1377442579907858
-0.034063574810857054
0.07370863436469739
-0.03529564530956134
0.021144641829553452
0.030988493825078633
-0.010187528301995435
-0.09822974702622148
-0.020742387047896375
0.04097358109909398
0.10859518920885508
0.0029773488503311305
-0.059003269494841165
-0.06640445733595503
-0.015224805576465035
0.09104403714726439
0.04131916919842681
0.017892766208928577
-0.0009382210296219545
-0.0367208821560508
-0.10625345200613807
-0.018124711084953928
0.02833121501147968
0.04136169773171936
0.03324318959798258
0.016335832342400276
9.767466952409933e-05
-0.01025937725464797
-0.013536000647945766
-0.01129163537090959
-0.006272040713183875
-0.0010865233387217933
0.0025663700899563133
0.004096166266537769
0.0037967018197967656
0.002428107006323399
0.0008071068436699497
-0.0004694488072371441
-0.0011305845387294283
-0.0011963854605253417
-0.0008650380736606743
-0.000385720194645339
3.778106176366415e-05
0.0002939271480962839
0.00036432391084867285
0.0002952486633132341
0.00015946963804999698
2.3827300842778082e-05
-6.943007375870722e-05
-0.00010678799506333836
-9.712666693459419e-05
-6.072696174161048e-05
-1.87591759272603e-05
1.3645119207284105e-05
2.9893722955473864e-05
3.085325096624343e-05
2.1839570966780117e-05
9.32614221655078e-06
-1.4997129540537487e-06
-7.882000773331574e-06
-9.46251301280315e-06
-7.511912385737011e-06
-3.935286927881811e-06
-4.4509555382807486e-07
1.9020749152155363e-06
2.7941041392713694e-06
2.487251894698706e-06
1.517505998448604e-06
4.3071443139907846e-07
-3.9124551645723585e-07
-7.893269013402e-07
-7.95071965553228e-07
-5.507812389474646e-07
-2.24463605304142e-07
5.1995630371031314e-08
2.1069516986153468e-07
2.453951749055167e-07
1.9082008812767313e-07
9.678756245009156e-08
7.129346097093712e-09
-5.178377043296578e-08
-7.286151869732103e-08
-6.34344891911938e-08
-3.767919029540317e-08
-9.681694277311637e-09
1.0936007104361343e-08
2.040469343113568e-08
1.9868921511172673e-08
1.32549654923658e-08
5.030861461662589e-09
-1.4199314890828632e-09
-4.535934305110958e-09
-4.509907675029273e-09
-2.6959926611615574e-09
-8.127710107961739e-10
-2.0551896519931317e-10
-1.3399121642979793e-09
-3.6199090178778524e-09
-5.565967890836536e-09
-5.3397829399809995e-09
-1.5325370173742797e-09
5.967060970407374e-09
1.5321878236140676e-08
2.2680486517477532e-08
2.3017596304722235e-08
1.1975563540750072e-08
-1.1609981809830132e-08
-4.332457552989342e-08
-7.216149162588174e-08
-8.215824885454659e-08
-5.740654004331193e-08
1.0074651817861249e-08
1.118148124945053e-07
2.1753192856175177e-07
2.7740876634713545e-07
2.35312574697746e-07
5.27946790909548e-08
-2.6169906490375203e-07
-6.29775649215936e-07
-9.011330521757576e-07
-8.858964407344532e-07
-4.2522381915777315e-07
5.124015923262811e-07
1.7417369177183028e-06
2.8262579858825417e-06
3.1474360282164304e-06
2.1039194536411803e-06
-5.821387916645042e-07
-4.540381273709579e-06
-8.55852743339499e-06
-1.0691129822128848e-05
-8.792773802603395e-06
-1.4593101292928506e-06
1.0849901509483444e-05
2.4956736019094572e-05
3.495248731700044e-05
3.352487579995133e-05
1.4746999119548807e-05
-2.219766422435932e-05
-6.9646638268054e-05
-0.00011031320194841722
-0.00012021943721587663
-7.662931083915329e-05
3.0025553975876786e-05
0.00018378709362464865
0.0003362181918588978
0.00041142038001164223
0.0003274968650292114
3.3428986482191364e-05
-0.0004478601408358054
-0.0009878838970858572
-0.0013546319164819982
-0.0012667925393733625
-0.0005037013862631775
0.0009508659745919177
0.002782348973266043
0.00430900896890746
0.004605787294890275
0.002820553073821864
-0.0013613808928012387
-0.007247668969104558
-0.012894133663792978
-0.015339658885108968
-0.011492168252691538
0.00037491927263561784
0.018864236129622035
0.038086959466322345
0.04748608797508151
0.03347903674088587
-0.01702302518469993
-0.11202802928853603
-0.05041552380161661
-0.020248351893247946
-0.0005783414644282896
0.03346092719488715
0.10381570457464355
0.023180238905760132
-0.008757367663714216
-0.005366464266092725
0.010468938923320419
0.012408885945492667
-0.02233408111570125
-0.10676384725582684
-0.040330818427087405
-0.008895316001440256
0.011271925666481499
0.04647374642659035
0.11769595822437073
0.03437170666817519
-0.008222445796006997
-0.02728696693919893
-0.04743419193544391
-0.09421385063357662
0.011616839305550576
0.05761580547267741
0.04064358504316191
-0.0340815979249093
0.04497526215283813
-0.10703371838101297
-0.07475934006561494
-0.046904375480186215
0.1792645730910985
0.1948783536918286
0.18038936464015923
-0.08788534045516438
-0.22668511819265189
-0.4346350202350599
-0.28705182945073304
0.2592055989812204
1.2521222128916063
-0.6711776574516956
-0.0946580773141286
-0.02534352743752711
-0.2904291907589508
-0.9352085219228964
1.1753878233424773
0.554820802538657
0.5010650588716884
0.11914881068365621
-0.6398731747689513
-1.1360779181584628
-0.6152656561874952
-0.420723022014222
-0.049134064673469736
0.96140680683259
1.9405254903655702
1.4284911721077305
-0.4185224962911329
-1.3559782782354808
-1.336323612864718
-0.9972358625524873
-0.9966553072991501
0.9828227547953331
1.5677063381312053
0.9977808279222248
-0.1586461621195463
-0.048634704751333725
-0.5299637217949532
-0.3303158750030297
-0.1920023139004502
-0.022528223401726284
-0.06399183047762386
-0.2860344022825681
-0.0005162575720519873
0.30852168572838146
0.7494183369214122
-0.006788472969023524
-0.34148818758097454
-0.2867056943413959
-0.11086342444023761
0.10070971512345225
0.6656304864037056
0.1236357488047242
-0.3449955103624073
-0.5052692137376347
-1.0658502956890565
-0.29893814829196974
0.7165710027279673
1.2401271267519385
1.8261727510858072
-0.8831138308832645
-0.7183963248047154
-0.3089837766684075
-1.0032600684554456
-1.61588317792807
1.3778930141689878
0.8003398585205139
0.5009973397400274
0.6871955072165569
-0.12032335861094662
-0.8978925607517003
-0.7030982488442897
-0.24894909656271258
0.5180901412218147
1.6330263662647102
-0.4725485096760169
-0.3464925948234636
-0.283388996605207
-0.6944202009359491
-1.2956725756114227
1.274950589462488
0.8148294397251257
0.3035764398929959
0.06114247916882481
0.13225423834866523
-0.3007845381659531
-0.4867902000402909
-0.47167241061239584
-0.2767717734310792
-0.09825601751914394
0.6737559203103322
1.027537631093781
0.3097065239743621
-0.37465841000535816
-0.7406178754096787
-0.8925293624052469
-0.5015178695474302
0.5965348570791325
1.3843307169456132
1.0433631160214103
-0.24996069207673488
-1.3038961387321006
-0.8766983925777762
-0.6507239430029491
0.16401537127422766
0.9922321926281404
1.2362350965415778
0.22441220610601187
-0.41344983001500824
-0.938113952953191
-0.4708100430337745
0.2406687398986319
0.2461024730435289
0.20469519435018554
0.39102055467833735
0.30342129260384826
-0.3210173029396664
-0.48794039256392135
-0.5329674601959943
-0.3258760463280698
-0.09822342889633283
0.508977948811401
0.9916905491399085
1.3438269055401768
-0.9494984845496903
-0.6812725430402183
-0.46601766850706516
-0.2796756843844078
-0.4166057957296824
1.3269096454853293
0.24593884984899417
-0.4928391407649828
-0.47523370646637275
-0.26595858439893044
0.360394901553544
0.3838200374832544
0.104425867083413
-0.28231634908755826
-0.09387757722997853
0.25013905685027044
1.2579655411301236
-0.5864898043862868
-0.3627073453973666
-0.45129376715707603
-0.6883680495899936
-1.1540439901060466
0.9967208763668093
0.8675508818518076
0.5394389316027297
0.20229529370918742
0.12078077353819422
0.04164156735259055
-0.36502084804303203
-0.6480297755298219
-0.9220296555198096
-0.03690066901207562
0.6222772815627078
1.7102761292158568
-1.3123536852324669
0.19372721291148937
0.0341622352619621
-0.2192873836728961
-1.0224567359893413
1.950335211754
0.21883871612286293
-0.4842601811785943
-0.7887682511273849
-0.6654309502232528
-0.2210171110000956
0.4812457165803704
0.5796763687916288
0.5660921057693925
0.2510048718725986
-0.04437513540916687
-0.46733497641527266
-0.5934403421866524
-0.18233076564734613
0.256542738730791
0.4816216167467265
0.12189763594397623
-0.3301507397709745
-0.3318522990352778
-0.3103981710122706
-0.09146587388610589
0.4653165541140382
0.831954819876609
0.19075189749948684
-0.16379643693345602
-0.3979196649102414
-0.29447863593853496
-0.006152568467568126
-0.019646283271608993
-0.3394737701936108
-0.09380834502189353
0.040141281774761554
0.19804680322955834
0.4881933880674437
0.5613207703042996
0.0007339648397956751
-0.2638066470583158
-0.524113427289881
-0.45671962213609685
-0.09603648492453348
0.17272698098095826
0.20021445442288785
0.24677805447700085
0.1551094821308203
0.13210320689624422
0.14591313540075157
-0.061499041216633514
-0.3512690419174983
-0.36264752270244993
-0.0957642361682875
-0.1090839491679338
0.2672561346394088
0.30742914448786984
0.26453441292124635
-0.04679336288961342
-0.05425502803550821
-0.21832062820565906
-0.013823852966151939
0.0910692096632234
0.05331166276952479
-0.13247716770876763
-0.2295116272618091
-0.16406715661691612
-0.04105312613889301
0.23213550415750872
0.31921121761429483
0.2343068045669109
0.13473009869851996
-0.06919605997085214
-0.2896154364118485
-0.22973295412808079
-0.155714630804305
-0.08060336756307451
0.03551305689604286
0.07025513629256985
0.1141640869811193
0.24415619269421324
0.10291819800042662
0.0897917105030419
-0.03495234975597839
-0.13471198500318948
-0.27568748661607245
-0.10768150591536657
-0.052623303080130066
0.09642769910519573
0.16721345972936918
0.19574491104987127
0.01476159002738186
-0.15300762370118487
-0.09602322372221986
-0.011402559094711806
0.09871109225174976
0.030239644258405793
-0.02057546100838553
-0.05555683881084812
-0.07378304606839806
-0.07213602902712382
0.15259292742631636
0.2008477800777419
-0.13164298570379684
-0.05353035449634312
0.024760063682452087
-0.10550257879546647
-0.04872995963603852
0.19581412194969855
0.033197164451541576
-0.12881534296935893
-0.08157979790226413
-0.017665130980796983
0.06651114516175916
0.1680384787307586
0.07641395864538514
-0.024466532162005308
-0.1511208539095563
-0.11403851857921848
-0.11313952425763796
0.06229575739458003
0.028820136913844503
0.2012790610086727
0.18623925810490383
-0.02019806378257024
-0.22894194510634092
-0.05058917370931517
-0.08817913567007574
-0.13395414822630902
0.028014801821510914
0.21439460635165453
0.23391083591916417
0.08198574790913002
-0.058049189478974035
-0.20723726630160205
-0.18046690860376335
-0.17858926704258143
0.012505774449456832
0.2150430800393279
0.24798983525546472
0.11688259765290057
0.010077758243742728
-0.09661105972919243
-0.2291448373019217
-0.2035772258883844
-0.018980630416446993
0.14189158724307993
0.10488951186664382
0.09357887564806355
0.12007546021310879
-0.018830040343514376
-0.13932343502050298
-0.06367771797962465
-0.012024252371396807
0.004097520297347453
-0.015404706957656179
-0.06018286162352958
0.08652597779778226
0.0423340230597539
0.020376902920799522
0.02587065505654662
0.05551404318873375
-0.1003217045995807
-0.05365127382883294
-0.014791860709520993
0.010363429315718391
0.02099925921673378
0.020229262124395988
0.013040776430448856
0.004291385447563066
-0.002611960473397518
-0.0061594202266434155
-0.006467990081098066
-0.004626095765715117
-0.0019896824998455933
0.00033791592499699777
0.0017508900251423448
0.0021385802131774156
0.001731391454921582
0.00090330858352788
1.2270689111879646e-05
-0.0006848507714915666
-0.0010475531017438949
-0.0010278203305762923
-0.0006428421505085295
3.2120987136106984e-05
0.000849148147457255
0.0015715689927380447
0.0018886905055896905
0.0014891125415049415
0.00019717899659866842
-0.0018600902392663793
-0.004127187075866102
-0.0056295261522587275
-0.005198956874032315
-0.0019350037628517195
0.0041836152392476095
0.011743676878028894
0.017690422905728143
0.017748058386374926
0.007586487138787203
-0.015456050967310939
-0.05066048682158451
-0.09304989159990082
0.06593162926283921
0.036070584535954076
0.02513359408379226
0.03607403579225114
0.06593736814732104
-0.09304403445359703
-0.050657285307562236
-0.015458142908242793
0.007577668207632654
0.017733452590575627
0.01767414320432321
0.011732820872750701
0.004186568877762605
-0.0019118579864382766
-0.005155468903066707
-0.005575424017060044
-0.00408300595126928
-0.0018533404337303103
0.0001414943456550323
0.001362249231132327
0.0017118931784870532
0.0014030023722178318
0.0007766656932366194
0.00014721039594219152
-0.0002880261271659478
-0.0004689808663643739
-0.00044164931759945673
-0.00030313462763212297
-0.0001484367100988731
-3.5553948865205216e-05
2.504924023817932e-05
5.928729729077146e-05
0.00010481501728457653
0.00018349572795009855
0.00028147381318251104
0.0003452782575030255
0.00029839089260603297
7.66964007505156e-05
-0.0003263951300460315
-0.0008219887054151904
-0.0012163449552337622
-0.0012493101763605527
-0.0006875606444199859
0.0005425492157602409
0.002225329323552246
0.0037947938621683244
0.004411829452236286
0.003221179269755983
-0.0002343267243082122
-0.005555365662016693
-0.011184250108886776
-0.01450061182934272
-0.012501913816987068
-0.003081136645674812
0.013364744207389296
0.03256528755481904
0.04600682913674164
0.042241936759811125
0.010092277997094294
-0.05686205534758318
-0.15603527063358244
-0.07388087576871422
0.01215535809915232
0.1277008511130931
0.09346923224531481
0.11842415145004741
-0.003027420027844888
-0.08875771617875432
-0.16285732410900322
-0.04872115756187833
0.03576539746126078
0.0795160019748816
0.07662521859216191
0.02370851206078517
-0.08208386775175791
-0.04378980019601949
-0.06460878500013648
0.05209599989057067
0.10265277338663872
0.0836182219372499
-0.005861529807597603
0.04049907540945991
-0.15832932799159194
-0.16681792088066721
-0.13382745810934374
-0.0004212285429255595
0.08604774388334938
0.3553756122390344
0.20143393026450526
-0.021820583974594174
-0.19287809411488183
-0.20601663687182506
-0.1511790659944149
0.10354967238085633
0.32338099938316833
0.11201399551431854
-0.2880887404686884
-0.40024992567830636
-0.3249772636480171
0.04006617679544323
0.5741215720694279
1.5101485797541843
-0.7741006158113779
-0.3440999847412669
-0.4801321301281838
-0.44668347018175575
-0.8750551298367958
1.433541800345119
0.6894680830249239
0.29515884217871724
-0.1607289127172751
-0.4908064178534088
-0.8866806752397297
-0.503174244969995
0.1373195139442949
0.717891515856887
0.6886566111456077
0.6360103875656814
0.07670278525230001
-0.5176921790315855
-0.8752492195390997
-0.6771170087187336
-0.1307880988513836
0.22542244978464332
0.6904091744815389
0.7575062446167463
0.6821925000839353
-0.3242878624054409
-0.6735201146432869
-0.7636740079892205
-0.5497488243889677
-0.33898295782698534
0.5822880334122426
0.9000359545426794
0.8239273918658628
0.4624947240781444
-0.3636005330107524
-0.8728308769291641
-0.4572857757521338
-0.6263907113444855
-0.3814344604442978
0.37079617091305433
0.9729209634595314
0.3603770769503374
0.6170820199120678
-0.03936449007139085
-0.03929613537438332
-1.020494289031601
-0.786737971537494
-0.888028267064204
-0.036413127089285964
0.8457806817134135
3.1676115720773694
-0.36561635771149936
1.2625589765554628
-2.7532036615890583
-2.149975597063675
-2.33097460971056
2.436360644762428
0.753195914570309
2.9876325042711187
0.994082459811456
-0.5022439007150998
-2.0480695673293066
-2.3642825045999163
-0.4611033187044543
0.38926520697351
1.0102826760325034
1.6326272594567288
1.2032434174945077
-0.46823921689815573
-1.1080611554768651
-0.9315598686580151
-0.3783453334228126
1.3434262078125354
-0.5099849506096391
0.19311315578561603
0.05589724673351917
-0.46066730935626016
-1.2595140411444141
1.7645367640070424
0.8965579772824978
-0.015848048794073318
-0.5594424434629989
-0.7327518483763121
-0.5173502291972769
-0.06035682798440312
0.3216897428541079
0.520054452258891
0.6047545012192943
0.20441967026465163
-0.29541766220385535
-0.536587686714841
-0.5657506162788325
-0.4192833990270148
0.07479190209370137
0.8787707315140738
0.9231226824336964
0.49740534069885284
-0.5335494482647447
-0.689572237665737
-0.827340903896938
-0.5077696280599245
0.0037070971012255283
0.5006715663537119
1.775836734643112
-1.4398228162510511
0.2823828885339632
1.6604035028695596
-0.47403696058089195
-1.9256202059422924
1.1247842316922576
-0.4284632226431372
-1.5894464358533857
0.9335426925989011
0.8942025019416665
0.4601613716994585
-0.0307572030704586
-0.29556340601083064
-0.3092603078382973
-0.29322060630852287
0.10076837942522565
0.2035655139927761
0.1373704016084223
0.022733861353820474
0.18716352091207325
-0.2236963807688727
-0.2345209493915427
-0.23279336587705587
0.03039775209769767
0.029786085139063022
0.44844740554300605
0.15974284151915547
0.015459218994223251
-0.15615107215084967
-0.14367228634337953
-0.14242877466720824
0.05263326538466997
-0.15358435424493094
-0.3661072089234053
-0.21720096264672456
0.414178958844616
1.1905708626827447
1.5245196756204964
-0.9833647108395236
-1.280707339954412
-0.9958143497669848
-0.9983626437112476
-0.6135690015174701
1.707163391865848
1.8825981134840306
0.7057187487992479
-0.0058029939963766325
-0.9953866144235061
-0.7010413782354594
-0.768198584044418
-0.1763712702904605
-0.002252364349097153
0.5761314490723253
0.44513703999767396
0.30985715352059423
-0.1452356599971783
-0.2792225175006228
-0.10007870711979955
0.14304152166635403
0.17515203914389352
0.11484694793055883
-0.1045399384542909
-0.31529137380244465
-0.30240077854953823
-0.2030570924021521
0.07863506452214641
0.44440960826910947
0.3704793416205041
0.0830585857297656
-0.050585274409347084
-0.1130720703266663
-0.21397191632574533
-0.06105483141727872
0.06591466800175892
-0.06725382517119144
-0.24334947960474626
-0.20028445993154642
0.1516295628049433
0.7059681930110501
-0.26300113511661516
0.08430866684157276
0.1494421039898826
-0.09611166328108489
-0.6960891654954665
0.3061759097140683
0.07922064965479868
0.6091003818975766
-0.6992174488117157
-0.022762843457186772
0.07606122582808347
0.042128386550487756
-0.48398377323760483
0.7205066694166579
0.04943663544785378
0.06378288685972566
0.0983655542673418
-0.12121136718420254
-0.2562078725857451
-0.3347048889559195
-0.1416333754594997
-0.023539196774151193
0.2927201534881559
0.2739019016495072
0.35687080500464907
0.13686496442375612
-0.22803780049883715
-0.39866186803562276
-0.2308128019281469
0.04446126031144897
0.029589764112694806
0.15693578801947822
0.07655789034788504
0.040830118739445136
-0.10925173587102757
0.046732348312245736
0.10489593272046159
0.038772816564843084
0.006002514529059589
-0.04127346541997032
-0.14469145948399875
-0.1298727071691188
-0.0016087218894219799
0.054449298609427925
0.06439112940193382
0.055751910660381286
0.047930840945302026
0.04637784968220016
0.0422099600632361
0.01727580332409516
-0.046876570535725914
-0.15896223728134165
-0.11039119133094658
-0.07337017898172137
-0.00622328518516112
0.13513315481365973
0.18320715216874187
0.1474611843590733
0.00976507421266642
-0.07135451954659684
-0.14918940732772512
-0.07424514284751643
-0.08153372984798424
0.016474629793494042
0.02984957283760753
-0.014857068497910025
0.11586599651156013
0.05265392251571863
0.01591729058916761
0.012728754285700776
0.03823938375479553
-0.11950276947019636
-0.07344969843375346
-0.03257504152863384
0.0001467698306437576
0.02629821173794434
0.048123994831598495
0.06421680499421067
0.06698859535833851
0.04347389142701232
-0.020269283796679114
-0.13245665028759313
-0.08918086429646849
-0.07134773941298209
-0.04709314763114543
0.020151655822190268
0.16011468027524955
0.18461795681301885
0.08141203940876753
0.015996607396234805
-0.05834932273855153
-0.18537871332011807
-0.19084422668391288
-0.07319699455388055
-0.0036548953555172086
0.06415752297683186
0.1783574151122716
0.1723687774198655
0.05368443356172196
0.0016459003089028493
-0.025210268690380795
-0.07498594611429704
-0.18635668573847447
-0.17606002417265598
-0.03421143157202396
0.0709584131380373
0.18082367952138678
0.13132764754578577
0.14095556329159248
0.0060527959814542865
-0.09532195521259701
-0.1932923874297826
-0.11443200758581919
-0.07324623906838386
0.13023059712197016
0.10689785791418462
0.07187430022547733
0.03821587362427432
0.013620248718067907
-0.1993919562171211
-0.0011788308134978917
0.0073532993870295
0.025651473243367813
0.0528998585682011
0.08689602913815869
-0.07638969422158362
-0.042044049094450225
-0.014635272767012543
0.003234115240600262
0.011500587776433936
0.012209963812318673
0.008472700641506757
0.0033457247768964435
-0.0009555406055572895
-0.003358166825346741
-0.003805100247594232
-0.0028801712336718145
-0.0013823389767303547
5.356678534972449e-06
0.000886789886055701
0.0011706448033188168
0.0009865080451799046
0.0005629480158671349
0.00011961679663390004
-0.00019814055225243662
-0.0003374180764744183
-0.00032035079479920644
-0.00020967957595757368
-7.428615133640397e-05
3.453643452379941e-05
9.261719859553917e-05
0.00010048336594837157
7.412560215465254e-05
3.433296960167347e-05
-1.5516002782848248e-06
-2.3773444754288015e-05
-3.0420923888070093e-05
-2.514101266556815e-05
-1.3960582782137386e-05
-2.5330104867766562e-06
5.487526467244789e-06
8.851288744302086e-06
8.21961952093551e-06
5.256854308243709e-06
1.7429784284042113e-06
-1.0238915434606324e-06
-2.455321972479232e-06
-2.5954118232820564e-06
-1.8747368814230693e-06
-8.341474046340825e-07
8.438221752609027e-08
6.39259006455414e-07
7.910138893530269e-07
6.40376886114218e-07
3.453772462040491e-07
5.1022136728619444e-08
-1.5113776397785483e-07
-2.3192359494334919e-07
-2.107202723500209e-07
-1.315961895080161e-07
-4.0496290493499514e-08
2.977391300240941e-08
6.495232845052183e-08
6.695728615130687e-08
4.734691357677537e-08
2.0174694541802433e-08
-3.309211057437106e-09
-1.713650030031325e-08
-2.054197429247437e-08
-1.6291248322873147e-08
-8.521631796011587e-09
-9.4824019230383e-10
4.139416711485356e-09
6.067792385722217e-09
5.395851825571747e-09
3.288118418614004e-09
9.291479116996818e-10
-8.532032221461026e-10
-1.7149226222811596e-09
-1.7254166465892829e-09
-1.1940350511936088e-09
-4.854859886718112e-10
1.1422023517570759e-10
4.580537622818876e-10
5.327706940393968e-10
4.139084818128569e-10
2.0962548805757013e-10
1.4994070602102178e-11
-1.1283940789853888e-10
-1.5854551842008e-10
-1.3803413280167948e-10
-8.202033885473676e-11
-2.100931549565941e-11
2.4138864320469884e-11
4.5171660143726515e-11
4.438715783652244e-11
3.004263236221654e-11
1.15911410473499e-11
-3.705343915980202e-12
-1.2235702006865786e-11
-1.3824887147726144e-11
-1.0526574663036389e-11
-5.16425031526797e-12
-1.6805432401265972e-13
3.0385374289693464e-12
4.112880522099886e-12
3.503059748050196e-12
2.017760745310057e-12
4.416666042545822e-13
-7.004110168170534e-13
-1.2117407812057189e-12
-1.1645263191732507e-12
-7.7862192420965e-13
-2.9875004758172955e-13
9.094247825525312e-14
3.0205901745929443e-13
3.3435211099976255e-13
2.4342686762461726e-13
1.0288939931102681e-13
-2.5216501332077143e-14
-1.0550979771975577e-13
-1.3051271787608527e-13
-1.1273472686467619e-13
-7.34312217568808e-14
-3.276351851608444e-14
-3.913856176883282e-15
8.46201531437029e-15
6.5551676079157064e-15
-3.7943090284716144e-15
-1.6258535928617015e-14
-2.617418379964271e-14
-3.1385292103368037e-14
-3.1994693449021033e-14
-2.9502382580351274e-14
-2.582465970844024e-14
-2.254369030944356e-14
-2.0536863114995495e-14
-1.9962034837298575e-14
-2.0472557771434356e-14
-2.1510648667800043e-14
-2.2558849296648745e-14
-2.328656269781885e-14
-2.3584512238443862e-14
-2.3517545764864783e-14
-2.3240492871804224e-14
-2.2916878161898263e-14
-2.266477635698944e-14
-2.253670528129077e-14
