0
1.7403638595211784e-15
5.792687823071872e-15
9.32708733258244e-15
1.0301125633020833e-14
6.748665658061595e-15
-2.206894610293723e-15
-1.5288216566674634e-14
-2.844330313682977e-14
-3.523189998916167e-14
-2.861315326684594e-14
-4.066865813522641e-15
3.671579891588985e-14
8.306048721711783e-14
1.153560517132315e-13
1.0953209490221845e-13
4.633301857255932e-14
-7.639780305780638e-14
-2.3273042474887006e-13
-3.6512476974323726e-13
-3.944399421099486e-13
-2.4639853680705716e-13
1.08985162560106e-13
6.169194000358217e-13
1.1156298638729079e-12
1.3539890635817562e-12
1.0634132404306162e-12
8.009324460192849e-14
-1.5134628601761984e-12
-3.286121148792296e-12
-4.468239339297922e-12
-4.134479980245082e-12
-1.5694635330324477e-12
3.257813300137567e-12
9.281465396171072e-12
1.4227339046171286e-11
1.5032440363042887e-11
8.89656794455182e-12
-5.185163260233717e-12
-2.488503878431781e-11
-4.3755541264498314e-11
-5.201554477157783e-11
-3.943570456173819e-11
-1.1950698140519319e-13
6.207591025122797e-11
1.2977930517400033e-10
1.728221954458896e-10
1.5567852860687264e-10
5.1862877043131145e-11
-1.3776959529771676e-10
-3.695752467292563e-10
-5.537945917189868e-10
-5.720203678399118e-10
-3.1892276370181477e-10
2.382515469288934e-10
1.001412319606728e-09
1.71402075920929e-09
1.9955481258121665e-09
1.4570397180063983e-09
-1.120917565399109e-10
-2.536754901734817e-09
-5.118608041646507e-09
-6.676504214288945e-09
-5.848347054435689e-09
-1.657328394386042e-09
5.7830494202085216e-09
1.4692059566255404e-08
2.1531617044439002e-08
2.1729887150754117e-08
1.1334349678114543e-08
-1.0680856803827827e-08
-4.021064802519714e-08
-6.706389543555255e-08
-7.645327381798436e-08
-5.3614953232293984e-08
8.901875557289852e-09
1.0331840081220281e-07
2.0161998784353045e-07
2.576168094915119e-07
2.191576008984792e-07
5.0370562701785565e-08
-2.412092474468267e-07
-5.831586452755974e-07
-8.361947227463477e-07
-8.240085814900059e-07
-3.9866258178243164e-07
4.7003569813641874e-07
1.6113111040915712e-06
2.6209342442672807e-06
2.924929121383734e-06
1.9639129115038024e-06
-5.22759518899802e-07
-4.195148254749769e-06
-7.931658797759317e-06
-9.928087938744672e-06
-8.190561030942313e-06
-1.4080587915644804e-06
1.0005138251901323e-05
2.3112198196726404e-05
3.243689704247687e-05
3.118846288925999e-05
1.3845191290458658e-05
-2.038774996688572e-05
-6.444299338748218e-05
-0.00010231045220031547
-0.0001117367982275492
-7.156864129614217e-05
2.7184045092019626e-05
0.00016985708394319163
0.0003116285352810079
0.0003821021186421812
0.00030515394056145024
3.312108839510971e-05
-0.0004131914920102173
-0.0009150226237016918
-0.0012573172719555178
-0.0011787895310721927
-0.0004737842667753109
0.0008742388694537222
0.0025751000581197493
0.003997459228381939
0.004282938801471476
0.0026389614713863423
-0.001230219021383507
-0.006686834977936061
-0.011930581114763035
-0.014214436789686662
-0.010665904148722673
0.00032153872982847533
0.01744685405500351
0.03521193600301917
0.0437229649463315
0.03016389588675188
-0.018002666549029354
-0.1088459405603799
-0.042246159575801794
-0.00825932760364432
0.01148400839009664
0.03962278540897189
0.09754685234856487
0.0003541577047504222
-0.046272537283631926
-0.04679388598611167
-0.014615154863100745
0.030237127033395216
0.06411874425252023
0.06355786535995936
0.010041189066912343
-0.10461091475391257
-0.0737161218475836
-0.0741916566010603
-0.06986267741820505
-0.02008057725057877
0.10791413815899271
0.12638659558882645
0.21885641888116114
0.14037688284131766
0.02826423387881199
-0.17852087044491172
-0.3171249574900389
-0.38397187778306874
-0.13101675359189455
0.12154205096630144
0.45940224512592
0.34456727939328385
0.1937228618521604
-0.026779320941018814
-0.18767489165112905
-0.3710801817978006
-0.24267486508730185
-0.03206643227256678
0.07256422413034161
0.11554031896384992
0.15567751694941243
0.24672639812042602
0.023047278648318206
-0.10576602141198067
-0.15161734953701697
-0.13962110710455652
-0.09959147650043755
0.13925157435366756
0.14978926758931171
0.10678324148211032
-0.012141117811650535
-0.02264256985575802
-0.1277079654669539
-0.11239159563687774
-0.1426024635809529
0.029869123017549085
0.056320969256373365
0.17709320916477359
0.20938052862307208
0.14179507476891604
-0.06159475133278018
-0.24876205736807872
-0.2635209790775032
-0.13218634416200417
0.1417469513550728
0.17374419747423117
0.1883299278331576
0.0083978698431619
-0.15201087309134756
-0.09012548463439646
-0.013336749359393014
0.06342457230340211
0.12082229617303872
0.13910032685171206
-0.09649062495774627
-0.18943503131146527
-0.12723814587814497
-0.08140964826124024
-0.014066960441674423
0.10979552742548113
0.3083995485626826
0.17338510996002296
0.06918250681501707
-0.05661895361405076
-0.25473749035284426
-0.3543307117116805
-0.1499600099012727
-0.0013130721162157575
0.1535164264917824
0.3762012775186366
0.3065805486637084
-0.05006570862428972
-0.12225824260727114
-0.15942725563523155
-0.21307692733064001
-0.11972147802488647
0.10859935431050453
0.08425744093256622
0.03622373912211811
-0.0015748823372216702
-0.0017175608394837704
0.048350817501016774
0.14280067986027248
0.05954829563407329
-0.03224112997433588
-0.16115265738351217
-0.14259728461288532
-0.17226782548657463
-0.027165520561130824
0.12548527157840206
0.31464233455491136
0.15287482702504937
0.030492200758126208
-0.08083360305466544
-0.21654699447695838
-0.20497949297176002
-0.0566213916299835
0.03879830474954504
0.10683566220426335
0.17752277431758887
0.07421027763570427
0.0066052880329890255
-0.02971869430345417
-0.04790722457176029
-0.06124376855873777
-0.07499864487897698
-0.08190906542203266
-0.0632105652843084
0.004682179830272363
0.13978837049573095
0.14417608882613037
0.19804791733949142
0.06185341640020963
-0.11269216020855435
-0.16543332987589954
-0.11026282384274694
-0.12416401267582154
-0.14832198537654975
-0.10366609754195219
-0.1192937237464963
0.03180853546287652
0.29911273410799755
0.7351590232216039
0.9029261908671744
0.5179399503546085
-0.4779004728369809
-2.0296054355147946
-1.9020261530159848
-0.6662590028968975
0.8445886448898557
2.2269989028151267
3.5934695857526777
1.3103654255873065
-2.579197007109501
-3.061215655965245
-2.8447339377870815
-1.7164147284806113
2.002806706906023
4.916869846485341
2.2004846641443243
0.31722665623341534
-1.1389685837874945
-2.6901670913757654
-2.5734090589298706
-0.374108086589172
0.8471471810077995
1.1210508958122984
0.8588594139108632
0.31497408255145015
0.2691786983493179
0.15607700203177902
-0.1515104035624015
-0.31406461577109773
-0.26962908571242455
-0.3714966013757209
-0.33759730413781947
-0.023420656450146574
0.17832334851652237
0.3166416082934334
0.25111742421926897
0.22354767324012698
0.04209883383868267
-0.11835939571625084
-0.30257194172898866
-0.15522442718975424
-0.10372277814640263
0.05053981356831762
0.13082355703605447
0.17617595100874214
0.0298056821886955
-0.07096297171507943
-0.10099749094806891
-0.05011788557993841
0.07640556336949866
0.05878838230512791
0.06536583620103936
0.05771434414427491
-0.001541116093906964
-0.13943094729373898
-0.1644714637211262
-0.0628010870178489
-0.0008800861244748456
0.0652937889309668
0.17719451944818573
0.16149507670991733
0.02292740067058743
-0.055282984290152534
-0.10401029637346228
-0.15715208741734452
-0.04128169387892784
0.030454572520869267
0.05890563717038677
0.055014849426985896
0.03390616628105707
0.009456553227353313
-0.009066499966652711
-0.01791453814474526
-0.017848775947653214
-0.012172961064212302
-0.004737096305444478
0.0014758100940037626
0.00496463083757652
0.005633661553254212
0.004305056641298897
0.0021241479943463486
8.270305291833525e-05
-0.0012345262218957322
-0.0016830137682385252
-0.001442041364370316
-0.0008399703637201707
-0.00019714519442546024
0.0002710347123005048
0.0004827332663028983
0.0004661425731987449
0.00031028360622754826
0.00011490825645502817
-4.454592992006837e-05
-0.00013154870775802539
-0.00014557863005835913
-0.00010906077383041856
-5.194653634786702e-05
3.90158680135763e-07
3.338399384814399e-05
4.3850522585558325e-05
3.679941112056278e-05
2.0862917764020086e-05
4.273697399500566e-06
-7.55559121658042e-06
-1.2684415277621414e-05
-1.1974298587090234e-05
-7.79109018427944e-06
-2.714752470898116e-06
1.3437719472601214e-06
3.492735572656375e-06
3.763344659622725e-06
2.7610631978051407e-06
1.2659112940535961e-06
-7.487256967362099e-08
-8.99891369600508e-07
-1.1413038181912565e-06
-9.381673636115987e-07
-5.170906708391771e-07
-8.941712688916449e-08
2.0907104305837346e-07
3.327424337347387e-07
3.0723659033367154e-07
1.952938927589e-07
6.356581660698688e-08
-3.960508106782218e-08
-9.253544158603302e-08
-9.717163643884811e-08
-6.980455606750396e-08
-3.07215117083811e-08
3.587593103745292e-09
2.417759213933412e-08
2.9666496842189277e-08
2.388877364939638e-08
1.2783858548542165e-08
1.7710166423560867e-09
-5.749483567001746e-09
-8.715161006061928e-09
-7.874051942429331e-09
-4.886520520613349e-09
-1.4724524741485573e-09
1.1469088366113832e-09
2.4466450776136088e-09
2.5061126209739037e-09
1.7622705574936396e-09
7.420921638315488e-10
-1.3481744884391125e-10
-6.476326885050803e-10
-7.701624963033857e-10
-6.075356693774747e-10
-3.1519034679643085e-10
-3.1927785922323935e-11
1.5725930866102422e-10
2.2792787198104076e-10
2.0156891253073495e-10
1.2203626750290826e-10
3.36588646769939e-11
-3.27566438683451e-11
-6.45659698927283e-11
-6.455966709211352e-11
-4.4424347021652127e-11
-1.7831320300661293e-11
4.555367710162917e-12
1.7299804823462937e-11
1.9969176820545344e-11
1.543128615719267e-11
7.748110059463415e-12
4.705990571435005e-13
-4.280919074845749e-12
-5.952499045134207e-12
-5.154040849136639e-12
-3.0416725487011917e-12
-7.566322384311347e-13
9.25130061210813e-13
1.7007570202522802e-12
1.661174290831043e-12
1.1181171922355748e-12
4.258301702816944e-13
-1.4500622192161887e-13
-4.609898155392311e-13
-5.171784355226958e-13
-3.9145482823798005e-13
-1.8982634822910837e-13
-3.0447210436254877e-15
1.160863333567044e-13
1.5523978178016333e-13
1.315491360438944e-13
7.54575859882575e-14
1.6352262585641754e-14
-2.6197713752320417e-14
-4.4932949995771475e-14
-4.265872788022721e-14
-2.7706647057952793e-14
-9.356187390591014e-15
5.356126950380766e-15
1.2978673234878082e-14
1.342538556894395e-14
8.8552788179838e-15
2.3267996016351425e-15
-3.308862116901587e-15
-6.090924955871549e-15
-5.242716686267083e-15
-1.2035269251275344e-15
4.500874308297694e-15
9.539974344423985e-15
1.1280341465804373e-14
7.568856291539696e-15
-2.2612219543058128e-15
-1.6425539417965882e-14
-3.023342606763089e-14
-3.668562789012922e-14
-2.849228048338192e-14
-1.3931434889761553e-15
4.2063479116302866e-14
8.986358094527644e-14
1.2095530364078527e-13
1.103549653740029e-13
3.9146292570306065e-14
-9.270210638017746e-14
-2.553753022771584e-13
-3.865852236115381e-13
-4.034139076107745e-13
-2.3119386157985856e-13
1.5491417278466406e-13
6.887638206207756e-13
1.1930124429368972e-12
1.4019762685419396e-12
1.0412858996476669e-12
-4.194347160557557e-14
-1.7332561897948745e-12
-3.552090256430484e-12
-4.6761076757393555e-12
-4.148079804775871e-12
-1.2693317847559317e-12
3.905865632744303e-12
1.0160009127154232e-11
1.5037194768733717e-11
1.533462659071774e-11
8.24749406615587e-12
-7.017762602969594e-12
-2.7684979443734102e-11
-4.670443531548187e-11
-5.374657961261764e-11
-3.8388910816973624e-11
4.8015739393260626e-12
7.069483511279091e-11
1.399948517795553e-10
1.8052668242173737e-10
1.55617545578183e-10
3.955915805859935e-11
-1.633586137160049e-10
-4.035500232906695e-10
-5.842790830259579e-10
-5.819653838443e-10
-2.915054687600429e-10
3.11205646867252e-10
1.1103810698584029e-09
1.826206366605506e-09
2.057530614855685e-09
1.4091335275102323e-09
-3.10060366808173e-10
-2.8743242243191615e-09
-5.5104462607540455e-09
-6.961005568980115e-09
-5.823002380154375e-09
-1.1547837757770884e-09
6.792112352977029e-09
1.600435489438011e-08
2.2676426876707123e-08
2.204581428735417e-08
1.0184590184065504e-08
-1.3580410166338687e-08
-4.4446676408484554e-08
-7.132453735069808e-08
-7.865309270374172e-08
-5.147367215578458e-08
1.684870270842715e-08
1.1652414974649406e-07
2.1662906281567577e-07
2.680791675056452e-07
2.1727814326667666e-07
2.9911948518212024e-08
-2.8094855362172475e-07
-6.337854907202686e-07
-8.790787283392374e-07
-8.335215330870016e-07
-3.5074672708443084e-07
5.851000002390184e-07
1.7757930807409648e-06
2.7824576898482956e-06
3.0021750758859348e-06
1.8698958740166096e-06
-8.41112564934452e-07
-4.711158621837416e-06
-8.505753483304252e-06
-1.0311056418617625e-05
-8.082733792277382e-06
-5.777020416758299e-07
1.1568187895487547e-05
2.506291867037704e-05
3.403895343982671e-05
3.1449956799830354e-05
1.1859149677401991e-05
-2.494710838183213e-05
-7.08223653770809e-05
-0.0001084223576727008
-0.00011441393135331374
-6.749801298602833e-05
3.9912964034564125e-05
0.0001899967874676872
0.00033355525433070474
0.0003960471991804362
0.000299612195898782
-4.871717157958372e-07
-0.0004745941862344513
-0.0009900921487701988
-0.00131699067993764
-0.0011847223590502334
-0.00039186012326690597
0.001054641022940296
0.002822234287284391
0.0042282666667075855
0.004374197364585797
0.0024647008237132155
-0.0017382305180751315
-0.007471948202949399
-0.012766694356508575
-0.014719059814976676
-0.010397873725367077
0.0016787111151884174
0.019856647593172804
0.03809789378231465
0.04593928379577169
0.030229360366980828
-0.021370015086592285
-0.11598264202910608
-0.05183112822556004
-0.0170069816533865
0.008337985768916603
0.046821878876430564
0.1174518231655033
0.03038720830433492
-0.015216225841028837
-0.029588801663325143
-0.02774148142631914
-0.023669332409136965
-0.025366772409342483
-0.03221804780041015
-0.03558185997677314
-0.022549289654887405
0.018026922602099437
0.08900087131909755
0.1803009446072831
0.06855858241256874
-0.07778503972659974
-0.08886371782791855
-0.1825498839285127
-0.1568088162850137
0.011234243857264539
0.15866133369366847
0.12497483131765295
0.13980758453752318
0.01482823001022333
-0.05754339676322439
-0.09900158811943656
-0.1366079826629852
0.005944555774149037
0.11434542065080361
-0.013881979487693746
0.030286347904341076
0.06554582029244667
-0.08229080921423251
-0.18368311010860153
-0.01023822380295111
0.05864578264272227
0.22846655152576206
0.08427522989714573
-0.009754425588308815
-0.1044914959978432
-0.05500170587939536
-0.10793719249605609
0.10924893891576931
-0.005226390291105953
-0.026303036131721986
-0.10620417608826113
-0.18351110316862373
0.003628057144437869
0.3023051817141944
0.3317758765106708
0.07760302675003065
-0.10355692138605589
-0.26945049293572493
-0.27361505888887433
-0.15033351682690127
0.09103877714952244
0.26129905247946283
0.1800410816325538
0.06409709778389541
-0.07885465359601668
-0.049617158604229376
-0.05146962626367911
-0.0825711464116389
-0.13054888563078043
0.02827047860659333
0.024505694010321554
0.0878554786993302
0.23888478819428485
0.0839078899377109
-0.18495638712544865
-0.1851215144028281
-0.13735143671281472
-0.06179942393443634
0.22189579832260348
0.2918899728639668
0.1225878656575639
-0.11228558709986819
-0.2316870983084896
-0.2379291815454055
-0.1115785762320381
-0.01468334693294982
0.29763961243470316
0.26163711836439746
0.09207581559311165
-0.022268263305939857
-0.11311373127139061
-0.2200760020195819
-0.17671067309889954
-0.0008640609465082082
0.10765756554138182
0.16284765323527095
0.1853539605665285
-0.0032875661254977736
-0.18258964957849705
-0.13181050102831776
-0.028303658723891404
-0.04858521987357506
0.026668225135092014
0.20501495861082664
0.07517136445358003
0.0038834957150777932
-0.06115826723831787
0.01750066485319508
-0.020283668993585417
-0.01879024730556739
0.0048688431970279
-0.1327215190784004
-0.18160906104635582
-0.06683065383275055
0.0957954857315803
0.17961514167997314
0.22842580697152168
0.24546656146333695
-0.0054224988466238105
-0.18621711655791534
-0.36338645941652886
-0.18688132883706965
-0.07737353642292166
0.17410012026294364
0.19550961763014782
0.21812644187872787
0.06295534098660066
-0.0655974498052003
-0.17778042054868323
-0.09102246322743233
-0.021413521037026473
0.022103995208506293
0.039300296488494584
0.036642314366898354
0.023524663744454614
0.00860821147289428
-0.0025264676301803286
-0.008029874955254267
-0.00901521066112327
-0.007999735227326416
-0.0072497389316962
-0.007594770681713528
-0.008055796576950294
-0.0063846588926094044
-0.00036661726956864114
0.01049381326338272
0.02347303033246193
0.03196874785232866
0.026229260859936716
-0.004337363573227735
-0.06765251183742457
0.03478589684608617
-0.08936144639901789
-0.022657118391871008
0.060091320485398024
-0.012557551814124188
-0.01442807191993634
0.0725666884902841
0.05414417940961305
-0.07816312493926786
0.05409742572640602
0.020074946284248735
-0.014770044999536863
-0.08239925215064729
-0.006656891704687102
0.0002193502203178346
-0.06181190656092785
0.01705641984819066
0.0520019299278536
0.05842714989394479
0.047888045359960996
0.0265202995201519
-0.0035671618009817676
-0.04074644102366503
-0.08012244019561629
-0.11209251990611395
-0.12541987463604867
-0.11570812689945281
0.10211397450627896
0.2815014626048136
0.33871732177430103
0.3607758697258769
0.23066023774310035
-0.33284744237806585
-0.7314032661821459
-0.8562597323572099
-0.4874135118362263
0.06839410839880178
0.7069299045647843
1.4447687094891684
1.356937068758325
-0.640472665712668
-0.9550922615106532
-0.8461319122074988
-0.7465646221840053
-0.41013284902227265
1.101601405332942
0.7970698622182112
0.31663951887963276
-0.30003404582928594
-0.4294226862641057
-0.26351261778348267
-0.0021504961801704944
0.1531401387047461
0.2008153563384283
0.1385577466021263
-0.03606147073672225
-0.12144446821280905
-0.10548582301005255
-0.16018300916446304
-0.040897565683511106
0.10809843939430036
0.1430123201515069
0.10839942414933348
0.02765433467060584
-0.10109681881804457
-0.10334240368004523
-0.022397340057765534
0.0883708441438156
0.1739954833160074
-0.013205308914093734
-0.10453284444594041
-0.1070222100894228
-0.19953679228849128
-0.13566627750545265
0.14561447054758175
0.3037656582396135
0.1801696901225354
-0.012728510217713141
-0.09286640341657396
-0.1009076103544331
-0.08730227748097874
-0.09911278247534092
0.029396385628716545
0.08066955722552391
0.05281153205182115
-0.04449814812345432
0.0049416737448819865
0.019221372088270496
0.01475510348290903
0.0040342300561978395
-0.005237830043579809
-0.009786261769738944
-0.009578437438401761
-0.006331025872017289
-0.00217682469862079
0.001223604235419517
0.0030541820582417373
0.0032960007984858953
0.00244096022999203
0.001148841172968414
-2.227265347870391e-05
-0.000754387151142542
-0.0009817343517833307
-0.0008193486613435887
-0.00046118798685690875
-9.087220105564855e-05
0.00017167899206761917
0.00028420294608971704
0.0002667367828500889
0.00017248543261671388
5.9050544026735836e-05
-3.1144006998564595e-05
-7.850498858921676e-05
-8.399338703898237e-05
-6.127515678246883e-05
-2.7793303949663042e-05
2.058712942490253e-06
2.0305380560535324e-05
2.551909703833899e-05
2.0860565502899567e-05
1.1408108247519907e-05
1.8698509217817947e-06
-4.74843290027886e-06
-7.455391949901364e-06
-6.843407932005125e-06
-4.322233139926787e-06
-1.3792060057777774e-06
9.130327946964289e-07
2.078714337021559e-06
2.1680903406579436e-06
1.5485763944147726e-06
6.737004578612723e-07
-8.994439580906849e-08
-5.450851859636475e-07
-6.630990401659648e-07
-5.309998880439041e-07
-2.8183639863658994e-07
-3.6297256363683674e-08
1.3038328921631165e-07
1.951917201164346e-07
1.7533279970018132e-07
1.0809407661886421e-07
3.184305352009889e-08
-2.6333398542236214e-08
-5.4932475091124255e-08
-5.589888129244907e-08
-3.907967495431465e-08
-1.6251476626482066e-08
3.2604328573447726e-09
1.4589689419117182e-08
1.7208714303289114e-08
1.349975900701762e-08
6.943391170455783e-09
6.29796556810771e-10
-3.5614469481757e-09
-5.102859964439289e-09
-4.486969770442116e-09
-2.6981191830463526e-09
-7.248992101513551e-10
7.496783005126155e-10
1.4489332204153732e-09
1.4395630663228058e-09
9.847363415339743e-10
3.8987514012986484e-10
-1.0809937100417054e-10
-3.8948539019392805e-10
-4.4607560444321727e-10
-3.4277008472909505e-10
-1.7049317393152323e-10
-8.289398095880635e-12
9.695495796506006e-11
1.3331748202242943e-10
1.1471818459186084e-10
6.709822509874702e-11
1.5934604831053296e-11
-2.1510901798873143e-11
-3.85391565164916e-11
-3.72216491136567e-11
-2.455847696543484e-11
-8.540434851636085e-12
4.631341311662699e-12
1.1751640051139727e-11
1.2482823449951852e-11
8.46033142819888e-12
2.212998120272132e-12
-3.7145382596830056e-12
-7.306874559532444e-12
-7.358997278207375e-12
-3.6369706081167e-12
2.9917064773273974e-12
1.0499227237625571e-11
1.5878221550927163e-11
1.5766831806731697e-11
7.610556622950632e-12
-8.80971026854367e-12
-2.999468265346747e-11
-4.8273062243970435e-11
-5.308334792724198e-11
-3.4411790657243115e-11
1.202394638748731e-11
7.937257697190432e-11
1.4656561695372127e-10
1.804291596371593e-10
1.449796044485403e-10
1.7503100341435074e-11
-1.925621509062277e-10
-4.296186113684546e-10
-5.925124876825892e-10
-5.579343261669932e-10
-2.2832091470652432e-10
4.051248697990956e-10
1.2065780118154398e-09
1.8785846258784457e-09
2.014836261663998e-09
1.237221333196387e-09
-6.014699313717618e-10
-3.210976081231026e-09
-5.7526888075500194e-09
-6.93465657555051e-09
-5.385147045498627e-09
-2.823542596244427e-10
7.921406228580232e-09
1.6983067271591822e-08
2.2934827196973278e-08
2.103846616960664e-08
7.67325365622177e-09
-1.7231063401800095e-08
-4.809883145613465e-08
-7.317921617794911e-08
-7.675296424099068e-08
-4.4575748204359775e-08
2.824587321739065e-08
1.2941533278729003e-07
2.2552841641433814e-07
2.662839442631347e-07
1.9946559844322203e-07
-4.436516749440688e-09
-3.245033420641394e-07
-6.704256335503553e-07
-8.86733811872963e-07
-7.91595163969644e-07
-2.5112238237955906e-07
7.268152970574165e-07
1.9141903075340584e-06
2.8474062267702075e-06
2.919035188411298e-06
1.5936853225811158e-06
-1.2863363172887599e-06
-5.204081588299267e-06
-8.831140225589985e-06
-1.0211307124490246e-05
-7.360244624949857e-06
7.729285155886901e-07
1.3245936886785787e-05
2.643083007502323e-05
3.4243055896023864e-05
2.9714154028786034e-05
7.912896173276259e-06
-3.044204018358536e-05
-7.605687251427716e-05
-0.00011066561972059008
-0.00011082421558339487
-5.645875539907787e-05
5.7285360959994036e-05
0.00020881684139522936
0.0003453883703352321
0.0003910063820260662
0.00027038752947434764
-5.353024326805438e-05
-0.0005391399416539795
-0.0010410077118802408
-0.0013212725484701483
-0.001113192924883011
-0.0002357679069461924
0.0012674519242344532
0.0030198039794763665
0.004304374580616496
0.0042208208550783746
0.002024200775070748
-0.002415464163971061
-0.008189627792100165
-0.013194676677990666
-0.014478317239663436
-0.009218814475012316
0.0037600882142759012
0.022339587198536886
0.03999480183501962
0.04598144785277487
0.027331638283596773
-0.027463988675832583
-0.1240881585494395
-0.059065526158665956
-0.019226143996006913
0.015210061244188972
0.06468067813617388
0.1436511610555931
0.05605231847200399
-0.005141904855564976
-0.053832954765737295
-0.10388032112609072
-0.1623941528488537
-0.02629424634910699
0.11626550175238527
0.08032587732595983
0.07713235277348399
0.10904971070063962
-0.031380190547513516
-0.15810559932567067
-0.08589437785957327
-0.02528299221705219
0.019470905897928936
0.04883545750196965
0.06414392863109988
0.06372717538266953
0.041175092649430006
-0.013211433186365598
-0.10820595482262384
-0.046420799623480745
-0.020350326697296695
-0.011520286810603433
0.006652188440961052
0.06300416834869665
-0.0186247421328998
-0.026175407559602355
0.03598308662975999
0.14584618062069094
0.06693050467387067
-0.04396793520033951
-0.025506444526567886
-0.09980335414876312
-0.26367182423965757
-0.08685647129567367
0.08078359921364753
0.09435973804150284
0.19583740314485062
0.19910719124389037
0.08400724759900736
0.002116430148731117
-0.10704979872112332
-0.2947489916062362
-0.18416226110262035
-0.16104991899461304
0.022273675574005013
0.23081463482712658
0.3245768694010945
0.13851104007917892
0.07219613550936507
-0.1074656889160795
-0.2526595368216451
-0.2164098261385409
-0.03701674077079947
0.06961791440420258
0.10863755918361725
0.09853197664541659
0.06161060283844387
0.0166733667381725
-0.024062624706367015
-0.053969274248216084
-0.06876904519734263
-0.06347594540232446
-0.03149084277309788
0.033405553827683274
0.1329530234024041
0.060199645341295745
-0.0025718407917432458
-0.08242514323938586
-0.01103891566788175
-0.01805015666233373
0.07587212777166477
0.06501270487536397
-0.03715129476878034
-0.19644270291664911
-0.16071270130112741
-0.06820964727490773
0.13860962670998586
0.29687200800360325
0.21022027190022044
0.04463365780905133
-0.06391951332940826
-0.19170827261526743
-0.20521534533149657
-0.14241356911877665
-0.00350128377144537
0.04637574728031012
0.06410715659554192
0.11017324480109836
0.23089006167093454
0.046741405686255594
-0.05011578214072677
-0.08933818121073121
-0.11013176589531692
-0.14817125559091796
-0.02629305027842899
0.048470043214140696
0.08168624301057387
0.08466029368477584
0.0674366059668168
0.034662905028514136
-0.01434403930249624
-0.0819827819200032
-0.16744721004416208
-0.06334072707378678
0.044101819178685456
0.17104558152910593
0.13033617466984457
-0.07298664571273138
-0.042800450215083254
0.010496036676107264
-0.12571158194285573
-0.06214595585211163
0.19481691217596162
0.0436968050620981
-0.11274994511066806
-0.06865733263087603
-0.016574573919096874
0.05031853465684063
0.13555799054668324
0.03740030248570815
-0.05132388527998165
-0.14129807239721398
-0.043865616497100135
0.03112156362943751
0.07586758062605806
0.0841524785009088
0.05126797037462102
-0.02446648681224836
-0.138741820197851
-0.07841678786667049
-0.020947136303997638
0.06249625373765789
0.000464447626402704
0.013063993242254244
0.10479396092980424
0.0608491072526757
0.04855912022471319
0.02433830884852378
-0.0551527048452263
-0.22058378389529346
-0.08019245827194627
-0.01623760524264112
0.010670401149747894
0.05046191347228013
0.14922206748643294
0.13612928047794612
0.015838637674546827
-0.031442252483886525
-0.04256256024253956
-0.05945738177432697
-0.11654631424088892
-0.031293262045829995
-0.0004891847157220696
-0.0030091946151582396
-0.007967635137736215
0.014161156489188333
0.08060496523750088
0.18885148938643903
0.11557118153033114
0.02338626431611122
-0.12552502269032934
-0.15298536590547643
-0.2516878944506613
-0.1815977019737936
-0.07964557870080852
0.11795676663946568
0.24649508337163192
0.2861868819533015
0.3488272393677142
0.28553846304205405
0.11753812762830831
-0.5161444751002239
-0.7078566697987877
-1.0456223906203403
-0.008204624925443469
0.6042084370297254
1.214393481841061
0.8105659706192058
0.11100465322055444
-0.8371726377528095
-1.0317536463240664
-0.8825539023503755
0.0060878545580670095
1.4279155186026777
0.7509964671304961
0.29789161407042847
-0.2522678879545066
-0.6360106610172815
-0.9641980122598721
-0.08701762430894908
0.21875096635607752
0.6362874886189108
0.2776616721328555
-0.1503954534588174
-0.1719197938413955
0.04665969174791039
0.49783916568759917
-0.25602826946537394
-0.2663705485310061
-0.18211486355742226
-0.2400188841061304
-0.4665744339264889
0.7083750843353642
0.6324989134124056
0.017144485705751746
-0.060856517689190925
-0.1376496329556988
0.07468140320222527
0.1307142856091282
-0.11194578297069593
-0.8742379680849347
-0.8659793534680715
-0.5321566011748602
0.4671412298911627
1.7605270950784404
1.3842538064313912
0.5506517196031819
-0.31360299485518844
-1.0658982802455719
-1.7160232914109965
-0.9109137511464026
0.12426089296985918
0.3716120886245861
0.7437438002842661
0.7765732431075507
0.9299368413225129
-0.07372221282647065
-0.2591861869253452
-0.562531216138993
-0.569564596060818
-0.4536961368000066
0.06669618145655867
0.3427079340965764
0.38472020720110134
0.23920739825057016
-0.034640632080289474
-0.18034517063561267
-0.15026267867066845
-0.10598250392663379
-0.017739652696126696
0.13438316697683442
0.15773206263247339
0.045197397142631754
-0.023399260732818436
-0.07594066625467777
-0.14022679067597485
-0.03667605127314631
0.025832491647183733
0.049887024161906185
0.04602654120749478
0.027739462840262307
0.006997745123336046
-0.008412805964872191
-0.015495598823989222
-0.01506746765599528
-0.01002986040449582
-0.0036661531312531036
0.0015345617985283195
0.004365005808643397
0.0048050107838235045
0.0035904584800671656
0.0017048256119192803
-1.9350331383981233e-05
-0.0011051171438003534
-0.0014493131545054365
-0.0012172527865045842
-0.0006922864789735625
-0.00014395747444986536
0.0002507275688713425
0.00042773010714048797
0.00041321196347328154
0.00028086870362347327
0.0001105777693332519
-3.850529853891684e-05
-0.0001367642342202504
-0.00017872786511541122
-0.00017120570121223597
-0.00012281128266993248
-4.002335967254086e-05
6.920911327902834e-05
0.00018744601387189996
0.0002812847445051067
0.0003029460735209019
0.00020411194079998133
-3.8827407090200396e-05
-0.00039562494770806607
-0.0007627389440245286
-0.0009697483658267993
-0.0008237320592237334
-0.00019153611841291737
0.0008991154154988067
0.00217907182179296
0.003129785044185427
0.0030941803815904352
0.0015207603031426676
-0.001702099919384355
-0.005934301333013199
-0.009661940900555353
-0.01073682207259403
-0.007072860236126364
0.002271310367820942
0.015918604985612126
0.029408260850351954
0.035409859304966124
0.02531311575937958
-0.007879721259942586
-0.06611635803797282
-0.14370369786379628
-0.027109577079437158
0.10200938062478504
0.061208026006230945
0.061208042838381646
0.10200943028621308
-0.02710949918656109
-0.14370360501224552
-0.06611627629501883
-0.007879688338044501
0.02531306024680646
0.03540969221464055
0.029407997728576944
0.015918316550361505
0.002271121115684283
-0.007072801341648836
-0.01073640062613512
-0.009661153773194308
-0.005933323288017789
-0.0017013012047309027
0.0015208826474381956
0.003093173768627425
0.0031274902325347203
0.0021758717922087593
0.0008960614990288073
-0.00019285431633610413
-0.0008216575636956217
-0.0009633343182713957
-0.000752627439032813
-0.00038465291867329464
-3.190252234417419e-05
0.0002012279278004756
0.00028598108029996507
0.0002504263779537939
0.00014983766593664838
3.946692632007043e-05
-4.267617985779673e-05
-8.134393834275263e-05
-8.044543811080468e-05
-5.479196423417976e-05
-2.1474456990985613e-05
6.303130516350118e-06
2.1913630586081695e-05
2.4957785264551628e-05
1.9101476075011674e-05
9.439640764321174e-06
3.8270498906781467e-07
-5.467306031353694e-06
-7.46398999874992e-06
-6.399907954828025e-06
-3.7309683625101596e-06
-8.788162162833799e-07
1.199888246235128e-06
2.1410095909090393e-06
2.0688724701459303e-06
1.378101600409024e-06
5.112970392714237e-07
-1.9659921901205325e-07
-5.832080213456689e-07
-6.45971356265473e-07
-4.842539011349578e-07
-2.3092634576320775e-07
1.37251721580636e-09
1.4792903370513266e-07
1.9453300255540058e-07
1.63360817599426e-07
9.269692082329162e-08
1.90798811742269e-08
-3.3450066491233713e-08
-5.6257223080909355e-08
-5.314576686362452e-08
-3.4604829827495106e-08
-1.208259612770763e-08
5.935754739125965e-09
1.5485745436040417e-08
1.669954683453133e-08
1.2260223818519512e-08
5.628243191245856e-09
-3.2309720587059964e-10
-3.987991251257331e-09
-5.063355079416189e-09
-4.164896968717188e-09
-2.2976871727239907e-09
-3.997539754604073e-10
9.257954032229201e-10
1.4758354205266574e-09
1.363664153093405e-09
8.674639628014158e-10
2.8300157942169215e-10
-1.750575231585223e-10
-4.1030192091928344e-10
-4.312076418097823e-10
-3.099740330428367e-10
-1.3660707035522112e-10
1.5686471850895265e-11
1.071570544808654e-10
1.3161974354194322e-10
1.0605585203887436e-10
5.680967206122444e-11
7.934997363304403e-12
-2.546424839882374e-11
-3.865685803421299e-11
-3.495015484232713e-11
-2.170644491639074e-11
-6.558025504575537e-12
5.071916120274086e-12
1.0849069599362542e-11
1.1121473996685053e-11
7.825867505000217e-12
3.3002957979147766e-12
-5.923345786248235e-13
-2.870657544944035e-12
-3.4171067050371865e-12
-2.697335416138478e-12
-1.40082027155055e-12
-1.436632205645462e-13
6.965769845730767e-13
1.0110095208879645e-12
8.946951072418698e-13
5.421001722338681e-13
1.4994942918475812e-13
-1.4494725894063106e-13
-2.8635126449301894e-13
-2.865411371873896e-13
-1.9732014094124628e-13
-7.934678964297711e-14
2.003220455234535e-14
7.665692856051201e-14
8.857233211255287e-14
6.848288120978931e-14
3.4407116925092725e-14
2.1073682483860475e-15
-1.8996721298907495e-14
-2.6436059415795515e-14
-2.2909374003283986e-14
-1.3543758050066892e-14
-3.4040845954672007e-15
4.063489117396633e-15
7.511637149732962e-15
7.341206525137189e-15
4.934238368448754e-15
1.862717135748255e-15
-6.71330581107683e-16
-2.0747926800333596e-15
-2.3248663591685293e-15
-1.7668706172133902e-15
-8.715694215489904e-16
-4.2476619488563874e-17
