0
0.00014562334037801887
0.00014562334037816012
0.00014562334037796678
0.00014562334037733997
0.00014562334037633692
0.00014562334037523364
0.0001456233403745156
0.00014562334037476036
0.00014562334037640604
0.00014562334037945482
0.0001456233403832186
0.00014562334038625748
0.00014562334038665316
0.0001456233403826764
0.00014562334037374912
0.00014562334036139743
0.00014562334034972082
0.00014562334034486562
0.0001456233403531839
0.0001456233403782225
0.000145623340417347
0.000145623340459452
0.0001456233404855173
0.00014562334047338757
0.00014562334040687096
0.00014562334028718024
0.00014562334014243733
0.00014562334002943308
0.00014562334002228024
0.0001456233401859433
0.00014562334053891288
0.00014562334101711846
0.00014562334145758234
0.00014562334162132934
0.00014562334126704685
0.00014562334026865147
0.00014562333874430778
0.00014562333713996379
0.00014562333619983522
0.000145623336772766
0.00014562333945463183
0.0001456233441478509
0.00014562334970697
0.00014562335389494777
0.0001456233538520185
0.000145623347143589
0.00014562333320683417
0.0001456233147145002
0.00014562329813575138
0.00014562329275160548
0.0001456233077131635
0.0001456233474563705
0.00014562340677907738
0.00014562346781050715
0.00014562350146503998
0.00014562347526670094
0.00014562336738605343
0.00014562318357772922
0.0001456229703550879
0.00014562281572520349
0.00014562282990159074
0.00014562310387825647
0.00014562365343057435
0.00014562436768166337
0.00014562499023166824
0.00014562516105029826
0.00014562453375608665
0.0001456229542417745
0.0001456206482231237
0.00014561833046307504
0.00014561713638151178
0.00014561830666170105
0.00014562263691679826
0.00014562982726450352
0.00014563799425508018
0.00014564367991854387
0.00014564264201577623
0.00014563148947819088
0.00014560984763471526
0.0001455822936672246
0.0001455589750997196
0.00014555384211032443
0.00014557997980420328
0.00014564265751693115
0.00014573219547369466
0.00014582005823406322
0.00014586197307124994
0.0001458106139806891
0.00014563715259200327
0.00014535620192250798
0.00014504382954026067
0.00014483574018771261
0.00014489501324283465
0.0001453476232766299
0.0001461988206775343
0.00014726047210468864
0.000148131530160838
0.0001482720950366618
0.00014718889286227302
0.00014470543332117364
0.00014123285833871912
0.00013790840374065962
0.00013645639590343557
0.0001386792375584688
0.00014561446864181445
0.00015657949786571746
0.00016850957965971797
0.00017608550249106447
0.00017304643438119128
0.00015472883273369838
0.00012129184128954228
8.043809410899916e-05
4.799617522801731e-05
4.483651044386799e-05
8.951237807446465e-05
0.0001877713601699779
0.000322289609151455
0.00044781728255651636
0.0004972682302038418
0.00040210509691997165
0.00012527128784834717
-0.0003022763718863354
-0.0007573460695683955
-0.0010316776608307765
-0.0008851726354564686
-0.00014566802857325745
0.0011669431637941448
0.002739354712168904
0.003949528401640544
0.003995055830781792
0.0021855020535821784
-0.001650098916401977
-0.00677491284291843
-0.011379026043907992
-0.01285192723435354
-0.0086212914502257
0.0025084713671336073
0.018852780246648472
0.03476211277584971
0.04063235623146665
0.024490895110726683
-0.024897938157540413
-0.11422070210501409
-0.04253112283786728
-0.0003481061840917332
0.028423098181636627
0.06240743077248207
0.11822822779187005
0.007430378132021188
-0.0640586561678992
-0.09429808678420548
-0.08317710113029897
-0.03164351068853382
0.056773859493717105
0.17297059005568655
0.10004442790516857
0.014241290983355519
-0.10996428501303387
-0.09200283923095479
-0.1377387490982967
-0.03581798171532427
0.04022581638435791
0.12459405713101016
0.04923956205502424
0.03487664899962171
0.08598991241540095
-0.008787301817147243
-0.07145534112237692
-0.12671319128079328
0.005721561258176197
-0.08419503937870053
0.0034303962999395555
0.07460782336975076
0.13546827759037341
-0.013203069080032194
0.021493583743812543
0.02607332515791609
-0.014308305302897655
-0.10910917383427643
-0.05638931419071633
-0.0399200233091224
-0.030930835186088947
0.0054918119738544555
0.10098288386225471
0.0743037226702441
0.12480222772741323
0.031448402232775056
-0.041769069597261996
-0.13554618197372226
-0.08340667251582347
-0.10226345167735107
0.011584770486686088
0.08015051571898607
0.13662294749071935
0.01636237982167369
-0.0510128024978994
-0.0467518355945774
0.034821558943032876
-0.013728510654853233
-0.011570972952766559
0.012814618554792143
0.025021413527035758
-0.010917389963456087
0.07280397781078399
0.053820239124797366
-0.07434008011885573
-0.09761024817349688
-0.18023756177209735
-0.06912235472600488
0.0957600082744826
0.16674870624127075
0.1740006127747593
0.11624175527475178
-0.03958807391391256
-0.1493894455162823
-0.07667144361205419
-0.07605166723045387
0.019630552597440773
0.005465191537334169
-0.09705714790043743
-0.048506848391218216
-0.005031574521153707
0.06597153554112012
0.17202200384140834
0.2882260160947929
0.16046773626417085
-0.07947898687453814
-0.2898400723259722
-0.2930856103753861
-0.25805773627325185
-0.09780838369602457
0.11425810187749777
0.31397606280401663
0.2110813640127233
0.260122653503669
0.046531403518342444
-0.10853225890700509
-0.12707193837172584
-0.14412081993781536
-0.27771147799043244
-0.006946868729399375
0.03721915036961455
0.0682348593276639
0.13078136572362523
0.08372643331302257
-0.015409649955636907
0.07918761221391496
-0.0021944212641385403
-0.04278618420201628
-0.03366983957684517
-0.16741855822810228
-0.03399085535772255
-0.02085534184670518
0.0824980341345566
0.07755741276151944
0.15058339562164316
0.07052411477032507
-0.007034649870415533
-0.13035619235575996
-0.13937394798209482
-0.05510204110605008
-0.07447072204732091
0.02759223154111895
0.0896759658788312
0.15205774949498668
0.045581905491224116
-0.015269555906545829
-0.033463666868752136
-0.025193834450424633
-0.012411446862054469
-0.014641979011754513
-0.04229653927037793
-0.09305350878209614
0.04786431369878498
0.0036026203185376424
-0.0011118243884475417
0.052474206320909496
0.1710561054308072
-0.05343533534246095
-0.042237142713322184
-0.02437938138492412
-0.029364939956524387
-0.08022121345632788
0.011205703737170412
0.04582998829752825
0.03597131625574711
0.002025985431314028
-0.03172157361542893
-0.041413622450082434
-0.007771226172211703
0.08014408279694632
0.02211387961791118
0.0057359974066781595
0.007854625822527887
-0.0015295715189384267
-0.05357836485866608
0.02566281972439966
0.020877805990285585
-0.06865421097514338
-0.027754301187399626
-0.027140654430902494
-0.028430009546994234
0.008288252711773247
0.11583443944866441
0.11249481792129012
-0.001999932882817807
-0.045754437547605574
-0.04958183099306803
-0.04935392635320127
-0.07833044984654422
0.03852917426236891
0.08746948678678623
0.0664976926891801
-0.015352184196155673
-0.13936535936588165
-0.0793754122073679
-0.005710329984153501
0.10889115038330893
0.08259339507839855
0.11941328110889396
0.008144258593907907
-0.07388070553901878
-0.1534446609449407
-0.05339013859662221
0.013087426525459418
0.04404842723135522
0.04654405898964524
0.03217751656441522
0.012557908413710323
-0.00385639568220461
-0.01297028229518908
-0.014583372228707779
-0.010951468250979285
-0.005149350072087235
0.00020114599285925714
0.003585885224268269
0.004663831953767165
0.003941578528032235
0.0023030275365730447
0.0005943881148046032
-0.000626388022366857
-0.0011580486980502938
-0.0010879757827397842
-0.0006590268272339434
-0.00013675032136953219
0.00028173352639420963
0.0005040620602342411
0.0005329563631942118
0.00043045266900208843
0.0002767746724601757
0.0001386390354807873
5.3412650391220043e-05
2.8240109540749776e-05
4.891554161056631e-05
9.215368023160608e-05
0.0001361853705893041
0.0001669889626718941
0.00017981727047711778
0.00017727171759708972
0.0001657922884585094
0.00015223962268286608
0.00014160120251038554
0.000136124066739875
0.00013562058517001407
0.00013842112566265518
0.00014243896945769893
0.00014597418266288657
0.00014810164763940506
0.00014867497817528644
0.00014808616856892208
0.00014694563358738164
0.00014581164829589774
0.0001450354126240389
0.00014472758898545417
0.00014481213502960433
0.00014511858499263467
0.00014546988330285364
0.0001457400151793747
0.00014587455593441473
0.0001458813497072934
0.00014580519453825605
0.00014570030146908376
0.00014560993313502435
0.00014555693430284464
0.00014554410698413924
0.00014556069762348335
0.00014559072876367513
0.00014561989975867112
0.00014563943025017103
0.00014564677071864947
0.0001456441091429531
0.00014563594883361695
0.00014562685385469506
0.0001456200035199889
0.00014561670956686132
0.00014561669301115676
0.00014561875535172447
0.00014562148999690763
0.00014562379730032054
0.00014562511473119937
0.00014562539502582369
0.0001456249316888336
0.0001456241423190551
0.00014562339281315754
0.0001456229022523283
0.00014562272850047987
0.00014562280936534767
0.00014562302608461954
0.0001456232611439896
0.0001456234344798547
0.00014562351471250894
0.00014562351106933128
0.00014562345559741382
0.00014562338476839805
0.00014562332643099787
0.00014562329422373674
0.00014562328847301568
0.00014562330094945158
0.00014562332061907588
0.00014562333825234556
0.00014562334886048225
0.00014562335193644236
0.00014562335012463298
0.0001456233471841207
0.00014562334604366806
0.0001456233475213248
0.00014562335001582969
0.00014562335022663868
0.00014562334472277222
0.00014562333193975482
0.00014562331395075913
0.00014562329720478644
0.00014562329147667816
0.00014562330665895967
0.0001456233477909257
0.00014562340974491698
0.0001456234739383128
0.00014562350980399467
0.00014562348300519264
0.00014562337023319585
0.0001456231771121102
0.00014562295220239013
0.00014562278795614454
0.0001456228005967324
0.00014562308661592488
0.0001456236637590069
0.00014562441657538922
0.000145625076013155
0.00014562526286850873
0.0001456246107370022
0.000145622954017576
0.00014562052607648598
0.00014561807581075728
0.0001456167978047463
0.00014561800230491673
0.00014562253663846545
0.0001456300989417688
0.00014563871989889385
0.0001456447654167708
0.00014564376128600338
0.00014563211052491868
0.00014560937520893965
0.00014558032590247303
0.00014555561380486402
0.00014554993494517353
0.00014557713545199208
0.00014564289461689735
0.00014573718574935248
0.00014583010127620675
0.00014587505226566227
0.00014582204593570526
0.00014564034732017882
0.00014534480386090752
0.00014501498575654115
0.0001447935393932515
0.00014485249994542902
0.00014532556742797163
0.00014621996594452145
0.00014733947297583175
0.00014826303473382716
0.00014842177020533086
0.00014729352271637303
0.0001446873086396639
0.00014102966076217163
0.00013751285074274077
0.00013595177425768456
0.0001382509273069305
0.00014551784248399222
0.00015705469468345416
0.00016965431746048356
0.00017772425567756986
0.0001746583369467776
0.00015550392436760983
0.00012036243147611909
7.727286763396726e-05
4.285727678407991e-05
3.911090363824054e-05
8.568120399988286e-05
0.00018882227999267667
0.00033053842991622253
0.00046337672063572063
0.0005167136220805244
0.0004181089343806274
0.00012794902145006666
-0.0003219792247719578
-0.0008027099063909498
-0.001095240694210159
-0.0009461731174485564
-0.00017255637014884875
0.0012072176211589132
0.002865926651109172
0.004150108646727529
0.004213746984966599
0.002325031889886064
-0.001704458893448737
-0.007108944714963174
-0.011990495813288985
-0.013600603825173533
-0.009217953473264654
0.002446012358129656
0.01966539052693079
0.0365576109724328
0.043097640149120424
0.02680297991279132
-0.023960356989124472
-0.11590327101858224
-0.04749894552286327
-0.00801393858661936
0.020344016635844783
0.057760006466792475
0.12141404360990905
0.021500217330518587
-0.03986187282844047
-0.06676934453245323
-0.06612407714134691
-0.04472499831525042
-0.008463604577688758
0.03605771081944341
0.07860624003466962
0.10318542471127604
0.08882700742961129
0.014432402052936779
-0.1330854269069538
-0.15017642889187194
-0.21161688777044893
-0.07264721212938417
0.12060871593306366
0.2149987477293815
0.2341984945228121
0.169215125355186
-0.019927001945138377
-0.1911813824524292
-0.20075908047327648
-0.28421339971550436
-0.04557591293079844
0.14158030862983356
0.12220662672312649
0.14225220621748852
0.23251173435609046
-0.0004591689721032611
-0.1740208134506113
-0.12130077399749387
-0.07962990141167245
-0.08049425930498477
0.05581540761883756
0.12046144842049084
0.11317892690169991
0.039140526015720024
-0.09231054498490238
-0.0668173318362685
-0.06361199144665196
-0.055763921976373
-0.013514449997009374
0.08946368475083913
0.06867203142874215
0.12299795737681157
0.033094282319341035
-0.03485863557402335
-0.12081967882443315
-0.060608780174399
-0.07704226652479765
0.024854889962348296
0.05760615669948447
0.04688777175347452
0.024982233012043713
0.024150864767219546
-0.12875168514339783
-0.016032208636020444
0.16862637354930876
0.019578560595494114
-0.07932281879870003
0.048957431559995414
-0.02011607565584461
-0.1072424927769262
-0.02527868388282912
0.022237885403807545
0.039790544782196326
0.0365999787094373
0.022816173345316104
0.006592410601624178
-0.00719073555241612
-0.01658523700487083
-0.02126059217363347
-0.021104825491034342
-0.015519530873809896
-0.0038010556516092633
0.013523485048131023
0.03304038336954763
0.0474271284094044
0.04599763196661467
0.017297110140759308
-0.046617973021713166
-0.14557419626973983
-0.06836719112151789
0.006675662376506822
0.107179888943244
0.059601458047377855
0.08210515491492393
-0.02000758773905873
-0.055031809550923544
-0.04210161185765149
-0.006412397116425875
0.025932271757319922
0.032353845055871897
-0.0029265738879336806
-0.08693554190247568
-0.0175789171540579
0.014832041969168982
0.024224570634027456
0.024329784229522207
0.024443474507302707
0.026674701211786663
0.025529315424091786
0.009987338039774703
-0.03252112384476783
-0.11151081517990037
-0.029833492681080133
0.017567986904941345
0.04213535829351832
0.05822656489354915
0.07933276613385273
-0.0844754450636116
-0.027187817932785102
0.05405441754207691
-0.0395664927939431
-0.10749178961986294
0.05020874965081847
0.0316642880080609
0.03143263144393978
0.039270414798252884
0.04061143675078324
0.019309293068307015
-0.03778036049087481
-0.13580004884171168
-0.06852354088664495
-0.018484044600182666
0.03875140483291308
0.12733289011810567
0.0635871467621028
0.05123646129177455
0.08143393520902056
-0.062244583092341654
-0.19580711136712764
-0.1273078677841626
-0.05338772737256466
0.038060255718774624
0.15986521875429316
0.115626514014769
0.09240925129347333
0.0597378733029652
-0.023957649515541298
-0.1992669509295701
-0.09223297697666899
-0.1041906146241049
-0.00875372854117151
0.042903390422710685
0.11022845809347567
0.04875363769071809
0.09723909905383848
0.07002834923061835
-0.04370246071641309
-0.07430013802274636
-0.06195250842458184
-0.046261933493254755
-0.05808460211736125
0.08460166616216923
-0.023388377053945912
0.022320647298844254
0.030951593492635175
0.012002920734189883
-0.027955616969864743
0.1136056014319799
0.03636385982951198
-0.05977189049841437
-0.17088270418897933
-0.08649743532911686
0.009857409200187024
0.13652524581333259
0.10760278151186842
0.12787446843070538
-0.008446809619125945
-0.1143614250152183
-0.20382479473884058
-0.08596701783973204
0.03709457834142769
0.16788331602098738
0.10841503823027529
0.05566128107532354
0.0005144476997222092
-0.06899156511396203
-0.16187645063296657
-0.07893209352798768
-0.010885306307253609
0.05875763776617187
0.14727892390609865
0.06559030936457771
0.01350021938445916
-0.02069052711790335
-0.05638579699237431
-0.11453118339836216
-0.01162120558149738
0.04409865876900553
0.05350557723202432
0.025133451058469737
-0.027444671882465396
-0.08846040989261772
0.057300606804633204
0.021889747794456755
0.012005420974472521
0.027829370583920047
0.06345247113245053
-0.09103130209767157
-0.046362153231624695
-0.011002739408217097
0.01079557850593611
0.019212555820480676
0.017637906033999156
0.010794267690651109
0.0030144360327993705
-0.0028217740278572946
-0.005571000890279821
-0.005503169070394471
-0.0036782295282854977
-0.0013169019774700857
0.0006420940186913411
0.0017318662282911563
0.0019294558495887675
0.0014995477095905397
0.0008059240599205484
0.00016136622986887686
-0.00025131832891606945
-0.0003886653066279281
-0.0003089854670505481
-0.00011683094427521366
8.657698832386504e-05
0.00023368296821182292
0.0002992972614183059
0.00029289114233572815
0.0002429141583757347
0.00018095321150157656
0.00013073101868135532
0.0001035971720266674
9.953333647691623e-05
0.0001113340334772988
0.00012949308649489203
0.00014601286231991924
0.00015634411404751616
0.0001595380959363152
0.0001572200827016557
0.00015213722969316385
0.00014688991664628712
0.00014317478802886718
0.00014158760295581682
0.0001418417747313545
0.00014318178715396355
0.0001447910032003973
0.00014606876044478587
0.00014673835373493497
0.00014681434193274367
0.00014649103811693184
0.00014601590108603325
0.00014559285306794235
0.00014533468089114314
0.00014526133668811745
0.00014532781089707773
0.00014546202529519
0.00014559725008564072
0.00014569094767125944
0.00014572915209968098
0.00014572033074474388
0.00014568450507419342
0.00014564276407793474
0.00014561029612685224
0.0001455938199222123
0.00014559260001536
0.0001456014137591953
0.00014561382783546782
0.00014562464895844822
0.00014563108785659699
0.0001456327461366291
0.00014563086243609305
0.0001456273249680542
0.00014562384416655396
0.00014562148462365102
0.00014562057031709675
0.00014562085558464242
0.00014562181093138492
0.00014562289237425284
0.0001456237163825884
0.00014562412053768472
0.00014562413297115705
0.0001456238936179765
0.00014562356953787443
0.00014562329288604042
0.0001456231325492159
0.0001456230959149743
0.00014562314914165158
0.00014562324280451664
0.00014562333294969792
0.00014562339269827605
0.00014562341429155977
0.0001456234044983894
0.00014562337729323238
0.00014562334709559738
0.00014562332442197528
0.0001456233143061781
0.00014562331680629997
0.00014562332852488397
0.00014562334423422768
0.00014562335816760007
0.0001456233650160065
0.00014562336092713396
0.00014562334473147717
0.0001456233192624209
0.00014562329216920652
0.0001456232753065182
0.00014562328188624836
0.00014562332125435138
0.00014562339235182518
0.00014562347829125743
0.0001456235454195082
0.00014562355001607294
0.00014562345383680621
0.00014562324602797178
0.00014562296432613087
0.00014562270467261449
0.00014562260775676729
0.00014562281570366426
0.000145623402904196
0.00014562430005890273
0.00014562524492976416
0.0001456257995784595
0.00014562546419409538
0.00014562388748368138
0.00014562112599243564
0.00014561785295704393
0.00014561538447110058
0.0001456154040280511
0.00014561934611889363
0.00014562754476260995
0.00014563843014851145
0.000145648197225901
0.00014565138349964608
0.00014564259901526702
0.00014561922473190465
0.00014558431155767886
0.00014554836781992175
0.00014552850908493344
0.0001455438583374987
0.00014560728698907285
0.0001457154430017842
0.00014584098624181472
0.00014593213876778742
0.00014592401749540773
0.00014576300314836233
0.00014543970269107398
0.00014501924867094682
0.00014465245765439233
0.00014455123869799768
0.00014491962062662624
0.00014584862892938109
0.00014720583607804807
0.00014857092520003377
0.00014927573009500318
0.00014858966044441045
0.0001460435173205429
0.00014181244275623294
0.00013700360200698402
0.00013365152729547165
0.00013425373542580197
0.00014080863624696283
0.00015354098271408846
0.0001697616238721602
0.0001835014492446673
0.00018654928829281057
0.00017119716761406265
0.00013433101450756796
8.163176806796133e-05
2.9880589083965735e-05
5.131663513731929e-06
3.525446989749468e-05
0.0001372526305188492
0.00030257693591052436
0.0004865061927985971
0.0006091901572909466
0.0005746095059317255
0.00030850873185496485
-0.000192378853828357
-0.0008175164650894641
-0.0013309746623319334
-0.001414891441376074
-0.0007784926610739343
0.0006830438347339464
0.0027293129857526776
0.0046933632039710795
0.005563808882170702
0.004284930233073389
0.00025344905604505926
-0.0061190264000210185
-0.013018361712803052
-0.017311384014098312
-0.015341597649681746
-0.004476587453869778
0.014884393013077014
0.037503225342830425
0.05260206070245344
0.045107047424058536
-0.0008351432617577154
-0.09664184344781623
-0.04392229916104719
-0.03100006045601903
-0.03304494407579304
-0.016444419742579437
0.0533064524514655
0.0020623767408616276
0.0383770329999697
0.1483951212199005
0.09643762055944735
0.03225741810916886
-0.09595383800150675
-0.12600972550351106
-0.26856644134004765
-0.10141216376202071
0.025768325776007798
0.17684535548467217
0.20952441174581618
0.15732881638784646
0.01959885053437023
-0.03727564837732723
-0.06829236650660903
-0.13221797723809395
-0.07371929178183459
-0.1106124225580847
-0.02970122262449596
0.007969919760858014
0.05431959018211551
0.15787683671736158
0.14886922942705572
0.0302857278524259
-0.022495572366846215
-0.05376723925473661
-0.11413845375696988
-0.04610150588206489
-0.07271923760114657
0.007747610654274298
0.02041844571167184
0.006584518975799669
0.013000380781300148
0.08049693426996901
0.0346487184244374
0.08066954236950939
0.003725548447198906
-0.02549732728709906
-0.04158911473889448
-0.07431069132412103
-0.14070140635436162
-0.04194483097143869
0.033952021906671195
0.10470371239249358
0.18451466793354585
0.07692764167923002
-0.027264417859712883
-0.1464128033768686
-0.10075298084491864
-0.1050577185887547
0.03565433724880056
0.1262311072513597
0.1785509558808664
0.008248732112210257
-0.16704715850285468
-0.1279640079743033
-0.053893455270898026
0.07434824345433742
0.06946014848313234
0.13203711100240084
0.04724935307767033
-0.013964857454632782
-0.08881861818267403
-0.013339150048564445
-0.012617813566576715
-0.09354302064695916
-0.04210687429236338
-0.02619440693365002
-0.0034165381329255206
0.06787335696391994
0.21742872203048302
0.055304021598980006
-0.029949178713260093
-0.06651143564269393
-0.08989551866387253
-0.1325357123956494
-0.016018571894699428
0.05186293477376006
0.07523802076734895
0.06536041728195074
0.035532023843386065
-0.0021666644009640584
-0.03763714625393546
-0.06174202349076619
-0.06508498494307907
-0.03816028311438203
0.026399315976531057
0.1300576939993287
0.06484033085123407
0.01211541353131659
-0.05502506981813945
0.03395195221219236
-0.14560801145840283
-0.006819122995252807
0.05284293639581586
0.051970230429910426
-0.17801619601417212
0.0008681293329344208
0.024845830318896645
0.11950489246214308
0.09269996619890816
0.1318553819432887
0.007355279519104421
-0.11842980817988027
-0.2794189984483186
-0.09591573962846475
0.029429413603214293
0.1083908835765044
0.15880551583098132
0.19561276451189877
0.025835631245842795
-0.15026839456840158
-0.13304460679005287
-0.11613063973924656
-0.08247318026137983
-0.006454553441431231
0.13807501663808705
0.16691461029401652
0.0763622540916929
0.0399473283133704
0.012995659232533131
-0.05598742063792148
-0.21065620917957745
-0.07369424955932832
-0.03965725045838774
-0.0762959653961205
0.06598407612901536
0.23960278113868655
0.08500390669960736
0.02038708436551575
0.0390002294797766
-0.08589519806277401
-0.19099212671052984
-0.11186737324133929
0.12543806069620309
0.10837339539084195
0.03787869238129569
-0.0737713279816463
-0.005857991174325229
-0.13262701741502508
-0.027708889809877926
0.13036269607175377
0.15263246564166066
0.0362907357814858
-0.03480075044662719
-0.08535394834069424
-0.14142982594375544
-0.02360280554279922
0.05712657393879344
0.10000328226491716
0.11285256996577134
-0.09016874539743562
-0.09038533911525251
-0.06636413616553172
0.0031710322027098748
-0.06546877690794006
0.1330390038709301
0.18791792711247363
0.07084872300991493
-0.05981230629346871
-0.04927599457844572
-0.13368880740760594
-0.12887225533281105
-0.024485274572861447
0.014138725189946202
0.03681573792034434
0.09468168622839601
0.02570708543037826
0.04357618929486678
0.13295904027792183
0.05265212348333287
-0.05376457332099223
-0.042076518365265374
-0.15047357203719322
-0.18643682591936317
-0.12181785192452885
0.10177266395387019
0.15847376872889204
0.11897447087122898
0.03255053855493902
0.11549042464014049
-0.05144009962912529
-0.11674969557047082
0.05429679559790137
-0.005146431861043125
-0.14924265963421185
-0.0089710960090379
0.012729533608062744
-0.060532124702027706
0.01420122008734364
0.0881713012888135
0.008571592554660605
0.007750733252868133
0.09637926252505805
0.06215488930242833
0.07448725147896812
-0.10578010689526936
-0.1141315634740128
-0.17141435194253996
-0.07804248557587495
-0.015702495350613105
0.24395553275528561
0.12707279504513233
0.04671083617659968
-0.0024951287449453017
-0.04259882661037923
-0.10486655991904717
-0.019743546968162558
-0.0077440802506597425
-0.07385820353323674
-0.006669757903310754
0.017985197604736665
0.030122690719995175
0.05760665158463959
0.11949905456880465
0.022857364536826685
-0.036047232475774814
-0.06673663737936411
-0.07791820008442543
-0.07211184145955712
-0.04386631075484917
0.017545633928382928
0.12191925372127052
0.07091621089036282
0.05299481781996614
0.04293862682467057
0.006784972429954136
-0.08902727833804719
-0.06708260154540739
-0.13054023127751266
-0.05999921312389145
-0.017360928635753115
0.0438901215666994
0.1648841906656379
0.16847849677519414
0.05177151864409165
-0.01318523370533485
-0.07061107414501289
-0.16724746486708147
-0.13844048823572827
0.0013560188749722972
0.061045608441562794
0.06852442552518992
0.06201490853528547
0.08050123283698037
-0.043976316422751786
-0.09092954318734275
-0.05321250237985432
0.0629682667755216
0.03907117896324968
0.04637012738161257
0.04988245416250713
0.01441150775925196
-0.08795080039801532
-0.07064222342302336
-0.1282017603340629
-0.03671328090058192
0.04017369480803471
0.1410283475593768
0.09547024453630314
0.11595832657688931
-0.004542916738540444
-0.08838949178729213
-0.16452212048621329
-0.058798497075547844
0.012980765337845888
0.04734620666006522
0.05097668314845757
0.03595057737493983
0.014739224131058846
-0.003361559597345606
-0.013696567207418782
-0.015855794735520734
-0.012172722390577883
-0.005957466408074419
-9.361734793469491e-05
0.0037078228837637405
0.005011389416840103
0.004323505856549978
0.0025876014027521174
0.0007286223950561265
-0.0006291383786913297
-0.0012466174093074551
-0.0012032272583946484
-0.0007552231832493769
-0.00019089325439103477
0.0002710826113146228
0.0005242514922074561
0.0005663641249849424
0.00046180680739278006
0.00029705239654596123
0.00014558517922386418
4.9757405792022846e-05
1.901675523098358e-05
3.90451042456225e-05
8.495165894797005e-05
0.00013291752827221783
0.00016722941851269802
0.00018220257752909748
0.00018027035459293624
0.0001682439568645565
0.00015358072271209696
0.00014182143178799334
0.00013556642262060095
0.0001347446473434727
0.00013761692170526378
0.00014193089189854337
0.00014581185130081484
0.00014820863867354047
0.00014891897289496473
0.0001483407747712874
0.00014712764781141445
0.00014589114233523392
0.00014502546455824922
0.00014466433172435976
0.00014473491338714913
0.00014505640520264535
0.00014543612348908672
0.00014573406791592504
0.00014588737550425766
0.00014590171634467337
0.00014582438060331838
0.00014571410381197718
0.00014561821076405608
0.0001455615707258683
0.00014554662411200817
0.0001455606431048752
0.00014558555672381814
0.0001456064849962386
0.00014561671151715723
0.00014561843991178785
0.00014561991890524025
0.0001456302978076416
0.00014565398765289974
0.00014568645722650027
0.0001457132726646435
0.00014571364500357443
0.00014566860549520454
0.00014557216791065446
0.00014544179060898548
0.00014532287025256763
0.0001452819263694861
0.0001453855316626017
0.00014566722796528197
0.00014609176575036825
0.00014653266411031226
0.0001467817808086485
0.00014660466870373683
0.0001458409625608587
0.00014452644832493663
0.0001429892579038106
0.00014185779340489217
0.00014192526874201472
0.00014385442013054218
0.0001477751457845875
0.0001529112156906757
0.00015743688114336926
0.00015876748173714243
0.00015439273229506044
0.0001431570155184725
0.00012661518408744183
0.00010983953698038749
0.00010096172225689302
0.00010894103522563719
0.0001396294742159957
0.0001910841390836505
0.00025000022112692705
0.0002916728667744073
0.000285554939257354
0.00020691971734959543
5.24244672631818e-05
-0.00014583073061013227
-0.0003155501257767674
-0.00035653767848963
-0.00017387339802562812
0.0002722656225300241
0.0009150425722952324
0.0015520761543600047
0.0018666612655491679
0.0015177598408118078
0.00029437005811623347
-0.0017044244292534188
-0.003937652761311788
-0.005432255790662276
-0.0050129002799241115
-0.0017686565108844129
0.004331023219710821
0.011878541107183591
0.01782070730869719
0.01788023821907113
0.007724076222251969
-0.015312512675744698
-0.05051251795002129
-0.09289985071736559
0.06608157823280239
0.03621907336142595
0.02528019476431143
0.036219073361419184
0.066081578232788
-0.09289985071738774
-0.05051251795004845
-0.015312512675769503
0.007724076222241365
0.017880238219087817
0.017820707308749413
0.011878541107267306
0.004331023219804061
-0.0017686565108213901
-0.005012900279939641
-0.005432255790794363
-0.003937652761563244
-0.001704424429569901
0.00029437005785272767
0.0015177598407617853
0.0018666612658611934
0.0015520761550905187
0.0009150425733272155
0.00027226562352995374
-0.00017387339756909714
-0.0003565376791168811
-0.0003155501278077566
-0.00014583073385875093
5.242446369113697e-05
0.00020691971502675082
0.00028555494005351977
0.00029167287210759175
0.00025000023100227244
0.00019108415127082302
0.00013962948405079364
0.00010894103649590211
0.00010096170936549458
0.00010983950806057479
0.00012661514408804182
0.0001431569777209904
0.0001543927166048537
0.0001587675087183823
0.00015743696226703304
0.00015291134240346538
0.0001477752821014426
0.0001438545044464968
0.00014192522932167511
0.0001418575778549492
0.00014298887022017574
0.00014452597965353427
0.00014584059686380044
0.00014660464597278725
0.0001467823113141991
0.000146533807525043
0.00014609331432986945
0.00014566865371116834
0.00014538606064453365
0.0001452807773858044
0.00014531963560039852
0.00014543685379801756
0.00014556697390677678
0.0001456655647167103
0.00014571550580101211
0.0001457219630292671
0.00014570165847861336
0.00014567198745563966
0.00014564384989133647
0.00014561976295878503
0.0001455966962228964
0.00014557156558243938
0.000145546602177214
0.00014553189463515124
0.00014554325811956306
0.00014559514022706246
0.0001456903293450922
0.00014581033249862408
0.00014591168543923646
0.00014593321933954045
0.00014581666532618835
0.000145537809820428
0.00014513872748088183
0.0001447457477800746
0.00014455606269952735
0.00014478148327749308
0.00014555230840926692
0.00014680561530844123
0.00014820402146028316
0.00014914263781462238
0.00014889194726822722
0.0001468850548182098
0.00014309151567787042
0.00013834374835903024
0.00013442764642219573
0.00013375587393287436
0.00013854263779560787
0.00014959727578820606
0.00016510995738756745
0.00018002335054097772
0.00018664002023414646
0.0001768834757206212
0.0001460584060512339
9.71271621880823e-05
4.369459746393627e-05
9.480565635731393e-06
2.2501352597017983e-05
0.00010375641395991291
0.0002528064655958842
0.00043554588110005887
0.0005814689244505753
0.0005972874692050281
0.00039967999107785304
-3.78629087285477e-05
-0.0006389998819669326
-0.001202461775673284
-0.0014287186042051998
-0.0010105294760730428
0.000220192042632707
0.0021289281776827595
0.004169514568721841
0.005414923484259197
0.00479399114004166
0.0015370829477039851
-0.004267671364433619
-0.011217961943426079
-0.016525110424973302
-0.0165886535820931
-0.008318731979611589
0.008993576495409402
0.03182837105266083
0.05147735476978752
0.054868717621087554
0.02767399481921099
-0.0406642187619922
-0.1514489227516383
-0.09309317148440877
-0.04155794654746921
0.03424512970942869
0.1633799378213078
0.1633967186674491
0.03428772288163672
-0.04151078436206212
-0.09307015809581481
-0.15147651217204133
-0.04075449085688455
0.027534719038189534
0.05472565761676689
0.051401927148300136
0.03189793250498827
0.009257259334996187
-0.00787977262566261
-0.016090619628773215
-0.016180296071634254
-0.011285737499181315
-0.0049540857002597005
0.00021155690382735387
0.003112013811882189
0.003998787732768746
0.003871625487237346
0.0037455573943950887
0.004067117467705192
0.004468691388642078
0.0039375333412658845
0.001356173924619946
-0.003749342457556314
-0.010523921172569452
-0.016494043209151203
-0.017981305497046043
-0.011366606472027278
0.004948301815816773
0.02842382404771541
0.05099519909788151
0.059405457127295266
0.037931328681476625
-0.026638494229501233
-0.13905501779517293
-0.09096359087044875
-0.060012464131975606
-0.01410949389616455
0.07982624392647833
0.24543845834868497
0.08888404719012252
-0.0032835637915833047
-0.05902254307994667
-0.1103261184245751
-0.1815568080370234
-0.08131839775132768
-0.0011349671092440027
