0
6.241352584482761e-15
9.683252697944053e-15
1.0350786495018296e-14
6.3046527915578e-15
-3.1970977198201687e-15
-1.6638436008139807e-14
-2.968188119381731e-14
-3.566843312360481e-14
-2.7551768877519314e-14
-1.1459866909938627e-15
4.115122725624837e-14
8.771890436716007e-14
1.1808634256864125e-13
1.0788478672351602e-13
3.859425036705349e-14
-8.993468633045222e-14
-2.4874439344198036e-13
-3.7714641222786173e-13
-3.9421229181117473e-13
-2.269087055195565e-13
1.4932780220999493e-13
6.703520757963261e-13
1.163433038338379e-12
1.3693521218241627e-12
1.0199509439770837e-12
-3.490423410448791e-14
-1.6848286676765133e-12
-3.462105766387209e-12
-4.5647799887486916e-12
-4.057872695910712e-12
-1.2569461625934833e-12
3.789171160480386e-12
9.89683779270837e-12
1.467223894778119e-11
1.498868057157556e-11
8.102096070785236e-12
-6.774538156804945e-12
-2.694741454647152e-11
-4.554907018403655e-11
-5.250028042580917e-11
-3.7613080882053823e-11
4.451531507270109e-12
6.873795171873172e-11
1.3646287070448261e-10
1.76246008961565e-10
1.522632256828165e-10
3.9321962080902757e-11
-1.58552500674595e-10
-3.9314183443607676e-10
-5.701465324194522e-10
-5.689115032322218e-10
-2.865895298794141e-10
3.0083748014324117e-10
1.0809670681543278e-09
1.781187515426883e-09
2.0100355123472833e-09
1.3811313594823847e-09
-2.934552962624597e-10
-2.795403761537905e-09
-5.371934066913698e-09
-6.796574108183894e-09
-5.698642151760371e-09
-1.1550403670113439e-09
6.595033945614998e-09
1.559333708217208e-08
2.2129849781459708e-08
2.155435840104651e-08
1.0022448116657038e-08
-1.3142187846941959e-08
-4.3275583640442186e-08
-6.957232953803394e-08
-7.684599301620431e-08
-5.047039173075757e-08
1.6087167150570324e-08
1.1334874311042971e-07
2.1120359855615658e-07
2.6177141143312345e-07
2.1268456456079201e-07
3.0291309285582716e-08
-2.7289676115137746e-07
-6.175760213881767e-07
-8.5796493946348e-07
-8.150620706511202e-07
-3.455794083932509e-07
5.667134529045053e-07
1.7292425035781684e-06
2.714336791102759e-06
2.9335350092610697e-06
1.8342623908244505e-06
-8.070205820450314e-07
-4.5836715099461304e-06
-8.293489817808789e-06
-1.0069416714407353e-05
-7.91375179458593e-06
-6.068279844367699e-07
1.1240319825800713e-05
2.442448872337695e-05
3.3224331943930716e-05
3.075833723573817e-05
1.1702769071546592e-05
-2.4180513499553156e-05
-6.897486354410514e-05
-0.00010577704002039364
-0.00011181138225456282
-6.624564091237817e-05
3.841428237391314e-05
0.00018488883317788898
0.00032526038787880857
0.00038680350134812113
0.0002934244006828619
1.2041365092175164e-06
-0.00046128400544431715
-0.0009649786418949306
-0.0012855992253051577
-0.0011588793198237034
-0.0003875218815508221
0.0010228544776938046
0.0027490200439296963
0.004125660180490445
0.004275704864490083
0.002421249062639466
-0.0016732806434251373
-0.007267686342343094
-0.012442925480076219
-0.01436598175099562
-0.010172485925258459
0.0015912035116251095
0.01931773156541587
0.03711110890016675
0.04473093043868673
0.029266284681970463
-0.02147082934834782
-0.11467088402835905
-0.0489328291338561
-0.013028222063891296
0.012066630113096475
0.04832400698546398
0.11470673218698642
0.02230335755864208
-0.027720162257560233
-0.04286767793468682
-0.03564259121538784
-0.019134420712992116
-0.0034574518296751067
0.0060484835086897
0.00875124563750651
0.007271428944993372
0.0053697777148598545
0.005894065393211375
0.009343540582282425
0.013400901441974528
0.013559956336422013
0.004728104812318223
-0.016609495233987737
-0.05037349193300698
-0.09189485766470286
0.06736805655702227
0.03735671865677157
0.02602723736640348
0.03646810566943556
0.0657859360650875
-0.09375911470957046
-0.051892371006622376
-0.017023741849701526
0.006094595667124145
0.016965780246276686
0.01832824353194517
0.014289048796007384
0.008515458712715057
0.0031360477792668935
-0.0014045253292467232
-0.005675725801738932
-0.010179817101399674
-0.014377604881405891
-0.016304346948588583
-0.013082291576117405
-0.0023375689018145032
0.015846709813289984
0.037171083950579976
0.05248974018707434
0.04913130868541433
0.014442070123393635
-0.05913017656460609
-0.16917176932084627
-0.10106979438679892
-0.030405948341277425
0.06976205298502118
0.21896039103553577
0.2208940355529244
0.060909155705858475
-0.08855357800034129
-0.25618223922531996
-0.2588337682054585
-0.0936488102701832
0.060620597787472766
0.23335460642480554
0.24759541324985643
0.10817199470645805
-0.002073275601530651
-0.11636737622053708
-0.2712679728543822
-0.09279560278912477
0.012879590372396305
0.06107737442341159
0.08302107893827314
0.11616168765845004
-0.005686718120002418
-0.05948170258406248
-0.036229338153738036
0.05919861234831725
0.010678933161347402
-0.005046852362425008
-0.013503216046285238
-0.037710423642432586
-0.09455308277360165
0.006798182398870086
0.06413510232255829
0.0798352615250649
0.058344049743431756
0.004959803706182618
-0.07362418003248367
-0.16796155815056066
-0.0655037525723302
0.04727970549018011
0.18049300704283977
0.13628227769655377
0.1072208589738318
-0.12046756776272215
-0.15960321719291753
-0.2140778412988116
-0.07456369955738258
0.07930977302265857
0.2708564783627673
0.11608287023952915
0.016245354268191736
-0.04337615183514431
-0.08830558305032528
-0.14604117041660528
-0.0375128980391594
0.02796655306487806
0.05302706587754508
0.048721731036958926
0.029301388658952862
0.007472072406205482
-0.008491941892190255
-0.015460661191693
-0.014474242718130293
-0.008936080471398596
-0.0027949223903747655
0.000728985471599241
-0.0003581729203957019
-0.007075856428911481
-0.020286353321893318
-0.04177924874049876
0.12483890119150425
0.07413030717603301
0.0003769093882033009
-0.09919867124824792
-0.020570582279189113
-0.15039914247741498
-0.06685550254069451
0.055444180539604954
0.23759346353910832
0.08864913333964779
0.001490724458814367
-0.045624902146703436
-0.0823583542510944
-0.13726052398997057
-0.030010946518458842
0.03240195757805886
0.054813417779836615
0.04953044999957194
0.030776761635450588
0.010122116718230226
-0.005828119361130911
-0.015326994752077456
-0.01967107247895747
-0.02080105693022281
-0.019427072182452716
-0.014455543923774931
-0.003983431137738459
0.01243785714133629
0.031062736840991177
0.041832827282513294
0.027962616143788418
-0.03208108144221274
0.03979629674961767
0.027347356945425026
-0.07366051588822967
-0.050476397310174934
-0.07163999461087578
-0.09001938215149374
-0.05109652259389024
0.0946863743283001
0.17859247318283705
0.20369058714197025
0.1426917819069009
-0.05433929104178942
-0.2440245295049024
-0.2708986768451488
-0.15310817927593467
-0.07848512287949594
0.1873520935520401
0.2844114170809414
0.24047598474091242
0.05961214266469131
-0.07845593388944044
-0.2086916335278669
-0.1659360186862682
-0.17196638153373234
-0.030118209960439027
0.07048699461115067
0.14335730187697748
0.19118289955300583
0.1970682136803809
0.12549807425501536
-0.06548030250813032
-0.20394841051801182
-0.28278557147448213
-0.24622292113928862
-0.19171510919955262
0.010023268180260933
0.280260793937047
0.2920674085455812
0.2372132598008299
0.21183555610488802
0.227904896587923
0.05059960168213029
-0.14565750861195853
-0.5160859431248663
-0.696795567899725
-0.5852941592914955
-0.16065543819846628
0.4583095490090992
0.7326961991856165
1.2272970833995247
0.5662679261816356
-0.16158684549285157
-0.7487510847954446
-0.7866650421411135
-1.187421416717195
-0.3402069795522349
0.2810531682304744
0.8633450366023132
0.97690759463336
0.7063681814884484
0.01759227206342079
-0.42905016758551573
-0.8277382373282656
-0.5612261231161806
-0.14541224611598924
0.1978815364282504
0.33572338631920146
0.1942714514864246
-0.08210098479810779
0.029969004579765313
0.20373146405662834
0.0475772386389845
0.10591967816769535
0.07455546950751998
-0.17332553082939528
-0.3569689392723297
-0.1617316139545248
-0.02375895589334434
0.0707900360184727
0.17347893755918017
0.15393309574169042
0.07990120771855877
0.0028251839156052394
-0.048354643280730414
-0.06568926473070251
-0.05575170687767611
-0.0316275480906483
-0.006152609324696974
0.01211651655187342
0.020037555956607746
0.01887918024263887
0.012299534472084137
0.004320232923781146
-0.002067540934346822
-0.00546171176409879
-0.0059056116137966375
-0.004345172740116789
-0.0020032901555409096
0.00010282580674420469
0.0014031244319385407
0.001788179303973292
0.001474122754064898
0.0008156861986858523
0.00014469019085459789
-0.0003250049818274925
-0.0005208593146948785
-0.00048236828548235255
-0.00030759899254262867
-0.00010109822176437386
6.108816394755477e-05
0.0001446612210897934
0.00015243228735940036
0.00010981720469323205
4.860926430577973e-05
-5.2769412778483695e-06
-3.7727333298539606e-05
-4.6495608596884675e-05
-3.75451238721434e-05
-2.017428246501845e-05
-2.8922244039955595e-06
8.944672777108213e-06
1.364516070086687e-05
1.2364434371079375e-05
7.698524779627832e-06
2.3456274204422524e-06
-1.7727845563889752e-06
-3.825864415234902e-06
-3.931926140644545e-06
-2.772961220583544e-06
-1.1749595208696552e-06
2.0254032343040475e-07
1.0109807026180543e-06
1.20726286889442e-06
9.55003028868723e-07
4.97594277100799e-07
5.30115001301385e-08
-2.4482359967324664e-07
-3.569332135613329e-07
-3.165684867581839e-07
-1.923140752405952e-07
-5.372508274734783e-08
5.07183924436116e-08
1.009885497684325e-07
1.013056373360691e-07
6.991660390713236e-08
2.8253774474439284e-08
-6.918157361923251e-09
-2.701554611132866e-08
-3.130781115482889e-08
-2.426112422667366e-08
-1.2237178248171503e-08
-8.132987181672343e-10
6.668640118970816e-09
9.323301906994855e-09
8.09576744155862e-09
4.794593283209972e-09
1.2107367678202155e-09
-1.434446450090467e-09
-2.660859515748611e-09
-2.607135174896667e-09
-1.7601711641393114e-09
-6.75398835496101e-10
2.2158431816251984e-10
7.200439920355993e-10
8.109105817658457e-10
6.155436774892082e-10
2.999872481617182e-10
6.781620485800972e-12
-1.8085282731469894e-10
-2.4318048343515814e-10
-2.067892003445647e-10
-1.192861738238343e-10
-2.6731890929729188e-11
4.015657385411254e-11
6.995078900138493e-11
6.699161561219645e-11
4.4243125482388e-11
1.607943509606566e-11
-6.72137566379573e-12
-1.90242108259327e-11
-2.087035853485969e-11
-1.556245294364794e-11
-7.427348238899048e-12
-7.258006054668368e-14
4.4972498214808945e-12
5.935911943119288e-12
5.0580740619490816e-12
3.1363623747277077e-12
1.283536398970433e-12
8.963637479623734e-14
-4.4228034408522495e-13
-7.144770827534157e-13
-1.2148681345647015e-12
-2.1866007519307773e-12
-3.4073431155621977e-12
-4.171458479072495e-12
-3.5197754833688346e-12
-6.894889896601768e-13
4.334514207743237e-12
1.0375776855705802e-11
1.4990060032986807e-11
1.4982666274201255e-11
7.588928081790494e-12
-7.889426792689753e-12
-2.853504531475431e-11
-4.716187793125028e-11
-5.339286007509433e-11
-3.693522970256959e-11
7.289106712618002e-12
7.361091535880625e-11
1.421707401372751e-10
1.8047336442551763e-10
1.520720738663562e-10
3.223985124850277e-11
-1.7304071473229776e-10
-4.122009626536826e-10
-5.870415415699899e-10
-5.740622341783942e-10
-2.706408012574936e-10
3.4227405480020995e-10
1.142266570027639e-09
1.843671018835659e-09
2.043598087854686e-09
1.3524463122012088e-09
-4.063822233904961e-10
-2.9858172298419694e-09
-5.5909708962495565e-09
-6.952903114108084e-09
-5.67882405857852e-09
-8.666006008769021e-10
7.165863435058947e-09
1.6329148887564613e-08
2.2763783221793795e-08
2.171486606107494e-08
9.355637856332846e-09
-1.4787900619467245e-08
-4.565734668649747e-08
-7.194359247587653e-08
-7.803205911253919e-08
-4.919882073138197e-08
2.061621032858594e-08
1.2079400018194537e-07
2.195885702877288e-07
2.6750926843147677e-07
2.114111174989396e-07
1.856455819912119e-08
-2.953650784261727e-07
-6.459478411250371e-07
-8.81684680757729e-07
-8.197399964364688e-07
-3.178576905306614e-07
6.319787973125572e-07
1.8216789920549677e-06
2.804160989278099e-06
2.974963639226572e-06
1.7787883708730044e-06
-9.883039319152785e-07
-4.87444804165091e-06
-8.614012723203485e-06
-1.0278992103997532e-05
-7.84469966960235e-06
-1.3145446288768954e-07
1.2123583423804035e-05
2.5517105823712115e-05
3.410935591555581e-05
3.087911842199387e-05
1.0556194053276298e-05
-2.676500422727572e-05
-7.25581960907467e-05
-0.00010917304067820903
-0.00011323770585509514
-6.38561069126768e-05
4.565691032050863e-05
0.0001962321421964057
0.00033749435178077826
0.0003944159671633326
0.0002899813554627883
-1.8014566476441412e-05
-0.0004959636893800496
-0.0010070025209965147
-0.0013185199364994609
-0.0011611892046634075
-0.0003403153044252298
0.0011250535820940958
0.0028877641298639106
0.004253782672546676
0.00432389414403875
0.002319351122591213
-0.0019621801418925264
-0.007709778592656612
-0.01290928966444986
-0.014640905143938215
-0.010009366213892852
0.0023663284211654506
0.02067844575382144
0.03872764541822911
0.0459571965402487
0.029275670556401442
-0.02338126507792959
-0.11865996687587185
-0.05421861400397821
-0.01772580730163481
0.010653008740578677
0.052826138415083115
0.1263096096917739
0.03920629881935566
-0.011392315481569607
-0.037006616912936996
-0.052464753868684995
-0.06993014082325268
-0.09464238095375871
0.07607197842143101
0.05039488615483644
0.0375417342668258
0.043322082827439025
0.06760668480503834
-0.09545805971384735
-0.054920819552629445
-0.019572098786926652
0.004836632284052414
0.01671389339915933
0.018060934085213618
0.012888338375841912
0.005467590815801289
-0.0009515574006140425
-0.004698105574803595
-0.005578978537954092
-0.004376321077487421
-0.00223677402916467
-0.00017691347277065209
0.0011866895317457493
0.0016825923882778425
0.0014739262818450948
0.0008840684350832727
0.00023644052169422835
-0.00024670520532150877
-0.0004765146067524811
-0.0004759827552290298
-0.00033109962384964985
-0.00014009396896059125
2.239608881425225e-05
0.00012011796687634059
0.00015167928125862037
0.00013635661561453276
9.784559979658929e-05
5.260141587903548e-05
6.024794589519643e-06
-4.3779169913957106e-05
-9.772245100209123e-05
-0.0001475410492034033
-0.0001723932662818963
-0.00014353127992615
-3.748575417961402e-05
0.00014561700435699012
0.00036583268512164644
0.0005388856400995411
0.0005521720572600404
0.00030476458483221907
-0.00023493950065665733
-0.000972513861976416
-0.0016604227479228065
-0.0019310854239053385
-0.0014085499426122583
0.0001108283478034842
0.0024578755068845443
0.0049577029721861185
0.006469277301684619
0.005678151676825892
0.0016450978052981598
-0.005511282876425795
-0.014057117362855344
-0.02055996823081868
-0.020599983637734066
-0.010395032180380799
0.010912698358131653
0.039018333121257395
0.06333790659146106
0.06812448274896622
0.036434639482725455
-0.04350124478531956
-0.17133486541377863
-0.1300059975739432
-0.08643527413967991
0.0011095565487767957
0.17036016749418814
0.24132045527276275
0.2071039207460529
0.033958915634880356
-0.1283498919898005
-0.3292112808270068
-0.1997963421017827
-0.1430448834670428
0.06460996639314237
0.2605908571839377
0.2783022770261977
0.1319901908526987
0.010849852384632534
-0.11547367679799728
-0.28294442341283493
-0.11712066134415375
-0.021774181726428365
0.02370348170235634
0.05787500947268044
0.12493581389537255
0.061225203793352376
0.08503796687310614
-0.007402418374770571
-0.03919249057493786
-0.04474798384235108
-0.059502756992408576
-0.11062709936976156
-0.011435265656629882
0.03924852072879719
0.053221931198689655
0.04644640487766177
0.032528149176175684
0.018288732572358267
0.002542260260353193
-0.02197911107754366
-0.0645444430746626
0.06832858592915766
-0.023188056538430445
-0.13027274514451292
-0.03621396028956787
0.0799356373775214
0.037556732232628044
0.048312284805093135
0.11194097261076066
0.0157702371684484
-0.0616337892720798
-0.14392389895128657
-0.05004253861605287
0.010435420005179323
0.038173315197014036
0.04141911098567613
0.031460703742932625
0.018197363633511363
0.007338203931077127
-0.00014527045497550258
-0.006535285604929469
-0.0146779676108828
-0.025217208032599275
-0.03490545359259123
-0.03690523036642942
-0.023494729483914754
0.009145976856653951
0.055250545067697984
0.09479805084148707
0.09202290607634583
-0.0012901344636628079
-0.03751395969195286
-0.06148149707826922
-0.09841917140331871
-0.1449721714773392
0.03404163776311396
0.10235154788789728
0.14380436235582683
0.051616499350850026
-0.08199366959246304
-0.17468862968741036
-0.16210980956618865
-0.0063722230612114905
0.295359580715506
0.30510225035125726
0.1455156728411066
-0.08836278623722671
-0.30834983255450815
-0.4094020319987739
-0.05133252658693069
0.14766850378688717
0.20464121673684266
0.15697344779833872
0.04594605004230942
-0.0955646790396507
-0.04883222837918984
-0.009215425352563311
0.017470959757272593
0.020001399382952735
-0.013215269025065396
-0.08998635298598297
-0.01180799368625823
0.026523781951513704
0.03521402744307163
0.026472486608176395
0.011428340942481286
-0.002008421050272177
-0.009882799092709291
-0.01167728321968571
-0.009060440801637815
-0.004494443647544947
-0.00014768040769378931
0.0026825098091738196
0.00365557920147696
0.003141058998732311
0.0018406348101169948
0.0004457995879122216
-0.0005750940149248004
-0.0010415840118918242
-0.0010120137895436093
-0.0006778319647626033
-0.0002551052730336466
9.185560003084926e-05
0.0002827083912323149
0.0003152895191362001
0.000237577094901886
0.00011431662658995388
6.752823402336352e-07
-7.144170603810937e-05
-9.47959312841139e-05
-8.00133066634783e-05
-4.570951411893905e-05
-9.750702370464935e-06
1.6042416938368775e-05
2.7360337444067347e-05
2.5990005598522338e-05
1.7018616294051198e-05
6.035242280472669e-06
-2.7963021864164424e-06
-7.512403311663719e-06
-8.153904931240215e-06
-6.017213380450021e-06
-2.78892603187225e-06
1.2339440555400705e-07
1.9276549481424924e-06
2.468188828198873e-06
2.0405616667767204e-06
1.1336864628642526e-06
2.063591309657194e-07
-4.4474486193095607e-07
-7.180408794930381e-07
-6.670624904726221e-07
-4.2679945021947905e-07
-1.416887804847803e-07
8.289396661026435e-08
1.9914771589929504e-07
2.1060659319982643e-07
1.5218448472628535e-07
6.776345625686931e-08
-6.783431640068562e-09
-5.1836849947836814e-08
-6.417965898895038e-08
-5.1976255704869095e-08
-2.8046784644470296e-08
-4.159692474432199e-09
1.2251682018574904e-08
1.8814926652062622e-08
1.709978604283113e-08
1.068110297270425e-08
3.287962993062226e-09
-2.4155826874460594e-09
-5.270106142180267e-09
-5.430091578843192e-09
-3.833897910223303e-09
-1.6241583262102237e-09
2.8276523323657777e-10
1.3992084107972482e-09
1.6616020096166344e-09
1.2965040190965897e-09
6.462735558496459e-10
2.2680145297578984e-11
-3.775768004437287e-10
-4.933809234236513e-10
-3.738388546017856e-10
-1.3143891499136701e-10
1.0611238234116768e-10
2.3417502177005666e-10
1.9656204698585908e-10
-9.071209009293498e-13
-2.880686100387258e-10
-5.415684686011418e-10
-6.136942723999849e-10
-3.8078703034133876e-10
1.9470154241947622e-10
1.006208564915146e-09
1.7776519418904538e-09
2.1020187967837205e-09
1.5635527755715106e-09
-6.618338628713868e-11
-2.6104453029895023e-09
-5.341399725366179e-09
-7.019633897145629e-09
-6.2075612569310125e-09
-1.861816793303993e-09
5.924825755174723e-09
1.531050227850613e-08
2.2597074071359473e-08
2.2975153023195013e-08
1.2248978329757956e-08
-1.0740000546185941e-08
-4.1779544677279764e-08
-7.024526347536274e-08
-8.061471684697168e-08
-5.727411470945486e-08
7.840039574921913e-09
1.0688477297196507e-07
2.1074325096636486e-07
2.7102609862018587e-07
2.327321850017975e-07
5.751650043562316e-08
-2.477450136956865e-07
-6.080964338723423e-07
-8.779257941796737e-07
-8.717143935793454e-07
-4.323007246242983e-07
4.752080476121623e-07
1.6752717311550258e-06
2.746284707008803e-06
3.0855269627144906e-06
2.1010712345511158e-06
-4.902398627205446e-07
-4.344029039409815e-06
-8.293859234938401e-06
-1.0448926345628955e-05
-8.70543726088301e-06
-1.659772412862327e-06
1.0293382392131529e-05
2.4111752672840453e-05
3.406802248238857e-05
3.301388120726861e-05
1.5078054983940012e-05
-2.0698988304976178e-05
-6.704123718340495e-05
-0.00010724272994241016
-0.00011792714293663347
-7.669643294113937e-05
2.626307457797424e-05
0.00017603977841781798
0.0003259938468271788
0.00040232553654738035
0.0003246796645923718
4.193981766464469e-05
-0.00042561094222314725
-0.0009548442851021959
-0.001320769760524417
-0.001248279844091627
-0.0005186088103151999
0.0008902227329804569
0.00267850193042737
0.004186091806159858
0.00450906832712725
0.0028045377886151053
-0.0012572658146658543
-0.0070309640050646065
-0.012646504188169597
-0.015219951108703651
-0.01169170948166125
-0.0002515918682654888
0.01799432301917459
0.037765413840830084
0.049561345721021374
0.04147348744980047
0.002922352731903305
-0.07053186807445772
-0.17312027575760672
-0.08779899626415022
0.01020578208130245
0.1455092246574066
0.13295616754105574
0.1703814422587682
0.037382567394825
-0.09864739635544847
-0.27125773771581896
-0.10302607257364033
0.0020434714585020747
0.058936686694773796
0.09535550802720834
0.141985308807348
0.02338471622238908
-0.04748169311754373
-0.07017083315240027
-0.05426499288791978
-0.01551981289389337
0.027619148771010973
0.05650998611710653
0.054230177539127546
0.007683778879463664
-0.08977667385320554
-0.035767526651154354
-0.0175266602877096
-0.01289564156652773
0.00607526526133062
0.0676061340004533
-0.005841393053862047
-0.0025170927930546916
0.0760118306644359
0.015281435710305859
-0.008628498550507884
-0.023388696407555906
-0.05394118438271098
-0.1171845200272981
-0.019584526286715982
0.04146058026441419
0.0731419618642253
0.08168160309880254
0.06829114919593704
0.02862133402454923
-0.04388672935334859
-0.15217852272081042
-0.09006076879746656
-0.03989998286767385
0.024792033352617884
0.13239797139357573
0.10437658752799055
-0.05208480556216109
0.05267525613452599
-0.007419671688318898
-0.0680735342584421
0.034064615606908544
0.07055686605992931
-0.1712262873251402
-0.08390315767561607
-0.04075760760314636
-0.0018695364059985108
0.07539279337139362
0.2244476626939741
0.060050682165142255
-0.02537856345733976
-0.05848798046828292
-0.07629716358046587
-0.11545768679910276
-0.0031179100024200657
0.04813260864307961
0.04059621450589895
-0.01199373390294041
-0.09009522084814879
0.025424643599118925
0.14784284423266753
0.08132431350126865
0.021179711444148982
-0.041965695731008244
-0.11542046962787694
-0.1980162883191714
-0.07734006035228148
0.06743397019362896
0.25782519627548783
0.1068273859848902
0.012592829932490598
-0.041988606212459874
-0.08378979934717998
-0.14069676112592433
-0.033359156090058295
0.029552098357942758
0.05147095062703672
0.044336084860121826
0.02332346470183997
0.0019877312024575364
-0.01088843507543801
-0.012390440966698058
-0.004845387496507449
0.0059292019802746655
0.012948712887419337
0.010550805146198359
-0.003290244391608835
-0.025249831697460923
-0.04612001280138388
-0.052070331015845066
-0.02801944331963409
0.03728281404063141
0.14584385407446554
0.08684112030905772
0.03694734050838341
-0.03459187835084733
-0.15733959824119717
-0.15054645673896325
-0.017091757599177013
0.0571686496736489
0.09871665035098749
0.13869844474333098
0.00550695732074849
-0.07999501404983976
-0.10614483987403256
-0.07027904762566001
0.021685020259314944
0.15524284374516295
0.1077856722415011
0.05128755083026014
-0.04184109449996197
-0.19077469543611988
-0.19921653234569273
-0.0529028156107631
0.07623415273236527
0.22025670566320224
0.20377869995154443
0.03594209106997817
-0.09080592411185495
-0.19522237500866596
-0.09837180982635299
-0.01578561902885453
0.04617303064714198
0.08924574634027897
0.11933804499129971
-0.05763447284345041
-0.038166615990523865
-0.021413937154249264
-0.008071379287522062
0.0009858278257145936
0.005563759336129578
0.006347521066618698
0.004630022703377564
0.0018682454966790702
-0.0006997218563540051
-0.0022679845117016336
-0.0025093304536625313
-0.0015185040387369908
0.00028010300088915005
0.002227594634563264
0.0035403349081173227
0.003471487326607473
0.0015492266956310694
-0.00213471889497026
-0.006684560519883417
-0.010364415155555959
-0.010925612238723377
-0.006370088511401419
0.003957021989750327
0.018286536128223178
0.03189774326528769
0.037732771253607446
0.0285211022598838
0.00024878369676250623
-0.04396026504789436
-0.09124446267354276
-0.11976329096455716
-0.1045021321421829
-0.02841224011063944
0.10310254850047332
0.24885848120499246
0.3258841841126767
0.21644599264064449
-0.00946398383068333
-0.25938933489806615
-0.5806579378433185
-0.3323825598752361
-0.1786187709826735
0.2924650158619601
0.3277837727992609
0.3589461653791674
0.15691997826797677
0.003173359857418262
-0.31815503641995774
-0.10947685647123168
0.06312971230620534
-0.0017945050537089004
0.08822900122127286
0.14801422503447617
0.04108359290570046
-0.09797216703072267
-0.24900573728723918
-0.5051335824808286
-0.2899162463655784
0.005790634464777011
0.5729951777598972
0.7331610083798666
0.703799006862283
-0.004625847687040177
-0.557113507407038
-0.7387799817374414
-0.6970391463562455
-0.30341423581980376
0.45236009097550384
0.838160351405668
0.34015444283999796
0.02748002852707182
-0.06556633699161801
-0.33726707625457886
-0.4031379870078302
-0.0783816042994287
0.2330821074061908
0.13990860345554956
0.057444688033135405
-0.00027718109164220916
-0.026516441713641356
-0.024116262527072437
-0.004488975781056628
0.015490714076112931
0.017501082432267535
-0.014203979276981245
-0.0895175466684906
-0.010675227312120651
0.027548823843678648
0.03570136710371463
0.026362154028259747
0.010908027165850206
-0.0026640945484372267
-0.010440107337407242
-0.012008694353749452
-0.009150138997978088
-0.004405017125094241
2.6677764863633355e-05
0.00285621989511448
0.0037748473804004156
0.003188836210667772
0.0018283932245674748
0.0003994753929799521
-0.000628492347009064
-0.0010827816499157288
-0.0010326317117963512
-0.0006789927152741989
-0.0002435900294104637
0.00010780166079543834
0.0002964858186213409
0.0003233985443802634
0.00023957077503142517
0.00011181911345186141
-3.885241292733318e-06
-7.588549561990575e-05
-9.778016505323207e-05
-8.11434748765334e-05
-4.5314187206424957e-05
-8.513526518224585e-06
1.742632058499299e-05
2.8405394565578313e-05
2.649472273677575e-05
1.7024161038183194e-05
5.723531994659179e-06
-3.2110518390126584e-06
-7.862479774929746e-06
-8.353560380299341e-06
-6.059584889686233e-06
-2.71941307960475e-06
2.404939354600312e-07
2.036493019800046e-06
2.5364048509205956e-06
2.0616974412871497e-06
1.1205230583242704e-06
1.801092105097346e-07
-4.6496091694875524e-07
-7.224702669371693e-07
-6.579818489417827e-07
-4.1648760788342275e-07
-1.465595991151947e-07
5.041530996890315e-08
1.3872241335893292e-07
1.391737043418106e-07
1.0322767803333787e-07
8.248361593848118e-08
1.0368589475714944e-07
1.5609319022318047e-07
1.945734674885328e-07
1.5824480629564595e-07
5.720853284243908e-10
-2.7752595638230045e-07
-6.039900429120894e-07
-8.355053097608928e-07
-7.920995137141649e-07
-3.280142291216087e-07
5.754125140567707e-07
1.7273906415269837e-06
2.7016928411982664e-06
2.911728671664681e-06
1.8077733426366875e-06
-8.301612477100628e-07
-4.592560807693265e-06
-8.277245600410191e-06
-1.0022248132710288e-05
-7.84088073690913e-06
-5.286490166463482e-07
1.1289103980898615e-05
2.4403378926005634e-05
3.310349000526173e-05
3.0539478444177844e-05
1.1436717823283234e-05
-2.4390252259516788e-05
-6.899243983762215e-05
-0.0001054823793250486
-0.00011116850545972517
-6.536922650958154e-05
3.9227934645626074e-05
0.0001852023744463087
0.00032462906401851217
0.0003849900305843237
0.0002906363372286486
-1.7502103190961118e-06
-0.00046304521428135924
-0.0009639862375295632
-0.0012807440084615929
-0.0011503119357798765
-0.00037730983460973504
0.0010306331209185028
0.0027491194054280713
0.004113574000152845
0.00425031656341797
0.0023873494873379083
-0.0017039253898569267
-0.007278084803927512
-0.012416201601490349
-0.014293758695091821
-0.010063947531113341
0.0017036459878451427
0.019380930556785133
0.037065336993884736
0.04453549675716805
0.02893063895353139
-0.021862648011313636
-0.11495836482808182
-0.04891369921482085
-0.012533881874146216
0.013068480700606
0.04963433755165182
0.1158589674382454
0.022637923084123185
-0.02884306851013932
-0.04574187335834713
-0.03987144412227788
-0.02342772113219796
-0.005752345363099338
0.008013352024681
0.016427953484436493
0.020107388348006638
0.01990981259274541
0.015808709710223086
0.006938928657988919
-0.007207494278990518
-0.024960129397056753
-0.0409045114219805
-0.04553133367888039
-0.026758131013781713
0.026709964173677835
0.12112757473224589
0.0542514505863535
0.014419338961065562
-0.01698071995771409
-0.060295639682122766
-0.13163206378478406
-0.038589525428577444
0.020477223446570263
0.053392205891962155
0.06875173748222721
0.07071147813004197
0.056423453289287516
0.01746279941947119
-0.0551004873538852
-0.16400208025470678
-0.10050506277855634
-0.04339806391254311
0.03648669434017498
0.1674688103875971
0.16733187726017357
0.036848104568598744
-0.04066349431805198
-0.09360330221865276
-0.1527339217194156
-0.04208424079757682
0.026565847024883543
0.05425796503530513
0.05132630347697714
0.03196984473014914
0.009230595111411562
-0.008140588392172646
-0.016548727649792254
-0.016630502129427332
-0.01142784824365728
-0.004523637047073231
0.0012863685227758011
0.0045793695053213635
0.005244654649637603
0.0040349946235722885
0.0020135656647918892
0.0001075151138423836
-0.0011317806427836863
-0.0015629948773111188
-0.001348517837826035
-0.0007923745376971434
-0.00019345126461914496
0.0002457982862577981
0.00044706079600679254
0.0004349903665773209
0.00029170557820724094
0.00011007949095612074
-3.9169276241467584e-05
-0.00012139126831065203
-0.00013556354995390094
-0.0001022587261941253
-4.9298549968843715e-05
-4.1599990074747373e-07
3.0643644507437706e-05
4.0740846190920874e-05
3.442572317078233e-05
1.9695094377789126e-05
4.2330282624395756e-06
-6.870384460740325e-06
-1.1753583527626913e-05
-1.1178307321128854e-05
-7.328627987719628e-06
-2.607534496892104e-06
1.1927798371255219e-06
3.225447094938802e-06
3.505818284964779e-06
2.5900169394468437e-06
1.202920921521141e-06
-4.984979572632531e-08
-8.269819991350283e-07
-1.0608297312867848e-06
-8.780006484369042e-07
-4.885347252741438e-07
-8.97670095846509e-08
1.9054042378978144e-07
3.084864742255106e-07
2.8692160931761554e-07
1.8380724803775443e-07
6.124702989501026e-08
-3.539995185407864e-08
-8.551364361454107e-08
-9.055719756280648e-08
-6.551041888154694e-08
-2.923454028608503e-08
2.8346864567984944e-09
2.2242203144053898e-08
2.75864087770315e-08
2.2365753093103083e-08
1.2088232661387126e-08
1.8158292631396661e-09
-5.250140480576614e-09
-8.083926690573497e-09
-7.35619978922404e-09
-4.6018890854533314e-09
-1.4241441253022858e-09
1.030622642345378e-09
2.262474525077237e-09
2.336418060381705e-09
1.6546505959944367e-09
7.073078523193589e-10
-1.1266917894552775e-10
-5.963673484251701e-10
-7.164594799974082e-10
-5.690361936495469e-10
-2.983158443310821e-10
-3.399813116712216e-11
1.4384741911738333e-10
2.1152192433409722e-10
1.8838430839187816e-10
1.1500123599672733e-10
3.2708617256700994e-11
-2.9560491448781663e-11
-5.974286121807603e-11
-6.021107814394605e-11
-4.1731995955624316e-11
-1.7026469091370615e-11
3.914961001625726e-12
1.5944632026348036e-11
1.858433085290912e-11
1.4459504963242151e-11
7.340727196690405e-12
5.473753881232975e-13
-3.921727405267934e-12
-5.526608085773264e-12
-4.818741824744787e-12
-2.8682415088204926e-12
-7.396938882259336e-13
8.377760365358644e-13
1.5746625948136054e-12
1.549899530626367e-12
1.050932955175157e-12
4.075098554736518e-13
-1.2668084998043555e-13
-4.251817720140097e-13
-4.814724669005864e-13
-3.669544887237581e-13
-1.8006884694649316e-13
-5.669059970864507e-15
1.0644816559155339e-13
1.441958039727534e-13
1.231162485281847e-13
7.138758548216071e-14
1.63963521728898e-14
-2.3511574669340302e-14
-4.1431404648020437e-14
-3.985065528815302e-14
-2.6424050638525508e-14
-9.688869668346605e-15
3.921322023803195e-15
1.1310208820203146e-14
1.2458592366144006e-14
9.300272303389193e-15
4.401778095041935e-15
-7.031707150224212e-17
-2.8781003285477697e-15
-3.757270846261633e-15
-3.141985602343601e-15
-1.7729617677485125e-15
-3.5391464003684165e-16
6.542892813899455e-16
1.0881532155710522e-15
1.023320181152342e-15
6.631588132369802e-16
2.2843920103243267e-16
-1.1789970418945726e-16
-3.003194530402758e-16
-3.2213808852173895e-16
-2.3553456548232264e-16
-1.0733331166534458e-16
7.212037719565267e-18
7.739862156719564e-17
9.763173672491308e-17
7.994815593359523e-17
4.3787399694390354e-17
7.21125867694003e-18
-1.8222343971068048e-17
-2.8674787957807895e-17
-2.6388734531941762e-17
-1.6755389041406828e-17
-5.4770482850946315e-18
3.3252720577951325e-18
7.816131417893065e-18
8.178598198900728e-18
5.815844404871408e-18
2.4655043588657342e-18
-4.64998727169255e-19
-2.216049246715013e-18
-2.6747920403739765e-18
-2.1727935865839853e-18
-1.2194325190465514e-18
-2.777591451009735e-19
3.6288065249105243e-19
6.132759421534467e-19
5.386674638794706e-19
2.8168035539666934e-19
-1.0569583578469045e-20
-2.3399901166663935e-19
-3.4420862868396405e-19
-3.484090722947598e-19
-2.842197379452702e-19
-1.967723875065399e-19
-1.2188107170022847e-19
-7.829737454264523e-20
-6.812813994481436e-20
-8.228699070571716e-20
