0
4.306195170226883e-05
-0.00011002655432140819
-0.00029764544812691435
-0.000447375215936102
-0.0004634346017359086
-0.000260323975069415
0.0001890701637976301
0.0008062223276993842
0.0013843478354557885
0.0016158600797701937
0.0011854403471575584
-7.906145945778527e-05
-0.002038690367601818
-0.004131276282930516
-0.005402776843011243
-0.004749837036525841
-0.0013765225605956053
0.004635724130517182
0.011860356285221748
0.017450472493927213
0.01772141642790281
0.009486279503266297
-0.008077298005601804
-0.031643362490338924
-0.052972303218353965
-0.060151766440751965
-0.04143855837926314
0.008600161309876137
0.0821891598893713
0.15339976241437636
0.1783409014849905
0.10285460970240339
-0.12225453392378623
-0.12177520478275802
-0.27879142403063706
-0.32705160046277854
-0.15879897194822995
0.1507135720479725
0.3070132103506332
0.35903682598354775
0.2733907947237739
0.13058255765773322
-0.05281235405513086
-0.07996145945999385
-0.1181817495022456
-0.2463749679866506
-0.820406280622359
-0.2685208559986028
-0.12243936756063685
0.3202286507623535
0.717846184548489
1.2143776733966827
0.20036784121118928
-0.28068215576047734
-0.6829501675780608
-0.6845152876466908
-0.5156598582283208
0.08795900007058526
0.29680819527024266
0.3674580278403763
0.20469293641763064
0.12175990178113875
0.01073608296839414
-0.07182050507847383
-0.10496537091092528
-0.09401073365354483
-0.05761037533778011
-0.01618528979526333
0.015507886469356916
0.03107319101928131
0.03145790169950096
0.021974652572448756
0.009052455115213662
-0.0021508737169542913
-0.008843900304372094
-0.010550198576994303
-0.008372785341659432
-0.004085515262721739
0.0005785609907520374
0.004292247448883294
0.006202389425744931
0.005864608256588626
0.003214439099128228
-0.0013393480231380156
-0.006743972564580008
-0.011217884044716596
-0.012464672324908953
-0.008336748069362748
0.0020797150983458646
0.01724379066552701
0.03232840771104
0.03939783523954239
0.02903341319173194
-0.0066646871198466325
-0.07053003774145535
-0.1577848190205155
-0.05624582633692522
0.04974339819899469
0.17241728064807704
0.11337771735431987
0.05948556883655715
-0.015801128035079978
-0.1457434508978474
-0.16087049560342342
-0.08050042115118856
0.09182056679145466
0.16833872129132738
0.17439637753722215
-0.054214167216584765
-0.07232625608420053
-0.22595297904795317
-0.2553907650792929
-0.10379621317165696
0.26859083682417767
0.46867985251484456
0.46066093108893386
-0.2309059693284652
-0.30307201806746076
-0.24694952496656095
-0.321149530469054
-0.13650306186441968
0.34270622362179387
0.1826588147721165
0.056032409828481504
0.018650673104335203
-0.1068541109402633
0.06252969541353398
0.2739374296037644
0.051547890167350584
-0.08336794475958913
-0.18923795258463966
-0.284104527675505
-0.3358550280567948
-0.0679456520179198
0.21915373316084813
0.41686112486643934
0.3786782517569132
0.3033540712000741
-0.06178066159373041
-0.3982269784073497
-0.5836716631593131
-0.2629776790068594
-0.03477271863246529
0.34177903519277814
0.32471937140998147
0.36269151703351293
0.07581586656903301
-0.14888998256934546
-0.3478249566874811
-0.16330802921168405
-0.026963500044302435
0.04946895352103725
0.0739238239092578
0.06659430396905504
0.04955251287653719
0.037535937314629904
0.03266595969278922
0.024135284239324588
-0.0076938014966857786
-0.08461378588147664
-0.2239744877108914
-0.03486981903306125
0.08131938496956011
0.1267056736842307
0.10203372901691299
0.2052398176355675
0.43639923410218173
-0.591068051100899
-0.43735635267413997
-0.22934917551097803
-0.06760550172931686
-0.2498415198717371
0.8946563292692843
0.5722638392457136
0.30873082493607956
-0.040361403199495834
-0.45261324944966086
-0.687214554162007
-0.4375990662673138
-0.1058562014686512
0.19243632090893964
0.39635425589104784
0.453917085989161
0.2793075294858675
-0.07347918823666715
-0.21498212346514217
-0.20570572878462068
-0.13138709429633033
-0.07780055597472306
0.08806222606635457
0.12788576392834425
0.03391009446284186
-0.17483232109254315
-0.05991326021504108
0.026600454605834916
0.13088618167077865
0.08680403141093113
0.10884525228918492
-0.0091745616041022
-0.08934993464384046
-0.16081324947515363
-0.05020530114128419
0.025176774493016817
0.059840197175853004
0.0585797273488676
0.032813296849547535
-0.0032725771545034877
-0.035674170977448495
-0.05264356711664563
-0.04662295180987653
-0.016766310123526793
0.027920152156454842
0.06581171088939079
0.062107112796159714
0.1724958304733677
0.15229613906910966
-0.029525470304729014
-0.37476938655445974
-0.4448839845085697
-0.16118234029975542
-0.020419480340194692
0.4766169385527463
0.5929002457528033
0.33240458009215057
-0.16261282368321334
-0.191739128061251
-0.4610792195961511
-0.2459565515024344
-0.165352355726499
0.023424304787063876
0.409060140605073
-0.5043621081592883
0.3670294912733584
0.6569448359525154
0.3339933381693601
-0.4923401079155485
0.25471420015448953
-0.5421453324081078
-0.5567655670615845
-0.19642071961014962
0.19883565338167117
0.5348207369951022
-0.07132645666584682
0.27397428777640775
0.21670885303908308
-0.052140525614597456
-0.3876844746738167
0.12892167503319413
-0.18601159795467953
-0.1989547086459436
0.0522756537584062
0.16049300705812064
0.14363887008998222
0.03567963840638493
-0.12235953155468474
-0.0893749330808829
-0.029386377638233305
0.08411697889378213
0.06454769204021259
0.11034419976261074
0.0062138150732960725
-0.07206879999361186
-0.15051014805757615
-0.04989346842796378
0.01852460930915188
0.053382911703840644
0.060309624315567675
0.04773209087925028
0.023542228861353254
-0.00611192247018542
-0.03593335260610793
-0.059638657011113795
-0.06889932685940695
-0.054595581241654055
-0.010988239093217014
0.05801930394104737
0.13284294087487333
0.17563627340524957
0.13412014889360646
-0.04704690884867746
-0.20930092189381988
-0.1627275582984838
-0.27491562607766873
-0.2718295094264695
0.14740876199390862
0.4854678954409574
0.6202257577297633
-0.21285047278245178
-0.02243780495003551
-0.24780920825186115
-0.33774024750098713
-0.5324524162766521
0.3432279095219317
0.2735170967608611
0.23723291312590894
0.1946599464859327
0.08432893317020522
0.03335411175159706
-0.22126882706846035
-0.3080154864570242
-0.40278083822604344
-0.22615173536965802
0.14019391710089457
0.42154972539000574
0.5132676442271514
0.25250429580770267
0.009380774867191823
-0.29952682725858126
-0.38150171564334173
-0.3338876415705813
-0.018574245804279032
0.1477504018085417
0.18736798125744783
0.14507630922897685
0.06954676919079077
-0.0009293146137270376
-0.04518538119927539
-0.058742774054570415
-0.04870185495946978
-0.027085099481489374
-0.00516054112645917
0.009904225139228338
0.015883429796439696
0.014463399824948275
0.009302223766904219
0.004068457276787404
0.0010552754469434983
0.0006242745258365759
0.001454403515226508
0.001392968639919715
-0.0013911344938674656
-0.007302434933653645
-0.014634249545902448
-0.019650385561644865
-0.017659145293595867
-0.0050504483255020115
0.01811534169606981
0.04579431629417933
0.0650162122875888
0.05729999141319157
0.0027742855201376634
-0.11377770890401516
-0.09695217643959743
-0.1374780880265274
-0.013760253850520664
0.10157197102160681
0.23232867170752633
0.1905980685438705
-0.026452894124950648
-0.23345160128253256
-0.24950322668628583
-0.09116218955932599
0.03040627389127103
0.3074642747206674
0.33217799708960116
0.09649177730067961
-0.2015339304210768
-0.34654838652601594
-0.2961285544598197
-0.1799318024294259
0.08789932858454368
0.38502520345650465
0.35390399509404274
0.1822007189739916
-0.000885870283975788
-0.10995231634568776
-0.2749162693206189
-0.20804279728710529
-0.17670942126355751
0.010591316666457
0.20247272611985329
0.08962162531767216
-0.01777915746002638
-0.014018510589363719
-0.018584216896538244
0.009147749016938326
0.2630178485450924
0.09229351595953249
0.013432462299423468
-0.0702047156768638
-0.2451546125813846
-0.36782956081685003
-0.05430751200815986
0.11639174931915593
0.18692698347928324
0.20042104736297664
0.18195045533817528
0.1299807827135785
0.02098058974300069
-0.1746188367876978
-0.27145611332908703
-0.45210896773783377
-0.06197020794389289
-0.020060916702907796
0.5569506129463152
0.32655271725566476
0.2996852068866838
-0.1636247901319855
-0.14057496464273758
-0.5199748326070751
-0.1754559977574387
0.05235156210634433
0.1596146734890416
0.17058999869289515
0.1225944920895111
0.05173485750718231
-0.015792661336433544
-0.06556667930129258
-0.09177037041184148
-0.09240817575560012
-0.06629417115829009
-0.01381227117606719
0.058673854503674246
0.13299696979299253
0.1755280630847866
0.13920279778651642
-0.026999342522698293
-0.16245269583411556
-0.2778015089817105
-0.14294014948417097
-0.08583760209815805
-0.0045454750731914835
0.21002220960729745
0.2470728279408424
0.15312637107707427
0.12080037521081048
0.09287234247944885
-0.21973762394162794
-0.312093161169403
-0.26022865882066243
-0.10531495718167704
0.1485023871894885
0.32386759341020027
0.2538109394396975
-0.03298335503133585
-0.11980211071136769
-0.20167795009159997
-0.08055378593509775
0.039793192843525234
0.15637056636660668
0.06710293441657054
-0.029914723609383412
-0.1366701710556868
-0.0549822888359201
0.013298386678128684
0.0650206489890403
0.09404156103136242
0.09078318837087375
0.044595408303965495
-0.05085202757246499
-0.1908821204705626
-0.15516243972727148
-0.10865792397754155
-0.010054979231861175
0.17367518391614228
0.2512915083263218
0.19651879691349294
0.14842967642617985
0.025431554880678987
-0.24979142852374847
-0.3219018577303881
-0.38126231003654076
-0.15813550765152506
0.0631187905835324
0.41306508160731176
0.39944676993314343
0.275774422020336
0.027035830759405136
-0.22348308177866583
-0.3903814204571397
-0.19510065642155477
0.061711215190446
0.11746225665654896
0.15307791749091487
-0.01062706704587819
-0.12188105593754921
0.09031858768034576
-0.297478651739843
-0.018570018549391328
0.16792725334771977
0.2635198865034447
0.02385081537530123
0.3638163694056906
-0.023820718634988625
-0.23892029691138095
-0.34089115350118643
-0.32242529929799135
-0.29989473593535604
0.07443785417032307
0.3807525947668746
0.9902187900345634
-0.7730304450555351
0.14430627488957398
0.11915368122671667
0.062355641326052834
-0.7605116248906261
0.8967573128786637
-0.1125044611171157
-0.30412510527877124
-0.3453434932287887
-0.04686361476756513
0.03210966262722017
0.1662460040922824
0.23900143882190075
0.11800623410690562
0.0383227975580212
-0.002268316687379773
-0.03600071985958487
-0.10942169694457195
-0.06470468837941297
-0.12362531417467727
-0.07868403582800439
-0.09373148588120131
0.08621022053728529
0.11895162751712451
0.24807263502921456
0.09049794280835928
0.032940017486491634
-0.16182930655946767
-0.1416647951094366
-0.14998485476893147
-0.014391557156050599
0.05771076308844495
0.07633168977431054
0.06140358565027224
0.034126815548284346
0.010196112313834525
-0.0034512136467751368
-0.008225691786086894
-0.01076959944623639
-0.01864625437128099
-0.03645896407993197
-0.06382143088204209
-0.09612100464975985
0.07181389196700304
0.04022561402213759
0.19944119417276862
0.12828394157803863
-0.002017651354175201
-0.21857564003770205
-0.13520677786758634
0.05682045798026814
-0.4087408333403111
0.12058032586833135
0.302314853268034
0.18275789762918596
0.1845037102141903
0.10310330994936552
-0.2859285406530436
-0.413549697810965
-0.10415812293948727
-0.1697573178398801
0.586256712298987
0.15899659461627982
0.1326015182309718
-0.12253673620848193
-0.24427173876951713
-0.26829212736744
0.18165858069359614
0.09886197685642908
0.09334363635582364
-0.011821933293313363
-0.18540901851846758
-0.1932620318435163
0.19609915320845672
0.20613339355195232
0.24951104967527893
-0.06916969816680514
-0.14420894756495317
0.4440947455299939
-1.260034248034934
-0.3870733423805853
0.5437084149245861
0.7967573998811373
-0.41073095052581415
1.0711378129810276
0.12694293137163623
-0.5979980905764665
-0.8559899169350657
-0.3558441537434397
0.0610985248857363
0.21920086048574564
0.38455387572885585
0.4315785286759881
0.21517052587594193
-0.041198839306008934
-0.33930201320415604
-0.2879584746524357
-0.2835340020062436
-0.09924097790948204
0.11174136377997844
0.4012048302973068
0.20632690293013034
0.13476540582304097
-0.03896801670261738
-0.16470510680608685
-0.2996794267797039
-0.09068493700459866
0.03797102033369614
0.08735734087484802
0.07841832375748277
0.0416664182088845
0.006241507703864673
-0.008575969382196624
0.0020916016196610614
0.02835144530671298
0.048890670302747186
0.03721748556789287
-0.030465408110837824
-0.16767510773793917
-0.17285705662970657
-0.029687164971493738
0.086827123430276
0.200424451547634
0.32422102368254463
0.056710220598992826
-0.2143839218605817
-0.3021667608350335
-0.21010107639416004
-0.12731885737369242
0.16703802446401464
0.29247981040784177
0.6553757926702803
-0.35571224377445954
0.2365122716066557
-0.7865612056805236
-0.22337016596695847
-0.2447610904783246
0.5996263861700816
0.16356635556933424
0.28372053537985226
0.16623958250988125
-0.21389338659622265
-0.301886794292817
-0.547106043827336
0.4099227494573177
0.14243151924175934
0.03467917932896072
0.07600854248022922
0.056418422522407405
-0.0340399764131659
-0.20253629971436457
-0.04970147919938494
0.03252125277020255
0.05990046113671178
0.05218995504221353
0.028429884205377762
0.0032211609721150255
-0.0149131396026763
-0.023066133890315515
-0.022161603184979946
-0.014883982856493859
-0.004161324459495421
0.00742885186978657
0.017467679905814482
0.023215029882179872
0.02144295871000932
0.009000259662861328
-0.015888757795829392
-0.0520895775452716
-0.09464459340974178
0.06471152480988561
0.03540036735022984
0.024907412895080718
0.036070436009474446
0.06598498631209933
-0.09296458435975273
-0.05040926748628526
-0.014841777501513633
0.00866893711341649
0.01915521741185154
0.018948735752372114
0.012113314540837961
0.0029026190925009474
-0.005256961087808834
-0.010152969009747935
-0.01073882934053651
-0.006958945888263771
0.00032223831893847613
0.009254221614939797
0.016978366516478965
0.01995228838312202
0.01487183490424378
0.00019289785855552876
-0.02213755311596579
-0.04553154613205383
-0.05918976975967344
-0.050924328367483354
-0.012495810362538055
0.05354077603987045
0.12772170497703123
0.17131980284012036
0.13049083853950605
-0.05208206595625096
-0.21999736693698657
-0.18537942554383469
-0.11703640410554676
-0.13988533738552622
0.05246656190655207
0.17449486419927265
0.12110592243650696
0.14357105260187042
0.2363864034885957
0.13954746042919527
-0.04352305897108375
-0.21694742769919192
-0.4610207617643424
-0.4091829598097046
-0.04207078506430765
0.29870010341411035
0.48251090243431655
0.3592362996528634
0.13893151152793787
-0.21073517768914668
-0.35014212158272456
-0.3445734963022788
-0.043030622175997936
0.13301234379621057
0.18891773930612
0.14788114493379256
0.039684937228687954
-0.10786121218270675
-0.07294575876862715
-0.04020014686963825
0.0003695635685201483
0.05448035024857848
0.12450017028703698
0.010864445625810574
-0.08554043102841787
-0.16059760954760444
-0.005387012921041041
-0.007407470012345243
0.045136795583293324
0.1575379853796419
0.1239854219154307
-0.07335621595837909
-0.060711191540327586
-0.06579130011387171
-0.11044295745236811
-0.005711865202215285
0.04909190110223442
0.06358384441992432
0.051491638090717266
0.02607913950658235
-0.002528495392731477
-0.02765450197502325
-0.04473193104794731
-0.04972354359172979
-0.03871253543140845
-0.009444380022983815
0.03544331083568957
0.08486143546220296
0.11744851507204343
0.10345719907456653
0.011161149611330273
-0.18347689393114439
-0.2873962879971018
-0.28597352516741714
0.05305384476729979
0.36775570129684315
0.6877247662809374
0.025558889012716513
-0.21990970179740538
-0.44952068355772207
-0.4470238215792722
-0.3705645618361074
0.4406332963559218
0.6459394257764591
0.2789319182496931
-0.0689257001143319
-0.24901557600115395
-0.14150376105539758
-0.23379716609688267
-0.0003536356135448267
0.11008272420878093
0.07810247425778324
-0.09013989604358599
0.029089942706641923
0.06784989868738729
0.05819163072615389
0.02634329437316613
-0.009715286306398925
-0.03945718301620214
-0.05706731155846726
-0.058649180899067364
-0.041108704826626756
-0.0035492384000845928
0.04930750726129277
0.10344711206671334
0.1341452026087337
0.10905063178052213
-0.0034774851181184835
-0.22248892333411263
-0.34325950613095124
-0.1321822999298004
0.06845179871796078
0.3261413011159665
0.29942625559457187
0.022192536834460336
-0.10306420650958069
-0.10163625913204115
-0.2158892340907775
-0.09282659191955432
0.225565204532546
0.10746211067564745
-0.06724396004053797
-0.107166499046964
-0.010460521227299902
0.03317996148149762
0.03933221010763488
0.024960308835117382
0.004876052025406649
-0.010568259408298954
-0.01626821022141899
-0.011911824587931028
-0.000797729137586251
0.011637533574228299
0.019387504529500634
0.017532782462217317
0.003970616161276557
-0.019033406224125405
-0.04406638766240113
-0.059392467227217034
-0.0520952860287214
-0.013630581736881288
0.05320234987260481
0.1280857201753676
0.17081937161156338
0.12551519538837522
-0.0676265610983191
-0.054863715930073324
-0.2507796472577748
-0.42628320242494894
-0.10887439770724235
0.20232637687700314
0.21005659443193542
0.3896585720216993
0.36813282087368104
-0.0799003547985956
-0.21701453808071636
0.2862551551914532
-1.016165851829579
-0.32302751717924116
0.01741435534511764
0.2877602844441693
-0.034552525065678026
1.284634565836723
0.21246499306022776
-0.14876297653407128
-0.5327678284783803
-0.6653033314495309
-0.6238548260142759
0.18211948050637727
0.40375831721449007
0.524412658079185
0.4253233217101383
0.16092044034934389
-0.4478080289140378
-0.4037546786346208
-0.31778945823104887
-0.19811249205406714
0.14835594131921365
0.5040355005075585
0.4269084198225594
0.2461399879003098
0.07473735549811693
-0.36132813585415446
-0.6871360276371382
-0.45108054249843804
-0.11949406545415975
0.09999326006853242
0.4113157050113533
0.57387175294671
0.4564410191319081
0.2170182814015516
-0.28461854799202274
-0.446406100731396
-0.26987750872558575
-0.31038747932466765
-0.24649984654006346
0.124411664259982
0.2663285004476708
0.26986618145142965
0.21564865862861216
0.14777191224717104
0.06458623647972714
-0.07239133055036896
-0.3165363018197154
-0.31009800189917974
-0.06377330627207277
0.05121264123040462
0.09677818810311205
0.15088726093228116
0.0861827987952055
-0.049024586844267186
-0.04271274542216028
0.07819323639962297
0.2549033306053963
0.21297443085651246
-0.11433703312731372
-0.3602428883992373
-0.5040097773315677
-0.2651292556726789
-0.11814524163325603
0.47319854407410716
0.6125806680201943
0.5342358330053011
-0.01261215566863853
0.048830735901408066
-0.840991188881045
-0.4326488497339472
-0.23053284440591454
0.12351610563116361
0.2431325553494093
0.7745146347064622
-0.02929603801874382
-0.12539052862674488
-0.08446068206408451
-0.2838089562732023
-0.2975377524071679
0.10864413827101944
0.1743487183678795
0.13444686746493317
0.00678159827156873
-0.01705258122999359
0.025537216343751504
0.07280686593904158
0.049987300273370484
0.0854292998076782
-0.07127243380869978
-0.4333244681895615
-0.16800640289981358
0.0005763140130555138
0.1763564675257471
0.2677502548610287
0.3633513096972251
-0.08523614977862971
-0.26905679539727423
-0.2168612427635502
0.015661390798381598
0.1573952707273909
0.13163595264799038
0.06470112876449653
-0.10549580529516402
-0.22117297874853822
-0.09886788913268221
0.07133246182265732
0.12058513198170284
0.09176466338998182
0.028946714489413234
-0.031017102528849223
-0.06342053503409316
-0.05749002577117951
-0.016280532738075306
0.044350003070157844
0.0976781398981296
0.10981208145697946
0.046022411393955596
-0.12051743560919295
-0.19962050786103264
-0.17809081356016557
-0.020161973601768947
0.12456690438718826
0.30807495392085005
0.1707964311346429
-0.06639269790612067
-0.20265811638690337
-0.2517382475550987
-0.034699068377578975
0.2253995896718322
0.3061568033446733
-0.012190637426743655
-0.14325675983898692
-0.28979804004384496
-0.24107707825275815
0.023931887603064212
0.32656196680914124
0.2752252785252536
0.055467426529168494
0.029167962740104806
-0.05524150999488248
-0.04456952570546933
-0.3611434376480236
-0.18905341040962248
-0.0723070134398227
0.07297409151944373
0.13526795867017027
0.38065931311428713
0.23138836317213513
0.05757850314416413
-0.21490316221022573
-0.2834692960162831
-0.04229693960498677
0.04108963499294548
-0.06014528377117044
-0.1300678176611893
-0.11935286979148638
0.036487717312898134
0.19458906810889937
0.3844371059449554
0.3970544450206909
-0.011133503604808772
-0.4999303742824313
-0.5195276280793362
-0.28867605895812465
0.013013914342107361
0.43571571283814464
0.6390887592965274
0.27270423979815295
-0.23243648073037138
-0.4583251124333703
-0.3862131137953863
-0.18531539586600926
0.18761448560288846
0.37646593129220396
0.20757951286953732
0.07431097580440003
0.13153451765918872
-0.29802085261257094
-0.5091675153252507
0.002110561919596067
0.35131050161429694
0.47315471216111243
-0.07251896115809707
-0.09325235691531059
-0.3552998179269077
-0.3790447665842492
-0.4452512673567893
0.5845783899667331
0.6374711823572495
0.19811838767869855
-0.1105003463669995
-0.32865829489758003
-0.1455322829707814
-0.07654176852919388
0.15973297259371153
0.06050668450038471
0.15263002709715634
-0.19821577551636982
-0.1832438703754109
-0.15283651692461903
-0.027037923595441413
0.0861912171306022
0.26881359488808376
0.37321447067764174
0.012131838697775472
-0.03820933175471279
-0.22322688613480876
-0.3898939695507894
-0.3701962499638004
0.22502495282061405
0.40048951229060215
0.364168353494465
0.11666891553952931
-0.1512097703000092
-0.4523561805573142
-0.3943696097212053
0.024457947895456373
0.009690687477147656
0.5580654475721404
0.6459147923581433
0.22859695047647446
-0.543870028616103
-0.4990156951407853
-0.6146461828774529
-0.20705394416929024
0.2564524674372472
0.5231518887200569
0.5114661387774361
0.27546447053437206
-0.009465565491656395
-0.4359561344771032
-0.33528657601402795
-0.04166249842334092
-0.06242531832350263
-0.061598614580237396
0.14201684024741928
0.16566063272177767
0.04800137441087967
0.03464103097506654
-0.03257653999507044
-0.12131828452459488
-0.0104419713785457
0.1108307377382474
0.04514003222357882
-0.009759327497789764
-0.05699369752538639
-0.09674250134518546
-0.12413919365686665
0.0698044882729726
0.09427806225249089
0.15350378017345462
0.04305159118637755
-0.050206258855856084
-0.14426502853327378
-0.05611832664860009
0.003395663714993229
0.03197049032630206
0.03500038644587614
0.02254395432026884
0.00562462088452959
-0.0068735438796275845
-0.010089236861057569
-0.0037729945327630446
0.00821760727884913
0.01929238898937915
0.02221337264130182
0.011701411425766214
-0.012849387569249695
-0.04534122358558224
-0.07275147647263297
-0.07784823464089513
-0.04538546013456633
0.028916115555751496
0.12892930068616942
0.2119616645038768
0.2099669678476926
0.04078119596850304
-0.17126454266530883
-0.27018659260326044
-0.2466398770879315
-0.22793027374622524
0.11517732073911442
0.14532091356275775
0.2251050122578462
0.08265961834460801
0.1853209987247384
-0.07246145642773194
0.034848222529529925
-0.018192740739298812
0.019054995542277926
-0.19669709671094981
-0.17621929981084894
-0.18061191641067575
-0.017146850275715587
0.15166639585485173
0.1895491910209584
0.16506240481776208
0.13427738238584608
-0.0679580783330266
-0.22758792925494548
-0.14487500924948282
-0.02672400855283742
0.11833734764464883
0.08142674164427184
0.0523455142288099
0.01882879770901107
-0.03241818500523545
-0.11297283895162567
-0.029603076719466114
0.01752383316354375
0.03442605056027067
0.03096738661534976
0.017731021202049186
0.0033559228166958376
-0.006896392370202239
-0.011230162173817634
-0.01043412866993087
-0.0066045240486409034
-0.0019849477837389
0.001774015532824338
0.003870506373182507
0.004236284680584617
0.0032457700433831073
0.001432250785799333
-0.0006790410690616746
-0.0026049887737955154
-0.003866983012353339
-0.003978553726189036
-0.002539339139833192
0.0005453550210534543
0.004787816227246561
0.008933378197209641
0.011052629463049909
0.0090493873194765
0.0015815132613383202
-0.010826807333334
-0.02493242533227758
-0.03476705002189613
-0.03298828184457315
-0.013730158692305698
0.023548066903918353
0.0704720287510157
0.10823447241997805
0.109928634837116
0.04757308040146128
-0.09719396857576759
-0.32206195230526063
-0.1975720244507433
-0.06977936951321778
0.126381542167407
0.24611360536404409
0.313238444073761
0.1063576726040919
-0.041587136417598806
-0.2296563719382167
-0.1655848650637154
0.05995471641739302
-0.005376202576249991
-0.1631051131354504
0.038199892874152507
0.09522845052076241
-0.06579070219183804
-0.1100699090833024
0.08269871051730941
-0.0033207210606404176
0.063449117850882
0.45500543757451617
0.48991595974684304
-0.5462453873690747
-0.37001581590493404
-0.2681142486952617
-0.2761306382838193
-0.1760000675950535
0.6873409163339435
0.37778349007688633
0.14050505714258987
-0.21418821274598132
-0.11124989861379463
0.0016032046366290147
-0.12775141096923895
-0.13882518558021495
-0.04795911584295861
-0.04659499758621873
0.09209904268824703
0.20133172068582506
0.10823311100190457
0.025449888652528358
-0.050551454423292105
-0.1347550829953599
-0.04519315121362661
0.005481189578251865
0.015558096293610898
-0.004331584815291749
-0.03390630272958801
-0.04920242156574435
-0.03068798541444556
0.028017921472351666
0.11303793658308688
0.1876020621123518
0.1966774391760223
0.0801844197422199
-0.20694004916795017
-0.4734318894107496
-0.27750793658889567
-0.12761413914373904
0.09879490019713845
0.3226487521378579
0.6274978844424169
0.2336862747923794
-0.10760399221590085
-0.29824859564798606
-0.2616356740947698
-0.3078154089435432
-0.10738197217543617
0.11872295374946246
0.1930827601672963
0.16468607580390834
0.08876871651558056
0.010648434010642572
-0.04266920508219315
-0.06298307202368493
-0.05590604803292457
-0.03372502547497904
-0.008976656109817484
0.00960859224365418
0.018446607968256312
0.018327332090630893
0.012557521963483535
0.005000539856520267
-0.0013364127952780512
-0.004928004772338675
-0.005663637167882997
-0.004363166742906333
-0.002179953154091663
-0.00011892901219410885
0.001222167142873674
0.0016896042977011185
0.0014585231597968751
0.0008575433003194929
0.0002099286619990808
-0.0002652436338990185
-0.0004831306007068234
-0.00047027886947850615
-0.0003154366884595854
-0.00011903518633333993
4.241954021073335e-05
0.0001314163551520237
0.0001468147197562823
0.00011084284721406379
5.3583947288558744e-05
7.106798939770118e-07
-3.290041117862683e-05
-4.384279019162773e-05
-3.702968666968109e-05
-2.110649999549526e-05
-4.3842640886156395e-06
7.6291439364750056e-06
1.2917008620791415e-05
1.230047086742841e-05
8.140240797167059e-06
3.035044400048731e-06
-1.0761391337863648e-06
-3.2764008904292133e-06
-3.5814509116221087e-06
-2.59220462623961e-06
-1.092478925793526e-06
2.62594444432378e-07
1.1035945147080314e-06
1.3570754129054455e-06
1.159768437960926e-06
7.387558006112131e-07
3.074782038246113e-07
4.188607640830124e-09
-1.2354495765302838e-07
-1.0036713446989714e-07
1.1070666428508952e-08
1.4360513654534418e-07
2.481614088862236e-07
3.0241255888566907e-07
3.079178936216713e-07
2.808637090709433e-07
2.4164349327179975e-07
2.0695321327212373e-07
1.85943183893918e-07
1.801368637457543e-07
1.8575844948673965e-07
1.9685844184868843e-07
2.0796873239773095e-07
2.1563107530601735e-07
2.1873519500874937e-07
2.179979878823169e-07
2.1506247633833887e-07
2.11639292767372e-07
2.0894599462273802e-07
2.0751296269843664e-07
2.0728358266304647e-07
2.078679497076135e-07
2.0880873670507604e-07
2.0976188972398187e-07
2.1055555315814236e-07
2.1114524368962965e-07
2.1151819613999067e-07
2.1161029405376714e-07
2.1128668008486538e-07
2.1040736762601245e-07
2.0895977007865524e-07
2.072012723438986e-07
2.0572945142264244e-07
2.0539885927641744e-07
2.0704175709861226e-07
2.1102665760795665e-07
2.1678788981652207e-07
2.2254780593567783e-07
2.2548286634973752e-07
2.2250854470325383e-07
2.1165270475972599e-07
1.9367914160534557e-07
1.733040693981282e-07
1.591686598280078e-07
1.618591178970132e-07
1.8981745145628956e-07
2.439347911432258e-07
3.1272786044677593e-07
3.708146456625143e-07
3.8335554035128307e-07
3.1773368036965755e-07
1.6091977169249624e-07
-6.273709281613314e-08
-2.818131794160443e-07
-3.856853102136717e-07
-2.5629545683673315e-07
1.7798337301248086e-07
8.800978631950279e-07
1.6594934034636926e-06
2.1769259450760626e-06
2.0253437649993463e-06
8.911324260994263e-07
-1.2370962942684757e-06
-3.887470572495107e-06
-6.056906545590649e-06
-6.397114604075626e-06
-3.6786932591302566e-06
2.5339928246968185e-06
1.1207397365637901e-05
1.9495384892842416e-05
2.308977638642398e-05
1.7494884750120578e-05
1.3423776906282342e-07
-2.726571636221179e-05
-5.702888677555535e-05
-7.585910636900065e-05
-6.813067476134151e-05
-2.2236889747712304e-05
6.135713730732106e-05
0.0001633367095055878
0.00024411505682637243
0.00025157547465677393
0.0001394819940136141
-0.00010632219525836044
-0.00044231920828336114
-0.0007552870652206921
-0.0008776372712788526
-0.0006384416086468408
5.429137656742792e-05
0.0011225137985026237
0.0022580093074641232
0.0029408891582682036
0.002573294186436784
0.0007293527665327677
-0.002534256993712501
-0.006425067768243099
-0.009377346859493709
-0.009375211772354891
-0.004689136331368834
0.005091273113982111
0.01805359569859067
0.029478222059232867
0.03237728994241324
0.019329309724280482
-0.014618827221837114
-0.06887395273780444
-0.1354865524343849
-9.073712426088939e-05
-0.04627173529244606
0.13753089522032041
0.15116716622060664
0.17941651238836878
-0.00514324280414707
-0.032701662045599426
-0.3231310423260991
-0.2747055274654458
-0.06030637559417234
0.1659757116653934
0.25371277259291475
0.23865151670490134
0.1303322759811178
-0.09017420134882338
-0.2622305670489915
-0.23174284897796912
-0.037921171929849846
0.09423508344790357
0.15447076763328527
0.14332877945657996
0.06780962332771553
-0.06038865910397597
-0.22382467377725423
-0.19783336350054173
0.04819369513033094
0.1451411859723255
0.11550889607079616
0.16557602058948115
0.08241148641893971
-0.16236965459217548
-0.20341291246652934
-0.07087236287486996
0.017506654226843988
0.05884351288735763
0.062289069248870406
0.04317525887772094
0.01694799854114518
-0.0050804707083188854
-0.017391939737408796
-0.019669951192133408
-0.01489734600064039
-0.007174100902058641
-1.3147361610566851e-05
0.004543679737746759
0.006021928380793382
0.005085444880064237
0.002909896873472936
0.0006271213017347245
-0.001012422457047265
-0.0017340239115520811
-0.0016498940247123687
-0.0010821945140109899
-0.0003855299369260584
0.0001755179437988762
0.0004758232525604336
0.0005175150733264523
0.00038257851529728586
0.00017796295025115892
-6.934792509632816e-06
-0.00012169945904320388
-0.00015630120373395277
-0.00012939086863914331
-7.1950724084301e-05
-1.3104485412790316e-05
2.828165492559038e-05
4.57148090090856e-05
4.2555819638135095e-05
2.7352390618944856e-05
9.268786718587192e-06
-4.998235373275602e-06
-1.240142119866086e-05
-1.31529321401974e-05
-9.46118660880939e-06
-4.109151303866008e-06
6.243883216597312e-07
3.4902053832722036e-06
4.280098012901563e-06
3.5096356163458413e-06
1.991827424075055e-06
4.746482962863694e-07
-5.681214016922486e-07
