0
1.1123230684285398e-16
1.4435443000656873e-16
1.7131711284411357e-16
1.7525751725009845e-16
1.4087089518824504e-16
6.285741492902426e-17
-4.5658820474242446e-17
-1.489037507384777e-16
-1.9293673869505515e-16
-1.2168906812358168e-16
9.66395605022943e-17
4.398231138966631e-16
8.112040675087293e-16
1.0441256740855807e-15
9.434337679261045e-16
3.651115567509485e-16
-6.830645269354931e-16
-1.9572517029004594e-15
-2.960690843289433e-15
-3.0417180573013065e-15
-1.6250051653175503e-15
1.4606003366707536e-15
5.663132072835448e-15
9.55980339989847e-15
1.1052731865583814e-14
8.010967891052903e-15
-6.985271090822968e-16
-1.4073279916970774e-14
-2.822982558544319e-14
-3.664533378484449e-14
-3.1840210573024144e-14
-8.508845161841567e-15
3.260383990136605e-14
8.155758323771582e-14
1.1877826934623123e-13
1.1911262666884394e-13
6.098590922408019e-14
-6.088858298652902e-14
-2.2345003385236386e-13
-3.7020113022207887e-13
-4.196434019275059e-13
-2.909297264905715e-13
5.591465350937147e-14
5.765682442383318e-13
1.115327594275702e-12
1.4171912904211315e-12
1.1958937485341029e-12
2.5683548608446493e-13
-1.353808812580229e-12
-3.232093244154152e-12
-4.607711182689729e-12
-4.5109694915299095e-12
-2.1349410978016456e-12
2.6723919760149054e-12
8.953091807578732e-12
1.4467101265939862e-11
1.6052003805387245e-11
1.0646154747408852e-11
-3.1439925665011886e-12
-2.3388905453115333e-11
-4.385806297817981e-11
-5.4594044843343797e-11
-4.465652408906376e-11
-6.943352766461104e-12
5.608157033442144e-11
1.2805012448307012e-10
1.7868603780304228e-10
1.7065287116359666e-10
7.38561649797684e-11
-1.1552198594953749e-10
-3.5788967164673035e-10
-5.645603891294292e-10
-6.12963365408367e-10
-3.873812174048418e-10
1.600444647639722e-10
9.463401582523935e-10
1.722652382947281e-09
2.100605423458477e-09
1.662717024043012e-09
1.5124701579818264e-10
-2.312064309952287e-09
-5.0657298443251055e-09
-6.921222941617509e-09
-6.442795216355266e-09
-2.5115447015535085e-09
4.939261116994991e-09
1.4280586522992876e-08
2.200617001312231e-08
2.3370874685458353e-08
1.4010097654008006e-08
-7.688399309440322e-09
-3.819239124597356e-08
-6.757992981327448e-08
-8.072026915832645e-08
-6.170722937455264e-08
-1.2479697429153936e-09
9.491874070501786e-08
2.0012588234271527e-07
2.6777277937199076e-07
2.427206615566501e-07
8.351029380141619e-08
-2.0926612097773762e-07
-5.688488324198962e-07
-8.568052852518865e-07
-8.896511217002067e-07
-5.031251992305772e-07
3.557017344329034e-07
1.537722047553544e-06
2.648005747932215e-06
3.097746357398169e-06
2.2819036949636416e-06
-1.320436917040134e-07
-3.882047488704743e-06
-7.895525117795494e-06
-1.0347488966748031e-05
-9.123214650112328e-06
-2.6922437700529277e-06
8.798252320501708e-06
2.2622253800223403e-05
3.3321482991093824e-05
3.3809459004699816e-05
1.791878865532553e-05
-1.6025960582958187e-05
-6.177530709992181e-05
-0.00010363486518448588
-0.00011871775643557952
-8.404904039173125e-05
1.2162716943338742e-05
0.00015822275566599385
0.0003110806950030104
0.0003993456241886512
0.00034201742391770526
8.282547211661496e-05
-0.00036768826493759624
-0.0008985837429609008
-0.0012949132807878706
-0.0012832539233678141
-0.000632442702616068
0.0007081306020292315
0.0024790992195524606
0.004059605879071083
0.0045644609985019055
0.0031285461270228448
-0.0006529571685498078
-0.006255364376422831
-0.011942135793599179
-0.014920808005828866
-0.012123558555263418
-0.0016085146853751899
0.015713653366055094
0.034628171873639015
0.045213513419720276
0.03414546917452158
-0.012131801565959128
-0.10300687112826971
-0.039487094570120854
-0.01184633139627683
-0.0002709988127665161
0.02148449719701614
0.08053649689794698
-0.0009004263842663897
-0.009904115793828862
0.05509367135668788
-0.015322091573118986
-0.03937195547511354
-0.04121697356908628
-0.04872543017108245
-0.09293780749468793
-0.009479447705496965
0.15911359470496256
0.16254696172310665
0.1464544031690238
0.06279260599776058
-0.11351048606431939
-0.1656016126960851
-0.22017699980706273
-0.34478051549745237
-0.16217949925283348
0.11765042715865037
0.25359528915079377
0.3288280918008808
0.5195516455112188
0.2891046029370278
0.013003281297270002
-0.36892392630801096
-0.48656633739879784
-0.47878464103340435
-0.3564588404604748
-0.0009414862701583081
0.20141970456722577
0.299054056471336
0.3070576129397021
0.550890604298514
0.4378539110137588
0.06423568731635648
-0.3447628719900696
-0.776210714042557
-0.7730374383678195
-0.6012513264628842
0.14710529984956847
0.9187833792995447
1.551225121358264
0.6386212489418518
-0.4667413526876215
-0.8152146902368409
-1.0015638777085627
-1.1191319285804404
-0.35414645102990133
0.7696556718718629
1.3091757376540376
1.0142416626338182
0.2696736998737142
-0.1093656883219672
-0.42733281105080245
-1.023226490496226
-0.7814405769437095
-0.06804383272599536
0.29025022834297953
0.38435449712326697
0.3727618156249616
0.22389319933868376
0.06908902231287532
-0.02316726365284703
-0.04973206182980618
-0.05643097154809517
-0.11074322289242937
-0.07226473853343233
-0.16871831685716368
-0.18324645844756418
-0.05590075095205931
0.10125971212645511
0.17981194638203277
0.24866846409947505
0.1339858356856791
0.011507806772886736
0.013488803200993226
-0.1523100666496335
-0.1776280605918206
-0.13025017200902766
-0.03874728822874484
-0.08930273296933189
-0.034853671560298526
0.1866990084367565
0.2309975311383776
0.12927801230635438
0.0797623699131133
0.051030606887682795
-0.20428208876798812
-0.3309420136680808
-0.1550798824025369
-0.07697766481448261
0.12489243436763063
0.28136218717021116
0.4184502609158186
0.14930346519836413
-0.12333677113390186
-0.5957620152309502
-0.4505341680058422
-0.05176625083065708
0.6460856155929213
-0.32176810744614504
0.4473416991822944
0.5099753373509872
0.17958502670168044
-0.6519664213154813
0.12024996515844548
-0.34947994825575823
-0.43299672087392743
-0.4258300613496322
0.02951325707510902
0.4995208287808901
0.9085440788884518
0.49918889361968943
0.020260949204220457
-0.45231549441630725
-0.4702228686479789
-0.7621179481091236
-0.398360271845232
0.2155623835110388
0.5165402353819243
0.5447380839645121
0.5072886188158781
0.16224751001022888
-0.1692087460215373
-0.3668303523059878
-0.6663302214964326
-0.42435834407128786
-0.10908685041802296
0.07736294430086478
0.3503417603465553
0.683438240430334
0.3582093780313148
0.1395776067861787
-0.115228807607488
-0.2176394355286064
-0.3915132497872256
-0.4170630443668028
-0.1909013054153696
0.08794467753854321
0.10480171415027222
0.19575499470290222
0.30548406548228024
0.1490248227440276
-0.013014984260035407
0.018612225502258436
-0.008342020531174488
-0.17617933849523146
-0.17154784052327976
-0.06285524621307605
-0.08648745625344992
-0.04449507207869073
0.08709061978542114
0.143161512141894
0.1533131390174153
0.13028569909049117
0.06711942673793057
-0.056103567547573834
-0.2586878298662444
-0.1444555077997011
-0.09184305339882083
-0.05342945481554516
0.03426923504339752
0.23383394617653105
0.18864752924767222
0.10973008272274505
-0.02765546088998755
-0.07662132801770095
-0.10339028491742404
-0.16956679236466918
-0.11770221336589395
0.035769689984626846
0.09908767403578524
0.09712701472684994
0.06063603061070811
0.016728912034257814
-0.016802193320269887
-0.032772411134468146
-0.032493117614498135
-0.022013232236439872
-0.00838748424189124
0.0029356220351751767
0.009236485331069768
0.010371815563689218
0.007870773384963378
0.003840965045267166
9.640534816969096e-05
-0.0023019480171026776
-0.003101465190120539
-0.0026403237618805326
-0.0015253763042686703
-0.0003443905911731173
0.0005101579513078359
0.0008917226464750669
0.0008550562157179072
0.0005652086291374346
0.00020555491061635908
-8.611351116524775e-05
-0.00024381277786676304
-0.0002675687340821281
-0.0001991653684834333
-9.377897684445694e-05
2.145876738312251e-06
6.217221808587552e-05
8.076640846402498e-05
6.734670212872516e-05
3.785514769103793e-05
7.390514889059401e-06
-1.4190183462259817e-05
-2.3420266110921072e-05
-2.195746307579132e-05
-1.4184996809972389e-05
-4.843815043443083e-06
2.577135561643338e-06
6.469040317026331e-06
6.914386590742298e-06
5.040092815176304e-06
2.282527665350481e-06
-1.7403580801728723e-07
-1.6741228051984588e-06
-2.1012448891543184e-06
-1.7162765518852908e-06
-9.375174621897704e-07
-1.5243842187271715e-07
3.918230793578261e-07
6.139925896087678e-07
5.630919641775135e-07
3.5530268960162646e-07
1.1306961720865188e-07
-7.539032506142313e-08
-1.7104140068848614e-07
-1.781564287452056e-07
-1.2709050618738483e-07
-5.5233366163852356e-08
7.25820987232958e-09
4.4254821946634646e-08
5.3591286428600026e-08
4.266189458952366e-08
2.2612115981564664e-08
3.4258981958991584e-09
-8.898463386149473e-09
-1.2947752260368974e-08
-1.0835786399372324e-08
-6.3308822217653845e-09
-2.951546007593467e-09
-2.5776522466097427e-09
-4.857860414057221e-09
-7.474881257735552e-09
-7.165686130286242e-09
-1.2493375092561266e-09
1.073979101701868e-08
2.5867424015244617e-08
3.769252304786208e-08
3.7752280470441235e-08
1.8750448515600125e-08
-2.1136302672806904e-08
-7.425985859552734e-08
-1.2189479302887444e-07
-1.3715029956409928e-07
-9.355518812389427e-08
2.162945725066374e-08
1.9317613579283456e-07
3.691967972221454e-07
4.654711328796823e-07
3.8821102669365426e-07
7.47389966557215e-08
-4.575668863817883e-07
-1.073379396263817e-06
-1.5176634931769678e-06
-1.4718889913580923e-06
-6.741582948711461e-07
9.188536515475797e-07
2.9836838059885733e-06
4.776597616503999e-06
5.256179433909273e-06
3.4237798453213925e-06
-1.1595080494615908e-06
-7.831655701468818e-06
-1.4516942779109417e-05
-1.7928360716661102e-05
-1.4484442325619365e-05
-1.903361707836221e-06
1.8918188855799713e-05
4.250199695922569e-05
5.8828840890790274e-05
5.564040795302391e-05
2.3180782117653206e-05
-3.954319369908076e-05
-0.00011918630975847255
-0.00018631936992392965
-0.00020059691443043574
-0.00012430432021852018
5.752822082146802e-05
0.000316545596498421
0.0005698930177456481
0.0006894126676688338
0.0005385036358218347
3.453713952715073e-05
-0.0007790969047536768
-0.0016812212916149866
-0.002278649353131613
-0.0021000347382756222
-0.000782607518953688
0.0016864118062557723
0.004761111464202015
0.007282964632718325
0.007698368127549687
0.004598211304028213
-0.0024996988517178745
-0.012371336797290912
-0.02170031172389754
-0.025513562017910444
-0.01872321183107537
0.0012996567515842275
0.031708875186903844
0.06181856378529243
0.07272245263020528
0.03994754162805026
-0.06071425809602898
-0.04537262221008897
-0.11455864573727038
-0.04885307520243453
-0.009682412898788708
0.05422539550132818
-0.003971629177816048
0.058214094055697996
0.06135883410690021
-0.0030886546757185754
0.025845705615156932
0.08392384400740867
0.0931676133734647
-0.022026564285747136
-0.11704295578468722
-0.21178008641190524
-0.282953510036398
-0.0678919877289011
0.11951912929321944
0.36476336863935355
0.328507959828931
0.23128756038337336
-0.1472130962379137
-0.4548942597725486
-0.34691954025643945
-0.06797925286638377
0.15579018288808558
0.31441912060213
0.4064288553694054
0.033164989571000565
-0.40035104463854965
-0.2792336517430634
-0.17308116026110906
-0.03715637926042765
0.17736889151755283
0.5076227756025774
0.16508626613756663
-0.2693571708977626
-0.03841040410588594
0.6080140860166702
-1.168036717723644
-0.37855144027867327
0.39259756147607067
0.37795912157248523
-0.19380833108059412
1.0837518468206078
-0.011147941676306856
-0.5180060840436387
-0.4713307882485471
-0.6774816449924248
0.0959480293467893
0.5116442861822763
0.4389214654852621
0.12679654723540304
0.1864775928094943
-0.2099260964699109
-0.31592525032696783
-0.19003279505366982
-0.07742937488969288
-0.0008114686189485036
0.03764450451355545
0.24612152631966175
0.23060529522103435
-0.014066611096795457
-0.10585928193100273
-0.0699483976709349
-0.12921753134961678
-0.09543613494492365
0.03528399758391212
0.08147553083194779
0.07088258457024232
0.03322048901452219
-0.0062155121194590645
-0.03051999046217162
-0.03252298429374361
-0.014214162673782154
0.014880667508519334
0.03986534851430428
0.04315315949431974
0.007804333885245652
-0.07864666585762015
-0.020653332044403016
-0.012632779126766573
-0.03956224907234789
-0.08062882583624263
0.0845821066395452
0.0688511546624697
0.07130379501240514
0.07500820082693992
0.049766785917661434
-0.03999095919434178
-0.024267079669113085
-0.11718819853075328
-0.3117796760894453
-0.18369724846528188
-0.10546443960921466
0.13140050013754065
0.49408150832917547
0.8975759667445065
0.6166084558085936
-0.27484822813864884
-1.0442483518552346
-1.0428861684569162
-0.8783400699132979
-0.6389262767029821
0.6266211867634238
1.5951040067839022
1.9604642777845154
0.17554613988983678
0.07363803467689199
-0.4298542010927827
-0.985760536767567
-1.8587461903772649
-1.0253272492434733
-0.35861752014422266
0.2915835359456792
1.5470709949963024
3.926740577633047
-3.094999508211155
-0.1570612653626066
1.4025419352401838
1.8292789927534
-5.9225351022479344
3.349834463078094
1.0227415821588566
-1.265440158612117
-3.3758861737142745
2.1106842542337487
0.41193801580225153
-0.7901379565805104
-0.30850428514890005
0.59947101078557
1.7277366001772498
2.496051650192862
3.0288667443401014
-3.060111758909023
-3.4181982119469336
-2.921440539198537
-2.5562359313960092
-2.07951064093261
4.546372496190456
5.224170760088555
4.028040927068335
0.8716943238884803
-1.9992389691328998
-3.3238757825346865
-3.66516456495156
-3.313287482446387
-0.3645153006461578
1.9856141722600005
2.978478484245934
2.761672828728817
1.7105801507425957
-0.10980595800370387
-1.1144319902639457
-1.831785618666159
-1.6739299460362433
-0.9232088721170498
0.20498611453599855
0.8005705464833978
0.8113107913974341
0.3447306188115281
-0.041753389253835003
-0.0336841038839947
0.17892625880570648
0.07446393523878399
0.003853784033011824
0.019835057105223635
-0.0769252901431411
-0.28494016997121274
-0.15299269480320724
-0.14490679212230348
-0.024612888006112863
-0.06359192005508015
-0.06805564715554537
0.1806058560246934
0.28109029503230476
0.17310367060939455
0.11273869185627118
0.06760318110021392
-0.06806222938041635
-0.04299760810425759
-0.21148678952298325
-0.2984940700632318
-0.1761228830855983
-0.05697452585963176
0.09504261222128586
0.3414650407608997
0.34267776297353136
0.13782771217326473
-0.06208595290512247
-0.26726622569949743
-0.29368695305084536
-0.14773122941442676
-0.018386979162943882
0.11996666670688332
0.2965336910305321
0.13088927760027322
0.02411811537580517
-0.04177391178168511
-0.09635831315722676
-0.16886395646215743
-0.07697500204874713
-0.02071603684906524
0.01654505834881653
0.06077331786631796
0.13664573184713047
0.057591370254432415
0.01994083129444709
0.002988124430904563
-0.02534013214623145
-0.0993015588017079
-0.04567433829387319
-0.07657823475228138
0.013234596663196915
0.04420178564301037
0.046076388150430296
0.050602435747008366
0.08513655073208068
-0.031117848870029077
-0.08787595789627883
-0.08245320518525526
-0.017971563625856734
0.09765585764698241
0.051869433176384365
0.027720351743388928
0.005392045274080528
-0.03466737778042283
-0.1077935655788588
-0.02184763749237464
0.02395628373237883
0.0376464193918363
0.031173395584894268
0.016557852747993134
0.0028536966521388206
-0.005308139835638466
-0.00753064688736198
-0.006257632070950402
-0.004836671571688771
-0.0056855080507492
-0.009069995414624476
-0.01281728948196683
-0.013085815572688092
-0.006079110023136061
0.009691285526264012
0.0312872698539458
0.05027535732203221
0.05357830527459741
0.026686228015955084
-0.04119501998808628
-0.15156706196847256
-0.09295622032214282
-0.04134780466255115
0.034386373712548914
0.16337936019192836
0.1632495996734004
0.034038043629228375
-0.04179612833936411
-0.09332493437945381
-0.15165285537611287
-0.040834440043329735
0.02753331771844564
0.054749614148701754
0.051372005290083476
0.03172965659340274
0.00889310044323308
-0.008432886120026543
-0.016731811797979182
-0.01671177921663494
-0.011453626893166164
-0.004539244936040164
0.0012673574522458842
0.0045855625228729225
0.005332840959948819
0.00425560318944304
0.002367283351755921
0.0005109736890478293
-0.0008510607474713644
-0.0016266043829859553
-0.0019392581888334774
-0.0019363964188711213
-0.0016540469300755788
-0.0009960290743268544
0.00016584733225767466
0.0018150682976810556
0.003622153280832617
0.0048871687495141486
0.004678084022578119
0.00219132934980716
-0.00273469712911506
-0.009132790033980504
-0.01471031078441997
-0.0162113200935039
-0.01048694314552522
0.003830787893850755
0.024496974641280204
0.04441641820487436
0.051855461743074864
0.03268914151841999
-0.025434257678091248
-0.12811993192488327
-0.07040374753690792
-0.03616633872873167
-0.0019320051839470881
0.0555305665353834
0.15012624242377445
0.07912290768056578
0.02051942357620428
-0.06359079338925998
-0.018540089997994214
-0.08618187645355539
-0.09495367268086978
-0.053791959194593376
0.048629275680357686
0.039728152400441384
0.1560011006487113
0.03607247378995484
-0.0837604577501097
0.029422126188298498
0.006699648286883168
-0.12047170064351091
-0.11947312843693628
0.041247252160853676
-0.013466933549457539
0.1267326586093562
0.050495122356992224
0.12134688077805485
0.08042308560602572
0.05584976789396996
-0.22317902978936655
-0.2119295481676187
-0.34076514533678665
-0.015297642737909668
0.1733396820821171
0.43279425285204953
0.5572207600228466
0.3274313109500896
-0.272749402107284
-0.8293347884512162
-0.8744416640054405
-0.48286722243751506
0.3010827882272666
1.0112756389127686
1.101801213520098
0.509874633963968
-0.3406142795175
-0.49238621026094886
-0.7812243140451649
-0.5628518415242397
-0.46619426148351406
0.41247683795622875
0.475848673713332
0.36725840132617193
0.10902314824485786
0.4563605251563925
0.0777246110438532
-0.03744132755416573
-0.7513586876500804
-0.5449217204247553
-0.2942097222337787
0.1337887258699478
0.26723606791080884
1.2094144382929408
0.830551327745881
-0.013908475705203389
-0.836776226516099
-1.0597766656140655
-1.1692842146816886
-0.5144450615811192
0.4401529714808374
1.2185450937244768
1.4264920880982612
0.8742246428064876
-0.039893542997512556
-0.6769225223544756
-1.0551562229873035
-1.135535207380309
-0.5343993975197082
0.3100185284585754
0.7132970897410862
0.6800114258442839
0.42721198719608644
0.12334519818916372
-0.1417976433910863
-0.35501441909565384
-0.3555564995204593
-0.20352788941976116
0.046603709757352264
0.161057377964922
0.33095611842436795
0.17068499717815372
-0.08444833040222895
-0.37947360284548015
-0.2425617227858978
-0.19419081116880083
0.03440915680642101
0.2758558982872928
0.5023080836363772
0.4133111048693799
0.24502977141810603
-0.19672317797278402
-0.6868840693392544
-0.5305118744799951
-0.5293703143195175
0.021231678898812483
0.7037306942159877
1.128670477984786
-0.3177554315373994
-0.5132615193267275
-1.0203329278476565
-0.691693626076366
1.7364187357694467
4.869189389751786
-3.090951180963204
-1.4556344256332643
-0.7547762016048062
-2.4828132157080263
-3.932565056879044
4.470490098950603
3.9691388531480323
4.287868722650973
-3.2567067791421502
-1.904961020773042
0.31454677725063995
-1.1978747750803993
-3.2229249551798165
2.590367708100529
0.9433043548590859
-1.1742420567444536
-0.1949460130336134
0.49818528809704354
1.4543659120681536
1.0709649885399604
-0.23928916635921169
-0.8255971148033503
-0.7367216006374809
-0.8502685421738628
-0.42661335856351157
1.6914375747711157
-5.369717491408223
0.8033054038988413
8.027803651162571
3.0923138575704434
-2.973280564627424
-1.5109199884122473
-2.384595976285093
-6.772667586836613
-1.305312106759934
3.005902728384568
7.684569232049531
1.2644964084627155
0.6553086249722345
1.281011960442687
-7.613615993452308
-2.9678074557054908
1.2765609885185127
2.0734533129483292
2.485891222335847
3.8659810247257003
-0.7383203512761717
-3.72849471815563
-4.888201099727772
-4.974299152094207
5.1789072934696865
5.854087791695627
4.032978176811177
1.2850883307619134
-2.763352404958055
-4.400132266662549
-3.3401942197243004
-1.50997702939969
0.006564364961249412
3.046168147198843
3.129168024087987
1.4078846172415984
0.09459723266905883
-0.5809159352922256
-1.090200120723946
-1.6490143134525554
-0.6469716259793931
0.08334891615097138
0.33010018542042024
0.29847622113014005
0.3588206108661668
0.17267633011829217
0.21997028149472472
0.14285868977448482
-0.08668528826430726
-0.1757538574562424
-0.10127370440416363
-0.09051941618665373
0.0012147265466193975
0.11076929315094755
-0.01716165979078756
-0.019213019985889233
-0.107418891695504
-0.06839035617126933
-0.06775972199939874
0.3408710859413318
-0.19534548486765244
0.16094223247281433
0.030103640451065294
0.012992748706057123
-0.30721660789462885
0.23976331437083817
0.017383152223680916
-0.011586683990433357
-0.07930456671580219
-0.00806863007074245
-0.007448920349500458
-0.07425352884262111
0.004423404722245211
0.045739040572282494
0.06474553257473285
0.06920407948811035
0.057535898272915824
0.020963954668468218
-0.050618676012572084
-0.16112725070374279
-0.10223392902833471
-0.051782473158222056
0.02187754579792315
0.15064907424232069
0.1558235162336767
0.03981300500380174
-0.016237825360862143
-0.04803824317091079
-0.09858910669496415
-0.0067155969900409606
0.002914463712145622
-0.07416967730623891
-0.021298369232357926
-0.004787012471611178
0.017903922555072668
0.08789662936043269
0.035023049528463815
0.07083473104156064
-0.013798034624267135
-0.046103722849967214
-0.06481144926757919
0.08862229854898239
-0.02100191010262395
-0.015024706454108817
-0.09596176295452034
-0.046281130555944086
-0.031704665978042716
-0.008914346147358154
0.0638209090577456
0.21587574338626317
0.056701460534210886
-0.025884733277825565
-0.06089124193340816
-0.08464754407461741
-0.13013866050753028
-0.018846536936894243
0.042578578601925175
0.06058125479927025
0.0495306198382452
0.025616892173798884
0.0020006390112081674
-0.013650857079061622
-0.01924030044977242
-0.01669358643997322
-0.009806625131965896
-0.0023420195197405265
0.0031440470712316313
0.005658220020390539
0.005503881650325802
0.003706746601852648
0.0014260085203146866
-0.0004587477785173237
-0.0015193686503121738
-0.0017438220810139988
-0.001380853522002032
-0.000758599485862019
-0.00014636934760929064
0.00030899740732351805
0.0005759011647183698
0.0006867029531081298
0.0006775750477485683
0.0005500826997937253
0.0002716610439608566
-0.00018553543152824257
-0.0007853843122702651
-0.0013789099754626755
-0.0017002197146820852
-0.0014325404000719842
-0.0003461173467954634
0.0015249892610694025
0.0037366244305168743
0.005410791310695239
0.0054171545855359726
0.0027879581399772456
-0.002704659618835334
-0.010001248777300395
-0.016527036455341856
-0.01858514377023905
-0.012546324746887166
0.0032711882278981304
0.02652378432220517
0.04941568712306914
0.05890715706196531
0.03926288916288734
-0.023128232848598263
-0.1338484354359153
-0.08564680323067424
-0.05715205951517441
-0.016560393803531102
0.07016954695261544
0.22914937209522449
0.07016738364760772
-0.016562726870736157
-0.05715142194494519
-0.08564040669969396
-0.1338355908921977
-0.0231117410373599
0.039276420415610865
0.058908686875319576
0.049397009644937935
0.026482147224891634
0.0032137909055409445
-0.012600190921090812
-0.018606685474077757
-0.01648671155680508
-0.009882930470715218
-0.0025213743764388495
0.002983547926094593
0.005535723400152028
0.00534911055587402
0.0034203716663108886
0.0009621478923998754
-0.0010214268477339943
-0.0019529289084210025
-0.0017193674422514233
-0.0005961862537579203
0.0008800326636123411
0.0020573235649851904
0.002329170164263079
0.0013161158351149018
-0.0009452119467083902
-0.0038583748806685072
-0.006259483459441397
-0.006644993562433766
-0.0036898068455862797
0.0029923900694356713
0.012032167174542762
0.019732768381026305
0.020065164544154912
0.005407511154892438
-0.03210690093699132
-0.0991444932293413
-0.0003238288927079795
0.061632893784308
0.08511748846693439
0.06932973420638024
0.015555484625820473
-0.06986087576014025
-0.17225028576693618
-0.06754221367932316
-0.12566723073095942
0.08098494976583848
0.1661319763101527
0.3196621577693438
0.10442418644490851
0.0631784833399167
-0.2649538758578274
-0.32393515432409625
-0.3244685842970272
-0.03945593694002051
0.18571981301810395
0.4115171078111445
0.27969967781484684
-0.0045406290235400675
-0.2779380001831319
-0.21211761609086127
-0.09894522296301005
-0.03377861195960082
0.500696399127245
0.4510797991479575
0.012671440871718936
-0.3489889987459379
-0.6814105054675856
-0.7454899185382049
-0.44447395439566845
0.11552868242307412
0.9448563208060058
1.2947541737374337
1.2185529336865357
1.3940743273752814
-2.389210723978659
-1.90316018642234
-0.9612903075230025
-0.3554877548973105
-0.6756801989604398
2.796156188392035
1.15654676157617
0.3668995162692129
-0.4029179123197643
-0.15852823148279863
0.5950025917448514
-1.4405707784635102
-0.8551679033724197
-0.4654239640181365
-0.3077467301916563
-0.893579481150938
1.8894970334724548
1.664790281949701
1.0837170209844822
0.007833326977907711
-0.6335677597851678
-1.130477717082535
-1.4671958548451445
-1.033975515784911
-0.21009677710371116
0.5736981631671013
1.5153200144385641
1.3074673153130987
0.6379358094890698
-0.041793335245553107
-0.4720235472306378
-1.083966029378841
-0.8794495499633098
-0.3303806158449202
0.27446493197593735
0.42673774262299574
0.1490103824483406
-0.08271141010496742
-0.22491570668114588
-0.14537332888840288
0.1174936393103047
0.9267511505147921
1.2637670261890397
1.0003603480444692
0.025942893968698238
-1.1909764760285912
-3.0507130230550277
-2.337069848898134
-0.44730254637675604
1.0490479290759005
2.3589371235631713
3.600905428136948
1.2178712129187261
0.5341134454434934
-1.9302017577776884
-2.432342567609997
-2.552672580933172
-0.2008099386414625
-0.5394151826483662
1.5671223374951375
1.6184943271526062
1.9244449216592465
0.8956371691415977
0.01896547473561953
-0.8821301779445964
-1.3399294092288003
-2.9485187297039075
-2.9457425938531276
-1.7080330969126645
3.053535892655088
9.067795769293877
4.763776651342688
-0.47852297978744274
-7.061786461511898
-5.179017346206338
-6.263980696880632
0.15674237863809512
5.347048488100189
8.24357341809923
0.8874939739912345
-2.8426522536559458
-2.7226973097880802
-1.7206162462388206
1.5458864051971708
1.9658899788379558
0.27589573005265533
-0.8212654691435979
-1.7679984783271454
-2.5185229646168916
-1.3898723846270509
0.5927096900597963
2.8853875817785966
4.4205059052299065
4.494083387815468
-3.190789025957474
-4.125819668513946
-4.120263549330767
-1.2596365662603008
2.6066395280829697
0.42378948041580455
2.781105266874212
2.5308006108521206
-1.5551546263662361
-5.660405153319747
4.056519019697567
0.4684922244587446
-1.1084579893147328
-0.2983337466435886
0.9637520784018213
-0.32391230653825515
1.2309388457761314
1.2900478683499614
-2.332526369658191
-2.200074922246058
-0.22527427949581427
0.2900381008351215
-0.05498622889028262
2.0875753925397444
1.2674212697354879
1.1424178319897949
-0.9316846617012811
-1.2282721673181314
-0.3227400949048892
-0.3552123617603089
-1.1232610735616309
0.1714635733292134
0.7182009980998232
0.2460170216178483
0.14982481091526043
0.41858413471698525
0.3849387480899873
-0.09388890002821802
-0.023824278611881678
-0.23873823487154774
-0.55683647541251
-0.5450418554591271
0.09544397239446191
0.11700687325022409
0.2914602564479236
0.36647739833929427
0.42812823890341334
0.0820923043928119
-0.14105281915779108
-0.3597955050596583
-0.30533385124372203
-0.2880255731298023
0.022843894824599097
0.20189453834139084
0.2562112480383447
0.20762330713630348
0.07742806849980007
-0.12084802314823531
-0.1800168455410913
-0.09269507090223399
-0.044888081292914724
-0.01377831798476983
0.028904609949448604
0.10924858906195935
0.04222827076201912
0.024771074393539434
0.033291539202973223
0.02670228766714353
-0.04560760147036185
-0.03252730055971271
0.030867999211684014
-0.0663612307491924
-0.10482216021241417
-0.03447669912877917
0.018972777658078938
-0.05846074757656974
0.014322548843539975
0.09614896713285187
0.20956841708066562
0.13424808916501452
0.010532604261222222
-0.0467358654438415
-0.12743757624385366
-0.3044482810587028
-0.21773214808814637
0.13077030092371314
0.17044538997116823
0.14702829486317692
0.10570936849387035
0.07844731539124475
-0.12115780378284662
-0.09561960528011598
-0.05679634843101993
-0.0183261463803167
0.009857847987397274
0.023780798661315668
0.024852484042238786
0.017690466865554037
0.007643058318388819
-0.0010701880841958002
-0.006221095412072042
-0.007518525167256782
-0.005980543208154858
-0.003133837609037882
-0.0003505839782725816
0.0015222960225429673
0.0022338285267362286
0.001987978497046457
0.0012126927764541996
0.0003440267111257149
-0.0003129027750424372
-0.0006310223015712625
-0.0006355628410363492
-0.0004402674063757424
-0.0001794201239112957
4.1569857078865746e-05
0.00016843304477997335
0.0001961810080812639
0.0001525632781125283
7.739125889647852e-05
5.69436066450087e-06
-4.144670087521508e-05
-5.8350527565002564e-05
-5.0851038004504374e-05
-3.0249159231465515e-05
-7.781084519064411e-06
8.861684627712525e-06
1.6628916308963216e-05
1.6358229367584836e-05
1.1086045459645012e-05
4.29322047914416e-06
-1.3435982684547656e-06
-4.491264103451864e-06
-5.082424336414385e-06
-3.87164555882003e-06
-1.898261596292336e-06
-5.769891342274055e-08
1.124888472948928e-06
1.5223886279972809e-06
1.2991830084704817e-06
7.528339408618211e-07
1.723849745403753e-07
-2.486416110721419e-07
-4.3750870428315217e-07
-4.205859307197229e-07
-2.78728875234642e-07
-1.0205568070066931e-07
4.155585277215225e-08
1.1946627230804047e-07
1.3151060353612499e-07
9.812317760766942e-08
4.640036267432551e-08
-7.954786723111965e-10
-3.0410067900840143e-08
-3.966573687836804e-08
-3.315337490185787e-08
-1.8694687684582698e-08
-3.716637603127542e-09
6.919497620388057e-09
1.1491718160829695e-08
1.0801330319079294e-08
6.9963664408752156e-09
2.4071737199863314e-09
-1.2472043303865198e-09
-3.17056111588198e-09
-3.3988821697609263e-09
-2.4834920656262167e-09
-1.129873394613761e-09
7.893685862523284e-11
8.191835135174644e-10
1.032124121621976e-09
8.450174559802047e-10
4.631299650098397e-10
7.707929488411277e-11
-1.9122519020722505e-10
-3.0136295310555985e-10
-2.770787473359773e-10
-1.7531297863077605e-10
-5.625476699523557e-11
3.6619674155920144e-11
8.396602173897856e-11
8.774118637780832e-11
6.276998123556191e-11
2.7396487862905217e-11
-3.5285844294433816e-12
-2.199574627271821e-11
-2.6821775468465395e-11
-2.151165255792378e-11
-1.1443823998341237e-11
-1.5050147952898155e-12
5.25298607760636e-12
7.891050058248498e-12
7.099654887005684e-12
4.385084957559769e-12
1.3001195042035261e-12
-1.057239096388395e-12
-2.219128416118542e-12
-2.262291388339479e-12
-1.5841334924278471e-12
-6.610347325615082e-13
1.2920200887394841e-13
5.889559391312929e-13
6.962376386107611e-13
5.470433294790166e-13
2.8208926971773876e-13
2.6508920694305226e-14
-1.4344388304084563e-13
-2.0622122257370627e-13
-1.8160892163088024e-13
-1.0937654471551764e-13
-2.953698549667958e-14
3.021993360949463e-14
5.86360643165178e-14
5.836079215741767e-14
4.0017193223145693e-14
1.596106239487048e-14
-4.208297262858398e-15
-1.5629028143761333e-14
-1.7952888670580293e-14
-1.3796167779826836e-14
-6.8351026220788e-15
-2.702567211557955e-16
3.996800434918083e-15
5.479380870324464e-15
4.737808683864378e-15
2.8201698661868293e-15
7.563564859700124e-16
-7.563978546569144e-16
-1.4487605901059996e-15
-1.406133465348844e-15
-9.117419564128415e-16
-2.8566540424063865e-16
2.2850683350100653e-16
5.115409163184782e-16
5.600676994161337e-16
4.450807147215023e-16
2.624880688902224e-16
9.405571690360434e-17
-1.2895363887347888e-17
-4.759474863316882e-17
-2.5757466499443154e-17
2.5043400001819545e-17
7.83296704180218e-17
1.165724861146371e-16
1.3337149827821181e-16
1.3136360852944504e-16
1.1808175049570024e-16
1.0180791418366695e-16
8.871563084995803e-17
8.171934369488504e-17
8.076252485500003e-17
8.392625287480911e-17
8.871124263572652e-17
9.302992714428103e-17
9.570587352859551e-17
9.650594403916513e-17
