0
1.6185337942816085e-11
4.274356041771831e-12
-1.6647728966907663e-11
-4.150045076061861e-11
-6.031739249855105e-11
-6.032186397224993e-11
-3.059232072346307e-11
3.147851306255618e-11
1.1407287166512993e-10
1.883992198057021e-10
2.1302915097999347e-10
1.4697923951222906e-10
-2.983328975651115e-11
-2.9456201362161786e-10
-5.677730124606125e-10
-7.197462358984018e-10
-6.052163102956931e-10
-1.2593901007783893e-10
6.935996418472906e-10
1.6470140981268534e-09
2.3421497741082416e-09
2.2865179620085204e-09
1.0717663260927887e-09
-1.3762421669981605e-09
-4.566904228608604e-09
-7.358861821790138e-09
-8.144766253592697e-09
-5.372933874113816e-09
1.655645849210395e-09
1.1947907126482817e-08
2.23259754623562e-08
2.7725152203136938e-08
2.2594720340700697e-08
3.351340243425993e-09
-2.8713087590828577e-08
-6.523835447873253e-08
-9.081334362750699e-08
-8.647834748135349e-08
-3.700904967048171e-08
5.9412513908826824e-08
1.8252056642726394e-07
2.871348514753047e-07
3.1096516160485967e-07
1.9537795698146215e-07
-8.358550016985379e-08
-4.832755072931519e-07
-8.767908792868794e-07
-1.066616024278367e-06
-8.409734846532887e-07
-6.99137505044712e-08
1.1831477444306262e-06
2.580447912134202e-06
3.517092014493248e-06
3.264105470175153e-06
1.2556662028768452e-06
-2.537349017483457e-06
-7.281495454355871e-06
-1.1190836152192832e-05
-1.1854228580043443e-05
-7.0606913712155345e-06
3.994803741190941e-06
1.9498540831512992e-05
3.439189295115181e-05
4.0980861126105655e-05
3.119816902948231e-05
3.623054046047156e-07
-4.855013779559262e-05
-0.00010192638938283221
-0.0001360525732458558
-0.00012293739484113547
-4.1624121762559826e-05
0.00010739827102235768
0.00028998794389187423
0.00043564209483393045
0.00045113595469628635
0.00025327562715426067
-0.00018428198118640055
-0.0007850500483590584
-0.001347718562985197
-0.001572902154017887
-0.001153726402976284
7.735862394817824e-05
0.0019852943336133386
0.00402363524677332
0.005265621491601641
0.004641092760034505
0.0013820859994704698
-0.004421365467547187
-0.011365619567613365
-0.016662225275136125
-0.01671329943994009
-0.00843400953307478
0.008878149961119306
0.03169782756377288
0.051315488416781456
0.054665352597674126
0.027433500294424172
-0.040916639551632626
-0.15166756053879676
-0.09322243536802198
-0.04155402536759314
0.03438583763165782
0.16359570825731304
0.1635529987953279
0.03420116290519131
-0.04201030475401137
-0.09404802031598765
-0.1528003430904976
-0.042044586710204675
0.026861926583067526
0.05528859530352442
0.05356991397972407
0.035465741370925924
0.01321494008227546
-0.005312494303250278
-0.017028105739939604
-0.02221436041450526
-0.022387853607236708
-0.018542377709061895
-0.010528582580177042
0.0022160349604718817
0.018946214778873868
0.035710595853380434
0.04428976448688407
0.03282386707825217
-0.011573030499459395
-0.09875043536070087
-0.031335778317344375
-0.00203209279536788
0.0064720831269735254
0.01884456630113059
0.062493854135354916
-0.03779479364394975
-0.06489864285146939
-0.013394804650049478
0.1078791966589495
0.07542005990164438
0.05371368161809531
0.0014242063767931305
-0.11969652738150931
-0.13552617590141616
-0.05306064190769045
-0.05920908008908108
0.07450285666362107
0.1831412953270283
0.09907460052496586
0.045991353726984714
0.03846021396622679
-0.11344262206077521
-0.19755835558901774
-0.19568808957583653
-0.08632678901226465
0.1443979934362584
0.08589203618865733
0.08610328344270317
0.24160013410772765
0.20101962117360903
0.18529165958121416
0.22371528389565476
-0.40038411546023733
-0.7061005939779142
-0.5885155947814418
-0.22273763377940484
0.09645617901851179
0.6868724230362679
0.8021517637177975
0.3700755347182193
-0.03443610698193115
-0.17400723795818132
-0.09760748064951026
-0.27018889410147684
-0.3037792425885138
-0.5090855501006013
-0.8813985850253047
-0.9260919217428831
1.2833968463775631
2.4375882249070204
3.747105383966899
-3.8473015751180117
-1.408195068997071
-1.5127585479525565
-0.7960902754948432
-2.3667063549420426
5.303902793335011
2.4563184831814446
-0.057217682467796536
-2.2005858792784005
-1.7005540555425274
0.456499077320437
3.334699005920673
-3.464205236881893
-0.7505944798817538
0.6572994344472607
-0.5153338644667075
-2.8975471674373265
4.603146244046013
2.6893220300540315
1.6211032325643284
-3.346231315098965
-1.8426786431569753
-1.0327508476563365
-0.6993610611171593
-0.8067375130043889
3.25368621044668
1.1662427848569525
-0.009360903025173303
-0.7029000043408848
-0.8503222429731508
-0.4753752172026295
0.1405691355240656
0.48358910617595374
0.4233212068791981
0.025510569040912708
-0.23267827454017675
-0.24364153163709526
-0.2517093712253549
-0.04422204549710701
0.04386555016627331
0.11204047342846128
0.06778946851528801
-0.0010531794255828533
0.15216099330074698
0.32330421531175624
0.263326975820659
-0.10026315239884913
-0.23082406443255296
-0.548561839458654
-0.407711792431258
-0.29583592003215664
0.14080451549291526
0.45193452145150315
0.9333767315359007
0.791937541812345
-0.45987781088146457
-0.5763932364730406
-0.5302811848632102
-0.6640629930754955
-0.46123167872140675
0.8541853654864661
0.8953876483941134
0.48476511435178843
0.038503823525964966
-0.4269373304750899
-0.6716466417536585
-0.6084583796801962
-0.2962778124004903
0.03956093449434014
0.5632352113695881
0.9765957077730242
1.2816739609369356
-1.024247960283289
-0.3164379669045429
-0.38598603865061915
-0.582367880535912
-1.3787972315783046
1.0264680033355702
0.47519400542449003
0.5981253115217614
1.3736033390325213
-0.28197445826501183
-0.4841270799787624
-0.7216050643718246
-0.5941297566268586
-1.3747831262718655
0.7838210332616287
0.5976996612511686
0.5702643194073153
0.3089311663430479
0.2659319486944182
-0.0808031243566976
-0.004216143536652192
-0.07056801676591769
-0.26263981458278635
-0.30085771270430217
-0.1784887541009909
-0.12336702875309996
-0.1929128320594027
-0.10262917704958115
0.11798574895613899
0.2533525446462108
0.42828009632475744
0.2484395598216371
0.16727568769321802
0.08530816753498259
-0.22036300535573652
-0.6458207425489303
-0.10294664762180779
0.1321651361556543
0.8571043213596744
-0.8343772354301289
0.055936705633849136
-0.17497751134841075
-0.1524673196113915
-0.8605467527468371
1.3112805316101357
0.5213491747999734
0.44386555631079333
0.06401723141883321
-0.6973376604897337
-0.7399116382469332
-0.3400860380558559
0.07530686794598056
0.12932364452948583
0.6736255246138109
0.3585481185440123
0.008872356145824803
-0.3858937093775836
-0.26661048725475417
-0.09159760387246717
0.076303430763259
0.17815450296094265
0.16300049458902555
-0.009601605574621688
-0.1663015555643189
-0.11598950545694695
-0.04724289494136389
0.07057889566139261
0.08200794390031485
0.03733683592371107
-0.015914950075714633
-0.03993041209053283
-0.010980416037810846
0.07884603602898815
0.02244177092260567
0.0009042763758272484
-0.01117070911443265
-0.039279410773666014
-0.10301799518486335
-0.012146405081762983
0.03422904604718739
0.04539469443091538
0.034850769318376246
0.015912732181621488
-0.0014764579978345533
-0.012070498370595753
-0.014932407509310942
-0.011990429287847148
-0.006311739296364341
-0.0006969636741103736
0.0031059630822877137
0.004562373256341928
0.00407106721501022
0.002495516375639012
0.0007225395986346482
-0.000623810431095761
-0.0012809749059041948
-0.001297367661669657
-0.0009032688412913969
-0.00037232416741745587
7.96663097502802e-05
0.0003407778565070201
0.000399707276848437
0.0003123427883284763
0.0001596610741005832
1.3264060065561912e-05
-8.350431075200698e-05
-0.00011869503160301284
-0.00010394945771430822
-6.220517406605357e-05
-1.6394688353057896e-05
1.7703700958909653e-05
3.375855187314856e-05
3.3390155533922e-05
2.2744967102663825e-05
8.916740839528842e-06
-2.613367449406939e-06
-9.093737631998414e-06
-1.0357930432373394e-05
-7.927273826396855e-06
-3.916765274591188e-06
-1.5763308618550473e-07
2.269479322108058e-06
3.096007644364744e-06
2.651333115785904e-06
1.540946731724656e-06
3.566516499651973e-07
-5.02836270867313e-07
-8.857240163180018e-07
-8.448426977535764e-07
-5.475596970752999e-07
-1.830675707845177e-07
1.0383397776612575e-07
2.423706576227825e-07
2.335656393731966e-07
1.2834498799766474e-07
-1.2306864078664108e-09
-8.841860451065628e-08
-9.135811808174602e-08
-4.431741953945644e-09
1.3886397406393469e-07
2.723725220639157e-07
3.1438656801874276e-07
1.9545902011258097e-07
-1.069772561563763e-07
-5.369855753512575e-07
-9.467341498413788e-07
-1.1178539586687187e-06
-8.276309408066662e-07
4.55609636944904e-08
1.4057216273481375e-06
2.8618200377566545e-06
3.750058613954597e-06
3.3027287959898026e-06
9.657921728377765e-07
-3.204677536964463e-06
-8.216535876819316e-06
-1.208750548892113e-05
-1.2247452838894671e-05
-6.463690619223456e-06
5.8630257475915e-06
2.2455251580961126e-05
3.761161686581783e-05
4.3029259428078775e-05
3.0385628277058967e-05
-4.571484167362934e-06
-5.756587595988964e-05
-0.00011295021921127962
-0.00014481723518109277
-0.00012381213097425412
-2.959822685502274e-05
0.0001338861744009565
0.0003262783386386616
0.00046954008066392916
0.0004645473691333123
0.00022770008527680312
-0.00025886953086849094
-0.0009003394585699059
-0.001470517621202159
-0.0016470521530919365
-0.001114448086530035
0.00027654352513778213
0.002339033833741307
0.004447298162809642
0.005590984818818164
0.004650719278579902
0.0008879074613608519
-0.0054683260443888475
-0.012770377651536283
-0.017940295246331738
-0.017161322964290068
-0.007349087077183517
0.011852360656055726
0.03619549979294298
0.056011902102938806
0.05737691981271841
0.025701354671611183
-0.04876610098945711
-0.16523206750890607
-0.10901051432974174
-0.05292284730588331
0.03572704275687099
0.18428256871050736
0.2039186245217384
0.08356568210549159
-0.008207031390576562
-0.1133551904685444
-0.2700956910918619
-0.09982442850060023
-0.0004038676230622551
0.05173798421043174
0.09194600928770826
0.15421398938511335
0.059609062379382384
0.01020158620350354
-0.009856979673632525
-0.027050361381842823
-0.06791380635016825
-0.14894528275378854
-0.07058243776620783
-0.01756344612993425
0.034100476440058834
0.1056884611858815
0.20380430997731028
0.11222813723073917
-0.009395157416975485
-0.2197891020197944
-0.186065421578384
-0.17415185126124982
-0.043412031538717165
0.15405316868625246
0.5731145523186079
0.5807184722092634
-0.028412505658589653
-0.4064280939964156
-0.8274363198115579
-1.4800057658725043
-0.49275913766066787
1.0036590167015464
1.795219949326128
3.318469459230571
-1.7539166733050298
-1.2611154422797917
-1.0557178122487374
-1.7052224030566772
-2.2404117462743494
4.027156732898496
1.6322962867892354
0.06956111273226266
-0.26281207029403647
-0.86756910593346
-1.3120233972525268
-0.17823149132949664
0.5756745734752472
1.0344865454721888
0.5329690562702534
-0.13549181981249195
-0.5022517673168807
-0.8060002711572666
-1.191653311394248
-0.3417719975408087
0.6556343135388979
1.4180286075758923
0.9894483698545258
1.0072267101566894
0.33710542409662914
-0.6255495721383637
-1.8183132884934077
-1.9872285982261675
-1.4265185560901223
-0.2142702618891223
1.2608328820947985
3.327301703794383
3.085274258969686
1.1567405536005182
-2.036377153639957
-2.692647443540911
-3.628223180948938
-2.1456893661809078
0.35915603224656023
3.448405610846851
3.0125559487463662
2.2593330969849057
0.21034567696025688
-1.2548691391156115
-2.2316177630112164
-1.9711759029035936
-1.4946634123409723
0.2979331720550637
1.2044416522584143
1.4082699137378847
0.9305534611688631
0.502754397462901
-0.10284990717629951
-0.47534193879795467
-0.7153233128410872
-0.5622066205656979
-0.3287828427551918
-0.06394042735817455
0.24994453973044461
0.4721883475103031
0.4675825390613382
0.27650080997659604
0.10391471416005735
-0.2696071430948461
-0.46191716487407647
-0.46213349244446295
-0.41708132940832027
-0.04072397760297548
0.353883350949853
0.811206647492524
0.6963659666157456
-0.11786441894632586
-0.2315871108476285
-0.27031540746965876
-0.6248468885492224
-0.39757979974674496
0.6295569592374538
0.1990475580524951
-0.4443224844312853
-0.19517963954599107
-0.1422889185173016
-0.02986322867815929
0.28358399487279734
0.9820918963771308
0.8800606464165328
0.0523402039453505
-0.49347360253490596
-0.7185765303486144
-1.0575937528623764
-1.1587290882712844
-0.08214277212427593
0.24066725067899117
1.7073512902559465
3.1439954842955196
-1.3551945738531783
-0.82393428825848
-0.3629907924924524
-1.256788108250275
-2.309595324675402
1.9694707239897833
0.9283660493367405
0.5022086351451821
0.5463608234315274
0.002356808081568915
-0.09130406395462555
-0.15040140502964913
-0.577800247763224
-0.9022355845237289
-0.5452075699838776
-0.029087312984820077
0.37494006840077876
0.9763472191368633
1.0003949011088238
0.7578488834874693
0.0669849185351913
-0.6743380866215678
-1.1901423596468457
-1.2390368453276588
-0.7760604581254098
-0.18652951672587575
0.6106023255375377
1.2188911481534948
1.4270308595839156
1.527438065601878
1.3252104430829352
-2.35766179936202
-1.7133616248579544
-1.172320993176132
-1.0827796019919942
-0.8867161089963735
2.6044333778070103
1.4675081342450647
0.51334184090986
-0.2273852602853684
-0.34907401792582765
-0.04682732406340991
-0.24252118586129265
0.11255916385079583
-0.06548142653504853
-0.7165291382911743
-0.9955470070472938
-0.07769653508964311
0.1893947683338257
0.998534973878141
0.8859204799383236
0.25346393399145045
0.13260168746001144
-0.40409294652381633
-0.9939717846246913
-0.11906347621263942
0.35380005363860273
-0.18649701632875734
-0.07774473405708045
0.21416744644760075
0.08160448835486904
0.15644044897449227
0.09237980715428994
-0.04769610805494045
-0.19852436790206238
-0.09540431749557768
-0.07654899413336588
0.11279220244269221
0.11445070491053372
0.15197985376933718
0.028822297803862182
-0.06825204678999787
-0.16115705818114148
-0.07088637365752379
-0.009931674910712235
0.020750861692011638
0.029814125484692235
0.03011275123557887
0.032216331957724234
0.039199393280963536
0.044419744403529964
0.0330653472015548
-0.012821338963977849
-0.10723246872415276
-0.053265195742477595
-0.03888984551757188
-0.03727386127181218
-0.012117512645461062
0.07316115749291574
0.044868179115008414
0.11023795781155081
0.053320698974249875
0.03734344094705008
0.013528955123360513
-0.06565787241302176
-0.23253707595138592
-0.09397070698239694
-0.028622127423527093
0.006762745614787411
0.06365917384193441
0.18499368792604784
0.19094088259767691
0.07234862252725854
-0.0055476976447180245
-0.09005935355030642
-0.22310314045899124
-0.22492454259908704
-0.08569915474794604
0.03154668905509082
0.17755474042056826
0.19795487649506585
0.11597607002089184
0.12312084563946578
-0.01893881073612452
-0.16613487006819563
-0.17396457823315312
-0.08001214764942051
-0.09286540911780004
0.009325942541933032
0.0708630216603782
0.14430645163915304
0.07497881657598013
0.08901487276529037
-0.011795091384954002
-0.047614963413551384
-0.052296287156034564
-0.06246798422672655
-0.10755588991068912
-0.003523223840630958
0.048412288831727504
0.058607306255384045
0.04328345438737056
0.018663349645453915
-0.0031943908854877977
-0.016087965299372113
-0.019155814906669098
-0.015029290438268424
-0.0076556144857943525
-0.0005520794742385015
0.004144472238105646
0.005839937239885037
0.005101185893450739
0.0030511966186343147
0.0008122860415813968
-0.0008463890013810778
-0.0016217909284929584
-0.0016024340864176081
-0.0010973958451723472
-0.0004567068716043945
5.798918086658872e-05
0.00032971461665453965
0.00037625577527418847
0.00029789570772612587
0.00021095613885886822
0.00019104409167026572
0.000241695545072348
0.00029534394932321557
0.00024549735189385115
1.475204452068347e-06
-0.00045030539579522783
-0.001000806165823374
-0.001413438837068118
-0.0013793852950379785
-0.0006367643453196995
0.0008694621752126214
0.002841332279190455
0.004573733529718244
0.005070510502477187
0.0033711443332767707
-0.0009513623891032235
-0.007267671162853647
-0.013588448611078992
-0.016759893123102488
-0.013360052704762957
-0.001278795575433444
0.018365804969020016
0.039662194032568945
0.05156525459431585
0.03951040016971592
-0.010868364084001544
-0.10869130862254449
-0.05313937027650411
-0.03114465591812471
-0.01892279715569621
0.012517511684459902
0.08922175521111299
0.0258482478961675
0.019542699526216192
0.048194636473322484
0.07407717499243997
0.05262158859429213
-0.05523043773708992
-0.07002391451393888
-0.18422972000620755
-0.16055090658107515
-0.1414099383746428
-0.07021086211488224
0.07891806183878221
0.27028131525898713
0.3850140120465072
0.4194827100769242
0.3112526419010167
0.19321946367085513
-0.33306319627644626
-1.5234821064479958
-0.6413447279696732
0.04682947833463338
0.020562323398538175
0.20935384811730542
1.477256222334651
0.7212693753941145
0.4126619857362704
-1.0040491638915559
-1.4593428931468655
0.6256493313035274
4.232841009489412
-5.366695843984546
-0.9474251372604978
1.6995824331379763
0.7473436148335619
-2.5295657544405965
4.16223358162763
0.2605617641323508
-1.296866275220798
-2.081566966997623
-1.560197444582452
2.7246469311564705
6.174482676280123
-4.4302435610046
-2.4705867576122404
-1.224082168111117
-1.0377988660465316
-2.372322657858559
6.692440946501261
3.3439240467414666
0.38991669387955025
-0.8715019825572111
-2.4745784107417736
-2.7735782754238225
-2.2978254274087253
-2.160059824047397
-1.6523790706093162
1.2045240909555293
8.660318127172589
4.728767018158207
2.9197135870694813
0.28431382115006626
-4.269787344322847
-13.955617147302785
-2.800960721947344
2.7487400580814385
2.4497963333527646
3.986686236658198
6.993341277866423
0.1676259775636846
-3.390755003129374
-1.1911562436195953
-0.5714996044163849
-0.22461630199244562
-0.7193337644971431
-0.2727944854441397
-0.40209371660889875
-0.2635165496562357
0.12729798086665436
0.6133226971632832
0.5801941995018061
0.43743762118420987
0.12370140627504604
0.05228338479792053
-0.09972629109624383
-0.16634951547921958
-0.2459192038433525
-0.248762018688672
-0.253696239539556
-0.08305655008791168
0.10030075690158498
0.17703589403580486
0.2444230598808166
0.18856089186516198
0.0643381726096477
-0.11227443020184134
-0.16003170300747568
-0.12067360847214899
-0.045437221835828816
0.015563487137733029
0.019185164194851966
0.13111739066962827
0.12612116950257446
-0.010935098743849533
-0.08212782128005948
-0.07252059538981068
-0.14773200493626867
-0.055846086439021246
0.06480193978286337
0.07267896714265337
0.007820520158048553
0.07831214173496023
0.05229130458326144
0.05815678887875742
0.1941387340274411
-0.05341542969240425
-0.18579462098290223
-0.06660328125465614
-0.10150884147772672
-0.22869682828476653
0.0766088621346097
0.18346299621430534
-0.12456531292362628
-0.2850510089013811
0.00772812654815558
0.37390628206980386
0.7336656885756643
0.3157783829867002
0.294091934972433
-0.35166601358823646
-1.1658239148424554
-0.9611699508909921
-0.40172185471696137
0.16320889797036828
0.6197311234136027
1.1897619680115143
0.7459664532546626
0.5727848831478838
-0.21035706220708658
-0.569168789718698
-0.8430729439032616
-0.837928008431399
-0.5567977732155822
0.010192725533131034
0.4349372491466013
0.5559924406436781
0.5674023429372391
0.3223641203501742
0.07524579969581298
0.0730760678013334
0.19476946955364147
-0.17371705488224462
-0.6465102674446835
-0.3484213797354064
-0.2492336150410378
-0.33610322884094757
-0.028801378030494894
0.5682655688368183
0.39213283718300723
-0.055299868450400656
0.03136554332186212
0.5268221594919423
1.1726775060861379
-1.9955654398916316
-0.40215075714093557
0.3187554477513521
-0.0385472409007011
-0.4301290375059105
2.2465634141747666
0.15982922259131552
-1.0442328422749023
-1.8293078688990796
-1.1728470020656607
0.1960353993481674
1.9241913085889524
2.7526962246675586
0.06615321529427347
-0.6956416959138919
-0.9629956309537936
-1.931354466627513
-2.07495661029333
1.4813890635826792
1.5218953028271711
0.6534467247554907
0.6151831291026735
0.021730747798592832
-0.44313889221248515
-0.588604565646731
-0.2552238937653389
-0.2532960478042067
0.08118824958649572
0.10535199602834647
0.06445938919546883
0.07009155884378397
0.06994498204222026
0.016690103670764102
0.04128270327733082
0.034057080868101164
0.035197402127675775
0.034785938556388916
-0.018560717786787216
-0.002523085390472154
-0.0023199842167809705
-0.091858892110345
-0.11840524611419105
-0.0939246241812851
0.004955199740652729
0.028395096762037296
0.03852577228020904
0.09245631706072678
0.22786913852672103
0.055311757324370776
-0.040631471195877136
-0.09199443283708787
-0.13354079894450221
-0.18963237354338047
-0.06677408979030697
0.045546069200812736
0.16644871929069116
0.11147109505770854
0.08182030445437893
0.05953852998096288
0.010599414259536878
-0.10501464724983448
-0.11963928365997044
-0.045273641199081276
-0.06628173155240667
-0.14017654524263404
-0.00686348789973317
0.19578478333170843
0.11435079988998961
0.16582263425593857
0.13198710638810496
-0.035413931231801775
-0.20018153770573757
-0.22269176490631143
-0.1430528004247504
0.02800278547288109
0.1082351233070148
0.134841797358942
0.15183267581597282
-0.0012059006571160154
-0.09584357372247317
-0.11671643048017823
-0.060476441274330446
0.065857986748526
0.04590559975544406
0.05469274392296644
0.06057722732879632
0.02948810626963866
-0.06848714885250883
-0.051535580744150246
-0.1199648863643609
-0.05399614262346615
-0.017085270595242435
0.035434558811889824
0.14458233869543047
0.136405930939741
0.014795926691698104
-0.039239399223570885
-0.06184356972332116
-0.09631588533960578
0.017928035033295507
0.054573467898349985
0.00609431016931457
-0.11472967779837578
-0.07761788641461673
-0.04182682799239895
0.03338216349377326
0.17703859512275186
0.19708477878069544
0.07712347147195257
-0.0185169522835989
-0.1323472254765105
-0.29817306790379045
-0.1284874885813584
-0.00999913257235231
0.09081710470249042
0.21454947983725564
0.19363822709119088
0.04127935000698097
-0.051562239311768336
-0.110759425118053
-0.16842179869992083
-0.05188265664141684
0.02359816604421351
0.056568666490439484
0.05627425318820364
0.037053252879740727
0.01281940619542143
-0.006614333504720729
-0.016802546239116572
-0.017931182846055802
-0.012985275832790353
-0.005757924801318854
0.0006413113237374017
0.004508123666804423
0.005558508375415934
0.004494479476541977
0.002421841871979538
0.00035617149057557985
-0.0010613544700585982
-0.0016268177465889966
-0.0014768559411986013
-0.0009211804879678569
-0.0002825248255890628
0.0002088266668163904
0.00045310191377928707
0.0004645538578653932
0.00032549963404698135
0.00013587836707726355
-2.448727417871139e-05
-0.00011396196715650064
-0.00012907868438960965
-9.283878012490231e-05
-3.8783911014154046e-05
3.2740334689460475e-06
1.6579168880575944e-05
8.791281170660098e-07
-2.947033500165016e-05
-5.158384152803661e-05
-4.291893142495287e-05
8.788102237465038e-06
9.693525138623952e-05
0.00019201031256246902
0.00024549450921258477
0.00020393907688010557
3.234349134673195e-05
-0.00025877865745667914
-0.0005932715541793616
-0.0008296509532320011
-0.0007933339110910122
-0.00034336641536725096
0.000539187854217522
0.0016721882569585666
0.002647187470852658
0.0029019850676766223
0.001912313839266046
-0.000522542573371779
-0.003987314713611597
-0.007295185608568683
-0.008634719568144949
-0.006144133126222266
0.0010774394472305383
0.011681682741142266
0.020830618871145692
0.019400347367488635
-0.006075647103996461
-0.07270381077610587
-4.9191668989588265e-05
-0.00881445172092122
0.08062015371416582
0.050324678804868926
0.0883694934880126
-0.005937851675061978
-0.016080265627330243
-0.10409852162387823
-0.2117368720261141
-0.27070450280524344
-0.22421919018338562
-0.058411223100025216
0.3631265985442026
0.6738812094059575
0.6033655786292003
0.8134427962654465
0.37568393207053963
-0.9217963385898686
-2.466437181954177
-0.5515289369548385
-0.18015422985037774
0.04292279118073742
0.3471623261587234
1.6009390125225758
0.53769315221194
1.2529104364008898
2.8048603270531403
-3.474669228894452
-0.7853650290703549
-0.23200545467529762
-1.02894532125985
-2.9844380731470714
3.7138659703994885
1.221226506383209
-0.7019785729331571
-2.0500499413543363
-0.5272520032621374
0.5153809259530291
2.578732056565718
5.38058408960679
-3.48016027477792
-1.3532401666237373
0.29992971677205543
-2.8661024359714995
-5.9431977290279
5.0251080105623505
4.690840046138591
-6.65291990521401
-0.954711224221725
7.556027946690669
2.834132230456183
-2.1588065323097614
4.951341812302511
-1.891794236682049
-12.965639489448005
-2.0456012363374216
5.30710447340237
-1.799769079135811
3.2690152379247785
8.87446342487717
-1.4156094653588303
-6.772193977576123
2.9320657905354337
2.883672712417032
-8.071010459526653
-1.2562784567734366
2.9262373037884966
3.4053686516285917
-1.8044379840960871
4.356272171186668
-0.0011162027375990115
-3.655634536295729
-4.607161015311528
-1.456195451055475
2.5205854013122373
3.4047571618647727
2.845344763406423
0.9321372120029683
-0.604093407786986
-2.060905799483426
-2.3566914181588894
-1.8281460308244655
0.0950216049449402
1.1040288263444553
1.3262674432275983
0.988525529927045
0.48372265604285497
-0.11773664345429409
-0.4967010360599478
-0.4627462293424604
-0.302789526823847
-0.12510361132805578
-0.016280842059999544
0.1811211223600039
0.07089638329012855
-0.10914701478033555
-0.10759544504578618
0.11798627008388089
0.18152585483196595
0.25718370386878836
0.28110388211191245
0.16846930731679
-0.3566609506896375
-0.5271650005819978
-0.5070681654497953
-0.18656402782823336
-0.003970327901620848
0.40955383562956676
0.5766508917084293
0.7311452621816796
0.20359644469054644
-0.15659320796988824
0.8725175610925966
-2.2474995629360066
-1.5619351675123994
-0.40986958880145125
0.734993869590579
0.5813331779077554
4.132308753856375
0.040173940174625535
-0.5635622159027942
-1.3644449069958409
-2.3284879869116506
-2.1938693124075863
1.1571228163771727
0.8279650836235831
0.7631355970506128
1.1809924962588054
0.641633260167263
0.5918104871230774
1.8037691070626007
-2.302494380486366
-1.4893839740396946
-1.1375976392293026
-0.541998720527719
-1.7020028874039512
2.59217716803572
1.209447183050919
0.9173042425258127
0.26537407837234445
0.3481084500577443
-0.14784335695978776
-0.6325541349948456
-1.4753505937540505
-0.2831362720357597
-0.6299135522606335
-0.05609108952911498
0.4653606598432987
1.017860736099171
0.01821438155881675
0.9150836299193349
-0.0666858333789294
-0.3259341214042028
-0.03383517326071147
0.3536017126894752
0.5991424618347432
-2.0173521628909534
-0.6278801247933038
-0.1527683010077773
-0.1357361768506166
-0.6312987777994186
2.6806372585919265
1.3905078522600276
0.3026848652254592
-0.7513946451753406
-1.6368790719418038
-0.6084282085843185
0.7855327946183789
-1.4449129238039038
-0.1348708054289989
0.9815907829605395
0.5867586387808447
-0.30922925380217287
1.5669190966834659
0.3305070049408565
-0.4326884461585314
-0.9982877893105504
-1.019602772085329
-0.2583166961962267
0.2474486694499678
0.37140166978934985
0.45471041013561403
0.24972338213176262
0.27230125718834763
-0.023934664910766602
-0.04780156208208904
-0.2501388491355154
-0.29318244595497484
-0.22166671499036564
-0.045275055644693106
0.06307688188970666
0.15470479893823433
0.2847396851845125
0.0921443239297653
-0.012822086714263525
-0.05032785614539082
-0.06275563418818103
-0.1004646718445711
-0.006453493271712107
-0.004150883782876173
-0.09101285789544793
-0.03896212018817308
-0.0012973041475874466
0.07556034277601473
0.0382612551606897
0.11414052955974559
0.1035460903002104
-0.0210064757552484
-0.10866456291614297
-0.01891913178368864
-0.00835821057068623
-0.11885356109547338
0.030346975956987807
0.045461122195612595
-0.04394073226304764
0.009049896844593711
0.06026059121946252
-0.03485185391997193
-0.02998342418256095
0.10489403061197962
-0.021018322771768256
-0.020654821952637216
0.07316428221613229
0.01335639788988729
-0.053142950979598425
0.024329579201181277
0.009623081718928192
-0.11295834444745018
-0.13544769902586273
-0.028435605052465063
0.05110208315283054
0.14804475169234696
0.0968842194548954
0.11303636650270751
-0.009397498460337892
-0.09296580496765976
-0.16749018893293927
-0.059825522784647346
0.013487219829316425
0.048638730293011134
0.05232915096372992
0.03687972573893334
0.015068298594240874
-0.0035588839228633522
-0.014210328946806277
-0.016454834144879495
-0.012684328887787819
-0.006299667198088716
-0.0002673733834425135
0.0036493877955473424
0.0049987128070640005
0.004298312920596561
0.0025169282012166274
0.0006057968500811872
-0.0007920735088411392
-0.0014295339646171526
-0.001387158148443637
-0.0009278506785503265
-0.00034794805409033366
0.00012744591745100474
0.0003884855022991529
0.0004325044878030504
0.00032548518802852513
0.0001562724813648479
4.7402805792091726e-07
-9.82539991518065e-05
-0.00013008509375044466
-0.00010966202320863119
-6.254410759012019e-05
-1.3227888964668319e-05
2.2101222010398364e-05
3.7563622465124725e-05
3.563400659990375e-05
2.3301484351394305e-05
8.232229199697372e-06
-3.869689134899706e-06
-1.0320374347118743e-05
-1.1183818386550882e-05
-8.242754654415952e-06
-3.811529605750289e-06
1.808099447863322e-07
2.6505368951523113e-06
3.3867242972168036e-06
2.796472084498239e-06
1.550985687903452e-06
2.7928145567134337e-07
-6.124621830424041e-07
-9.85721730090203e-07
-9.145244847613241e-07
-5.843032916258294e-07
-1.9315894141393077e-07
1.1456512507841866e-07
2.735497735006435e-07
2.8884577651352466e-07
2.0845471779179997e-07
9.258671411873807e-08
-9.598346685891578e-09
-7.12617851567581e-08
-8.805739720072204e-08
-7.122609710611373e-08
-3.836617146295955e-08
-5.610870849930109e-09
1.686429597452989e-08
2.5826496322366944e-08
2.344387720511834e-08
1.4625911782939155e-08
4.485718368442177e-09
-3.329130506934267e-09
-7.235775605527478e-09
-7.451357541715476e-09
-5.264236712752054e-09
-2.238832380877299e-09
3.735886415430417e-10
1.9100799720728825e-09
2.2866718826730284e-09
1.8119195255645693e-09
9.465284498233225e-10
1.0381598832167713e-10
-4.617677157565432e-10
-6.756379610861379e-10
-6.002752904006108e-10
-3.654037256457518e-10
-1.0284360652165511e-10
9.536323086084668e-11
1.9104533160523994e-10
1.9201994854051372e-10
1.3276555621448588e-10
5.3878955612841446e-11
-1.2830861960037025e-11
-5.1034143520058685e-11
-5.928748178940721e-11
-4.601672889994117e-11
-2.3265005877338243e-11
-1.6088695264580465e-12
1.2601114077694457e-11
1.766859469892843e-11
1.5371090039322506e-11
9.129893705829723e-12
2.3395339695055038e-12
-2.6808963720863705e-12
-5.015926215969852e-12
-4.9236774640162516e-12
-3.324360883814469e-12
-1.2701714968500299e-12
4.3128521143970247e-13
1.3789969163117332e-12
1.5542643720720953e-12
1.186123548227467e-12
5.889428711882757e-13
3.305587475269095e-14
-3.2336334413256766e-13
-4.4243101025474373e-13
-3.7418882329303457e-13
-2.0870807065290885e-13
-3.3301800950635475e-14
9.368860487725177e-14
1.5044558616377932e-13
1.4506488894549715e-13
1.0204510989510423e-13
4.862428181958491e-14
5.280275597054168e-15
-1.8171974093885922e-14
-2.172493151451741e-14
-1.1578932528322488e-14
4.071147791274826e-15
1.8323781924295138e-14
2.7247864837847483e-14
3.0017611289410955e-14
2.8029593117768365e-14
2.365106718437016e-14
1.9125309697268375e-14
1.5917639082372126e-14
1.4544206246447645e-14
1.475963803330935e-14
1.5913229028240044e-14
1.7300710806455234e-14
1.8403532293010535e-14
1.8982350363435276e-14
1.9049120875036786e-14
1.877107820642805e-14
1.8361559619083817e-14
1.799654953869225e-14
1.7773521407152965e-14
1.7709876974446386e-14
1.776692708353649e-14
1.788255575225365e-14
1.7999193085961064e-14
1.8080097337085467e-14
1.811316265149507e-14
1.8105646544108835e-14
1.8074796011623124e-14
1.8038801407184604e-14
1.801077822257193e-14
1.7996541026032164e-14
1.7995470712806334e-14
1.800306856774681e-14
1.801378161650037e-14
1.8023119471755408e-14
