0
-7.776604825402973e-19
-7.776626440809133e-19
-7.776594605195335e-19
-7.776493983111277e-19
-7.77633423717882e-19
-7.776159775829392e-19
-7.776048035553692e-19
-7.776090489278351e-19
-7.776355714000901e-19
-7.776842305272061e-19
-7.777438949933476e-19
-7.777915488876432e-19
-7.777967361827821e-19
-7.77732251553523e-19
-7.775894344716171e-19
-7.773932012490342e-19
-7.772092548580663e-19
-7.771353791350619e-19
-7.772718698279209e-19
-7.776735649906671e-19
-7.782964347232316e-19
-7.789618938943519e-19
-7.793667121655097e-19
-7.791601035599099e-19
-7.780889975034488e-19
-7.761794737255525e-19
-7.73885937175322e-19
-7.721157921044453e-19
-7.720451913306476e-19
-7.746953964064177e-19
-7.803395773748757e-19
-7.879339740287139e-19
-7.948678930801452e-19
-7.973408094984308e-19
-7.915447202077763e-19
-7.75536457837215e-19
-7.512777279295574e-19
-7.259348534932309e-19
-7.113679999756409e-19
-7.210107183434223e-19
-7.641628848080318e-19
-8.390082371347438e-19
-9.27057310914637e-19
-9.925817457470635e-19
-9.902158914961131e-19
-8.817200567855093e-19
-6.5896186242297955e-19
-3.653992452157487e-19
-1.0460820261102811e-19
-2.4133014145733094e-20
-2.6829424947748025e-19
-9.051937853235932e-19
-1.8489132511827204e-18
-2.8124580636524133e-18
-3.3324827908041355e-18
-2.8952768392687243e-18
-1.1606970206925779e-18
1.7694597019509492e-18
5.1451078758677765e-18
7.561242788401058e-18
7.270217298340294e-18
2.8441343355826664e-18
-5.935866201501675e-18
-1.7269986615672566e-17
-2.7055053398579947e-17
-2.9569686196074646e-17
-1.9354642295187238e-17
5.944614937946151e-18
4.2615489284544027e-17
7.9186335692842e-17
9.757630637489417e-17
7.816974037945958e-17
8.59227042419573e-18
-1.0598778909817583e-16
-2.352241667178305e-16
-3.2393377020196307e-16
-3.0487587289838407e-16
-1.2489096083648724e-16
2.2072810479188568e-16
6.577930623754542e-16
1.0239882594925956e-15
1.0977109348122498e-15
6.728690756531423e-16
-3.305497129469269e-16
-1.7538661044275599e-15
-3.1393650797860843e-15
-3.7822967571721985e-15
-2.9348034572044648e-15
-1.4945667641602224e-16
4.325863477976338e-15
9.266549513852296e-15
1.2507852893571006e-14
1.1466025087756939e-14
4.168435983153315e-15
-9.419565498237174e-15
-2.6252711608326385e-14
-3.9918899608182366e-14
-4.1844979027885035e-14
-2.4267419455743582e-14
1.5471749727979732e-14
7.065161719435549e-14
1.2304078510405666e-13
1.452010955080767e-13
1.0866577236076492e-13
-2.628667367699743e-15
-1.772267769000337e-13
-3.658267955654191e-13
-4.836102932955491e-13
-4.314272835669938e-13
-1.3634068821260895e-13
3.9721413903352146e-13
1.0447058791327417e-12
1.5531711608780073e-12
1.5913336379301502e-12
8.674078119743474e-13
-7.041819730295679e-13
-2.8409376832798478e-12
-4.817866465126455e-12
-5.56793280340207e-12
-4.0093811661364826e-12
4.296988462606746e-13
7.233594577010424e-12
1.4421832901240694e-11
1.867500157987565e-11
1.619345514912673e-11
4.2911081255285195e-12
-1.6634467735909496e-11
-4.15081239055252e-11
-6.036325145695854e-11
-6.041435477676385e-11
-3.072181071087561e-11
3.1345481532347557e-11
1.1399092142125448e-10
1.8842950465911428e-10
2.1321300878037213e-10
1.4730631829414092e-10
-2.944993250468991e-11
-2.9428751960931716e-10
-5.678147269491407e-10
-7.202760203766891e-10
-6.062652500834348e-10
-1.2730038405391127e-10
6.924065154878312e-10
1.6466659882747279e-09
2.343299827554855e-09
2.2894601096467363e-09
1.0760819283034337e-09
-1.371891605022147e-09
-4.564651334364899e-09
-7.36104329648022e-09
-8.152889753320312e-09
-5.386453805643864e-09
1.6402512195866945e-09
1.1937127541715898e-08
2.2327793134021838e-08
2.774597430521154e-08
2.263530723526208e-08
3.403153175530915e-09
-2.8669075932766185e-08
-6.522837083577829e-08
-9.086206791988976e-08
-8.659585226524965e-08
-3.717735762946828e-08
5.9246851425709544e-08
1.8244071758526934e-07
2.8722996727350916e-07
3.112899132396346e-07
1.959055797250859e-07
-8.299728475155228e-08
-4.828814216365131e-07
-8.768978238938249e-07
-1.067462117247973e-06
-8.425707892466594e-07
-7.191112091236743e-08
1.1815024297503863e-06
2.580169829814788e-06
3.519111783794688e-06
3.268761446906808e-06
1.2621939633421054e-06
-2.5310800417785843e-06
-7.278724945987249e-06
-1.119496009660693e-05
-1.1867216384245584e-05
-7.081287273284166e-06
3.972333797448067e-06
1.9484182688574472e-05
3.4397430898742885e-05
4.101511426012312e-05
3.126092394826801e-05
4.391786356802721e-07
-4.8488836102971506e-05
-0.00010191990804730754
-0.00013613592583257397
-0.00012312164605784323
-4.187703390816824e-05
0.0001071614847835754
0.0002898933361583602
0.0004358188148462118
0.00045165439859331174
0.0002540786433350334
-0.00018342495935971177
-0.0007845300305258004
-0.0013479874311048798
-0.0015742852987747212
-0.0011561889457806255
7.440375360502897e-05
0.001983017588282362
0.00402355225344028
0.005269046472656874
0.00464837395871104
0.0013918733748140956
-0.004412440652569045
-0.011362456284553762
-0.016669726622938533
-0.016733958704701655
-0.008465282723635677
0.008845514174351449
0.03167912176313273
0.051328016493211365
0.054721069495814983
0.02753001571289178
-0.04080320954586031
-0.15158329848234703
-0.09322579647184517
-0.04169421043471119
0.0340985022796009
0.16321742635838232
0.1632174263583824
0.03409850227960118
-0.04169421043471078
-0.09322579647184459
-0.15158329848234642
-0.04080320954585985
0.027530015712892014
0.05472106949581501
0.051328016493211254
0.03167912176313257
0.008845514174351282
-0.00846528272363583
-0.016733958704701762
-0.01666972662293858
-0.011362456284553766
-0.0044124406525690345
0.0013918733748141147
0.004648373958711059
0.005269046472656884
0.00402355225344028
0.001983017588282356
7.440375360501942e-05
-0.001156188945780635
-0.0015742852987747273
-0.0013479874311048822
-0.0007845300305258008
-0.0001834249593597109
0.0002540786433350348
0.00045165439859331277
0.000435818814846212
0.00028989333615835956
0.00010716148478357453
-4.1877033908168996e-05
-0.0001231216460578436
-0.00013613592583257397
-0.00010191990804730732
-4.848883610297129e-05
4.3917863568033985e-07
3.126092394826794e-05
4.1015114260123e-05
3.439743089874278e-05
1.9484182688574424e-05
3.972333797448067e-06
-7.081287273284136e-06
-1.1867216384245547e-05
-1.1194960096606897e-05
-7.278724945987223e-06
-2.5310800417785708e-06
1.2621939633421096e-06
3.2687614469068094e-06
3.519111783794688e-06
2.5801698298147864e-06
1.1815024297503825e-06
-7.191112091236997e-08
-8.425707892466589e-07
-1.0674621172479698e-06
-8.76897823893822e-07
-4.82881421636512e-07
-8.299728475155334e-08
1.9590557972508317e-07
3.1128991323963174e-07
2.872299672735071e-07
1.824407175852686e-07
5.924685142570997e-08
-3.717735762946725e-08
-8.659585226524856e-08
-9.086206791988898e-08
-6.522837083577786e-08
-2.8669075932766093e-08
3.403153175530816e-09
2.263530723526192e-08
2.7745974305211426e-08
2.232779313402183e-08
1.1937127541715971e-08
1.640251219586807e-09
-5.386453805643749e-09
-8.152889753320226e-09
-7.361043296480177e-09
-4.5646513343648955e-09
-1.371891605022166e-09
1.0760819283034068e-09
2.289460109646714e-09
2.343299827554845e-09
1.6466659882747279e-09
6.924065154878357e-10
-1.2730038405390693e-10
-6.062652500834324e-10
-7.202760203766883e-10
-5.678147269491405e-10
-2.94287519609316e-10
-2.9449932504687014e-11
1.4730631829414546e-10
2.1321300878037686e-10
1.8842950465911665e-10
1.1399092142125138e-10
3.1345481532336545e-11
-3.072181071089435e-11
-6.041435477678604e-11
-6.036325145697545e-11
-4.150812390552543e-11
-1.6634467735883155e-11
4.2911081255840634e-12
1.6193455149201186e-11
1.867500157994328e-11
1.4421832901264133e-11
7.233594576952344e-12
4.2969884610227757e-13
-4.009381166375437e-12
-5.567932803650601e-12
-4.817866465267624e-12
-2.840937683181734e-12
-7.041819726016069e-13
8.674078127127182e-13
1.5913336387952218e-12
1.5531711615169954e-12
1.0447058790995123e-12
3.9721413795426887e-13
-1.363406904131596e-13
-4.314272864552098e-13
-4.836102958472079e-13
-3.6582679632766703e-13
-1.7722677445859032e-13
-2.6286610662302635e-15
1.0866578165725951e-13
1.452011049565177e-13
1.2304079013627204e-13
7.065161276706134e-14
1.547173253243473e-14
-2.4267448356346598e-14
-4.184501218477387e-14
-3.9918923151509963e-14
-2.625270835549692e-14
-9.419521498984713e-15
4.168522695671575e-15
1.1466136572114075e-14
1.2507948586560092e-14
9.266573090401606e-15
4.3257614605100325e-15
-1.497069104660443e-16
-2.9351646173763915e-15
-3.782655242022983e-15
-3.1395426685217102e-15
-1.7536702803274078e-15
-3.2986024136005734e-16
6.739989386979861e-16
1.0989799887932664e-15
1.0248518819056055e-15
6.575903190981974e-16
2.1893995975688618e-16
-1.2830349305358528e-16
-3.091738780693156e-16
-3.2751306795386635e-16
-2.3590365295653232e-16
-1.01749459975163e-16
1.851414051042161e-17
9.218437395723087e-17
1.1115259999124344e-16
8.537921503716684e-17
3.408742655840572e-17
-2.1646094110482337e-17
-6.347533749464155e-17
-7.807139047388574e-17
-5.857810465293028e-17
-6.424306577251285e-18
6.652571857726528e-17
1.3697499760588695e-16
1.72762953289585e-16
1.41061377999646e-16
2.2291813194859258e-17
-1.734226149859444e-16
-3.9399305144916436e-16
-5.460980363378605e-16
-5.164849398589191e-16
-2.155814784152785e-16
3.649738626449725e-16
1.1011453831732993e-15
1.7206482117315574e-15
1.8508678342228115e-15
1.1440508642899944e-15
-5.37019134552847e-16
-2.9292427945528316e-15
-5.266485820891247e-15
-6.365106642383136e-15
-4.964877833501366e-15
-3.055492391118914e-16
7.208306016187265e-15
1.5530571642331134e-14
2.1029133945028958e-14
1.935527279438684e-14
7.170834497510147e-15
-1.5620109184137146e-14
-4.3942099166912454e-14
-6.704793188456214e-14
-7.052301763806908e-14
-4.1260486727418587e-14
2.5320465241420036e-14
1.180682808656328e-13
2.0646318326599759e-13
2.444159692469345e-13
1.839446404892402e-13
-2.2778197391674607e-15
-2.954673970936942e-13
-6.132218835974534e-13
-8.132042356251614e-13
-7.285008607717032e-13
-2.356147275488437e-13
6.594726994167427e-13
1.7490959033136297e-12
2.609183041656432e-12
2.6826374426136723e-12
1.4766733987285339e-12
-1.1570018591039455e-12
-4.749152367520401e-12
-8.085828762289114e-12
-9.37437020300317e-12
-6.790958662746741e-12
6.386544641725015e-13
1.2065904233216584e-11
2.41795831423089e-11
3.140827126772853e-11
2.7354137546438862e-11
7.46623443429815e-12
-2.764472266232569e-11
-6.951133805493636e-11
-1.0142216398416072e-10
-1.0187230734355305e-10
-5.237917388605917e-11
5.165473207466941e-11
1.9061673531410038e-10
3.162971446488711e-10
3.5904928462499414e-10
2.4966997325316636e-10
-4.623845456294412e-11
-4.911141416368181e-10
-9.52179348267337e-10
-1.2116095249748675e-09
-1.0245174686813008e-09
-2.2393025582012726e-10
1.1516995546228855e-09
2.7582087350584866e-09
3.9378894360381414e-09
3.8616287436677745e-09
1.8380220228920674e-09
-2.2659599567197e-09
-7.635313367857706e-09
-1.2358382491451308e-08
-1.3732428209318902e-08
-9.13641842922373e-09
2.629853606566792e-09
1.9929594204093882e-08
3.7448968382398374e-08
4.6681587151456054e-08
3.8267555796306264e-08
6.110801667215364e-09
-4.772224515199148e-08
-1.0928325716807232e-07
-1.5271938132180988e-07
-1.4610424679663212e-07
-6.364661221584065e-08
9.803821498269343e-08
3.052548840340188e-07
4.823112853602689e-07
5.244447992249235e-07
3.3257782387953304e-07
-1.345551924738365e-07
-8.065154204993034e-07
-1.4710365205002504e-06
-1.7963123298536235e-06
-1.4251324429731113e-06
-1.3617667007570358e-07
1.968039428014629e-06
4.323721865361432e-06
5.915906156228304e-06
5.516777445246134e-06
2.1672157577790557e-06
-4.1945726044116595e-06
-1.2181765392251283e-05
-1.8801554028109744e-05
-1.9997891346302972e-05
-1.2033253553389384e-05
6.484547466856052e-06
3.255493696817035e-05
5.7713565641590276e-05
6.903224634678357e-05
5.289905989556068e-05
1.3293755633015496e-06
-8.083342061742279e-05
-0.00017085972145531
-0.00022895422191256514
-0.00020796245139702055
-7.233608051762437e-05
0.0001776184555260391
0.00048509780832466066
0.0007320438038451394
0.0007618543874752274
0.0004343468747325225
-0.0002953476698269855
-0.001298896299216241
-0.0022368174834564132
-0.0026024195338414566
-0.0018738236172653477
0.00023716513383150337
0.0035035133392721752
0.006983726068432237
0.009041515039867476
0.007684764184614819
0.0012136349737517675
-0.011005553592378252
-0.028006694841502713
-0.04739050624720875
-0.0665248759150362
0.11534969153428634
0.0949799193961553
0.06439750490362607
0.012945324443511996
-0.06791272871123046
-0.1786928176477259
-0.10781048774124383
-0.032017775026910264
0.07775040518256576
0.24688799612960205
0.08784703626910066
-0.004826721243858489
-0.052966946571446835
-0.08756162344133187
-0.13900720722424556
-0.02870600470902887
0.035179657377532716
0.05705642160523358
0.049562483359848225
0.027892734644048116
0.004988672969864285
-0.011142106009696695
-0.01781458724116168
-0.016394337623032124
-0.010309816524471316
-0.0031935637503564063
0.00233715271718015
0.0051263391147054445
0.005302489880024099
0.003765351896321608
0.0016207881799386618
-0.00024072016866028817
-0.0013432661179039298
-0.0016220233630107946
-0.001292684927688071
-0.0006812807683092703
-8.203710518158088e-05
0.000322671657553212
0.00047810699470840436
0.0004273586269464655
0.00026198050261476815
7.564416945393165e-05
-6.584708547885177e-05
-0.00013484174155293943
-0.0001364503916368825
-9.49196175222193e-05
-3.904322932665629e-05
8.486492261395622e-06
3.591402851876582e-05
4.20696657337391e-05
3.284646512985152e-05
1.6768705009907122e-05
1.3673442335720948e-06
-8.803626826853564e-06
-1.2493978475016237e-05
-1.0933715162694286e-05
-6.5384521971512965e-06
-1.7204132523338562e-06
1.8629025625771955e-06
3.5486843915577384e-06
3.5101850695335535e-06
2.3951869159684005e-06
9.487716325026285e-07
-2.560307331794899e-07
-9.348987749089638e-07
-1.0752425040127914e-06
-8.393261085309822e-07
-4.4672581341618634e-07
-8.071029306341467e-08
1.5982581074362776e-07
2.626086906492325e-07
2.722810360960148e-07
2.482020573624527e-07
2.2785167234788365e-07
2.083624041070522e-07
1.5134272978648767e-07
8.579649910030975e-09
-2.4068217262795883e-07
-5.555252962862236e-07
-8.192562193571392e-07
-8.600435763089612e-07
-5.120235298114608e-07
2.928640021318342e-07
1.4311381854146178e-06
2.5371232552449e-06
3.0443138890183972e-06
2.3504880225756535e-06
9.596390622656927e-08
-3.517034972625768e-06
-7.49752967504125e-06
-1.0096702652376436e-05
-9.23058210388668e-06
-3.3132335213066177e-06
7.672102044341564e-06
2.125375787571828e-05
3.224541709903128e-05
3.372654927221077e-05
1.944660403981555e-05
-1.2705555519962755e-05
-5.7258518059051556e-05
-9.945359121908825e-05
-0.00011712759663195297
-8.733760917949875e-05
2.7847832136571455e-06
0.000143843905066132
0.00029588722848169764
0.0003903579778498642
0.0003472774507121819
0.00010802905249058799
-0.00032335660089241716
-0.0008458264230602272
-0.0012547885515590011
-0.0012828312094447165
-0.0006950154594672129
0.0005765647874946766
0.0023025143337734233
0.0038969099711449206
0.004499627236065586
0.003241921138645452
-0.0003291645554357828
-0.0057845771558623586
-0.011511203002855925
-0.014819678852242906
-0.012650682601249425
-0.0028874035909407397
0.014004037795724105
0.03359340161476226
0.047142616613685885
0.042988151728522106
0.009854931744049989
-0.058537824424936505
-0.15916175136439742
-0.07776766045571384
0.008963930855811241
0.12714397633750305
0.09728147146609212
0.12714397633741475
0.008963930855691735
-0.07776766045577044
-0.15916175136429747
-0.0585378244246334
0.009854931744512782
0.04298815172899041
0.04714261661391493
0.03359340161448951
0.01400403779478937
-0.002887403592458708
-0.01265068260293584
-0.014819678853359025
-0.011511203002516818
-0.005784577153388829
-0.00032916455080820347
0.003241921144395407
0.004499627240754016
0.003896909971843808
0.0023025143278219973
0.0005765647739657912
-0.0006950154783041232
-0.0012828312273869174
-0.0012547885592444864
-0.0008458264107478625
-0.00032335656304251323
0.00010802911204761124
0.00034727751522487004
0.00039035801840145375
0.0002958872111797541
0.00014384380485734887
2.7846013610826354e-06
-8.733783044410794e-05
-0.00011712777114123482
-9.94536058333713e-05
-5.725827276811706e-05
-1.2705020350667873e-05
1.9447333600535365e-05
3.372722651415532e-05
3.224567789741365e-05
2.1253231987521676e-05
7.670592019705477e-06
-3.31555473764644e-06
-9.233041414455652e-06
-1.0098168217676763e-05
-7.4967024368705285e-06
-3.512991795030368e-06
1.0309710158114275e-07
2.3589894073698095e-06
3.0507879633851947e-06
2.5372027619688534e-06
1.4210723368541043e-06
2.717247556836466e-07
-5.402457064677937e-07
-8.855514255594854e-07
-8.279035222747113e-07
-5.33264118617241e-07
-1.8054299368989466e-07
9.89446980964648e-08
2.449441140437079e-07
2.6095010347788553e-07
1.8970388350138912e-07
8.545302540938055e-08
-7.18593402544319e-09
-6.359644280122944e-08
-7.948585086409678e-08
-6.475561231841354e-08
-3.5203054628883905e-08
-5.441313824435259e-09
1.5202517152220118e-08
2.363053696888328e-08
2.1633958556307225e-08
1.3538491564744887e-08
3.952618182377651e-09
-3.714147346239744e-09
-7.794805122658133e-09
-8.172679625606956e-09
-5.723342118759711e-09
-1.7386637561337763e-09
2.4608949003023516e-09
5.694963364394484e-09
6.976059703056385e-09
5.596670502549893e-09
1.3508563885699326e-09
-5.131964893489926e-09
-1.2106834482911265e-08
-1.674911375301193e-08
-1.5753333529471616e-08
-6.574898940779481e-09
1.0911823939284917e-08
3.292871858123631e-08
5.134133349428188e-08
5.508679033559996e-08
3.388766203400142e-08
-1.6244772586207906e-08
-8.739356383206642e-08
-1.5671474485888453e-07
-1.8901527573503054e-07
-1.4691599856075297e-07
-7.99670998048519e-09
2.154733358088453e-07
4.624441873395166e-07
6.248532786940302e-07
5.735888070951549e-07
2.0989807217232704e-07
-4.683248848866019e-07
-1.3094041071043073e-06
-1.9933693552462314e-06
-2.091958781671281e-06
-1.216817502332501e-06
7.659511309014161e-07
3.522103289715071e-06
6.1422526188347504e-06
7.2562016611041885e-06
5.440731087430621e-06
-1.0978724927233404e-07
-8.827892834399233e-06
-1.8255708178316414e-05
-2.4158969416144423e-05
-2.158267971687359e-05
-6.874687010278513e-06
1.9758257301155703e-05
5.211256331466368e-05
7.756429731126071e-05
7.956392561849641e-05
4.351369365041081e-05
-3.4905456281562154e-05
-0.00014163930385695673
-0.00024052213187392938
-0.0002782657234549095
-0.0002007824957303596
2.0622810305514538e-05
0.00036037248998749277
0.0007197182616039532
0.0009329339970403753
0.0008101099212067725
0.00021670322703406088
-0.0008280233551490957
-0.0020712210351705625
-0.003015471554282515
-0.0030219282899440324
-0.0015429586803815216
0.0015552602371573777
0.005687072958809674
0.009419240841722371
0.010686839543377524
0.007446700159856543
-0.0012995291375641736
-0.014402760007355905
-0.027883435633163468
-0.035253732613664344
-0.02928251739992461
-0.0051976481729250545
0.035366111083233856
0.08109285660756972
0.11023448406596624
0.09398400205360341
0.004401891059282188
-0.17465188976370463
-0.23723063646426568
-0.15037813656626173
-0.058253845038895725
0.10427045373367698
0.3923707988775527
0.23338936176869413
0.01753884180808904
-0.09884657499320504
-0.178873143946417
-0.2854319615776334
-0.06393128617053084
0.06679301897515769
0.11362760718329498
0.1007417854583075
0.058199679421243544
0.012113013616750573
-0.0210140606478182
-0.035318208264669346
-0.03319086772613022
-0.02135272840754844
-0.007103489119702753
0.004190863796655615
0.010066993926662778
0.010665411443667061
0.007727712781374592
0.0034630246708808625
-0.0003143053239229361
-0.0026065380499063536
-0.0032443537000360484
-0.002635796570518033
-0.00142737839473307
-0.0002153798726909996
0.0006210842520460422
0.0009580521041507544
0.0008715092288034645
0.0005406788287882132
0.0001553278155919399
-0.00014562732554596413
-0.0002970629287745789
-0.0002999156065675304
-0.00019735526862776017
-4.881223388877872e-05
8.941366822554893e-05
0.00017462579794485475
0.0001817426769987885
0.000105037508284901
-3.956943859353198e-05
-0.0002121415833793202
-0.00035012785567893146
-0.0003788432083286466
-0.00023443962760142433
0.00010274653727222875
0.0005743936182847764
0.0010269320377872093
0.001230033704981758
0.0009435890885637242
2.9069840146305328e-05
-0.001423519214886224
-0.003006682870140076
-0.00401073941116268
-0.003597045472051954
-0.0011366747851610348
0.0033538984100697495
0.00883370482488283
0.01312524933219446
0.013263292213139339
0.006372725816465983
-0.00909093507202457
-0.03219200627191018
-0.05912352146971585
-0.08420014457897043
0.0976148943526744
0.08740134257198699
0.0798555925528395
0.06360348026851674
0.02513279514909969
-0.2446287159518425
-0.14388389452605926
-0.057152325145147446
0.041676955947241676
0.18095202879408068
0.1808924933934002
0.04583140555213766
-0.03750881898671954
-0.09514007828912739
-0.1567418193647887
-0.046381083816464136
0.023446744299085637
0.05287102484315101
0.051476764362096084
0.03305125781202727
0.01056655077478727
-0.0070588313738254105
-0.015964540568786177
-0.016543084862397014
-0.011681953018888712
-0.0049146013363645736
0.0009307003486159318
0.004356920257253869
0.005175847810227922
0.004084848676234763
0.002122949115688045
0.00022045315720597338
-0.0010518121828044962
-0.0015288245805608555
-0.0013539813332867523
-0.0008212123369863443
-0.00022808655948035732
0.00021829486551230433
0.00043264627156106396
0.00043335252525200294
0.00029866277201545167
0.00012030567477217776
-3.0063454857293547e-05
-0.00011583376746618831
-0.00013398417774137717
-0.00010368895808688263
-5.2187092348614324e-05
-3.3265510631585854e-06
2.862675120825562e-05
3.991832335847003e-05
3.4615408329776926e-05
2.0466094143508612e-05
5.131431041176348e-06
-6.171513630221287e-06
-1.139888995380529e-05
-1.1151990502826588e-05
-7.518294133431622e-06
-2.8747187282910193e-06
9.598617253435158e-07
3.08684026083172e-06
3.470106981085112e-06
2.630547319432417e-06
1.2790539721221537e-06
2.507022964373002e-08
-7.761914659165352e-07
-1.0411446402122497e-06
-8.841354879265932e-07
-5.090938379155641e-07
-1.1304206666493433e-07
1.7280463640485207e-07
2.997860659837717e-07
2.866512439181077e-07
1.8895520455859198e-07
6.821810548096843e-08
-2.9449076280360486e-08
-8.206392209566036e-08
-8.976576390325996e-08
-6.664777616089944e-08
-3.1237661570614306e-08
9.083867203189502e-10
2.096518049372906e-08
2.711841697655134e-08
2.2555598208388433e-08
1.263511819065836e-08
2.418095334593339e-09
-4.800634827704782e-09
-7.871245743713879e-09
-7.359686334431693e-09
-4.741065995631623e-09
-1.6057787030113928e-09
8.787617190912337e-10
2.176806635179399e-09
2.3193464910912726e-09
1.6863059278758376e-09
7.599236493033499e-10
-6.319782271981097e-11
-5.643120256168006e-10
-7.054196199919234e-10
-5.747361407539366e-10
-3.128303289104082e-10
-4.95639313397187e-11
1.3247022185933902e-10
2.0634271708168157e-10
1.8874181782995246e-10
1.1875056015943543e-10
3.7434939608740826e-11
-2.5689771821122614e-11
-5.762050337546603e-11
-5.985678183012473e-11
-4.260689953629636e-11
-1.840631820436817e-11
2.645885010603589e-12
1.5141376366513543e-11
1.8326293073406278e-11
1.4626910210535197e-11
7.725125348666096e-12
9.492080750705138e-13
-3.6341650354903086e-12
-5.401018419301347e-12
-4.834800814947004e-12
-2.9689196993110875e-12
-8.625201168448302e-13
7.392360175323788e-13
1.5222164791848924e-12
1.5429726440884695e-12
1.0749676289231392e-12
4.436402879743866e-13
-9.416354756837025e-14
-4.0509055745561353e-13
-4.755088711098022e-13
-3.7178978647979217e-13
-1.9022945578114672e-13
-1.6031064865247963e-14
9.918966484058288e-14
1.4116419462714648e-13
1.2370428934512023e-13
7.408235264817938e-14
1.9583629393959323e-14
-2.100674178879909e-14
-4.013965188038658e-14
-3.972946732608115e-14
-2.7081514603450804e-14
-1.0634203659510641e-14
3.088419929016078e-15
1.0807966060303024e-14
1.232198194032667e-14
9.43740954999109e-15
4.669162557090622e-15
1.959019149551766e-16
-2.6958333003307675e-15
-3.685159645609477e-15
-3.16226105308775e-15
-1.8455721217879723e-15
-4.3719825245642436e-16
5.900215421627139e-16
1.0557571832666988e-15
1.0209918339370737e-15
6.803808097246593e-16
2.524605183263835e-16
-9.72673335981817e-17
-2.884657817065096e-16
-3.1973600089952594e-16
-2.4006257815865357e-16
-1.1503500323543922e-16
-2.9686562668216033e-19
7.21524845336509e-17
9.525253352611932e-17
7.99241841271066e-17
4.5060464418592807e-17
8.707350102957358e-18
-1.7252338924836538e-17
-2.8540815151890716e-17
-2.7026212714634686e-17
-1.7882897191563348e-17
-6.763716632816208e-18
2.1384278799178758e-18
6.861853245376701e-18
7.468357077206817e-18
5.280801670737443e-18
2.007471851437205e-18
-9.321623030933136e-19
-2.744001781189853e-18
-3.2772643164202782e-18
-2.8352368378966072e-18
-1.9139409126566345e-18
-9.766766847492044e-19
-3.2157144895981344e-19
-4.927757894295881e-20
-1.0411144244713566e-19
-3.488331210762138e-19
-6.373937588784414e-19
-8.637124822263268e-19
-9.800764182711354e-19
-9.905824762907487e-19
-9.308321025005453e-19
-8.452594482054473e-19
-7.700317596858777e-19
-7.24807622789333e-19
-7.126699066290239e-19
-7.252520687500776e-19
-7.495519906682571e-19
-7.736888511007845e-19
-7.901960742285713e-19
-7.967284245502733e-19
-7.949124334004117e-19
-7.883805000764862e-19
-7.809014912936652e-19
-7.751553380866616e-19
-7.722972501076408e-19
-7.721574694128048e-19
-7.737808896822592e-19
-7.760134573752687e-19
-7.779352880968399e-19
-7.790616683003714e-19
-7.793344167047848e-19
-7.789832024524547e-19
-7.783477876268243e-19
-7.777310390518868e-19
-7.773174367189842e-19
-7.771587364476813e-19
-7.772069172961336e-19
-7.773669726955564e-19
-7.775457002595931e-19
-7.77682232335517e-19
-7.77756571986756e-19
-7.777804393275323e-19
-7.777789153602363e-19
-7.777719394406317e-19
-7.777627498595975e-19
-7.777370404906998e-19
-7.776728346858257e-19
-7.775574347355419e-19
-7.7740479895233e-19
-7.772650195819228e-19
-7.772181505843181e-19
-7.773483381512271e-19
-7.777012529313787e-19
-7.782370706747092e-19
-7.787997936646769e-19
-7.791271784389232e-19
-7.789193704926404e-19
-7.779659501367338e-19
-7.763023248139709e-19
-7.74335301765207e-19
-7.72858126894835e-19
-7.728835793269965e-19
-7.752719411764872e-19
-7.802182516503805e-19
-7.867699189801988e-19
-7.926300378866575e-19
-7.945091331087271e-19
-7.89170254837438e-19
-7.750547837431979e-19
-7.540247568758256e-19
-7.324306920668227e-19
-7.205871750465956e-19
-7.299904808711085e-19
-7.68338857961405e-19
-8.335341769895314e-19
-9.090297983704328e-19
-9.635987004269793e-19
-9.582017910583623e-19
-8.606927342274124e-19
-6.656610341099123e-19
-4.1261674117416495e-19
-1.9259244732525302e-19
-1.331860216453325e-19
-3.569016417400696e-19
-9.178209340136515e-19
-1.7352359786071923e-18
-2.5551876319519825e-18
-2.9750609028741005e-18
-2.5557165946347277e-18
-1.0167074305218962e-18
1.533402639568516e-18
4.424746585005595e-18
6.430479432129808e-18
6.048102862246848e-18
2.0799263849601805e-18
-5.599768758908305e-18
-1.53605674524948e-17
-2.3600104848746513e-17
-2.5374797548857147e-17
-1.6057647977076323e-17
6.1977295418082544e-18
3.793322249199261e-17
6.901154671332809e-17
8.373528899985159e-17
6.535561098116251e-17
3.7161062216654e-18
-9.591548330004099e-17
-2.064906539080902e-16
-2.798679131684254e-16
-2.5829477194831045e-16
-9.729071721284026e-17
2.0472850342787723e-16
5.807718136372664e-16
8.884840016269212e-16
9.36557317306322e-16
5.50597893938088e-16
-3.3111239161884127e-16
-1.5617995940972508e-15
-2.7375153518463913e-15
-3.2469380968762073e-15
-2.4522777764910123e-15
1.1772559440536388e-17
3.899849108917976e-15
8.122384898361313e-15
1.0792566821631356e-14
9.69344561698161e-15
3.1788681468790456e-15
-8.683960173627164e-15
-2.3153109037112605e-14
-3.4610703904560234e-14
-3.566223115292118e-14
-1.9749474553468283e-14
1.513206172992575e-14
6.280218011693967e-14
1.0719105536622003e-13
1.2451849479621626e-13
9.053792014795602e-14
-7.785175526573297e-15
-1.5934174842245402e-13
-3.2034028073636157e-13
-4.169181284468227e-13
-3.640881826154678e-13
-1.0116510190793813e-13
3.6422233135637856e-13
9.202391812505084e-13
1.345474198524901e-12
1.354453884522085e-12
7.011453880551704e-13
-6.769013877284517e-13
-2.5212201035791246e-12
-4.1935351229729535e-12
-4.769862444654657e-12
-3.3300320914658343e-12
5.866213541205641e-13
6.487523636286163e-12
1.2616320663564789e-11
1.608490525267318e-11
1.3639825110617492e-11
3.053586581389043e-12
-1.5182097152249715e-11
-3.652031947483509e-11
-5.2246019928101394e-11
-5.135160126563546e-11
-2.4631017246759676e-11
2.973764172314064e-11
1.0100829611825217e-10
1.6386789330293687e-10
1.824560246365724e-10
1.2191558475367214e-10
-3.384665487961662e-11
-2.6333787004769375e-10
-4.96255134477244e-10
-6.198011041026716e-10
-5.096075540758458e-10
-8.431023886234515e-11
6.293924624860413e-10
1.4471741038647462e-09
2.026427432959695e-09
1.9432364863602596e-09
8.540961087989774e-10
-1.2881294373670469e-09
-4.0389551142269585e-09
-6.3959736074999206e-09
-6.969024780705299e-09
-4.440228506431949e-09
1.7445861116973847e-09
1.065949457844708e-08
1.9495696456664308e-08
2.3852864537083552e-08
1.898393588103833e-08
1.93329593734397e-09
-2.596682785481919e-08
-5.726411595759202e-08
-7.850650627995455e-08
-7.338918225829772e-08
-2.9134060446008058e-08
5.516590877739535e-08
1.6120941442928166e-07
2.4935688109599977e-07
2.6578019367641394e-07
1.6075471834952692e-07
-8.445369189261593e-08
-4.30368324572804e-07
-7.649690736616398e-07
-9.167915826188672e-07
-7.049247606648476e-07
-2.2683932554048517e-08
1.0667296699562047e-06
2.262768594527832e-06
3.037891397795349e-06
2.7657904605335803e-06
9.727209984320386e-07
-2.3404765551525664e-06
-6.423326736717581e-06
-9.710455751745008e-06
-1.0120044199140209e-05
-5.780024792206664e-06
3.927582227473807e-06
1.7334206939283337e-05
2.997984906104833e-05
3.51908180089729e-05
2.6083759156359873e-05
-1.1637952591237384e-06
-4.365301156272207e-05
-8.92911151138922e-05
-0.00011741452618391054
-0.00010399759453449832
-3.1541653930000856e-05
9.85124118519497e-05
0.0002555003603070498
0.00037768298915042027
0.0003846333645552619
0.00020602285273849864
-0.0001778613992251475
-0.0006970239183358341
-0.0011741804238762023
-0.001349827295418644
-0.0009623363496977463
0.00012450667414662394
0.0017819193109542232
0.003526428858420783
0.004553424737584905
0.003949195976095457
0.001080737404894853
-0.003925760964303447
-0.009803269268433314
-0.014107083850028505
-0.013750068613358023
-0.00619761624010281
0.008845357583276224
0.0277310082211224
0.041859524175595776
0.03807976159750382
0.0008676528183043645
-0.08402928603426284
-0.025554075922802212
-0.024393891525834613
-0.07235007648009922
0.045626554817276885
0.14750463385561843
0.049983264142537606
-0.03422172354366777
-0.09680988054568601
-0.13267719122763158
0.06147783355302197
0.08771033342483951
0.14689237285189752
0.03962270644576685
-0.031081267478039108
-0.25609908561763756
-0.21816342756506335
-0.09447061163645594
0.3350225391063434
0.27621088416389633
0.11189027121063069
0.0006253132775634981
-0.1147189183918225
-0.2917213949056414
-0.17259867817403884
0.025894920814292996
0.11348082733891418
0.11907374522454685
0.07920539827333828
0.026975080244734106
-0.015043590437583222
-0.0368427907976564
-0.03888056139850701
-0.027794736157351285
-0.011928776804626465
0.0019489060204723836
0.01019228265650491
0.012268295696691741
0.009775714146987202
0.005159250622969159
0.0006331444898083862
-0.0024269215558757147
-0.0036061964102217605
-0.003228043109889729
-0.0019824219241258902
-0.0005762954489262677
0.0004929836587427033
0.001015749439857959
0.0010297393752088109
0.0007174671669973202
0.0002961435678628658
-6.279479442133593e-05
-0.0002703301077155156
-0.0003173505370326187
-0.00024814421677318117
-0.0001269768393718612
-1.0714744374763798e-05
6.619007047343614e-05
9.42110848194916e-05
8.256372015473422e-05
4.944855094892071e-05
1.3076002974923818e-05
-1.401574069551815e-05
-2.678727118813467e-05
-2.6515362308645345e-05
-1.8075152346293145e-05
-7.098413268416772e-06
2.060460474154069e-06
7.213131201877125e-06
8.224188500101454e-06
6.2994130488278715e-06
3.1172161585941597e-06
1.3168966086741515e-07
-1.798432958230675e-06
-2.458899410810019e-06
-2.110054959587723e-06
-1.2313588914249402e-06
-2.914048698189933e-07
3.942079323552782e-07
7.050977181052785e-07
6.819423947394351e-07
4.546441893155414e-07
1.6905420829408458e-07
-6.436504124089074e-08
-1.9198780312473207e-07
-2.1287300919572587e-07
-1.5970868610509282e-07
-7.626833761758049e-08
3.100097540923036e-10
4.866743192707766e-08
6.408930927800428e-08
5.386265726652608e-08
3.0596115213231404e-08
6.3338267753417725e-09
-1.0992912151241875e-08
-1.8528343212828177e-08
-1.7518695436037607e-08
-1.1417078573494709e-08
-3.9962142255707835e-09
1.94537547163828e-09
5.098232353429762e-09
5.5034090612080775e-09
4.043677558842902e-09
1.8591275909936139e-09
-1.0284505309153935e-10
-1.3121915599094166e-09
-1.6682174007873492e-09
-1.3732962668178289e-09
-7.584596191319319e-10
-1.329216757478754e-10
3.043287968768826e-10
4.860966955982997e-10
4.495310180741375e-10
2.8621932270317614e-10
9.363523353545275e-11
-5.7418031415248656e-11
-1.350908937488582e-10
-1.4211276028922254e-10
-1.0224140495889669e-10
-4.5131788839542395e-11
5.076916879043756e-12
3.526280104127953e-11
4.336674500361977e-11
3.4971573519087364e-11
1.8754599030788546e-11
2.6453302931251203e-12
-8.37251028114906e-12
-1.2733164618983624e-11
-1.1521796355796267e-11
-7.162528585347454e-12
-2.1707929314002263e-12
1.6645799100467924e-12
3.572310616384099e-12
3.665468546729961e-12
2.5814268837447196e-12
1.0905570550861644e-12
-1.928377119007929e-13
-9.447599207944196e-13
-1.125930409553736e-12
-8.894705903245759e-13
-4.624940426453649e-13
-4.811228671667008e-14
2.290855144999159e-13
3.330444003769766e-13
2.9497128586972273e-13
1.7890117666407693e-13
4.967294660294778e-14
-4.758429670554043e-14
-9.428497937536339e-14
-9.443410450726291e-14
-6.50817489418807e-14
-2.6215468853399906e-14
6.5511476254175216e-15
2.52408030749953e-14
2.919550114837453e-14
2.2593633357535328e-14
1.1370837467648267e-14
7.2375262920399635e-16
-6.239013736703367e-15
-8.699373903204843e-15
-7.543646229485772e-15
-4.460229203056441e-15
-1.118562050038823e-15
1.3444663611093424e-15
2.483432749090548e-15
2.429334008599848e-15
1.6370771980805414e-15
6.24727328339204e-16
-2.1116592237963704e-16
-6.745457999728509e-16
-7.573561199083479e-16
