0
-1.6666365016917476e-15
-3.0482618798588255e-15
-3.710158798037864e-15
-2.9083795254046105e-15
-1.8849266639711102e-16
4.222420400924575e-15
9.13210428426739e-15
1.2410478138673412e-14
1.1495035883000515e-14
4.402703509003601e-15
-8.956545090928014e-15
-2.563653791890365e-14
-3.9344529352401475e-14
-4.159992633791242e-14
-2.464378679953576e-14
1.431856182490024e-14
6.885884044215691e-14
1.2114050594726188e-13
1.4408721902587302e-13
1.0936350008615043e-13
6.081328353135139e-16
-1.7155249262416875e-13
-3.5907681784501776e-13
-4.784669598428138e-13
-4.313380600759102e-13
-1.442632975955647e-13
3.8055359900791296e-13
1.0224660746316428e-12
1.5330937103818603e-12
1.584587987250404e-12
8.850763423172102e-13
-6.566160821778648e-13
-2.7695426164883933e-12
-4.743976027333426e-12
-5.526493366084712e-12
-4.039630605624948e-12
3.0107737642193515e-13
7.012909747131431e-12
1.4164425653399449e-11
1.8486431939956514e-11
1.6206629009444035e-11
4.6166511551509716e-12
-1.5975660595972162e-11
-4.064726835089071e-11
-5.960729803004564e-11
-6.019671992294319e-11
-3.146218588007154e-11
2.945592799548068e-11
1.1121639746129443e-10
1.856237024682423e-10
2.1174054444909653e-10
1.4866677986788048e-10
-2.428266780154104e-11
-2.856503689093017e-10
-5.57950188429702e-10
-7.133330870475006e-10
-6.073612981032189e-10
-1.4056131485038613e-10
6.664550783001074e-10
1.613447448751707e-09
2.31496686379892e-09
2.282811488841802e-09
1.1069804981283833e-09
-1.296879657361976e-09
-4.4568884903404055e-09
-7.254627420534492e-09
-8.10104635653773e-09
-5.4464078099315975e-09
1.433155597797066e-09
1.1599545313685588e-08
2.1950352605051163e-08
2.7491550164795108e-08
2.2700686942923044e-08
3.941740489499026e-09
-2.764804240545997e-08
-6.39480485176094e-08
-8.980292402258005e-08
-8.640823125192239e-08
-3.845958147521602e-08
5.6273542816988144e-08
1.7826006761296946e-07
2.8320149911987044e-07
3.094872614696445e-07
1.9850905725898164e-07
-7.471326568583507e-08
-4.697022162243138e-07
-8.624770700441992e-07
-1.058185995554746e-06
-8.459968477260692e-07
-9.372367373216164e-08
1.1413809202528783e-06
2.530884898531496e-06
3.4796332210137616e-06
3.2642369376740244e-06
1.3151416854639113e-06
-2.4133950391085684e-06
-7.116724481211685e-06
-1.1042758922669244e-05
-1.1805509862482934e-05
-7.193011418115766e-06
3.6415741735246067e-06
1.8970257055435124e-05
3.3847296070206596e-05
4.067886989967237e-05
3.1428426142837914e-05
1.3202693231007712e-06
-4.691418580922345e-05
-0.00010002515140578032
-0.00013466903427364715
-0.00012305387700817282
-4.405387931067725e-05
0.00010250997069699559
0.00028362313097161
0.0004300804529564707
0.00044958454912793534
0.00025882668503218926
-0.0001702416327106821
-0.0007645123024171007
-0.001327033503932679
-0.0015621782457224294
-0.0011640303279631527
3.88996541091494e-05
0.0019212915940352323
0.003950804132320059
0.005214730312523177
0.0046499562429400095
0.0014810193133428739
-0.0042288398603202255
-0.011120059756789884
-0.01645386894108908
-0.016666430506320277
-0.008665473184985633
0.008320844347613833
0.03090016007892404
0.05053099148822421
0.054288215801939266
0.027885982066884318
-0.039375922085315
-0.14916584483660553
-0.09043360893892215
-0.0396829246047606
0.03389060536363382
0.15961680414884485
0.1560512193747906
0.02486561999337057
-0.04958678092515352
-0.09503515598969754
-0.14281061969887385
-0.01961406237460928
0.057697954263788695
0.08344340205086473
0.0615717803865095
0.0030461818914323444
-0.07660738082027799
-0.15958919419717543
-0.02883131335628337
0.12770386316453494
0.11226538938335619
0.11439853047797545
0.11238524334655922
-0.12000159797843564
-0.20311066653400536
-0.14138825054009144
-0.1183052697339428
0.10092353687300017
0.15934447124601778
0.09474577108297035
0.12782426428057136
0.05632937647980704
-0.14317628439020022
-0.10737835068381277
-0.07572092265187474
-0.08141701503149354
0.05336861225332894
0.11782937170335973
0.11006621442171348
0.0344718950527757
-0.0991887004564301
-0.0749427995543314
-0.06964297587114608
-0.05398539296545077
0.003303884198191089
0.12868221244255548
0.13661425750074876
0.024916818329537956
-0.025181183162160083
-0.04395154349485672
-0.06480680620514717
-0.11562622462591858
-0.012636603291669159
0.04146240710747221
0.05515439750399369
0.0430841275438347
0.020558570520667913
-0.0005821414904054836
-0.013847149978439978
-0.017854602147697424
-0.014730786403441718
-0.008084476150590407
-0.0013053616096888481
0.003423848301301455
0.005367274683435172
0.00493322717865047
0.0031251468870065013
0.001008765637441449
-0.0006440835506753883
-0.0014888376422045177
-0.0015590965005319874
-0.0011174610149341838
-0.000489644679609528
6.0224899961199155e-05
0.0003893310315977755
0.00047614319212861667
0.00038258647949696907
0.00020408287189849417
2.7495448935895623e-05
-9.281330947164068e-05
-0.00013999619666544002
-0.00012619632516593717
-7.811333257104988e-05
-2.3331581287103075e-05
1.860633946672419e-05
3.9340100259409816e-05
4.019181743478075e-05
2.8197824021043875e-05
1.1815966711272999e-05
-2.2338414631796234e-06
-1.0426826127590508e-05
-1.2359086807443545e-05
-9.727452348981086e-06
-5.028914758001869e-06
-4.881356434195468e-07
2.5363434112633974e-06
3.657846354231966e-06
3.2254898232229407e-06
1.9453446626245786e-06
5.292550080890315e-07
-5.294749067566858e-07
-1.0302422276432524e-06
-1.021098340444339e-06
-6.933731564441006e-07
-2.6991360658404914e-07
7.636192447696606e-08
2.596659092967332e-07
2.788694708103497e-07
1.9000115615573986e-07
7.015643085921936e-08
-1.4445600829241957e-08
-2.9212143090975954e-08
2.1363623850212157e-08
9.862936642643018e-08
1.4486330481988015e-07
1.0554146594868852e-07
-4.551772356000503e-08
-2.8462499973140786e-07
-5.290180822632384e-07
-6.490690115134325e-07
-5.07399031031671e-07
-2.1685933998488928e-08
7.648735948851463e-07
1.634472563028609e-06
2.2026476541776145e-06
2.012045156298467e-06
7.156204658592402e-07
-1.6888035296646426e-06
-4.658022895292281e-06
-7.055247911921619e-06
-7.366194935523353e-06
-4.2263563203465125e-06
2.8197131670405677e-06
1.2566503370378531e-05
2.17777848022774e-05
2.5602934531938766e-05
1.9030428416853756e-05
-7.357915716567422e-07
-3.161249686353336e-05
-6.48318006416971e-05
-8.538220559545485e-05
-7.578260258927684e-05
-2.326388695147607e-05
7.120312017366944e-05
0.00018541086489858233
0.0002745325610339844
0.00028008414929021967
0.0001508182262359622
-0.00012782135250620407
-0.0005052309414996211
-0.0008527660746858287
-0.000981841289927165
-0.0007020680997457208
8.59916231644789e-05
0.0012890962833184713
0.002555580797857488
0.003298947809915904
0.0028511154278045773
0.0007451800346566517
-0.002936359309121207
-0.0072815186518411555
-0.01051484354640068
-0.010370470771223503
-0.0049282045560782965
0.006222679139876812
0.020858903935822917
0.03358416037706917
0.03642721901785884
0.02085572285627835
-0.019090415965180976
-0.08359128988372176
-0.16541379393956698
-0.05148054275699127
0.07178885915148965
0.21077298906707517
0.1579294120757949
0.08991517127953978
-0.027305865156345865
-0.2275560195721705
-0.3322050810860569
-0.14241704912216788
0.1600048601700166
0.20335709507458632
0.21320408206278382
0.20312088764548938
0.5747100518857864
-0.8720877274991665
-0.5234920908717049
-0.14081874299231364
0.13715594745530754
-0.22392536245152175
1.0187862264920038
0.46176198766964033
0.047814377504654684
-0.3187976061714792
-0.5393608538225613
-0.48335296330302857
-0.16266589684743493
0.07209989134730066
0.3127531216641349
0.8609456784714232
-0.40460338607543617
-0.04962070082611977
0.11029052213740957
0.01830437104362188
-0.6064777543231344
0.5506654899855341
0.017688869142457157
-0.2514482662306313
-0.27036270549239066
-0.021403203927290938
0.13518252604647574
0.24617245721037995
0.14947158393647322
0.06337747035190106
-0.015134528790868374
-0.1031900032100657
-0.21962785660646833
-0.17309088289917293
0.04431854113091109
0.05541275839495001
0.08950078882611835
0.1711434534580902
0.11085363075261567
-0.0987592096144371
-0.0804876724671086
-0.06542143522724446
-0.08447562777406743
0.03847350778350486
0.09039140153213417
0.07006830781706545
-0.012571352414211675
-0.13795762059816705
-0.0792673417470507
-0.00645892445710198
0.10781996011169062
0.0816265935080329
0.11878008600543559
0.007879898856133558
-0.07387291360714236
-0.1533134040141372
-0.053269408263540166
0.013116154122051795
0.04396393232326658
0.04637130999978409
0.03196354799791265
0.012348159951520601
-0.004034474722329171
-0.013113634373493898
-0.014710167104803851
-0.011090714445583289
-0.005326635994547492
-2.2196040666812778e-05
0.0033356484026570536
0.004433648502070546
0.003794490661957583
0.0022938777421051934
0.0007376051367022738
-0.0003862981434842614
-0.0009580710647682995
-0.0011248456191369134
-0.0011259890533508307
-0.0011259932499873876
-0.0011170400268534393
-0.0009236247541612322
-0.00030770498237200986
0.000860878552151432
0.002432998928876154
0.003889371219696553
0.004407106099482967
0.003124478717628625
-0.00042575406924370054
-0.00583785313927687
-0.011520460087182455
-0.01479819702344011
-0.01261644984296955
-0.0028557776214231806
0.014024152569794645
0.03359996076642785
0.0471385538232555
0.04297863562445996
0.009844933137366674
-0.05854501027456085
-0.15916491729003066
-0.0777672971177814
0.00896641170067113
0.1271470210184893
0.09728392211455912
0.1271452878499378
0.008964116709352056
-0.07776823771919004
-0.1591626231331145
-0.05853860447894048
0.009854452761385675
0.042988002354956985
0.04714270129561351
0.03359358017941619
0.014004195346379643
-0.002887316157155573
-0.012650643761608392
-0.014819622624793458
-0.011511063941647024
-0.005784337701183156
-0.00032888678992318683
0.0032420954124849307
0.004499517683215369
0.003896377606323952
0.002301560562969726
0.000575412386617014
-0.0006959075416528948
-0.0012828622143553983
-0.0012534341546931197
-0.0008429440937069382
-0.000319478039986391
0.00011156946260282748
0.0003485358675311438
0.000387386764583725
0.0002876935455672
0.0001314335451386107
-1.017357877688203e-05
-9.477520075499176e-05
-0.0001121737142276489
-7.735648214254218e-05
-1.8957195012703676e-05
3.232987558078209e-05
5.293038596446689e-05
3.245209804482485e-05
-2.3334124926483675e-05
-9.276066993410591e-05
-0.00014250616741240057
-0.00013663526306507376
-5.0209034307183864e-05
0.00011506175323170677
0.00031854642200441276
0.0004793273221664436
0.0004927879406263468
0.00026777909115115753
-0.00022154334514384391
-0.0008858624295493879
-0.0014983407088730197
-0.0017267008164215854
-0.001235612252580353
0.00015015186533086833
0.0022668382609026968
0.004496135873064978
0.005806673060451515
0.005023457536489537
0.001324938529429018
-0.005145121106245778
-0.012786279691976675
-0.018484180549244635
-0.018271575297777426
-0.008807521088362493
0.010561571864857108
0.0358038032140216
0.05723005423042602
0.06053109873319812
0.030346864190341497
-0.04407592362020776
-0.16281653921717099
-0.11142290597281994
-0.06181308377721326
0.020994740201646486
0.16775212490404415
0.19326192556420577
0.08886967729518587
0.022834896334015847
-0.05067639157798364
-0.17670722087163035
-0.18396070892343608
-0.07431299880462718
-0.02140912994312055
0.020891439199943043
0.10298229729302467
0.26218264113133133
0.10965423234140928
0.026291978273749395
-0.03077991441900745
-0.11332230444100241
-0.2640062410798046
-0.1017741237379736
-0.015722453135527167
0.03047723963304388
0.08547585777073823
0.19335664416799733
0.17900730562817688
0.040828792588116274
-0.04691398621516267
-0.12347330770459124
-0.22730268314612803
-0.1839718726710689
-0.0011098725786705004
0.12808958954887062
0.21533103442978982
0.26714672337555023
0.08008384051894046
-0.15577185119335105
-0.24635727240030256
-0.1816900736939572
-0.12912914327922617
-0.03642630399302799
0.15522718581876113
0.2925128930403179
0.192797202166435
0.035401915973212045
-0.03488010127223516
-0.09300180250012303
-0.2127941067390453
-0.24720399108312335
-0.016117945308051194
0.09479449126621037
0.12500798222999757
0.12425673709197697
0.13771716366848585
-0.003930462922570935
-0.08749657049892642
-0.11434469630990854
-0.09466522409213068
-0.04249026079883929
0.026354366944459914
0.0933969255445558
0.13580832561227407
0.12672663158612982
0.03977995705750703
-0.14217666883299448
-0.2168149603759429
-0.15522202241086083
-0.10245422469409542
0.01223419398316451
0.2574635818909815
0.2797550577410118
0.0887546306059563
0.053419873333178304
-0.0891494877017531
-0.2153887872037548
-0.19404142762698834
-0.06935726143453115
-0.05401210916345653
0.06677669331759571
0.12248428510439681
0.1411957062214013
0.13634505128017896
0.10117928854195736
0.013042294297798029
-0.15396945928306177
-0.21265147152759484
-0.1490827359415573
-0.1176844330695719
-0.04800203121673058
0.13796739015232382
0.3031773867033867
0.27540880587772404
0.03705817593699964
-0.07110176137049722
-0.1333802317837596
-0.2358063502177512
-0.24410842339274
0.009877263842457488
0.12995780731665965
0.14675589272210468
0.10317725713124119
0.04009962422938472
-0.013307461238646132
-0.043003829297985845
-0.048146437353501076
-0.03612201303362442
-0.017042387252989653
0.0004834152017501743
0.01150636271929066
0.014940367156451457
0.012479039462876254
0.007042190450777215
0.0014112411365669766
-0.0025899000733072028
-0.004313558997938283
-0.004059210299926351
-0.002632741785892728
-0.0009094176602888891
0.00046442079448224307
0.0011887841547152957
0.0012763657765854674
0.0009337475233867005
0.00042577811569613136
-2.840893407509667e-05
-0.0003069345439626168
-0.00038745945190298405
-0.00031759186738066544
-0.00017435218589920918
-2.9353419121072502e-05
7.15442395316191e-05
0.00011307618331624163
0.00010409674038903737
6.595969596650288e-05
2.1267958761418844e-05
-1.3634846671484967e-05
-3.1463295915205846e-05
-3.2935682774936194e-05
-2.3609414964685573e-05
-1.0367687455929059e-05
1.2185492470904494e-06
8.150761318006768e-06
9.995891163222962e-06
8.077203822875091e-06
4.40806287219485e-06
7.959291616941541e-07
-1.6628563500955259e-06
-2.6764413033680078e-06
-2.5522353464214882e-06
-1.8593243616549304e-06
-1.1109580747530112e-06
-5.674580792615668e-07
-1.972482856570747e-07
2.2094720517159485e-07
9.103337915649019e-07
1.8997606910830878e-06
2.9007170654686587e-06
3.325930194778338e-06
2.4829017746661413e-06
-8.184122412320883e-08
-4.18497808222191e-06
-8.720691269864744e-06
-1.1684186226705918e-05
-1.0660457237589645e-05
-3.797290400374041e-06
8.941880546459439e-06
2.4701661639255807e-05
3.7465921401484e-05
3.919432196842375e-05
2.261644936814809e-05
-1.4733526831602568e-05
-6.651079283324036e-05
-0.00011557298049258697
-0.00013616265139979177
-0.00010160263989916559
3.0890597760553748e-06
0.00016702657262481773
0.0003438058667321288
0.0004537573645388984
0.0004038996517608918
0.00012603459582146502
-0.00037526037358834356
-0.0009826491021507012
-0.0014584137663020771
-0.0014917265438334785
-0.0008093707397477659
0.0006678486707616355
0.002673609548385405
0.004527077156605912
0.005228411117808411
0.0037673505189070415
-0.0003833384827659261
-0.006725326433577458
-0.013382218801882116
-0.017222331934165905
-0.01467561039639634
-0.003253275601799045
0.016553329367491744
0.03967642348173825
0.05607908478487062
0.05235627006636672
0.01554314432171999
-0.0616678391170655
-0.176250954097179
-0.11336599495848532
-0.05030049416386081
0.033787555623989635
0.14471000879357812
0.2615159889691943
0.13191428808846054
0.0791546086123092
0.02112824223209186
-0.10208674725521868
-0.29999320980683014
-0.5126065386237961
-0.20958329408961685
-0.012198315325525304
0.26460272153642833
0.3609096358579391
0.7273935316592339
0.3035738021649285
-0.07158584897337646
-0.41780233789492377
-0.35249102249783526
-0.4297102097031948
-0.2978805224335365
-0.08856601506039974
0.16131807753719155
0.26136902870600787
0.20812899985424052
0.3310433047301125
0.45869389674951394
0.1142504949245881
-0.2589621756348091
-0.24956750276226844
-0.422585806513582
-0.47333108203647095
-0.20464929934226422
0.2664418253352396
0.2764981914541357
0.3699095272873494
0.25541197301789836
0.1783085414216872
-0.08479857112120122
-0.21005119332420724
-0.2971364946323134
-0.23810545044684203
-0.09451775600848387
0.11124934990920542
0.1906728903792327
0.1748707739317285
0.09874535421251994
-0.010465759913454735
-0.13754346772816067
-0.07747206160138416
-0.030586969712257443
0.0020318703849421574
0.021006846876836047
0.028763877467508147
0.028264310688409615
0.02166946106077026
0.00992220023234299
-0.006414338882780419
-0.025413779277176713
-0.04201454425406225
-0.04728012213074766
-0.029499442918649654
0.02275401822008192
0.11643213439866625
0.050319802212207144
0.013611829050961274
-0.012249822656252478
-0.04888238286054024
-0.11509686137010587
-0.022065507957746377
0.028750240468999117
0.044425520213112725
0.03703418818936657
0.019409359260834803
0.0017609006644113876
-0.010006309739833016
-0.014253852439384209
-0.012399958820038916
-0.007281879702606782
-0.0017192154517373108
0.002369553924882728
0.004236484860657413
0.004106563512466941
0.002748611042282453
0.001034397438015791
-0.0003720158337600288
-0.0011457008512833595
-0.0012780028884063102
-0.0009632830670835125
-0.0004638507922665905
-3.2592158883354963e-06
0.00028915281422477575
0.00038398525204057417
0.0003242405287618436
0.00018532489883482184
3.963557341999037e-05
-6.490836822163265e-05
-0.00011081775555543855
-0.00010531071613612002
-6.898759413616046e-05
-2.4492344238168066e-05
1.1299016543849532e-05
3.042244474110211e-05
3.30362239510667e-05
2.43885768061255e-05
1.1311800507204783e-05
-4.899544357872829e-07
-7.80499480480297e-06
-1.0000106311317084e-05
-8.270958777949246e-06
-4.59756936973992e-06
-8.388980874929708e-07
1.8021767592617856e-06
2.912722365547133e-06
2.708127767543006e-06
1.7340456158542558e-06
5.750935309463037e-07
-3.412416204106986e-07
-8.193511164876487e-07
-8.703856143628523e-07
-6.321871610159453e-07
-2.799165600060739e-07
4.0944955845228723e-08
2.4650951277770047e-07
3.147922489150529e-07
2.671250062031946e-07
1.4504586646119698e-07
-6.944363404832531e-09
-1.489429196199867e-07
-2.458896907685461e-07
-2.664829772899103e-07
-1.8679550426877136e-07
-1.2621451929745881e-09
2.617826134746169e-07
5.283522625355126e-07
6.821464143569441e-07
5.923748263329455e-07
1.674823798999837e-07
-5.769029475822845e-07
-1.4619190027391307e-06
-2.13686962964217e-06
-2.150649007968063e-06
-1.1148371487318792e-06
1.0686772852083954e-06
3.990490042376515e-06
6.640285400757987e-06
7.5554070807603814e-06
5.278778662978334e-06
-9.199033128303607e-07
-1.0262356814833676e-05
-1.99694759992281e-05
-2.5469414389367912e-05
-2.160998797583343e-05
-4.8608637431493605e-06
2.400525105934528e-05
5.77957555349025e-05
8.271644691397391e-05
8.133774498512438e-05
3.90742056833197e-05
-4.697668068933614e-05
-0.00015982294046409376
-0.0002594047179209302
-0.0002889472726662833
-0.00019323897607458757
5.3251686469772054e-05
0.000416565661104422
0.0007854573996342103
0.0009813569557790424
0.0008072920273777982
0.00013427407687503158
-0.0009956772836132034
-0.002290981980165243
-0.0032093244990134846
-0.0030793237196633104
-0.0013563427090044283
0.002035855199620595
0.006396293648811149
0.010142285561716709
0.011079635121616018
0.007132169954861676
-0.0025622359685621124
-0.01651731611647293
-0.030265442243075393
-0.036836785707400295
-0.028777750364190127
-0.0016439651933816254
0.04182820107655687
0.0884109822766088
0.1138672381128456
0.0868092858564407
-0.022787700048187025
-0.2322034315619025
-0.13552961997636742
-0.09875741274484293
-0.06368815970443713
0.03913586080757357
0.2718927172167181
0.27137019811184887
0.03777286219102348
-0.06531865341076787
-0.09984341612270674
-0.13524974333044099
-0.2300454912322609
-0.01889384442553287
0.0913968610107739
0.11722801938887693
0.08818395432256683
0.036103765384204636
-0.013140677451610546
-0.043617708717659305
-0.04952576390990673
-0.03319332296241533
-0.0025445027190942834
0.031015685097355424
0.05427755687347667
0.054088227015491507
0.02003157626296571
-0.05210109661309133
-0.1570919636649611
-0.07911265722121982
0.005858072911391606
0.1238630373553781
0.09488302447419297
0.1260361891393552
0.009032688679938767
-0.0769210979614522
-0.1579955424197612
-0.05742870340939678
0.01065523034974914
0.043331317088666284
0.04694847246948038
0.03284456227589974
0.012785987823376038
-0.004321836081236984
-0.013843707770795825
-0.015158823388651174
-0.010407954117082509
-0.0029695548603528147
0.003820888837552039
0.007498340955388121
0.00687846674437199
0.0021920785696057927
-0.004952034172061246
-0.01179001894641316
-0.01493122102123052
-0.011316114034957872
0.0004128857351271509
0.018406621767125198
0.03652981968987614
0.04440574799681014
0.029120077288341217
-0.02142302655135705
-0.11430828681980341
-0.04810766676495128
-0.011708820672914483
0.013650356063432094
0.04961381165175817
0.11490277186895251
0.020638705068627927
-0.03155705224580146
-0.04829529031965764
-0.04094572521142262
-0.021654371926452285
-0.0003671347692428052
0.016430580148801322
0.025447856863039384
0.02557235546285567
0.01699881038331387
0.0010949412121980004
-0.018945686791827867
-0.037166428608328826
-0.04445829929439638
-0.029486170982709933
0.01881167453011947
0.10770361256051712
0.03741319198621427
-0.00040403924245669944
-0.021636364347794108
-0.046473002196019395
-0.09524021149219279
0.015144398391078345
0.0731420217694833
0.07306353058205423
0.014905586238202933
-0.0956353261403859
-0.04697872840406996
-0.02213165398987438
-0.000686371066254778
0.03758415784081057
0.10850734740032784
0.020234578926300473
-0.02776571773233497
-0.04309728990690691
-0.03703094265799267
-0.02080406887917562
-0.002988169380366184
0.011428850437591058
0.020424854918185107
0.023540683815740114
0.02061223831238522
0.011347356545013865
-0.004010295312167305
-0.02324506741652872
-0.040737517338730364
-0.04700414784236381
-0.0299637468288013
0.0219557067421405
0.11566669071651779
0.049811959768258994
0.013424767118924505
-0.01217562657792636
-0.048665890553045155
-0.11485769738637212
-0.021886462871964
0.028835491564880612
0.04442488730074986
0.03697943667933502
0.019337451402048306
0.0017005666000418202
-0.01004050406637847
-0.014260843435584073
-0.012387556993386202
-0.0072610745361663355
-0.001699580869618148
0.002382325154143151
0.004240930899154387
0.00410435543452179
0.002742881147829311
0.0010282258644158308
-0.00037654242428638137
-0.0011477750854279164
-0.00127787861315515
-0.0009618064549413012
-0.00046197895156310597
-1.7210025257011483e-06
0.00029000024400353716
0.00038413130797245083
0.00032389722314841486
0.00018477900192405243
3.9131753194005465e-05
-6.522837100208035e-05
-0.00011092153960027812
-0.00010524520825664652
-6.883534441329819e-05
-2.433276660207334e-05
1.1413218876083974e-05
3.047192902913756e-05
3.302889881127823e-05
2.434732005659967e-05
1.1262053210553568e-05
-5.288956398668503e-07
-7.823746329934058e-06
-9.998763549000304e-06
-8.256158067287109e-06
-4.578769121845824e-06
-8.250588548525099e-07
1.805003120903707e-06
2.9028454922538844e-06
2.688784257263171e-06
1.7130024764352606e-06
5.630267776128879e-07
-3.338277823145727e-07
-7.864829185170625e-07
-8.152923628800991e-07
-5.704421506532199e-07
-2.386922357474588e-07
2.946023519983778e-08
1.5781497545469406e-07
1.4833117555296577e-07
6.02439968782757e-08
-2.3514081830185218e-08
-3.182902567830479e-08
6.54040308610033e-08
2.4075232230163684e-07
4.105290964428711e-07
4.5734580584818674e-07
2.734542297874388e-07
-1.8271772828499355e-07
-8.337180000356995e-07
-1.4587797914616124e-06
-1.7243580529528225e-06
-1.285357412112205e-06
5.156515745949054e-08
2.146180276830207e-06
4.4021788962973734e-06
5.797987201693261e-06
5.1443142529079495e-06
1.573088229801971e-06
-4.848649546001068e-06
-1.2609595717164943e-05
-1.8661231904076298e-05
-1.9028293801832236e-05
-1.0230061471233415e-05
8.717293754183933e-06
3.436674863610132e-05
5.7967553542557436e-05
6.66994427927681e-05
4.762868348590823e-05
-5.983805405312366e-06
-8.776578648854113e-05
-0.00017376391246978583
-0.00022404384383280682
-0.00019309489279070475
-4.902206732791046e-05
0.00020283210392281207
0.0005009059165217981
0.0007251246439656197
0.0007221109340820728
0.0003614396888721234
-0.0003867661148807707
-0.0013787500804797207
-0.0022671776622647647
-0.0025541171257388254
-0.0017489441597203059
0.0003857927784541053
0.0035707361748713545
0.006848044431638738
0.008660705436593088
0.007273816121939339
0.001528792548968541
-0.008248244508250511
-0.01954349361463557
-0.027627498724204672
-0.02661691783305925
-0.011754478957772428
0.01747242007426091
0.05435840771106341
0.08359229369232218
0.08289477188957665
0.028419242048499875
-0.09675621700137745
-0.09343627393369179
-0.14006394739378397
-0.19308262885329772
0.004031302020502409
0.10392412159433788
0.1349426126512656
0.28388016150414297
0.2890269922359948
0.048331690670853696
-0.15722860827622132
-0.23071462256675496
-0.4269414733323689
-0.33226246140377463
-0.06468210511687719
0.30420117702483584
0.3118982000878951
0.2647145074929388
0.20787251493656247
0.1156265165265527
-0.09596093921094619
-0.3380478827823391
0.09051230807465331
-0.2603247907171795
-0.3685397272382067
-0.13664753346797637
0.1902093995102855
-0.011224966789392792
0.4141985210439034
0.36082565718212417
0.23860551748139638
-0.02826691194333116
-0.3811196387006243
-0.3929176790221724
-0.23275222389320252
-0.039560169744702264
0.2898877991727003
0.5009832008922284
0.17634096480693237
-0.2671821305814441
-0.17742889294460049
-0.4657786568835745
-0.21280884553048626
0.11441229398304144
0.4346622696959868
0.222390042413288
0.4862529566678962
-0.0343740930120698
-0.25217966241314166
-0.2993108485921724
-0.29063110917949714
-0.29527200882164334
0.0749328004187426
0.2584510656692988
0.3237693122797101
0.1452258787275326
-0.015962901917595213
-0.12054815804206569
-0.15039107147931924
-0.10208754711227376
0.019936995105949023
0.007555504851454874
0.049627166044328916
0.1307030753112837
0.030030468979903652
-0.07736872952567678
-0.01713726986432824
-0.010568732075600573
-0.06990534026062654
0.0044715891920169394
0.024133549878396367
0.01003375234261268
-0.011981676208663252
-0.016512918005975562
0.016272246437108322
0.09671614547451877
0.023842859239530216
-0.01378534712646121
-0.034671604679152576
-0.059555021417418
-0.10688513356570324
0.009819731553403896
0.08213257988849014
0.10518478212714277
0.07623551691524831
-0.0049717557685843876
-0.13370376363546566
-0.09699548526181494
-0.07215626765886658
-0.029101446399152554
0.06317722893418137
0.22790318261998435
0.07297931597518373
-0.012041624377119623
-0.052950932560378736
-0.08295158131240761
-0.13294411153221
-0.02363819036915678
0.038017027442720425
0.057583453136952026
0.048454398645802726
0.02609044021549505
0.003306385030853493
-0.012225234251538148
-0.018181464131690694
-0.016193848860761313
-0.009812918546577941
-0.002664062545711622
0.002722190312413462
0.005299924676581218
0.005288168703333637
0.0036366108660090463
0.001459800207360033
-0.0003719084360888966
-0.0014146893361525231
-0.0016333584906183009
-0.0012624650385681022
-0.0006341905950647308
-3.895631697291881e-05
0.0003497818722504598
0.0004866583388287572
0.0004215004958642163
0.00024883160482023597
6.198222490232435e-05
-7.55735635122197e-05
-0.00013904515551982298
-0.00013584838559897762
-9.146465860128393e-05
-3.4860287274456415e-05
1.182587412281669e-05
3.767845367692226e-05
4.2287312638417755e-05
3.201727531890978e-05
1.5535234150711877e-05
2.621314647235755e-07
-9.483490431185604e-06
-1.2692729867892466e-05
-1.0765424833973811e-05
-6.189011655870366e-06
-1.3634467530563489e-06
2.115032579838764e-06
3.6564805492822743e-06
3.4916310753082623e-06
2.298545275371573e-06
8.268888833585406e-07
-3.62130136565292e-07
-1.0015472376301887e-06
-1.0938234134466076e-06
-8.111282480225773e-07
-3.79325690767926e-07
1.2175908967580522e-08
2.5609740143502883e-07
3.3057832726894297e-07
2.746225918281528e-07
1.5358293823603372e-07
2.9105398633404038e-08
-5.873217096373476e-08
-9.599622822908373e-08
-8.96405842027374e-08
-5.766691403571544e-08
-1.945392620919979e-08
1.0791141176800432e-08
2.6563417113053102e-08
2.8260000803276413e-08
2.0521310149250843e-08
9.225675411221918e-09
-7.983104409209242e-10
-6.891941694340334e-09
-8.598536351454988e-09
-6.997123271423467e-09
-3.8019665824314704e-09
-5.947173775386367e-10
1.6200815867174091e-09
2.5162882947821286e-09
2.298710549128384e-09
1.4442444320103825e-09
4.532385418727244e-10
-3.151405889246633e-10
-7.03055032088396e-10
-7.292731463732368e-10
-5.184564891526599e-10
-2.2339671720522673e-10
3.295982124479729e-11
1.848888520307862e-10
2.2336722264026058e-10
1.7806242763060614e-10
9.387195765020135e-11
1.1329736412408542e-11
-4.443081588241519e-11
-6.58580128904863e-11
-5.887962065361815e-11
-3.6103949852611035e-11
-1.0434759875874805e-11
9.060967472869817e-12
1.8571243291197225e-11
1.879779136135796e-11
1.3079521308664987e-11
5.382835842566322e-12
-1.1656480718630973e-12
-4.94563695490097e-12
-5.795195231609094e-12
-4.525642566603511e-12
-2.3111249217750473e-12
-1.8923404269443676e-13
1.212388896804474e-12
1.7212087890694456e-12
1.5064546118114846e-12
9.008328503191124e-13
2.3674223045259025e-13
-2.572636062985596e-13
-4.896066537855641e-13
-4.839350489444598e-13
-3.2943089053333063e-13
-1.289329169715001e-13
3.814677446958663e-14
1.3198173714382686e-13
1.502117973425924e-13
1.1491910769085471e-13
5.6765653635739855e-14
2.2810289737133948e-15
-3.2892497194570035e-14
-4.4879144680076175e-14
-3.845681384494081e-14
-2.238905392692426e-14
-5.228591908167549e-15
7.272197836578638e-15
1.2926568883161867e-14
1.248576892822679e-14
8.325770436907905e-15
3.109683788925748e-15
-1.1481226969100838e-15
-3.4718961006514597e-15
-3.8473202636475464e-15
-2.8728815043809934e-15
-1.3481868280406765e-15
4.923764355718196e-17
9.30380927620353e-16
1.2100902527085583e-15
1.0220285190259075e-15
5.966323084662417e-16
1.5371469487656228e-16
-1.6217644489304072e-16
-2.991901379212049e-16
-2.8029678678730403e-16
-1.686464267859523e-16
-3.312052289436471e-17
7.52519497675142e-17
1.326501076046521e-16
1.39896637661951e-16
1.1315063543776451e-16
7.323632119804809e-17
3.743620059869818e-17
1.5402675484943453e-17
8.950421327067724e-18
1.4369018234353776e-17
2.560910717262784e-17
3.7027735148550837e-17
4.499871389675132e-17
4.830267790013398e-17
4.7623380855895475e-17
4.4635542071408146e-17
4.1118683283637654e-17
3.8363738782408595e-17
3.694994857369489e-17
3.6825614356817563e-17
3.755593952988842e-17
3.859930694216453e-17
3.951539990189678e-17
4.0065300359306796e-17
4.021202370560176e-17
4.005788919270886e-17
3.9761453291453067e-17
3.946741401373703e-17
3.926658007694193e-17
3.918734589010785e-17
3.9209759811276775e-17
3.928950120451879e-17
3.9380650524420165e-17
3.9450595412385003e-17
3.9485312843668216e-17
3.9486914720954386e-17
3.9467063596614e-17
3.943982840995551e-17
3.9416413662559995e-17
3.940271756737631e-17
3.939944163030115e-17
3.940378045175382e-17
3.9411584471755085e-17
3.941914756594063e-17
3.942419985243362e-17
3.9426088022433115e-17
3.9425385353888234e-17
3.9423262471163645e-17
3.9420902932507566e-17
3.9419129416458805e-17
3.941827972693124e-17
3.9418279533026105e-17
3.941881690842021e-17
3.9419526857486974e-17
3.942012462048627e-17
3.942046500134497e-17
3.9420536387154214e-17
3.9420415309454763e-17
3.9420210207724617e-17
3.9420015896651973e-17
3.941988900436751e-17
3.9419844338798253e-17
3.9419865629118816e-17
3.9419922013427577e-17
3.9419983021006567e-17
3.9420027930197575e-17
3.942004864948926e-17
3.9420047602092615e-17
3.942003310867271e-17
3.942001462684818e-17
3.941999938450696e-17
3.941999094486106e-17
3.941998944124003e-17
3.941999279517817e-17
3.9419998176839466e-17
3.9420003163381375e-17
3.942000634498569e-17
3.942000739243105e-17
3.9420006762891224e-17
3.9420005268564294e-17
3.9420003693022057e-17
3.942000255738577e-17
3.942000205421524e-17
3.9420002108131664e-17
3.9420002497726103e-17
3.942000297823162e-17
3.9420003366426296e-17
3.942000357516337e-17
3.942000360526116e-17
3.942000351294167e-17
3.942000337195159e-17
3.942000324413002e-17
3.942000316449868e-17
3.9420003140190245e-17
3.942000315846674e-17
3.94200031979893e-17
3.9420003238630934e-17
3.9420003267307556e-17
3.9420003279471354e-17
3.9420003277393864e-17
3.942000326695317e-17
3.942000325447644e-17
3.9420003244601976e-17
3.942000323945318e-17
3.942000323890003e-17
3.94200032414272e-17
3.9420003245115376e-17
3.9420003248388095e-17
3.942000325037743e-17
3.9420003250934384e-17
3.942000325041135e-17
3.942000324936805e-17
3.94200032483209e-17
3.942000324759783e-17
3.94200032473053e-17
3.9420003247376394e-17
3.942000324765541e-17
3.942000324797898e-17
3.9420003248229836e-17
3.942000324835647e-17
3.942000324836501e-17
3.942000324829616e-17
3.942000324819982e-17
3.942000324811613e-17
3.942000324806653e-17
3.942000324805397e-17
3.942000324806877e-17
3.942000324809626e-17
3.942000324812321e-17
3.942000324814141e-17
3.9420003248148405e-17
3.9420003248146125e-17
3.9420003248138686e-17
3.9420003248130304e-17
3.942000324812394e-17
3.942000324812084e-17
3.942000324812077e-17
3.942000324812264e-17
3.942000324812515e-17
3.942000324812729e-17
