0
-5.497172618381568e-07
-5.627118296694729e-07
-3.0595729174718935e-07
2.505837155168217e-07
1.0066428637311002e-06
1.7054267535777506e-06
1.969317440976804e-06
1.41583922192048e-06
-1.566698725862068e-07
-2.564725438088219e-06
-5.10657030457626e-06
-6.607191843727606e-06
-5.722697731941112e-06
-1.504587844065472e-06
5.903309587568455e-06
1.4701698147238715e-05
2.1361655044687388e-05
2.135982124756776e-05
1.0830395556918256e-05
-1.1148059215547685e-05
-4.038951407753734e-05
-6.669889523219913e-05
-7.540857382312109e-05
-5.201085004440257e-05
1.0599519186679654e-05
0.00010432702881317033
0.00020104189420849526
0.0002548141173603318
0.0002142163421431056
4.4476590207550075e-05
-0.0002457192331978523
-0.0005832847545028354
-0.0008293718716835776
-0.000809625261300215
-0.0003794888903113051
0.0004872837582516381
0.001617084638647606
0.002606131788750586
0.0028861003143926473
0.0019091241653746748
-0.0005696298280054327
-0.004194373789692992
-0.0078341011073287
-0.009688853896339153
-0.007788863318003919
-0.0008719188679231154
0.010566751778455022
0.02345528107643286
0.03206846428490897
0.02911858609099872
0.008086009794139128
-0.033731940534214085
-0.09263788322228629
-0.15799664869129648
-0.015015779511064156
0.14917427605194206
0.13812391990777512
0.14089058678864466
0.13253560128008918
-0.11837489092259411
-0.23724360031226
-0.23078521457034828
-0.08000524924309113
0.057406112566297005
0.23555170041178503
0.10399272486620499
0.09281201806114846
0.004302797395004074
0.013547843349403996
-0.12313923260947965
-0.05528370014109834
-0.025097356473535025
-0.057893183977410605
-0.15845057787860684
0.0860824651826111
0.09803709874337369
0.09879237446075372
0.09992372495794521
0.09923955930530137
-0.11694412537353809
-0.16652045715522368
-0.06260244187148947
-0.0066845263800632835
0.013438017803368365
0.02063250254670733
0.041888204507698014
0.10084222174814823
0.011878796468153305
-0.02250881878963459
-0.010664118107548776
0.03215878391217555
-0.1110245083862258
-0.0543142328690123
-0.006378236546387959
0.029342214615209694
0.052148845554226955
0.06083038253171226
0.05147603306414773
0.01765707059587028
-0.046906421790376525
-0.14441227133361548
-0.0698830535828903
-0.01089897736704487
0.04914874358879384
0.12551116446445199
0.22697211172860982
-0.04596417696780774
-0.09829222973517875
-0.13444799930702842
-0.1524757305778939
-0.14226244667140908
0.11016404967241071
0.21346892900639086
0.16116598548272615
0.1264694066651708
0.06574431834185387
-0.06911862671504695
-0.3131895589400333
-0.272558605638637
-0.11706231077583769
0.013986904018884121
0.1938275387202737
0.28403736612583336
0.3130598801380767
0.06575035645872997
-0.11195906192321484
-0.29515118834640397
-0.15577552336458447
-0.14121696828565225
-0.06267449147194452
0.10395182335504743
0.20673134043727287
0.10129480496783334
0.035540550810538134
0.04003184864333946
-0.07433971389044756
-0.11274925146134332
-0.08994142937522925
-0.024054915982469206
0.06724851568126844
0.1682992516195217
0.06606728178048811
-0.048387277746618225
-0.17730347414725908
-0.11393669401679533
-0.04296403372196875
0.055039344057528986
0.19600606480548827
0.18481342749155938
0.011473203451700047
-0.1468045071824003
-0.11851978447586531
-0.12915075671534107
0.0052768119380369105
0.0799866865238626
0.09887682432585738
0.069834239625596
0.0006422142575646237
-0.1028836147722658
-0.03656653585094934
0.003443124039674331
0.021674921401875963
0.023509139863669027
0.014805668959932206
0.0016105464661408588
-0.009638729211173654
-0.011403681945594985
0.005840667702390017
0.054212577661877294
-0.05169653147727861
-0.09614012353950452
-0.06523860765826649
0.048078395956002
0.03790125175378545
0.07987433676260153
0.12916787201552224
0.12435003092527551
-0.001841644791999222
-0.10619524590647363
-0.217128144661814
-0.12082988989025689
-0.15682380068667867
-0.02587145062151202
0.1907374521862514
0.2053501041367714
0.09877633160656023
0.10279387220741708
-0.005307618085257739
-0.09566389951241759
-0.06927356726987378
-0.03699281087329443
-0.09942949248474764
-0.13196516646042247
0.022769758319109552
0.15488018686739297
0.08169571018073686
0.04007639166148271
0.07954611110927258
-0.14244724383261914
-0.16396254025817356
-0.12284637922891138
0.03624386781737596
0.15214160946936742
0.23750169935698479
0.07345856423195124
0.012192555362773569
-0.01190024722528487
-0.2653554410899793
-0.19862155400809653
-0.034783144018547894
0.03214188329930008
0.029210843816896308
0.19042160149371662
0.14207092254009732
0.0931423433758871
0.03421810579268911
-0.05484140758692251
-0.19158529871121832
-0.1774898775717293
-0.1901541492337942
0.01486656405721555
0.09231663822763173
0.2894783454934628
0.22914900145393366
0.10023266865720623
-0.14011559139328178
-0.15363945038918556
-0.20262227696546498
-0.1330557292219546
0.03495403354628319
0.10735523052872388
0.10858103931817537
0.07042303088706765
0.02182794890673432
-0.017414947260719786
-0.03832771386498631
-0.040777939706474364
-0.02980229170892197
-0.01205535741587943
0.006473797714891399
0.02122648200274057
0.028797174895943016
0.026434280339830595
0.012039768749295715
-0.01506672983401668
-0.052962948032222186
-0.09633739637371076
0.06304584169789669
0.03433861788150342
0.024671549480654156
0.036559431299196116
0.06687080176167218
-0.09211815855232018
-0.05002477150820923
-0.015208267690969314
0.007507745238847496
0.017483113075396385
0.017387610807505845
0.011512325523471534
0.004075912160199834
-0.001919326251736828
-0.005095912254821074
-0.005491981824694233
-0.004009429805739206
-0.0018068537530081979
0.0001590768566701787
0.0013584511813835981
0.0016964245118416532
0.0013825998442304106
0.0007534853705911021
0.00012068771492605314
-0.0003172802492800113
-0.0004954655580921382
-0.0004537318155920519
-0.00028586078693023975
-9.051926385594174e-05
6.129680765721735e-05
0.00013823666165322022
0.00014381037444797002
0.00010249159190905253
4.4387276339293394e-05
-6.219019801564248e-06
-3.6300473727547636e-05
-4.401480617993184e-05
-3.5171034097619137e-05
-1.860801192901393e-05
-2.325493601094788e-06
8.702232132300685e-06
1.2966317903523126e-05
1.1621133132747534e-05
7.146206066418156e-06
2.0863642520941862e-06
-1.7657894238642342e-06
-3.6525930587888862e-06
-3.7074903957417e-06
-2.58615122775709e-06
-1.0702236031898437e-06
2.22670762966561e-07
9.712860840079145e-07
1.1420776996345299e-06
8.940006873465293e-07
4.582459515404109e-07
3.961961923236977e-08
-2.3763059922536513e-07
-3.3897301588434613e-07
-2.9741060649893236e-07
-1.783869834692635e-07
-4.7465230246633365e-08
5.0160208112208507e-08
9.627568858194884e-08
9.541884424802953e-08
6.51079742038386e-08
2.5612098479679575e-08
-7.379669818250487e-09
-2.596836620528958e-08
-2.964725345883677e-08
-2.2744957271736702e-08
-1.1299849786818857e-08
-5.492078338935578e-10
6.409692961316857e-09
8.799449715389137e-09
7.552948683928963e-09
4.394345458395545e-09
1.0108256135511583e-09
-1.4599287915812477e-09
-2.582691969090204e-09
-2.5024301824307844e-09
-1.6860192454952613e-09
-6.584336914997875e-10
1.823014754600069e-10
6.426197781651089e-10
7.187042678491429e-10
5.2800651907595e-10
2.2808491788119304e-10
-4.7281881797816487e-11
-2.2113161793381736e-10
-2.765230765841692e-10
-2.398403180377988e-10
-1.5667500197158057e-10
-7.049726469364268e-11
-9.724550253546415e-12
1.584335302343303e-11
1.1481489548030933e-11
-9.509419362705963e-12
-3.299970493555659e-11
-4.916234105568411e-11
-5.4675545487147005e-11
-5.2203762256341965e-11
-4.7974479873652573e-11
-4.8474680614726254e-11
-5.726388666478705e-11
-7.279192764914136e-11
-8.796515989808998e-11
-9.195592728307883e-11
-7.427511812081402e-11
-3.0362928070100955e-11
3.299706572915301e-11
9.494208341970555e-11
1.2313319600113073e-10
8.33636672615395e-11
-4.4540870926773275e-11
-2.4867828895687804e-10
-4.724542481058439e-10
-6.16685812716476e-10
-5.638771925651663e-10
-2.2555091269499728e-10
3.973047821283187e-10
1.1628287336605624e-09
1.7764777746040571e-09
1.8476007765992891e-09
1.0261971805977698e-09
-8.009964641813773e-10
-3.3172863105257905e-09
-5.68254653133026e-09
-6.643445381031304e-09
-4.911281052074453e-09
2.2344915306241622e-10
8.205208990619569e-09
1.6752937623102084e-08
2.198265454166942e-08
1.939117557392547e-08
5.71596158455001e-09
-1.873693319996708e-08
-4.8172369100897054e-08
-7.097603871139219e-08
-7.206058775363008e-08
-3.828507839502766e-08
3.393915337230388e-08
1.313355022500068e-07
2.205159252129801e-07
2.5276188421399763e-07
1.7913544716083054e-07
-2.5530538437006973e-08
-3.364323107505967e-07
-6.620142781335443e-07
-8.503444746561035e-07
-7.289451199365848e-07
-1.778674273599273e-07
7.807059620155473e-07
1.9108955076328476e-06
2.7553342575524618e-06
2.7320085681556876e-06
1.3487363708619324e-06
-1.5021353843860368e-06
-5.267484749876931e-06
-8.62246917654866e-06
-9.675501769287967e-06
-6.571504118195654e-06
1.5726864250301571e-06
1.3668948371143424e-05
2.6049928942382002e-05
3.277931889007165e-05
2.726040467476131e-05
5.103733929392674e-06
-3.24285171248962e-05
-7.57641898213104e-05
-0.00010691512296095937
-0.00010345718483540804
-4.700662617743668e-05
6.537469030926721e-05
0.00021076579050720426
0.00033667228077135386
0.0003697299579120514
0.00023974463015089982
-8.387746656068513e-05
-0.0005540696987776772
-0.0010242241425359266
-0.001262658394850636
-0.001017385743257336
-0.00012844193013290434
0.0013400303737215347
0.0030016436077287363
0.004151766128517827
0.003931150065004334
0.0016614008729934533
-0.002713175494009669
-0.008233609803620364
-0.01280762278505125
-0.013585181904484869
-0.007938972739105094
0.00506338573284977
0.023098719122401988
0.03959070810303695
0.043983003577923736
0.023717868313341793
-0.03228617355693248
-0.12971746031039944
-0.06623269552600512
-0.03174238222590999
-0.012179357919329645
0.20446973070939647
0.2226840915714799
0.03765831930054859
-0.1610638359540107
-0.18191548234529137
-0.2237062481219838
-0.07279663158678829
0.09251874566218751
0.29199064400238356
0.33288814883651047
0.005082426484825506
-0.11464047430209842
-0.2502925275244798
-0.21218623676992798
-0.18754686528848533
0.05860579200149755
0.17178433931443493
0.1898928353290129
0.1258226760715901
0.15778592250469467
0.03146013818353623
-0.12625829741781153
-0.1862014956179684
-0.19554329846575777
-0.16332207936589072
-0.05779016334067303
0.18367170671807403
0.23584579438606884
0.16500364943012782
0.013352079921617986
-0.006952959832806044
-0.10989105565968674
-0.1250077004290906
-0.08513170099623844
-0.016898556074407413
0.0633401614625586
-0.05192219010848324
0.03348253961136035
0.11327115953756438
0.17451341403677723
-0.0023771938737488308
-0.038720615245665196
-0.14921696641039203
-0.13372631251516923
-0.17341643559014827
-0.03420422447852168
0.12252360115585544
0.3254041477603099
0.18076208994580586
0.06834893126175538
-0.05196356053644464
-0.22444683946043692
-0.27889031579536117
-0.21689657841371263
-0.009149173505536595
0.19482985436180333
0.24830857440975948
0.18800174240498865
0.22175170877358635
-0.07193377893879517
-0.33285320945148705
-0.20189909931557815
-0.10538907140001406
-0.04738095530764799
0.18778803541990755
0.22525900167659874
0.08719128614424766
-0.016417359199948474
-0.09066986199198973
-0.15291855274766264
-0.02690723206510786
0.06306321611008615
0.09635038764253484
0.0587395640300609
-0.0552676920300786
-0.04023162085002812
-0.07839148612743153
-0.1406292704404514
0.009081489369346218
0.20602934816488475
0.07602465663030358
0.028765744621125577
0.055997609771528824
-0.06481008985119058
-0.16282563733348587
-0.06529974495821912
0.008790426713082895
0.051097649595807884
0.06246042567773133
0.04941686770523658
0.020812543906211955
-0.014095647104938571
-0.04587802130279331
-0.06443626585528217
-0.05916125998607003
-0.020790472198796876
0.055024756109256105
0.16374226402136466
0.08975575398373316
0.008059689825818627
-0.10971700299227605
-0.0865780137281391
-0.13205203422375272
-0.03815074438201533
0.018680758657313747
0.07009684178777863
0.1455690039687529
0.06312308752840703
0.024532985868207353
0.016684312628381708
0.01851403887923738
-0.1891107094353283
-0.21440816035808724
-0.05036553730200367
0.122788273870454
0.12915421054215523
0.18647958669859746
0.09798653518581728
-0.149932646406423
-0.18383000183516857
-0.03564650964354702
0.06498845421668001
0.09623416662269084
0.04694332632343498
-0.08218775542150397
-0.07868802998811035
-0.11997534845327719
0.022725842447510653
0.17846663306429691
0.17045554072012828
0.012408232062454734
-0.09081576214377275
-0.13879590764149569
-0.13014979884490147
-0.05961609756152186
0.0803090154991871
0.09373744827373247
0.1747126345296719
0.10337066635144791
0.047768823764092784
-0.22840269955697462
-0.15502436471428818
-0.1463429938245086
0.0023914778858764576
0.11087960446718025
0.2042683164100194
0.10260810530670933
0.013862500653901343
-0.06701188648010495
-0.15346407024952996
-0.06016196012082196
0.003248004198184321
0.03508491784912336
0.0409236066020361
0.030481599930371
0.013924035703567032
-0.000954367312703941
-0.010001798733258306
-0.012517425247368862
-0.010131772482688994
-0.005411911944390388
-0.000706355016818893
0.002509262986364032
0.0037709586835623404
0.0033980432798138083
0.0021045423522972687
0.0006306229390706022
-0.0004984189967155885
-0.0010574000848986554
-0.0010814393543254555
-0.0007595041540000524
-0.0003190266298716408
5.912447587645148e-05
0.00027993693680297926
0.0003323500098694745
0.00026187242646073225
0.00013561713351172442
1.3440414269355133e-05
-6.805703014336724e-05
-9.840180787314046e-05
-8.691791771541521e-05
-5.254835016765238e-05
-1.4415439146676297e-05
1.4207859126561525e-05
2.7888570782438212e-05
2.784852437113078e-05
1.9139302587202874e-05
7.660509430349063e-06
-1.991322325054989e-06
-7.477479887666641e-06
-8.617131218761172e-06
-6.651207452746334e-06
-3.3332907987908185e-06
-1.945263627826054e-07
1.8521351724050244e-06
2.569579878034992e-06
2.2222600883115764e-06
1.3095256230428383e-06
3.236451157112263e-07
-4.010951849064276e-07
-7.346095419050595e-07
-7.165818333096952e-07
-4.817413164072841e-07
-1.8294414628043874e-07
6.314835577254886e-08
1.9915469927824837e-07
2.2309504054931896e-07
1.6866166562271814e-07
8.161188649449295e-08
1.0687350525968374e-09
-5.024206815272086e-08
-6.705645606013695e-08
-5.6800473819735426e-08
-3.26140434312478e-08
-7.1551115801224985e-09
1.1170388744498472e-08
1.9268071411653883e-08
1.8369206165505215e-08
1.205805694031458e-08
4.290014371597889e-09
-1.9780599793589925e-09
-5.342999770518319e-09
-5.822034695009324e-09
-4.325498173063372e-09
-2.0447738886835296e-09
2.239903145763939e-11
1.3115763912924126e-09
1.707793737111241e-09
1.4154527123464897e-09
7.765347656048754e-10
1.1325301028211637e-10
-3.6434384044669314e-10
-5.806811407417881e-10
-5.659648706264197e-10
-4.0507031671176894e-10
-1.8960204115510436e-10
1.1562642367442543e-11
1.599010914453239e-10
2.3911683777469735e-10
2.4198286658902597e-10
1.624428633796602e-10
-1.2470653826711749e-12
-2.332637499595839e-10
-4.844211804637476e-10
-6.656079860364399e-10
-6.618983071012774e-10
-3.726838842120105e-10
2.2824868953861604e-10
1.032768884897218e-09
1.7700113477207987e-09
2.042952453770994e-09
1.4499449963535097e-09
-2.1966167675541732e-10
-2.7697978595950294e-09
-5.457069667297085e-09
-7.038569386590099e-09
-6.0940612055356774e-09
-1.622979552973919e-09
6.218616653177658e-09
1.552326294620249e-08
2.2555261085040903e-08
2.2530371917449377e-08
1.1364938308231769e-08
-1.1904912870719228e-08
-4.2837335810946875e-08
-7.063604750818968e-08
-7.978256148628944e-08
-5.494305003117838e-08
1.1367669720754549e-08
1.1054167480539543e-07
2.1277911248971087e-07
2.6947364327191237e-07
2.2625066482925609e-07
4.641604234392315e-08
-2.6069804568369636e-07
-6.176170694594003e-07
-8.773530868017747e-07
-8.554953724879961e-07
-3.99370085652161e-07
5.182981683465967e-07
1.7131593712408806e-06
2.7572552325063708e-06
3.0485271430698053e-06
2.0064685533014564e-06
-6.292811942954834e-07
-4.484803717367768e-06
-8.368020237637074e-06
-1.0381284302299125e-05
-8.44704351910331e-06
-1.2272724940297824e-06
1.0787879638786446e-05
2.446051542739778e-05
3.401456900919326e-05
3.235108508237984e-05
1.3778871042417782e-05
-2.2363668324359825e-05
-6.846315395433547e-05
-0.00010758021036659002
-0.00011638444823104678
-7.294266768995536e-05
3.166087741141266e-05
0.00018137450613629196
0.0003285971028908488
0.00039932339965668913
0.0003142876306438252
2.4971626904463032e-05
-0.0004446395974092287
-0.0009677944422461032
-0.0013177828461548005
-0.0012216160403931238
-0.00046762782123346017
0.0009547753609269888
0.002733498968844182
0.0042008519596460035
0.004457204660052463
0.002681311532341881
-0.001417225748645113
-0.007144166735609799
-0.012589764379140266
-0.014867775807709904
-0.01098802290298289
0.0006816626997103031
0.018707810175301966
0.037275334381207344
0.046038022002664485
0.031736419111075255
-0.018377500472235804
-0.11211185542108255
-0.04846897978735172
-0.01608516339809505
0.004984373783358305
0.038421026444797286
0.10529597182129172
0.018384154261166796
-0.020996067588472295
-0.02277624502012514
-0.00493261764258797
0.011548962780410947
0.008182012953850584
-0.02623361993534941
-0.09257095048447171
0.01905031444160692
-0.07340759421596031
0.05063082232148624
0.007408315972936569
0.20259351956467198
0.02819622974679893
0.06439850727772482
-0.11366529470885635
-0.12635671281703392
-0.1810127903231716
-0.06831622189691462
0.03439720522821153
0.15390295987277486
0.30987806345510976
0.10697339823673986
-0.06587707435682653
-0.22853358408352
-0.19879545033076007
-0.1834681312245656
0.0238473162867193
0.23715642689320615
0.26790644977678063
0.1160496441305968
-0.03256724256678025
-0.20096338071869185
-0.2107337180243124
-0.07206257553147455
0.02111012394575762
0.08888044252590165
0.1577554049401881
0.05142735443530901
-0.016197948231671998
-0.043554617744913815
-0.03960541466458779
-0.019279963569447132
0.0018267179357349457
0.011968518208458534
0.006196627734583352
-0.012491265791120799
-0.03382118614891477
-0.042718375741158214
-0.023443511330643534
0.03518221928295752
0.13470936842649403
0.0639374436336811
-0.0006217312247458515
-0.09016011774242809
-0.035971138172472376
-0.061156630819520774
0.025899101987401967
0.034690946180609195
-0.008043108702902452
-0.062386002903196354
-0.08208993175641031
-0.02343002900986407
0.1452440656084807
0.23550483006069295
0.035195234744707246
-0.08892557254966839
-0.18269485243993733
-0.09330255239560041
-0.05943858494981293
0.09423226456691293
0.1579064978594374
0.13466723830627336
-0.16185626009731172
-0.10903122274301359
-0.07676481063178561
-0.030788454942455502
0.06146048181489351
0.2234925683796589
0.06369447500593207
-0.02666956366226925
-0.07024986055537046
-0.09650642266644252
-0.1337564493530185
-0.003511571806359353
0.0812328892471399
0.11427174452884394
0.0932560693660278
0.01809321187014068
-0.10801370983923116
-0.07557780351926459
-0.06611803285348766
-0.05214998917386917
-0.0011282385531484341
0.11727602863139168
0.1228600643685988
0.018592301586604985
-0.011181450314770879
0.002793377684869542
0.022442169718067194
-0.18808821331174413
-0.05401195365242569
0.014860328302484432
0.023982754417791317
-0.010438561049139199
0.13170319803551736
0.06786935451975165
0.008884314803393335
-0.04145807294320803
-0.08376292195332109
-0.11926530682533547
0.052879917101681585
0.035926826045662136
0.03367095933332848
0.0477854785224288
0.07603808111366711
-0.08757637908534648
-0.0508538918102497
-0.020599954240005852
-0.000445319132349635
0.009797838661519597
0.013164775199520633
0.013587750075683098
0.013874491285426458
0.014420269879593165
0.013145255714265842
0.006747430993016926
-0.0070611750995596845
-0.027055181211373805
-0.046721437527075596
-0.05421681781214255
-0.03470393933860222
0.025080508513402475
0.13123750424096994
0.0782209851268906
0.04773476410011871
0.012316840038166244
-0.056933772079308796
-0.1809675841229125
-0.1653360471650937
0.002057458991397843
0.1467114094142205
0.09834375510152403
0.08057658180432084
0.10365216732905312
-0.03724606183466416
-0.15805474260055405
-0.07856232402161396
-0.015160891397480523
0.023623900744476848
0.03781851922062177
0.03367734129118951
0.020043433907279126
0.00502344916639857
-0.006045233821386046
-0.01111979010475461
-0.01081755668573672
-0.007218266139881542
-0.0026669797677241593
0.0010582587791975759
0.0030930509149104447
0.003420009562474471
0.0025623193969505605
0.0012214244369708404
-7.604848511207366e-06
-0.000782831816273114
-0.001029264651702439
-0.000864282691994682
-0.0004904232473850186
-0.00010096732458646888
0.0001769243518654846
0.00029757818755535986
0.00028112299675863095
0.00018304731481061118
6.391105692892009e-05
-3.140063894937016e-05
-8.191668520467485e-05
-8.833647213389891e-05
-6.48529518830956e-05
-2.9771201853957828e-05
1.7098112811361416e-06
2.109591109183177e-05
2.678400511291954e-05
2.2031142503045937e-05
1.2153941627454742e-05
2.1143331406480867e-06
-4.897433306619673e-06
-7.806920470265067e-06
-7.2134846986944745e-06
-4.588662094660881e-06
-1.49698851582163e-06
9.260175542292086e-07
2.1703770145131625e-06
2.280938209870257e-06
1.6396254804274436e-06
7.225505290211613e-07
-8.304264696440162e-08
-5.668925939957619e-07
-6.962864331749424e-07
-5.61053861443505e-07
-3.005508393411438e-07
-4.2015792746709905e-08
1.3465625493118732e-07
2.04439582188957e-07
1.8483005802841723e-07
1.1477295563724349e-07
3.464129448901764e-08
-2.687784675185159e-08
-5.743689602640796e-08
-5.887720696884602e-08
-4.144383617736714e-08
-1.750452085273821e-08
3.0864731399726016e-09
1.5138060214517125e-08
1.8028441499643003e-08
1.4220875610865205e-08
7.362550700444009e-09
7.124885446865779e-10
-3.732140836480214e-09
-5.395356426048633e-09
-4.78002317900446e-09
-2.9148286318740817e-09
-8.40401216935559e-10
7.195638466911702e-10
1.4675673888711552e-09
1.468544350441701e-09
9.965082808484107e-10
3.7232930374175143e-10
-1.5351289272732783e-10
-4.531616480395296e-10
-5.161993210079636e-10
-4.0976104194947535e-10
-2.291388187952635e-10
-5.777550931099059e-11
5.4332650675259884e-11
9.387355818541489e-11
7.486497587678412e-11
2.4287007688776144e-11
-3.0954820758202264e-11
-7.217099901250199e-11
-9.145319816201821e-11
-9.001801609570925e-11
-7.452423231715592e-11
-5.3354861880460954e-11
-3.4039800432696964e-11
-2.2055253353886493e-11
-2.055291160314323e-11
-3.0337513192107186e-11
-4.962173135092741e-11
-7.357969993041061e-11
-9.423791857262076e-11
-1.015096711714876e-10
-8.598644004444125e-11
-4.338532571334809e-11
2.0532223125089344e-11
8.682150325035328e-11
1.24737436631044e-10
9.973259375123653e-11
-1.1935565123172213e-11
-2.0531901736834403e-10
-4.3254539079941475e-10
-6.014153564324624e-10
-5.950175122508763e-10
-3.149276382665635e-10
2.595927544999191e-10
1.0162878117446407e-09
1.6880153167633618e-09
1.8944705527503778e-09
1.2639000902575612e-09
-3.7874236626570624e-10
-2.811358796658351e-09
-5.293641796579483e-09
-6.631119002719693e-09
-5.500191876282046e-09
-1.025475348062132e-09
6.5286413366973045e-09
1.5226729551771007e-08
2.1446211064712516e-08
2.0683355130998457e-08
9.26135008943936e-09
-1.3377727398519184e-08
-4.258765800404902e-08
-6.778717617649526e-08
-7.422972770111035e-08
-4.7853180677107116e-08
1.739283663100236e-08
1.119149270293416e-07
2.0612359921372354e-07
2.534091625124332e-07
2.0323279174621036e-07
2.3752401999374554e-08
-2.716328164082078e-07
-6.046263279757702e-07
-8.32951800029942e-07
-7.83333649696147e-07
-3.188975257047783e-07
5.72247079975611e-07
1.6986024727677087e-06
2.6416035376139785e-06
2.8300973869272193e-06
1.733251377261275e-06
-8.544396405194947e-07
-4.52304641930408e-06
-8.09200879483136e-06
-9.744639404566386e-06
-7.554192692913555e-06
-3.6951925159677894e-07
1.1167446935579208e-05
2.389728506366468e-05
3.223888233046837e-05
2.9534286060673744e-05
1.0704836399499677e-05
-2.4329305043339797e-05
-6.770834211491773e-05
-0.00010289790245089726
-0.00010780253152081221
-6.24270153830228e-05
4.0050357593995896e-05
0.00018226922661644497
0.0003172059363865806
0.00037412900991324444
0.00027969445157067434
-7.4275480290706714e-06
-0.0004576044158024187
-0.0009436553441372412
-0.0012468998282765954
-0.0011117900273268926
-0.00035037945235576195
0.001025972114037516
0.0026968275808519184
0.004011775857268651
0.004120446390421298
0.0022771185773294627
-0.0017287885977407865
-0.007155767478963582
-0.01212153957672922
-0.01387190792396421
-0.009648946938236237
0.0019033324280472782
0.019141921891428
0.03625069207069207
0.043212216861144494
0.02745470796259998
-0.02285454999022691
-0.11470071387902138
-0.04681620478305
-0.00857635246587493
0.017992716453363197
0.05362694781451711
0.1163721848360891
0.017370164114417774
-0.04062128416533351
-0.061800612217423896
-0.05415893382121874
-0.026361135433069872
0.013962405966086194
0.060231975148514486
0.10603325299841447
-0.055424617723813054
-0.03067500393191217
-0.024330199275357792
-0.03737029639494425
-0.06649888127000055
0.09489552185863977
0.05452840571597732
0.01883361011978226
-0.008429258927059067
-0.026044441536100676
-0.03409121843004876
-0.03259652978814698
-0.02110751549948032
0.00032262858552729363
0.02901979457639601
0.05745639660718881
0.07229893521412246
0.055947528820076906
-0.009070947480261009
-0.13384399087104007
-0.11727384372757856
-0.14361723675405164
0.0146127858414388
0.18859105123084283
0.20283203478571288
0.06697558310530126
-0.02653371561857031
-0.09782814760148874
-0.17023862664395956
-0.0602802824711119
0.02907346514946907
0.10983242078335544
0.005520607894810798
-0.055345471643407286
-0.04683678147514437
0.0471731052380422
0.02724619118874288
0.07532483762425517
0.1557795995142805
0.02143654626564939
-0.17595265711823246
-0.07326413389084102
-0.08551300211056366
-0.2012329566634132
0.014131380791379176
0.2075523333874449
0.2241415110861767
0.09465790768892603
0.02954092937123902
-0.17879721893705466
-0.1474820788115551
-0.09307152445978334
-0.02446618755533287
0.058670696453445845
0.16244612914390794
0.09289422476424546
-0.1490712980957108
0.03010631983151065
0.017431969267877948
-0.0037544732919505526
-0.04999979229638688
0.06595883324261896
-0.06197840004968625
-0.031973816159607586
-0.03495727538608081
-0.05746324831948265
0.1139156682259453
0.08782327408044593
0.06513760225006764
0.039367263556047326
0.0008349828978041911
-0.2568395457133599
-0.1309627614240621
-0.007889895460350176
0.13338361932302606
0.11339967412623204
0.14375744116036926
0.02194863887756119
-0.06821557353297857
-0.15102409199089495
-0.05080757744602039
0.01525331325184149
0.04112713744777542
0.03222231321190112
0.0028616813586857517
-0.027752936741818682
-0.040110109398901646
-0.018947279695448592
0.042691613442618036
0.14074095952192112
0.05991309845044089
-0.02312462661615138
-0.1335533393624765
-0.09114850673320951
-0.10482584055096288
0.028756560514827077
0.1222071981168591
0.19189766696904934
0.05302631150854321
-0.08229958089429996
-0.20371491629949043
-0.10010422116027735
0.041050482971007614
0.03077220914363383
0.07290039769747671
0.15838226813681516
0.06280558788205316
-0.050672135195905826
-0.022976062143101515
-0.08757279140866546
-0.05937060698622392
-0.1277804641311075
-0.05653985597487821
0.009026344941343946
0.12894251879531615
0.15342347357883784
0.11032672669190238
-0.0007885670771077589
-0.006303004584005679
-0.1491160344347257
-0.0756922815233446
-0.023887458878437455
-0.015031947754352536
-0.051904530225091144
0.07773616921634599
-0.006137094372150286
0.11572562735062125
0.05491530153128191
0.011983806456962915
-0.02263618561648524
-0.06424120725868084
-0.12808366972059237
-0.024683045951361456
0.042030538967627686
0.07352384995128704
0.07376672568781222
0.046707294545560205
-0.004308936024543031
-0.07497391446700408
-0.15757813860164055
-0.03973180862295081
0.09419528365191819
0.05892695089694641
0.06317229026568778
0.10606601106991197
-0.022984193530253893
-0.1408164700340858
-0.06491080617613125
-0.008113410989142908
0.024241771196112052
0.03414246812336401
0.02841186463581654
0.01540425142247994
0.002222317728789748
-0.006812036160799687
-0.01036109546356509
-0.009330416900968568
-0.005733924999858089
-0.0016471863371194998
0.0014661954445710993
0.002986695719057567
0.0030214445881120537
0.002103167510419935
0.00086712469155342
-0.00018507446567529888
-0.0007930715845926021
-0.0009304973152828012
-0.000727340057781015
-0.00037202772921151244
-3.122605775006953e-05
0.00019413301893359556
0.00027618128048954486
0.00024197090033004513
0.0001448694107803605
3.825438530346537e-05
-4.113424856081155e-05
-7.853997358776106e-05
-7.77172978812805e-05
-5.2962519152825525e-05
-2.0784133273893687e-05
6.0574128123801375e-06
2.115224947704631e-05
2.4107527158309814e-05
1.846009939062735e-05
9.13041427974473e-06
3.80052785851379e-07
-5.275164465237949e-06
-7.2085241672082284e-06
-6.184049825071889e-06
-3.607496297285563e-06
-8.523168151117399e-07
1.1567513999819681e-06
2.0672476565528296e-06
1.9987190007291026e-06
1.3320922820726448e-06
4.948968386225956e-07
-1.8916527944273813e-07
-5.630260832342486e-07
-6.240312007748114e-07
-4.680574459029812e-07
-2.2342931368768705e-07
1.012626371968166e-09
1.4269529035902112e-07
1.8783270190299558e-07
1.5780719725306333e-07
8.958591359371884e-08
1.8469805304247442e-08
-3.2302164613771945e-08
-5.436962107532878e-08
-5.1393425741868105e-08
-3.349919359000946e-08
-1.1745616249276276e-08
5.666601377024191e-09
1.490230123242394e-08
1.6084475652117123e-08
1.1802240142710052e-08
5.3977701291115936e-09
-3.5244380205376373e-10
-3.895621988337865e-09
-4.9374702207475095e-09
-4.071755255245051e-09
-2.269002937106429e-09
-4.3549462989076564e-10
8.457397929793297e-10
1.3780077171238869e-09
1.270400844790927e-09
7.914749180630662e-10
2.2694227158670765e-10
-2.1572147052070548e-10
-4.432402475313958e-10
-4.636823340133052e-10
-3.467246042767539e-10
-1.7929906710497563e-10
-3.214811912472446e-11
5.628891213195998e-11
7.999846130376343e-11
5.5359182839760255e-11
7.810877468137496e-12
-3.94060903970651e-11
-7.16899600681993e-11
-8.445814986489322e-11
-8.089656652921867e-11
-6.81130942668533e-11
-5.348078600356231e-11
-4.224137230286265e-11
-3.665350885871259e-11
-3.638403804346881e-11
-3.9563748394858726e-11
-4.3934375142480377e-11
-4.7695668625049176e-11
-4.9898546610985655e-11
-5.0428441431217757e-11
-4.973454025848899e-11
-4.848267187086038e-11
-4.726812029443758e-11
-4.645590849715714e-11
-4.6151540923822115e-11
-4.6263415620476356e-11
-4.6603777580801224e-11
-4.698257880501896e-11
-4.726758221377898e-11
-4.740436481488442e-11
-4.740471007696e-11
-4.731861848036163e-11
-4.720468047342522e-11
-4.7108651722691335e-11
-4.705389905307484e-11
-4.7042336632226826e-11
-4.706170781331629e-11
-4.7094611458798404e-11
-4.7125817428299334e-11
-4.714621839961098e-11
-4.715342108914546e-11
-4.715002673252816e-11
-4.71409856602018e-11
-4.713119092744556e-11
-4.712397357058672e-11
-4.712063757435768e-11
-4.712079771380027e-11
-4.712312005836781e-11
-4.7126086348060475e-11
-4.712853512245689e-11
-4.712989285488667e-11
-4.7130136867333e-11
-4.712960009667195e-11
-4.712873667295577e-11
-4.712793580059271e-11
-4.7127424239211885e-11
-4.7127255253925534e-11
-4.712735572372176e-11
-4.71275953591711e-11
-4.7127848325717044e-11
-4.7128030845980176e-11
-4.712811187770023e-11
-4.71281034259366e-11
-4.712804098997577e-11
-4.712796386523526e-11
-4.712790149578417e-11
-4.7127867910953755e-11
-4.712786301187138e-11
-4.712787779103274e-11
-4.712790041286494e-11
-4.71279209429982e-11
-4.7127933747816166e-11
-4.7127937671660454e-11
-4.7127934752614015e-11
-4.712792841403787e-11
-4.7127921888321427e-11
-4.712791727907795e-11
-4.712791531974028e-11
-4.7127915648072e-11
-4.7127917321518715e-11
-4.712791932424875e-11
-4.712792091082709e-11
-4.7127921739354755e-11
-4.71279218298784e-11
-4.712792142521071e-11
-4.71279208334019e-11
-4.7127920307722643e-11
-4.712791998780624e-11
-4.712791989784203e-11
-4.712791998143061e-11
-4.712792014876773e-11
-4.712792031691586e-11
-4.712792043314428e-11
-4.7127920480278116e-11
-4.712792046899561e-11
-4.7127920424268986e-11
-4.7127920372327866e-11
-4.712792033201842e-11
-4.7127920311638284e-11
-4.712792031022324e-11
-4.71279203212494e-11
-4.7127920336709346e-11
-4.7127920350153926e-11
-4.712792035813094e-11
-4.7127920360160976e-11
-4.712792035779512e-11
-4.7127920353385534e-11
-4.712792034905783e-11
-4.7127920346131424e-11
-4.71279203450042e-11
-4.712792034536688e-11
-4.712792034655919e-11
-4.7127920347904654e-11
-4.712792034892746e-11
-4.7127920349427183e-11
-4.71279203494401e-11
-4.712792034914097e-11
-4.712792034873767e-11
-4.7127920348394216e-11
-4.712792034819573e-11
-4.712792034815086e-11
-4.7127920348217186e-11
-4.7127920348333185e-11
-4.712792034844444e-11
-4.7127920348518e-11
-4.712792034854478e-11
-4.71279203485336e-11
-4.712792034850189e-11
-4.7127920348467085e-11
-4.7127920348441165e-11
-4.712792034842896e-11
-4.712792034842923e-11
-4.7127920348437313e-11
-4.712792034844782e-11
-4.7127920348456584e-11
-4.712792034846151e-11
-4.712792034846247e-11
-4.712792034846062e-11
-4.712792034845757e-11
-4.7127920348454716e-11
-4.712792034845287e-11
