0
3.618879038505162e-07
3.61887903850518e-07
3.6188790385051805e-07
3.618879038505154e-07
3.6188790385050974e-07
3.6188790385050217e-07
3.6188790385049523e-07
3.6188790385049274e-07
3.6188790385049857e-07
3.6188790385051455e-07
3.618879038505388e-07
3.6188790385056416e-07
3.618879038505787e-07
3.618879038505691e-07
3.6188790385052594e-07
3.618879038504511e-07
3.6188790385036304e-07
3.618879038502975e-07
3.618879038502999e-07
3.6188790385040836e-07
3.6188790385063113e-07
3.618879038509247e-07
3.6188790385118546e-07
3.61887903851266e-07
3.6188790385102177e-07
3.618879038503849e-07
3.6188790384944115e-07
3.6188790384847765e-07
3.618879038479576e-07
3.618879038483948e-07
3.6188790385012937e-07
3.6188790385305957e-07
3.618879038564352e-07
3.618879038588513e-07
3.618879038585603e-07
3.6188790385413424e-07
3.618879038453542e-07
3.618879038340201e-07
3.6188790382423504e-07
3.618879038217204e-07
3.6188790383193547e-07
3.618879038572347e-07
3.6188790389390556e-07
3.618879039304764e-07
3.618879039488664e-07
3.618879039294598e-07
3.6188790385988237e-07
3.618879037453023e-07
3.618879036160659e-07
3.618879035273563e-07
3.618879035464142e-07
3.6188790372639913e-07
3.6188790407201817e-07
3.6188790450908315e-07
3.6188790487527836e-07
3.6188790494900104e-07
3.6188790452415917e-07
3.618879035207404e-07
3.6188790209742396e-07
3.61887900711925e-07
3.6188790006899335e-07
3.618879009164866e-07
3.6188790370183343e-07
3.6188790817715355e-07
3.618879131178396e-07
3.6188791635914295e-07
3.618879153173152e-07
3.618879080197261e-07
3.618878944317246e-07
3.618878775985785e-07
3.6188786393239047e-07
3.618878620063111e-07
3.618878795838706e-07
3.618879193230398e-07
3.6188797450290726e-07
3.618880268920752e-07
3.618880490523856e-07
3.6188801251706243e-07
3.6188790122262273e-07
3.618877266245132e-07
3.6188753802449453e-07
3.618874202409968e-07
3.618874724240065e-07
3.6188776751060186e-07
3.618883010654291e-07
3.6188894855716924e-07
3.61889457022451e-07
3.6188949518492803e-07
3.618887712591021e-07
3.6188719966931704e-07
3.618850629136067e-07
3.6188308598482486e-07
3.618823359184866e-07
3.618838944701239e-07
3.618883335501364e-07
3.618951374458673e-07
3.619023256841917e-07
3.6190657885287034e-07
3.619040973064395e-07
3.6189219495941557e-07
3.618712693835536e-07
3.618463957273835e-07
3.6182754059983176e-07
3.6182748949651213e-07
3.6185718204057895e-07
3.6191924933282373e-07
3.6200189477271446e-07
3.6207633335595364e-07
3.6210111686007484e-07
3.6203521016958634e-07
3.6185845391878287e-07
3.615936163316722e-07
3.61320089124327e-07
3.6116762783089784e-07
3.612816386011962e-07
3.61760603467239e-07
3.625803103668003e-07
3.635345698396071e-07
3.6423120367889786e-07
3.641773639609804e-07
3.6296398577960094e-07
3.6051601224621457e-07
3.57323252516802e-07
3.5452686055463705e-07
3.537350140978037e-07
3.5650145004557266e-07
3.6352815507098565e-07
3.7382503139334953e-07
3.842156969858571e-07
3.896338781570968e-07
3.84523211086933e-07
3.652910570266755e-07
3.3321882791761837e-07
2.9665953301385133e-07
2.710258359293651e-07
2.7529205158441594e-07
3.24710546221647e-07
4.2113475527920213e-07
5.443286214414337e-07
6.491178711314944e-07
6.731778170971984e-07
5.577934835788924e-07
2.788906190950764e-07
-1.2099351779893093e-07
-5.150099200637843e-07
-7.05574213419379e-07
-4.806828854091666e-07
2.899767829459886e-07
1.5433903336382335e-06
2.942057733731229e-06
3.880999687724216e-06
3.6306493508184656e-06
1.6240818671957773e-06
-2.1691921380177203e-06
-6.9168370423284894e-06
-1.0833072193014648e-05
-1.1505328480630719e-05
-6.7193993695170985e-06
4.334221701497176e-06
1.9846070592971823e-05
3.4759318803421464e-05
4.1377002164838445e-05
3.162281185261561e-05
8.010665392021274e-07
-4.8126948200592316e-05
-0.00010155802014600877
-0.0001357740379317247
-0.0001227597581562248
-4.151514600423368e-05
0.00010752337269112955
0.00029025522406981024
0.0004361807027600743
0.000452016286506053
0.00025444053124162126
-0.000183063071464198
-0.00078416814264368
-0.0013476255432332176
-0.0015739234109037243
-0.0011558270578944892
7.476564152382055e-05
0.0019833794762453972
0.0040239141414440665
0.005269408360675814
0.004648735846697211
0.0013922352627079098
-0.004412078764816247
-0.011362094396949388
-0.016669364735421147
-0.01673359681713129
-0.008464920835817227
0.008845876062604075
0.031679483651899654
0.05132837838236573
0.05472143138496535
0.027530377601421532
-0.040802847658619815
-0.15158293659681715
-0.09322543458784875
-0.04169384855121261
0.03409886416448378
0.16321778824694186
0.1632177882524296
0.03409886417929374
-0.0416938485319059
-0.09322543457146444
-0.1515829365919469
-0.04080284767246395
0.02753037756656458
0.054721431335185935
0.05132837833389721
0.03167948362916658
0.00884587609122398
-0.00846492074069251
-0.016733596664175614
-0.01666936456662186
-0.011362094286278114
-0.004412078800416512
0.0013922350136480433
0.004648735383155943
0.005269407786675823
0.0040239136757597195
0.001983379411211857
7.47662416916379e-05
-0.001155825702240245
-0.0015739215293745041
-0.0013476237578556377
-0.0007841673890877223
-0.00018306431998356293
0.00025443673388796237
0.00045201033231168325
0.00043617427416895935
0.00029025121385504646
0.00010752516085754083
-4.150507514228521e-05
-0.0001227415601757224
-0.0001357519639038095
-0.00010154069878141354
-4.812567437987937e-05
7.76350563089381e-07
3.156920128665388e-05
4.13041459711321e-05
3.46919511010182e-05
1.982057712000631e-05
4.38747121255513e-06
-6.567944348615689e-06
-1.1273306259532695e-05
-1.0588063906909525e-05
-6.772049784440894e-06
-2.254151133759538e-06
1.2178941333928884e-06
2.9169585788989536e-06
3.0330415740287066e-06
2.299788765203035e-06
1.542720864862541e-06
1.3036409579229116e-06
1.636513159705472e-06
2.1122844333204426e-06
2.021504744444438e-06
7.208349919213035e-07
-1.9724841910335545e-06
-5.472656745132965e-06
-8.357922921145791e-06
-8.673609749486492e-06
-4.644880004615603e-06
4.322012242528818e-06
1.6669431727405242e-05
2.8231697018650023e-05
3.2801513755706326e-05
2.402462963778237e-05
-1.5440352603895341e-06
-4.105393512461264e-05
-8.311572916730638e-05
-0.00010846628132496151
-9.489885000262579e-05
-2.650283263844343e-05
9.483904530518309e-05
0.0002400507454839174
0.00035140843139214693
0.00035435892575986594
0.00018449062515018592
-0.00017483810600577105
-0.0006565654977689737
-0.0010943676077600204
-0.0012469420003443214
-0.0008732431558412986
0.00014892030926012603
0.0016943459815386775
0.0033097389508978314
0.004248651269824427
0.003672176880865819
0.0010125960746279203
-0.003585777601515246
-0.008924581888190982
-0.012743066777315033
-0.012260719967571993
-0.005362143403165528
0.007715060469412776
0.022606018948727477
0.029588643401303984
0.01355089673012197
-0.044433318179104404
0.036060650730854314
0.0391272933530406
-0.04268953352069642
-0.004028724265764834
-0.02382832451485848
-0.06510977131327592
-0.07841209578565375
-0.0092213003995047
-0.00866383526664795
0.1546173900244863
0.08464312649769432
0.15386826891227884
0.1070206061964293
-0.12689501780364376
-0.21738211757087902
-0.21549771638892415
-0.14320457663163957
0.007045825340232919
0.26277089427555356
0.2566071532076014
0.21317403024040987
-0.056336975135513584
-0.14988261856284318
-0.2636526911649528
-0.18091848463033766
-0.06704394638111884
0.12612196552895483
0.2478764250993685
0.13344506365428535
-0.007913440864001519
0.002789163019827882
-0.08165167523881031
-0.12447782126420617
0.007510340818367668
0.05529275723754552
-0.024292020743104437
-0.05443138994378974
-0.038046799471014456
0.039185854971278584
0.0034207600014877757
0.08632110037030659
0.11967479988768849
-0.0675145283380561
-0.048979507373540294
0.0008828522647448322
-0.09086339274445354
-0.09559833713995958
0.013629942449412699
0.05565740986387902
0.0331911915989055
0.12607138909737733
0.08887599100192142
0.055016645933065926
-0.05237818814642347
-0.10476320426676122
-0.15152971856841618
-0.006977913915834107
-0.04457058315487393
-2.8373179915221245e-05
0.01753782985881215
0.10906534985062896
-0.032934308740076634
0.05877697415109662
0.013805974421236206
0.018106471392275142
0.015136061974475088
0.11416657993261033
0.004905642637410583
-0.023356268698162264
-0.060999182905626656
-0.15970792830873634
-0.12082863222457348
-0.09392253229768502
0.013191322025364991
0.11462811390802492
0.12146267960212594
0.11783743617647435
0.14417228397886403
-0.008523029025818784
0.007661554399948435
-0.08649936517862548
-0.17656388181789978
-0.13463061736206844
-0.005696877091938684
-0.0030336315099817475
0.08760570556164267
0.09777002835491383
0.064212662811467
0.01873957434524985
-0.017652691487457118
-0.03592223366283554
-0.0365513128489617
-0.02543045631715926
-0.009852162711194839
0.004236815660924055
0.0133834895774724
0.016489860773910056
0.014033737706468867
0.007291151913872718
-0.0020498897777875796
-0.01185233028499763
-0.019353359767480482
-0.021286617802719572
-0.014668835492903319
0.0016825711314876178
0.02527763343001036
0.04853151311542774
0.05879539862598424
0.04061832028802278
-0.019719368398503006
-0.12846132085875733
-0.07949289646769364
-0.05268158281303467
-0.01694284100500141
0.062259785885829096
0.21321435013937604
0.049449776477913
-0.034494602986715014
-0.061687218287115306
-0.06679851251960364
-0.08803421068886957
0.04032798748041966
0.09323788793972713
0.057874708271385515
-0.06496371053482475
-0.06061765567786764
-0.10181633404373688
0.04779088418692163
0.0275701350644788
0.07223877716486392
0.004497516467526002
0.02996499416031562
-0.06426881644482726
0.09288529188167745
0.0626164900556716
0.004970509981703128
-0.1112503713878319
-0.09976464768680594
-0.15211390064076044
-0.039302577256631346
0.07979529385653265
0.24546847959892584
0.083978546240688
-0.0011492823121181885
-0.030424380465426854
-0.04228212911979652
-0.08206394319643662
0.010355174054262476
0.011027171790090764
-0.0817813413872566
-0.04665418333663193
-0.04370559528270334
-0.024196303923288698
0.05677200384344939
0.22758112954175766
0.09124725234684813
0.02368225855778891
-0.019688945796984256
-0.09063643506558876
-0.2323618300065959
-0.06646097903867802
0.013148721278044269
0.037651518109067625
0.05347940568333562
0.1087907131352516
0.04057840821350173
0.06596087167860899
-0.020430851114724136
-0.04299520056484303
-0.037332694566652724
-0.04070824922749809
-0.08351982409241297
0.016225045242211557
0.05459827301380229
0.0400199680490994
-0.010635583564010594
-0.07671412499515526
0.06172187907460301
0.020112566080310406
0.006791102211677873
0.02203708970256598
0.05907945896359578
-0.09316750732471656
-0.046447894330139995
-0.009800672570951479
0.012397513810467498
0.020525433849043602
0.018314559638551962
0.010812673076771214
0.0025655437898248726
-0.003471595814675809
-0.00619062275981388
-0.005955783633171227
-0.003929351810505582
-0.0014075377690759819
0.0006359602350659315
0.0017358103652497646
0.001893247111509649
0.0014039254877620093
0.0006572289940322554
-1.9839761182960552e-05
-0.00044188695435559504
-0.0005710301360568169
-0.0004745896531270858
-0.00026548662278547857
-5.029629006319329e-05
0.000101649237614557
0.00016620096864701286
0.0001553291242195448
0.00010012562600865193
3.408654277012013e-05
-1.821549745881777e-05
-4.5516247727419046e-05
-4.848454851053222e-05
-3.5131138591576535e-05
-1.5614273590656915e-05
1.716592619437831e-06
1.2260084218116345e-05
1.52212082560226e-05
1.2461317562093644e-05
6.9421208806139375e-06
1.3980286272042128e-06
-2.4330280603958473e-06
-3.9855603610493415e-06
-3.612263085655784e-06
-2.136822343631735e-06
-4.24092536125209e-07
9.047066741970515e-07
1.5762248104649208e-06
1.6224593314739822e-06
1.2586355595830067e-06
7.488014800566142e-07
3.0556021253466977e-07
4.2668669993794045e-08
-2.4132354424191037e-08
5.397095271230861e-08
1.9940625973948564e-07
3.4209471786076915e-07
4.385512580126873e-07
4.756774746382965e-07
4.636861980294636e-07
4.243555622087624e-07
3.799905429946925e-07
3.4627421228727077e-07
3.298093269207872e-07
3.2939426909511475e-07
3.3926398533013817e-07
3.5256364925082856e-07
3.638864016123337e-07
3.704275639855141e-07
3.7190352855605847e-07
3.6971430279663373e-07
3.6588862504720905e-07
3.6222044399038135e-07
3.59795749086881e-07
3.5891393747719085e-07
3.5928333920485525e-07
3.6032924332176305e-07
3.614770573138841e-07
3.623314361237535e-07
3.627337301288861e-07
3.6272452706658046e-07
3.6245782359478343e-07
3.621113545313742e-07
3.6182245252495613e-07
3.6166006240144103e-07
3.6162835861306044e-07
3.6168923118391067e-07
3.617896987971063e-07
3.6188389137974106e-07
3.6194474187093115e-07
3.61965520800982e-07
3.619544655024211e-07
3.6192671477494896e-07
3.6189705358257664e-07
3.618754326769939e-07
3.618656411194761e-07
3.618663877053427e-07
3.618735693789346e-07
3.6188258335421526e-07
3.618899459117709e-07
3.6189396772111124e-07
3.61894621607308e-07
3.618929405795587e-07
3.618903063482136e-07
3.6188789040804784e-07
3.618863659405276e-07
3.6188588090993854e-07
3.6188620481630155e-07
3.6188693956637687e-07
3.6188770515972263e-07
3.618882515376256e-07
3.61888488835085e-07
3.618884565699343e-07
3.6188826380278534e-07
3.618880295887997e-07
3.618878421828145e-07
3.618877428313324e-07
3.618877301755817e-07
3.618877763228645e-07
3.61887845289214e-07
3.618879071913721e-07
3.618879453236743e-07
3.6188795652630786e-07
3.618879471943425e-07
3.61887927773667e-07
3.61887908016591e-07
3.618878941980463e-07
3.618878884402626e-07
3.618878895810649e-07
3.6188789474608764e-07
3.618879008735764e-07
3.6188790573161e-07
3.618879082965926e-07
3.6188790861213414e-07
3.618879073690867e-07
3.6188790544843316e-07
3.618879035912319e-07
3.6188790225545326e-07
3.6188790163050404e-07
3.61887901730472e-07
3.61887902481831e-07
3.618879037515679e-07
3.618879053103921e-07
3.618879067732305e-07
3.6188790758743863e-07
3.618879071348763e-07
3.618879049723993e-07
3.618879011635147e-07
3.618878965731326e-07
3.618878929413187e-07
3.6188789255950925e-07
3.61887897473299e-07
3.61887908331199e-07
3.618879232459408e-07
3.6188793724217736e-07
3.6188794290727437e-07
3.6188793262484295e-07
3.6188790220906195e-07
3.6188785496061765e-07
3.6188780438852686e-07
3.618877734807282e-07
3.6188778887889334e-07
3.618878698702729e-07
3.618880146135017e-07
3.6188818878150596e-07
3.6188832362190744e-07
3.6188832985729877e-07
3.6188812976914346e-07
3.6188770220805966e-07
3.618871258513369e-07
3.6188659837208316e-07
3.618864080913507e-07
3.6188684450319396e-07
3.6188805628751867e-07
3.6188989630493055e-07
3.618918224069749e-07
3.6189293534133196e-07
3.618922146457695e-07
3.6188895119677123e-07
3.6188327738935223e-07
3.618765903338113e-07
3.6187159741394873e-07
3.618717425617002e-07
3.618799365392533e-07
3.6189681299343916e-07
3.6191909447453464e-07
3.619389375023394e-07
3.6194514771244757e-07
3.619267516886995e-07
3.618785331105236e-07
3.6180694504876704e-07
3.6173370304968577e-07
3.616939421265129e-07
3.61726690650662e-07
3.618578962753112e-07
3.6208004599843524e-07
3.62336447107555e-07
3.625206209671323e-07
3.624998803636712e-07
3.6216550794391284e-07
3.615002469840562e-07
3.6063989240608915e-07
3.598952044515247e-07
3.597003155900019e-07
3.604703910861477e-07
3.623860187365396e-07
3.651680558354174e-07
3.6794835402218095e-07
3.693557216875021e-07
3.6789969062713556e-07
3.6263581446512266e-07
3.539480372622418e-07
3.4413051777538695e-07
3.3736577347209935e-07
3.387595206083495e-07
3.52360336160491e-07
3.7855084792141595e-07
4.117313379260482e-07
4.3960704797521083e-07
4.4536125466181147e-07
4.1331817245928677e-07
3.3733050602670213e-07
2.2933958191555635e-07
1.2398963912522218e-07
7.473198240281872e-08
1.3839939605245802e-07
3.491606138324589e-07
6.88526418552748e-07
1.0638971628932403e-06
1.311181594968052e-06
1.234168114394344e-06
6.825778265910345e-07
-3.472144766659272e-07
-1.6252714027459814e-06
-2.6658433790926543e-06
-2.8182736955874586e-06
-1.4919369344616023e-06
1.517845891657523e-06
5.7049224807961885e-06
9.68916192574204e-06
1.1389324435057255e-05
8.641789406020819e-06
2.1901124385926274e-07
-1.3022196516241402e-05
-2.7353087995128532e-05
-3.634362100361605e-05
-3.246338394806049e-05
-1.0154032195118131e-05
3.028681011727709e-05
7.945324209004622e-05
0.00011817976634939114
0.0001213216341350767
6.667610537368463e-05
-5.2367996847255364e-05
-0.00021452236722744778
-0.0003648968298873896
-0.00042254683753368904
-0.0003052420681494158
3.075445079952976e-05
0.0005467876952916019
0.0010930350051244402
0.0014178119771977497
0.0012324771636861678
0.0003322211989841517
-0.0012543465596748825
-0.0031438088253091137
-0.004580916356631309
-0.0045948494815570805
-0.0023522468827211532
0.0023529304879972937
0.008634963624478837
0.014321425058207838
0.01628075708948631
0.011414780053228204
-0.0017869745223164522
-0.021572587208002245
-0.04189403198911988
-0.05291123778548902
-0.043712739567859225
-0.007269533889397566
0.05338919777295746
0.11987820858597091
0.15677770515963868
0.11595290578928577
-0.05244154589031581
-0.1843429602848032
-0.28639415338804375
-0.1268972035706106
-0.03782776932394049
0.07122594155786809
0.29106338244115837
0.29013970926591404
0.0990193703849594
-0.09279520951387894
-0.12745827853271438
-0.2615462394226571
-0.14833214423970895
-0.026149512106639627
0.084010160305299
0.1728890457567609
0.23388806365963896
0.05595170561890388
-0.17796772556373355
-0.08669779548550047
-0.0838748313567652
-0.1723541423645526
0.05707993040056632
0.22242768597677257
0.14496325938358404
0.045084441971303305
-0.05787828494014901
-0.14202263841619148
-0.17830822845887204
-0.12908553787085786
0.04744523414765043
0.18693905338233854
0.1060792855238996
0.1923231519920754
0.0007165970479163563
-0.14042619314772034
-0.1166072209396055
-0.011112609620883106
-0.09048360646821031
0.005247422207970092
0.06645673035511097
0.112768216639619
-0.011333836782575284
-0.042366088814036834
-0.1043934180128707
0.08347568442593183
-0.20192763730965405
0.10166827864459234
0.031171479933266764
0.18933617010650908
-0.05910937288767965
0.21598332916867902
-0.07831504011669062
-0.03999987078930757
-0.15131640836605134
-0.06017156511413277
-0.16872886633189546
-0.03253135873205609
0.029196055659964637
0.11442312228391598
0.11518619352865074
0.09636603414794936
0.08161723036202705
0.049561424348443024
-0.05948541070494802
-0.12870873740277658
-0.04627363817106207
-0.08798898692615001
-0.10512581280927631
0.08063192815308858
0.07545949695276748
0.10719199641394807
0.01784941864144253
0.05755758369441281
-0.1190719843967893
-0.054861522529684105
-0.09219481141864568
0.022763182673034975
-0.06698366582265054
0.06181380387287434
0.20433558792662013
0.12324788496990075
-0.04905402315772273
-0.0005513001916945829
-0.023759708315024122
-0.19789770160209422
-0.17391168479799127
0.03352325405023634
0.04508473364407245
0.10798071917402123
0.08270820723297122
0.029732999378326824
-0.000458447720751648
0.027662341456855012
-0.06560931438159287
-0.07232632687876614
0.007115161580632743
-0.03267057459400762
-0.00027720680766727334
0.09282140572586536
0.03203729886270283
-3.980260559488147e-05
-0.022206974039931937
-0.05233467724185928
-0.10519040997635991
0.008484580618041844
0.08123069919285544
0.10721725891152337
0.08133520299956261
0.0005320896131808236
-0.132471429162462
-0.10478328571771221
-0.09111799190384741
-0.0562506978432641
0.03719878404226212
0.21750035622045139
0.09292043675719998
0.045560968991435184
0.032910172338361646
-0.002603564740923382
-0.11856058116579665
-0.15641928528218194
-0.12926868334879626
-0.01741148449411149
0.02670439542285706
0.06576889067644585
0.1612363413869126
0.15854292709053117
0.07848542664871701
-0.08295826261910628
-0.1472806955223649
-0.14232920797407464
-0.09235626223303837
-0.013100482954876752
0.08695777378663998
0.20105223363584812
0.11813622601241654
0.020260223174218744
-0.11485574351348823
-0.10719494981159287
-0.16722030413931332
-0.09194494545750842
0.13345052737887836
0.12905457986389
0.11191320945870219
0.09011618786988813
0.0622241991004324
-0.177703015986776
-0.23207827079813412
-0.09306386710188444
0.058967111399738155
0.05045111771712323
0.10511556592601366
0.2341504238247799
0.030456727997840882
-0.13047346468125717
-0.0834347735388071
-0.06319007466990931
-0.09504654207443504
0.010474169511593022
0.057706023231814695
0.061567561529958376
0.041210613643669625
0.014080390759769931
-0.00787693360681182
-0.019319419653482533
-0.0204223779480485
-0.01463205485255645
-0.006313218143892211
0.0009804683526606804
0.005326786834287615
0.006436540449941398
0.005142404894821075
0.00272520132671636
0.00034822850905633464
-0.0012634835178532227
-0.0018890150868323032
-0.0016957139422132223
-0.0010446325213363096
-0.0003069079596602658
0.00025562493810400125
0.0005319202480996396
0.0005409642388113916
0.0003780994791682087
0.0001572535995818916
-3.1410108274931954e-05
-0.00014087889709144235
-0.00016610197466547378
-0.0001301539729350077
-6.671004088920765e-05
-5.6517801947537574e-06
3.485743901765162e-05
4.973265347785382e-05
4.374974600986032e-05
2.643470119516683e-05
7.34863479695898e-06
-6.906506557379344e-06
-1.3659812370953648e-05
-1.356055136538388e-05
-9.156345030485551e-06
-3.4015704023416124e-06
1.4132678821429335e-06
4.131956227785726e-06
4.67653026391305e-06
3.6755989289094673e-06
2.008852118475015e-06
4.405633759977536e-07
-5.763235824675921e-07
-9.270952104454656e-07
-7.468498403728298e-07
-2.866862920044046e-07
2.0711566229911794e-07
5.680485408655673e-07
7.3197783174595e-07
7.196101463730778e-07
5.990542418488605e-07
4.474370421149447e-07
3.238112878567071e-07
2.5752688826528764e-07
2.4986918887384087e-07
2.8348486525907663e-07
3.338227478800932e-07
3.784893697268185e-07
4.02758532368124e-07
4.01417403008435e-07
3.781202475305261e-07
3.434331228557013e-07
3.1216447924705373e-07
2.9993683119656365e-07
3.1875160119682875e-07
3.717696528672216e-07
4.485503944378036e-07
5.230796589607404e-07
5.573572590705871e-07
5.124199535833084e-07
3.661196414081576e-07
1.3312905230016114e-07
-1.212543405998103e-07
-2.8392564915013137e-07
-2.21779240929899e-07
1.6456097048409686e-07
8.724129061327797e-07
1.739252526825349e-06
2.4300646411816007e-06
2.5022855899548936e-06
1.561408783598423e-06
-5.167733259203726e-07
-3.3681160658390007e-06
-6.036143561778158e-06
-7.099604122419278e-06
-5.103099064182427e-06
7.455124149866272e-07
9.799773371337072e-06
1.9458216927559607e-05
2.531166956018451e-05
2.2266920064358996e-05
6.659705639467254e-06
-2.111007088244326e-05
-5.4416457110185595e-05
-8.00590569560747e-05
-8.095243398215424e-05
-4.229116945133448e-05
3.98302792672843e-05
0.00015016606708283898
0.0002507160402405425
0.000286245109919417
0.0002014996713716158
-3.1574163229814254e-05
-0.0003842185586967935
-0.000752061266802395
-0.0009626605001129685
-0.000820967342944292
-0.00019229998062263355
0.0008963062359672787
0.002175684963605485
0.0031268917617448544
0.003092398008055236
0.001520387346659702
-0.0017009308197685304
-0.005931588933943564
-0.00965794013666778
-0.010732254480102746
-0.007069046380964871
0.0022725856659611466
0.015915617852584336
0.029400227617578115
0.035397914684148435
0.025300931795940274
-0.007886215924351904
-0.06611055684003736
-0.14368117025861463
-0.027071524966236493
0.10205342752213921
0.0612400547530119
0.06120549826989526
0.10195368947584203
-0.027221665276619747
-0.14384950013384726
-0.06624341064054404
-0.007914349271643509
0.025441801347193847
0.03573340840008185
0.029880500846714654
0.016393280461178286
0.0025160653171517285
-0.007311954278932038
-0.011622653705487958
-0.011133247262656009
-0.0076057502291176915
-0.0028660536117938724
0.0017326922025941327
0.005376751395020458
0.007561508761554307
0.00782696753507144
0.0056934534521690325
0.0009064556386617753
-0.006080242068281534
-0.013629729870943411
-0.018807112856637293
-0.017948554711890247
-0.008041029249086768
0.011311311454078097
0.035973273742486545
0.05637048550532275
0.05854761168205137
0.02768600332334055
-0.04638703073492242
-0.16337188394416824
-0.10891977862176644
-0.05574703211973929
0.029631595986321008
0.1761046831443521
0.19695074056737777
0.08328796268117157
0.005349016378768958
-0.07812769807100249
-0.20556555223994827
-0.19871709268144752
-0.054799310278395255
0.05223933002998683
0.1618623980242472
0.11248065216646268
0.12795677548548762
0.009844154044175947
-0.06246269754339723
-0.12454195550440733
-0.015827187012826607
0.031681625301109545
0.0019067346797089154
-0.10123830994975148
-0.054742467547187534
-0.02217244844100786
0.03691377444571454
0.15604832298110802
0.15265873888426965
0.02379207618290309
-0.051557187410221104
-0.10438054038230679
-0.16508978217204695
-0.05464496844188797
0.019375829257956785
0.06084094132584757
0.0788806162445423
0.08067073029665223
0.06651177361735115
0.029334384391836776
-0.041155616976693524
-0.1514590652282611
-0.09753360168089022
-0.0616201904151149
-0.014665595245793934
0.0759627670366282
0.23615554409040668
0.07619174992016277
-0.01299421133769415
-0.05683998339698775
-0.08878327274874209
-0.13995019649395155
-0.03082869760929509
0.032354800365307745
0.05598662729786558
0.053651501077630226
0.03958960280101474
0.023558976980295514
0.00864714861944057
-0.007709660891968822
-0.030364413792814123
-0.062340878528125476
-0.10174884816584422
0.05887801251510348
0.030417236456980523
0.022999669989111855
0.041580028430332004
0.08305786800753899
-0.06386272594643218
-0.015906667448897162
0.009599171641873626
0.0001283636482806979
-0.0476631787760826
-0.12592637255546082
-0.016876003800510842
0.10260176174431827
0.05413876070549976
0.051137431578365165
0.09457556433781311
-0.02708241036329269
-0.13394910946581481
-0.04840472335091495
0.011168479083093768
0.0346084907123642
0.021381102488876796
-0.020469178270212225
-0.07703115163461839
0.06780859262161688
0.028397861629866596
0.01387071529160295
0.02615656380816831
0.06009671077895798
-0.09434995283326314
-0.04859651021142835
-0.011917884515423126
0.01080040543647053
0.019456476600389933
0.017537199950780277
0.010147522714830796
0.002114948360438492
-0.0032817024302759603
-0.004791742706720604
-0.0029980946971782736
0.00030518709063872965
0.0029191124941373987
0.00304684403512594
-2.898332516351883e-05
-0.005521681559097345
-0.011117762339117036
-0.013517258694440724
-0.009637653960709563
0.0015864745644207842
0.01713165258477467
0.028119862157990245
0.01905844272211434
-0.031335090705136584
0.05250710608672512
0.047249523234344906
-0.06412833797160736
-0.0872058405341822
-0.012503992587575815
-0.014719670258865477
-0.055407062967732304
0.11146908745323744
0.132736712372143
0.05004014102783412
-0.103803278946725
-0.10609176983757856
-0.1447354351935012
-0.019974703440406957
0.05190851527531648
0.234436870560215
0.26987408659912326
0.08497645497878221
-0.19503664757569644
-0.22701331889081391
-0.23139961689951202
-0.1823506636050592
-0.011509576494891984
0.17443030720290637
0.2675182995244413
0.13219210359400607
0.18739895278726684
0.0027629874107582973
-0.09048292926923344
-0.17786714469671702
-0.13657944612892642
-0.21479459187171474
-0.021432441495619972
0.07130558658583626
0.1144814227162778
0.16319753002756976
0.05803732514878389
0.012610503065507274
0.010107421738830192
0.008892397042543214
-0.045066727838586895
-0.002395199513985384
-0.0950414213441718
-0.12528531736669732
-0.062015243098601854
-0.04580762014514062
-0.0022206148902927116
0.13966505981581054
0.22833376508750156
0.07608009241413045
0.0547824601342253
-0.09728186142455596
-0.059579194926137904
-0.1091161132980923
-0.10152037215077957
-0.05817810303192042
0.03786637769291885
0.037045957618907485
0.01141289378105524
0.03901384862403974
-0.01206637860211285
0.10295876007147503
-0.0029373766415114098
0.04905820875825184
0.007761636343315571
0.0018880295598954335
-0.04615179070790984
-0.005156565469339543
-0.12167630560771113
-0.0109145816755213
-0.05392606997716014
-0.001760267141882642
0.014312822616599675
0.06872266740882149
0.026761285386555908
0.13225520635989937
0.0004107876854773776
0.01721253766969296
-0.054929765165750266
-0.06717841740208991
-0.07274250529492877
0.08336715516949868
-0.028637206283544984
-0.02031924114565641
-0.0860201937730788
-0.00741894854577302
0.03923277945911335
0.07482581062450154
0.11042735988150135
0.1440922014456729
-0.037099850798455465
-0.2503423257379062
-0.10850876792236089
-0.013521268327565021
0.045449222644998344
0.08864135642978198
0.13939897752369534
0.018079101770454215
-0.061434625701631745
-0.0920810300874584
-0.07207269477982751
-0.0033481156022958244
0.10878752734478159
0.0550589711414981
0.021914002786597008
-0.007287294419021481
-0.049406317778463944
-0.1180060691417439
-0.02079823128283327
0.040703694948610925
0.06926616612988895
0.06898554697931027
0.04311965429211966
-0.005998390567958324
-0.07496761175232931
-0.15662466063595368
-0.038694755690875146
0.09469585084899344
0.05871906632779332
0.06255561466615034
0.1056660926948744
-0.022491147166636128
-0.13904174441373654
-0.062058029388151595
-0.005129145330545497
0.025792748028726706
0.03254995115775839
0.022603311186095813
0.005839190112447301
-0.00846598670895394
-0.01388199519842774
-0.008116538997391598
0.0065511255871366966
0.02364242052052102
0.03374407926613222
0.026775057425793117
-0.004886766618124525
-0.06308384157568742
-0.14158975277500055
-0.026235108886636452
0.10182729975583081
0.060414375045757855
0.060274998913541815
0.10127920583212442
-0.027483612753973437
-0.14373564835136443
-0.06592179018266742
-0.007602410665932336
0.025556368829302584
0.03555574771754136
0.02944708529483981
0.015877645235240163
0.0021927783125076637
-0.007150438247426444
-0.010789268847213436
-0.009681751349315076
-0.00592696625221205
-0.0016797583617673328
0.0015454293856409951
0.0031120797327196864
0.0031370445356051443
0.00217664249853622
0.000891147002715799
-0.00019972073415869536
-0.0008275050337463665
-0.0009666007773365369
-0.0007531293372065093
-0.00038313620430352
-2.9468692103436915e-05
0.00020359586959837613
0.0002876816410113073
0.0002512870669649568
0.00015001130011487322
3.926459038941429e-05
-4.294020228650016e-05
-8.145134923333788e-05
-8.030685691943758e-05
-5.442767548798714e-05
-2.096809623811386e-05
6.853676017048902e-06
2.2431918018631334e-05
2.540503856226578e-05
1.9475486526161453e-05
9.76295502627643e-06
6.874264139393466e-07
-5.15257795739729e-06
-7.122290547842095e-06
-6.028694147007355e-06
-3.3405206462258725e-06
-4.875909924088928e-07
1.5717862258841673e-06
2.479210299695386e-06
2.371701822995261e-06
1.6612117210411905e-06
8.074841575792419e-07
1.5531315608047538e-07
-1.3819898298278487e-07
-9.634234519525789e-08
1.360810578513706e-07
3.7197167251697723e-07
4.568796618583174e-07
3.2410788651309954e-07
2.1113440640212535e-08
-2.981585109268968e-07
-4.177671461401105e-07
-1.384358033095316e-07
6.229616992037249e-07
1.7413083149293462e-06
2.8402407880508653e-06
3.3428987347942535e-06
2.6442460053523394e-06
3.91688751480259e-07
-3.199010200642463e-06
-7.125191557633405e-06
-9.638551930449916e-06
-8.67587059079329e-06
-2.693114400860828e-06
8.273368677642065e-06
2.1708959432896933e-05
3.2422845322192414e-05
3.3553562433372176e-05
1.8980939164584265e-05
-1.3227736639250153e-05
-5.743513966952526e-05
-9.881862317730814e-05
-0.00011534394460580152
-8.443846232416175e-05
6.197095592384775e-06
0.00014656426670109235
0.0002963517623306859
0.0003872066043156906
0.0003401425654613165
9.829284935218936e-05
-0.0003322276077582969
-0.000848779945070132
-0.0012467559731577918
-0.0012612160511025485
-0.0006624079051195002
0.0006106538625843624
0.0023223235107415505
0.0038845668048948577
0.004442730834761536
0.0031428294202324757
-0.00044593042928637184
-0.0058715530862365395
-0.01150805650398987
-0.014675473154751664
-0.012354433501686305
-0.0024966836859531254
0.014351677198499247
0.033701792616962815
0.04681962194299996
0.042142687209788206
0.008600505072605133
-0.05982029377227681
-0.1598564049715045
-0.0771907338161988
0.011266807051708223
0.13104124819169383
0.10178146061488348
0.1303862594207286
0.008635128267482159
-0.0835518756460537
-0.17067259244011948
-0.07335714142809133
-0.0027953891112393824
0.04010110979070663
0.0611470160310939
0.06718716493202732
0.061147016330370715
0.04010111038709895
-0.0027953882667666945
-0.0733571404940938
-0.17067259172066437
-0.08355187555440273
0.008635127342745292
0.1303862573314513
0.10178145768308
0.13104124534014858
0.01126680570871248
-0.07719073212343747
-0.1598563993137833
-0.05982028462812937
0.008600515230507538
0.042142693971943486
0.046819620010176484
0.03370177789538141
0.014351649518195042
-0.00249671820833292
-0.012354461827073105
-0.014675477728873017
-0.011508021287559277
-0.005871472338994465
-0.000445817517031559
0.003142937522971952
0.004442778064349149
0.0038844945607572567
0.0023220980681647302
0.0006102974422638618
-0.0006627955975754357
-0.0012614619601630686
-0.0012466563677307767
-0.0008481829797600226
-0.0003311382647227728
9.96240889028797e-05
0.0003412002947289089
