0
-1.2090486369062992e-16
-7.806849225723583e-17
2.3047935273566585e-17
1.6643992702232048e-16
3.0597930920476167e-16
3.706623233718708e-16
2.851630294586052e-16
4.446591933454321e-18
-4.464548256396853e-16
-9.44109315080513e-16
-1.270400485715703e-15
-1.165061441325713e-15
-4.2947365313710427e-16
9.396675380086879e-16
2.6353581009208175e-15
4.011469788254118e-15
4.204335862795777e-15
2.4321159329753574e-15
-1.5724041165274772e-15
-7.131419032483958e-15
-1.2407620606732792e-14
-1.463664563734306e-14
-1.0951313712221412e-14
2.6505163052727013e-16
1.7856063634608272e-14
3.685258923143068e-14
4.87085934467861e-14
4.34366385257094e-14
1.3693242848225752e-14
-4.006748162446433e-14
-1.0529165910990898e-13
-1.5648935387154088e-13
-1.6028799112788521e-13
-8.730365017996333e-14
7.106285837094659e-14
2.863240510154919e-13
4.8541867483812e-13
5.60845644866428e-13
4.036526180050966e-13
-4.3712635435152724e-14
-7.292052111503144e-13
-1.4532181872789514e-12
-1.881303033010563e-12
-1.6307257716599463e-12
-4.3105898302158883e-13
1.6773603635881315e-12
4.1829324289085964e-12
6.081384775856524e-12
6.084733926497427e-12
3.091352723730034e-12
-3.162960476972163e-12
-1.1488710634583455e-11
-1.898514053183101e-11
-2.1476507893188785e-11
-1.4829927446702038e-11
2.9829913578313405e-12
2.96650020616991e-11
5.721461288291175e-11
7.255844884316486e-11
6.105017417611044e-11
1.2775481874981883e-11
-6.981533656351482e-11
-1.6593814382701382e-10
-2.3607623111190816e-10
-2.3058191687673304e-10
-1.0826351057457257e-10
1.3840654228257193e-10
4.600422342713196e-10
7.416479371699585e-10
8.212085137166534e-10
5.422417888071946e-10
-1.6587264209121895e-10
-1.2032535404998458e-09
-2.249776905482075e-09
-2.7950032673583324e-09
-2.2792666878847417e-09
-3.4091590197073835e-10
2.890523406429132e-09
6.573086928104309e-09
9.153785828797148e-09
8.72124765359897e-09
3.7396590089638705e-09
-5.9763711150732806e-09
-1.8386620223781204e-08
-2.893889657941227e-08
-3.135441854882497e-08
-1.9719947853032584e-08
8.385884715137153e-09
4.867249479026711e-08
8.835599775472904e-08
1.0752956844550515e-07
8.483951675084792e-08
7.1689751790707364e-09
-1.1911695946162824e-07
-2.600001273971875e-07
-3.5452338840430183e-07
-3.291952070191598e-07
-1.2693228694513516e-07
2.5528487568771854e-07
7.335436240682593e-07
1.127894726845777e-06
1.1952920776285414e-06
7.127469222080529e-07
-4.011372568164217e-07
-1.963866509865178e-06
-3.4658226003027094e-06
-4.13153920037047e-06
-3.147559529411908e-06
-4.127200523633374e-08
4.888340993747892e-06
1.0270190245619876e-05
1.3714493951780089e-05
1.2399225934282411e-05
4.209974677996703e-06
-1.080731365802724e-05
-2.92150396385011e-05
-4.390944341529579e-05
-4.549351995223563e-05
-2.5576977763120683e-05
1.8504515893352622e-05
7.905272313233772e-05
0.0001357858059765732
0.0001585294911688243
0.00011634532585040028
-7.666288662724575e-06
-0.00019988964475269128
-0.0004051922515575543
-0.0005299972992069337
-0.00046608337146911345
-0.00013541003611871908
0.000453923731293324
0.001161715171736212
0.0017081595931916747
0.0017308703316352798
0.000915804759773676
-0.0008194871859937618
-0.0031502178322061567
-0.005267390488126264
-0.005995091845306289
-0.0041580342843776565
0.0008341665991100957
0.008343240646446568
0.016072468351769297
0.02017038794633716
0.016099709897063025
0.00024786715462130434
-0.02813326554799948
-0.06546425881688432
-0.10382792568249379
0.06692863093711317
0.05522843141146222
0.06335654234430764
0.08475324826215205
0.10484631111251916
-0.09408404365931193
-0.12541558965631594
-0.1911553761202152
-0.07895155216397731
0.034610185817921066
0.17501801743355994
0.15872821344307508
0.1850198426397364
0.03497931326960105
-0.12126587969909286
-0.31181032033777684
-0.1503163007189701
-0.029267891761769315
0.07774009550407794
0.20582623240947462
0.18545356610196387
0.03161754117581456
-0.060384841558291436
-0.11194709800613044
-0.1533957871082577
-0.015363510148105091
0.07759142371678887
0.11010592221074846
0.07684713995988858
-0.017315667132230494
-0.1570918067520262
-0.11737277841773643
-0.06640731147770976
0.02742520552736289
0.1863131490476749
0.21449160204321926
0.09469476204180179
-0.007570559311352579
-0.1323240369536952
-0.3100157131055291
-0.14920991001649958
-0.032600793046730255
0.07642498798929433
0.21903329672192984
0.22397549229791014
0.09539403392763943
0.010392221346175578
-0.0726677515383448
-0.1984633964092207
-0.19775127692091338
-0.07564964524710668
-0.0095440800471541
0.04271967903366177
0.12752347239576325
0.27876399362847576
0.10593096263978631
-0.008614162982072095
-0.10230888611609153
-0.21817879907543217
-0.1896032274159462
-0.03001637986523675
0.06898378151993653
0.13148425005789033
0.1867613393125977
0.05945020119789519
-0.035731963377586315
-0.09358264124230409
-0.1141117089452117
-0.0977598423092369
-0.04329861760097219
0.05025098556478194
0.17878880612208825
0.12843191846833138
0.0744173227206548
-0.014342363531295366
-0.1657632731934643
-0.19362697748083235
-0.08994880839150575
-0.024581667234380933
0.0468518069670953
0.16904636626151026
0.17199764937642406
0.060346265648400156
0.011000585817509772
-0.020055466562880733
-0.08409001313541332
-0.22365478669902059
-0.05951511414809888
0.015443416665344524
0.033747825244149356
0.04362886072389214
0.09549351406330908
0.02866079805031738
0.06180967831855635
-0.010816985914038384
-0.017069369676621145
0.0004984379377459166
-0.005011299849149244
-0.07398820912645664
-0.031390474857133865
-0.0817492446738441
-0.00929123245593166
0.016834690684366337
0.03362796088904236
0.07415984332344518
0.1594112574935501
0.09466706423381813
-0.12833161685111666
-0.12448870629644672
-0.10682956577192759
-0.08025771002476013
-0.04034964342068382
0.22256750174035397
0.11640133941199671
0.041064044069990084
-0.013823815141124685
-0.06633035250507235
-0.13622715589298742
-0.03856245720182685
0.020451192265622132
0.04392144134427318
0.04160670595054428
0.025749404938576335
0.0072236349318636865
-0.006822727860701381
-0.01353053705207492
-0.013488589501237564
-0.009205413786731474
-0.003586159317274776
0.0011314020743430936
0.003827435858060621
0.004426326857638862
0.0035182590875261193
0.0019121268660147776
0.00029298894298746485
-0.0009383672019629797
-0.0016547444421122774
-0.0018890699006791412
-0.0017050639220438611
-0.0011236238371617848
-0.00013873552613625576
0.001189707468024533
0.0026202089562373278
0.0036688621396445856
0.0036767351651913805
0.0020403174072134967
-0.0014295178549723
-0.0061390616455157315
-0.010522442532943576
-0.012235596596774376
-0.008863661240371605
0.0009046573602217772
0.015931958816921464
0.0316533481241611
0.040107967285547
0.0314677389152567
-0.002940948289683922
-0.06688301902329225
-0.15623534633124858
-0.05855268965397534
0.04374580398299494
0.167169373655303
0.12039944156096978
0.10026596393920152
-0.1072929714292524
-0.1214929562454761
-0.15885942837255962
-0.02694805896377332
0.07776076329590474
0.16759791870548663
0.05910484458857972
-0.031193598948600947
-0.0890639318011692
-0.10324073933019355
-0.06612567764392398
0.024115364266375516
0.160195125503165
0.12297396583065447
0.08201039602314412
0.0011265557633759417
-0.1516180777972711
-0.1927403783157826
-0.11554642597642717
-0.0896744250881551
0.1308002376794473
0.1930575344609797
0.13020514999303479
0.1507878373472078
0.03713929288971969
-0.2469924406022057
-0.14285671828528362
-0.0827142202500608
-0.08074366538639044
0.06843287898262172
0.18431089773864817
0.09150100947354219
0.01131949199038135
-0.043051344898781756
-0.06717879424405294
-0.06319699182670989
-0.03708482020297067
0.0028457999032092014
0.04579207593190729
0.07751076995580053
0.08022577732169335
0.0348946900317096
-0.07372545235687518
-0.05033073562499547
-0.08307908134404487
-0.14118186337983027
0.021908071179912343
0.05947814596783528
0.01860261320896023
0.12680507284886772
0.18240074052746605
-0.04825322286822097
-0.025337584386812172
-0.02323555099603265
-0.11466998633808774
-0.15562725432074065
0.025123659390210943
0.0297675909327928
0.0885129256377178
0.05196259381240038
-0.018520713936012897
-0.060308215683515236
-0.017840853181262956
-0.04960478804535298
0.06643751569775012
0.1297400888950008
0.11771649610006059
-0.00899266221840301
-0.09685294722599419
-0.18775579406922088
-0.10921670974337672
-0.07015168219785685
0.1361654274498185
0.12341948560337006
0.10176580902090678
0.07009199657059936
0.014183356000164075
-0.0886540126880473
-0.060533573386810986
-0.11310268048625964
-0.04060115539421808
-0.018465260573280677
-0.00811934725526996
0.03344331510091071
0.1422315733023814
0.13760963797840575
0.017656771716943406
-0.038838874777092115
-0.06451449158400134
-0.09266125577080024
-0.1475465279797293
-0.03931536225690984
0.03485081345069494
0.08411358581288857
0.11493310017992345
0.12373277993713201
0.09487033392320526
0.005508297487823713
-0.16384690499300977
-0.21705553970884964
-0.13363246784972788
-0.06816690821362922
0.040528118004741424
0.2529323307804918
0.2106767463195323
0.12347336468939288
-0.03394305824540186
-0.11385189352626467
-0.1798064823097281
-0.08899022611790779
-0.07857955774572216
0.04016493680749662
0.07952532695709724
0.06687583848818451
0.03377828576704634
0.006126256248754004
-0.0023344930717228325
0.007777777552729591
0.023304381506413414
0.023544147931431714
-0.012812832771546753
-0.10038759515377788
-0.04129599672558625
-0.022569100200403962
-0.017839841257021087
0.006913126678009345
0.0850508676117573
0.04072833120441983
0.08261917510173852
0.0017935060253484877
-0.025636557822449686
-0.03198947477528898
-0.04967858351773862
-0.10360722599964527
-0.006462653807497148
0.04199360389804013
0.05196793100521057
0.03856390758095058
0.016624660436349723
-0.0029040473532554213
-0.014416154911397734
-0.017131965818911434
-0.013413519099994727
-0.006800398489206095
-0.0004421047544734406
0.0037518748530674406
0.005254414899651009
0.004576592092337911
0.00272545320160313
0.0007064408766792302
-0.0007905425739750323
-0.0014910151953997296
-0.0014693087161225563
-0.000997484461519679
-0.000387979489931868
0.00011860183800669486
0.0004021146351467557
0.00045609190039098507
0.00034801114572236333
0.00017109758565731894
5.79973405652352e-06
-0.00010060255879687945
-0.00013655848168328113
-0.00011672567852586935
-6.777446053759813e-05
-1.5660454550418924e-05
2.2205115189762424e-05
3.924522645484797e-05
3.778827588324853e-05
2.507227604497727e-05
9.187644541928853e-06
-3.7539655645985368e-06
-1.0793511149924609e-05
-1.188597939253344e-05
-8.845223256019763e-06
-4.103232272713038e-06
2.61042661816087e-07
3.022617188634998e-06
3.8643473410851735e-06
3.140131685780455e-06
1.5362380606075856e-06
-2.233134221824848e-07
-1.5585138492895994e-06
-2.1060296395058014e-06
-1.7289202703419871e-06
-5.134964841320554e-07
1.2237786355239938e-06
2.9366911809323016e-06
3.9053749693809896e-06
3.3988647804747792e-06
9.585824715507657e-07
-3.2525888696899187e-06
-8.171639813673363e-06
-1.1817032463880184e-05
-1.1704801827830634e-05
-5.757556920210842e-06
6.449549988917986e-06
2.252360513089587e-05
3.6793374910512e-05
4.119354317100088e-05
2.7842258289773994e-05
-6.973138197190491e-06
-5.854842729051896e-05
-0.0001111947350386647
-0.00013959235923409466
-0.00011567643278886483
-2.0872746314926525e-05
0.00013924052225609615
0.0003236626684012172
0.00045561483691681983
0.0004396095439391226
0.0001976474901537022
-0.00028219439520315583
-0.0009015356623381536
-0.0014361506623690205
-0.0015734163137029922
-0.0010150395772978225
0.0003676933465876927
0.0023722107269545916
0.004372502558208085
0.0053824073345276205
0.004333501502238146
0.0005553264987993274
-0.005661276079930782
-0.012647543577233116
-0.01737888983339515
-0.01618340588756429
-0.006194762876026675
0.01271670490336674
0.03617566291832242
0.054604412393564006
0.0544695702947942
0.021855074294521326
-0.052204012205666804
-0.1663373677062831
-0.10589863175436333
-0.04470555647570206
0.04791898615917466
0.1966780105321613
0.2104301312719946
0.07746165120027312
-0.03129410529748538
-0.1517309122023311
-0.31292541525447176
-0.12635424712349447
0.017115155596244148
0.14116363954128355
0.2720206895276368
0.22657374211822523
0.00645328274616375
-0.19927878689263243
-0.2048276889429215
-0.21721747899878802
-0.03056464714474277
0.17185916488922034
0.2090147744691389
0.09154095823503834
0.014536622799678437
-0.043121056074396195
-0.11301917285361064
-0.027734794892439112
-0.011301487804739687
-0.07264499968025923
-0.0035962899584435076
0.0183940726864316
0.023938111841341054
0.04374349315690807
0.1013019374159887
0.008249558331666667
-0.03649465391575121
-0.04399595016963777
-0.030329543887390887
-0.011234173030550434
0.002020887030593249
0.0047188736037396765
-0.0013652779828848235
-0.009794486133815818
-0.01249514650808962
-0.0033301748087060327
0.018528737244091018
0.04632983814087067
0.06555232180195311
0.056569440466678826
0.00024239808431119055
-0.11462164187195623
-0.08423600870583274
-0.08614967678967257
-0.08132125961232424
-0.022665338593700162
0.13156839296142453
0.20343777093129944
0.1850154012484653
0.03655243971947846
-0.10519865017890831
-0.11060980477412045
-0.23805693291433414
-0.11843138372871541
0.051845857352755265
0.10779687639734209
0.10500559508997563
0.10535933271083768
-0.03600140030617712
-0.07962650851183305
-0.005918863820939712
-0.01536456766555994
0.07400221418512998
0.031208820467745767
0.018766051257469833
0.00047286792008839634
-0.050534807955922016
-0.14541071864124666
-0.07711495392903016
-0.023413302269847194
0.04467629779065512
0.1511723215941069
0.10403478204419629
0.08891340280387232
0.07064808387158783
0.002878130163775399
-0.15680978801983808
-0.23114611027767487
-0.21277543089309955
-0.06393992570766603
0.07239619439824249
0.25323532723490005
0.315196533981981
0.2615407992170485
0.06266414050058378
-0.3292157019040245
-0.35678352513686706
-0.23568518808010952
-0.14378176033084306
-0.02684022478140743
0.38109302527801303
0.33064523466634166
0.23435991613101181
0.057599722625169596
-0.07303179042708519
-0.24687909726812352
-0.34064203364031836
-0.19453646197528723
-0.0016041257601726135
0.08665016079281798
0.1412183156629943
0.23059637460062574
0.19874873812420793
0.05325347269228436
-0.033080986623981325
-0.10862209706378136
-0.22286610405826635
-0.20740492427623478
-0.06465019974360801
0.03203765237140641
0.12751866972930403
0.26798042716267767
0.08457156307354928
-0.01662330345293576
-0.05546036769156111
-0.07036370515524559
-0.106276485422281
-0.0022803499689317518
0.017653841278425893
-0.051005101737316406
0.005887808598974333
0.01623366006833848
0.014174049354884869
0.03186858548410011
0.09250638728551142
0.006168350875005689
-0.030596995613988365
-0.03168357841713491
-0.016018616019124996
-0.001513974367892922
8.77720566740925e-05
-0.013572299594646797
-0.03476301174388571
-0.047681367215102945
-0.033044780091066865
0.025473411984336888
0.13450033414677356
0.08614771226773223
0.05737527636081126
0.01470123908320306
-0.07655644708542723
-0.24140317417082707
-0.0867227868139656
0.0011624351088161506
0.05158904911339018
0.09901768328242715
0.17094777668363714
0.07898749070828108
0.016514846150835243
-0.036217513109662654
-0.1015850097344949
-0.1928882449977922
-0.10621383429710982
-0.0193995736829946
0.10105159804536802
0.08744319395275808
0.1574064311262353
0.10464263993882186
0.09761638888492066
-0.11287945814123057
-0.17959462475650873
-0.14293345496099624
-0.01878274856509121
0.006005621160468308
-0.03052031042927426
0.12370199847152667
0.12082465653688228
0.00026575456869723876
-0.019697290033452303
0.055721486242017636
0.0013630726590745346
-0.019890589789524928
-0.04688580438866068
-0.1102798874509572
-0.02542799746122672
0.010158454655607283
0.014346440703139982
0.013945229365376583
0.03636783454634021
0.1017823677508165
0.017827234721326347
-0.021875338403256266
-0.035386989107184165
-0.04749060691601521
-0.083958248523263
0.03325456538838694
0.08906282497115539
0.07680414020526678
-0.000875434709735754
-0.13133785438051385
-0.09205927750350529
-0.052866265886723225
0.018782741521443692
0.1501307754890437
0.15549436112902776
0.031835019978094244
-0.04026555916656924
-0.09030817007690199
-0.1487091286575638
-0.03836232678323238
0.030087240181851226
0.058188322783236365
0.05588441711636019
0.03625522219438277
0.011063527555339934
-0.011574778648745808
-0.027294494943615185
-0.03419249218308077
-0.031371535392428936
-0.018364297029769543
0.004115816658791684
0.03243636736520434
0.05834913754499577
0.0686814074739807
0.04749742522830723
-0.019088787563297856
-0.1366004137814492
-0.09676975001264622
-0.075793195240922
-0.038165876332968966
0.054055485026091234
0.22909311297817236
0.09458230781668407
0.0322523114622338
0.0006244538985035222
-0.05471392914759806
-0.18640716977760097
-0.030757116427084074
0.002432355882084087
-0.06705186470561723
0.005780942747053073
0.08079208293174057
0.019226432591099813
0.0703803123771471
0.061487838864293536
-0.007057562933105439
0.03958581113618231
-0.042664759958211604
-0.10678503726347795
-0.0038032909844660893
0.02634183441829178
-0.03947735025713214
-0.005937600792526591
-0.06151318291182901
0.016140908403740526
0.052941935209474524
0.07110160286036708
0.08396073232473261
0.0947130690764138
-0.1004213254995835
-0.10579408326080822
-0.11952579294371847
-0.1296385216648646
0.08465551236284889
0.14666512006370452
0.07355974035480008
0.06920007528959538
0.12166140210740103
-0.1934795192750548
-0.10553292519061541
-0.03995406442834228
-0.011862156894515408
-0.023819753893326436
0.13221705315673563
0.07051739853954359
0.007063397471024153
-0.043402246437845536
-0.06843135802705422
-0.05794705057463218
-0.004649652692293758
0.09456571219788243
0.036604087727938994
0.01078321068486218
-0.000803340869147108
-0.02084309609257411
-0.07288879963029782
0.022905419833448102
0.053351304678244955
0.014526394587710472
-0.08734628006434227
-0.03654213264131773
-0.010214561220996283
0.017518529997626382
0.07053262675542449
0.16618870004371142
-0.08704648080409506
-0.08909811722857854
-0.04555716800325531
0.035586178039950754
-0.05384536941293258
0.07831373701467642
0.023795614416714368
-0.02734236698413245
-0.08769380173321785
0.027155272199590155
0.099151072170257
0.10964674207513772
0.04326152995855809
-0.10630627542054387
-0.13005669482174925
-0.20002395123539557
-0.07123955091534717
0.10940666674879866
0.18924247735879018
0.195521119568083
0.12639021042907295
-0.04898277728281213
-0.1809055794576973
-0.1238691324153298
-0.12117006397539408
0.0053247970885364655
0.05757152298869352
0.05631572941030876
0.03132912682288554
0.010396887551249932
0.010053786772186556
0.030026323751997756
0.052339705389477784
0.04525444574310332
-0.028566865722914104
-0.0011603898092507785
-0.08804378933731118
-0.07966843037786825
-0.13839742360842489
-0.002842744511806255
0.00046526987856599175
0.1403895738458341
0.0637320951516653
0.18204106825407024
0.06690733364396269
0.055760245211175084
-0.13287661944529527
-0.17872965755518153
-0.13971924870534252
-0.038478088761364555
-0.05929742221401977
0.044000023259658926
0.1320321660012578
0.06062061293867448
0.06392036661095711
0.14460589905698754
0.07381401281502377
0.0009878109620108692
-0.1289547298423415
-0.15612312763380323
-0.2901371923456894
-0.10425444334694785
0.058091407782306446
0.2660246138914003
0.17920188523915082
0.22905494968608425
0.01002655482084407
-0.11656059027218173
-0.20832036106384286
-0.12327418263109484
-0.10385000833366326
0.03163032450993235
0.08852894752424885
0.08849023017451264
0.05899124533988755
0.023888649628022358
-0.002318289459341965
-0.01565485543104624
-0.020009671663764567
-0.022311129837248426
-0.027453535615838975
-0.03463711140571478
-0.03623647317500168
-0.019575294506820697
0.028877376164064182
0.11824207629068005
0.04883646575157003
0.010507566105998085
-0.015411186505973992
-0.05109327158998432
-0.11601601729074527
-0.02188006802407595
0.02957667546221091
0.04539858625666048
0.037794151665079455
0.019794349431321485
0.0017858619017633757
-0.010217622206126549
-0.014545907662180309
-0.012644970196060784
-0.007410506625112678
-0.0017239248811269125
0.0024497983635134515
0.004339992579714513
0.0041730739503604624
0.0027390298915261893
0.000943699069983841
-0.0005103434835514903
-0.001265525756675486
-0.0012984075179521863
-0.0008180122972064344
-0.00013736702652251387
0.0004377381487161122
0.0006849970147102842
0.0005086951234316778
-4.1673698579851144e-05
-0.0007735892981231377
-0.0013807959206305997
-0.0015119444723437525
-0.0008850091930586541
0.0005662844953608655
0.0025574429265084356
0.004399540794465232
0.005102803774376905
0.00368266659710625
-0.0003598597958240323
-0.006515769535780471
-0.012936460579298478
-0.016571174445047004
-0.013988098587611844
-0.0028911237804816253
0.0159753509025957
0.03718469911925605
0.05011036679874715
0.040291599566080964
-0.007082206702002964
-0.10221081099744946
-0.045782141955338626
-0.026057372568173674
-0.019401761145433304
0.005450263631523091
0.08042815886904836
0.03042378176869504
0.06707812660034675
-0.014214769379936787
-0.033422718649198074
-0.02164683164948859
-0.014926468744954454
-0.047655544418533285
0.05317120705306849
0.07227091810126175
0.008809230710456594
-0.12256038687787917
-0.09292924739466824
-0.0635623616902684
0.006075106534893883
0.14784194644153117
0.17494767392705124
0.0763020009865029
0.01812524328424168
-0.04673592824913773
-0.16436616126185286
-0.1649639001669076
-0.05277732718277648
-0.004329531817661221
0.02445755197943571
0.08469126491131117
0.21899533120956438
0.04902218580176867
-0.03025372752452962
-0.04818244876427869
-0.04949501015176117
-0.08207084031672829
0.014943221951323696
0.019864828185963076
-0.06743605982978275
-0.026441620638592688
-0.021440981061154923
-0.01044581916685355
0.04427015139776152
0.1665908320455968
0.16083603940582525
0.012145713017353517
-0.10670292705083537
-0.22444109726571795
-0.16098160016764274
-0.12233245962215218
0.09687960526177945
0.30478895381609544
0.3025609797627658
0.07956337662552639
-0.18297436489741614
-0.3010995417728762
-0.27588945221583794
-0.08696849437083877
0.10385964850201483
0.33986571888362627
0.25342345531739163
0.05443348319627244
-0.07154455383179338
-0.15506444333044106
-0.2288391064658889
-0.1146603628662992
-0.016791523071833594
0.07592914173699317
0.18102602740012155
0.11096861036192443
0.06462877699061298
0.02523258805385918
-0.03449313407318911
-0.142221873630112
-0.1151555256455077
-0.15293516167860025
-0.037576659966051605
0.05900055366850238
0.1624768130293102
0.2838089922373522
0.21287494053772368
-0.0780271511027308
-0.2210732555734275
-0.23515835041993827
-0.3113084796599603
-0.008368988871553
0.13805452717728345
0.19606660648226765
0.2145472091261538
0.20540015807043416
-0.06253187674231377
-0.05583796939756134
-0.057958716759060065
-0.1458106339524861
-0.1688580561539509
-0.1368117171376837
-0.01951394365242667
0.04099641788775494
0.10995898909811565
0.23741685384754602
0.2412289503734818
0.1016052046725284
-0.030404680970448166
-0.2129484073397795
-0.28893745928195336
-0.26637531417609417
-0.11144623589861151
0.042119278586323076
0.2700203710513922
0.22873764498980984
0.33183739904933396
0.14043262628237915
-0.027829204979160593
-0.2734869853166917
-0.2819481563786381
-0.29352229326259877
-0.08716037184538811
0.016538010563173198
0.13406948327346416
0.18641153027278845
0.26519081375010767
0.20770635875247734
-0.012196323224599877
-0.07543798249337956
-0.09463360019447924
-0.18403444809541938
-0.23128072437966413
-0.07849153401042133
0.0830841765453088
0.10492581465435082
0.06352048438672513
0.038999588333209455
0.0958899281487718
0.07009033851983328
-0.03594967685469149
-0.04996056446313237
-0.02035489612370926
-0.0034072511119581754
-0.05014514821210254
0.00455894546310048
-0.051027535418486
-0.003401467694210198
-0.0168473226905559
-0.04107338892437333
-0.022236619409499402
0.08455882712008138
0.1038197764019493
0.03209913196947312
0.036689642414001494
0.061659530416769644
0.04052516883558004
-0.08691146943588075
-0.157481555738476
-0.17206378592078775
-0.0918528074090335
-0.0458301818674457
0.05153647175300018
0.276899413306817
0.27592996962987243
0.049700398591948296
-0.045811164400031294
-0.08698263599969218
-0.16099469916507114
-0.14244165307542772
-0.07495852377539244
0.03756227314844679
0.02888289012060544
-0.0407535273650124
0.09886519849056058
0.11050700416479121
0.03535330346731747
0.08529712443814721
0.04316455825915228
-0.12976731095530308
-0.08157039131110816
-0.05662391465336739
-0.08553198128249682
0.019528391177392145
0.06359428470954044
0.0633182676354593
0.039583560758876916
0.010948392107006964
-0.01037774316713682
-0.01959279023638011
-0.017995710824599498
-0.010411745204955095
-0.002431064636109096
0.001778361960915789
0.0007149773489450305
-0.004220419039683267
-0.009394902806591887
-0.010339437312776208
-0.003615059343820115
0.011239136476143786
0.03024126709483897
0.044669703381170954
0.0425255015260684
0.011909588369277975
-0.054310827916484325
-0.15406932257300243
-0.07395158349931791
0.009018075858901941
0.12150242427176618
0.08571665996946445
0.11216299242021278
-0.003865898691486406
-0.08078964016567065
-0.14522213401070638
-0.02494438274392829
0.05703834198475164
0.08603014784084435
0.057042861475111346
-0.024918611408754423
-0.14515223741875724
-0.08066409326600915
-0.0037020827891734477
0.11230977719432986
0.08576072960357035
0.1213558350665576
0.008635871227470095
-0.07452225006755915
-0.1546583327389034
-0.054638005217287185
0.012159304601339866
0.04356602412617066
0.04644894478636175
0.0323120760287181
0.012750300874049044
-0.003733857351588838
-0.012977616537504115
-0.01471864603308444
-0.011173180370257132
-0.0054025542149618855
-3.595386586710359e-05
0.0033935241168513764
0.004523007992629623
0.003840418042304089
0.002217271667788594
0.0004949092644244473
-0.0007655576725386237
-0.0013514489222239965
-0.0013311101130473349
-0.000923680082144632
-0.00037269247395373394
0.00013532883113247178
0.0004965187057845578
0.0006730394684247035
0.0006599599111971178
0.0004610465027676091
8.854244551797996e-05
-0.0004135133216615394
-0.0009380990135908678
-0.001301361798795864
-0.0012707280851568074
-0.0006465594936845214
0.0006152833550033907
0.0022819363554616528
0.003788439045749712
0.0043178592248247875
0.0030566956358897383
-0.00039919221178143124
-0.00560261245850005
-0.010976827100695098
-0.01393813008952867
-0.011600663041638986
-0.0020721838839754957
0.013920379729502316
0.031623974674824376
0.04179045985650488
0.03177152442277626
-0.01164317526803762
-0.09819414678779663
-0.030183448617545575
-6.434147135262766e-05
0.009404474339921122
0.022410678010554023
0.06560345720417465
-0.03691507891501549
-0.06812548212057536
-0.021632289262674364
0.09605822421730438
0.0650161374430393
0.053956728568596186
0.02550625231862103
-0.05580686399689794
-0.21477492098490022
-0.0588756679758824
0.023568219756679002
0.05949366844514751
0.08288810860731981
0.1253884124413974
0.008985589316950763
-0.057137758574670516
-0.0755790086950968
-0.057109477199498555
-0.01668569861975072
0.02937283212527043
0.06479693548644028
0.07426642502511595
0.0450403876384989
-0.030043339346302506
-0.14883046897566604
-0.09722921784241766
-0.04989208769617369
0.024654969658009604
0.15536224113238675
0.15942949418760277
0.03622479040729649
-0.032973831333267714
-0.07916283633026899
-0.1360058597662152
-0.030055729690181787
0.025946124168637678
0.03507940716840853
0.013824893176149444
-0.013327876298963145
-0.020524582182056505
0.013011704348399693
0.0979249648850704
0.03211394530504692
0.0013416038780761001
-0.016889500465727233
-0.04721622432263351
-0.10994229413157582
-0.016301284508918875
0.033107654279317215
0.046536262443351996
0.03706608115556053
0.01811621333364632
3.261143872335477e-05
-0.011471062245996954
-0.015095173671961922
-0.012584517924940194
-0.0069933651561118505
-0.0012213566690285145
0.002844615710119575
0.004548979387210137
0.004218748616549434
0.0026990690966490812
0.000897972453765098
-0.000520874436462357
-0.001256008776669519
-0.0013295214368927522
-0.0009615384519172601
-0.00042894848577756576
4.173984240850709e-05
0.0003265086362536236
0.00040485640696655246
0.0003281730382027935
0.000177313420300574
2.6564871686106334e-05
-7.710442878647987e-05
-0.0001186573191513429
-0.0001079491537214383
-6.751234790788344e-05
-2.0874276393586953e-05
1.5144631663218226e-05
3.3212755266866165e-05
3.428860569440914e-05
2.427729670683241e-05
1.0372484623437117e-05
-1.6600290612678507e-06
-8.755826244400921e-06
-1.0515322987018717e-05
-8.349680231288402e-06
-4.3757519850836e-06
-4.968230346887735e-07
2.112447748184276e-06
3.104719762402366e-06
2.7644383634735957e-06
1.6871071093686567e-06
4.793550363570466e-07
-4.343116156375504e-07
-8.769945759142291e-07
-8.836281077709341e-07
-6.122877464654474e-07
-2.496733256467912e-07
5.762136045910968e-08
2.3409082766987408e-07
2.7275444828535285e-07
2.1216666636245324e-07
1.0767147882729622e-07
7.978622144282677e-09
-5.758885238772633e-08
-8.111827232857863e-08
-7.071151446182784e-08
-4.2077111454646264e-08
-1.0838303349864163e-08
1.230736024459874e-08
2.3114772420300825e-08
2.2745269072290893e-08
1.5418918202914122e-08
5.975242043057844e-09
-1.8633702274521443e-09
-6.2421182007610055e-09
-7.066271142935615e-09
-5.384302126320713e-09
-2.641093124266273e-09
-8.17985551505428e-11
1.5630732620259631e-09
2.116441581010735e-09
1.8066190176964388e-09
1.0472326304683007e-09
2.401857071173146e-10
-3.4536018725026636e-10
-6.081657273987051e-10
-5.848114926934645e-10
-3.8767531016771955e-10
-1.4205260924514776e-10
5.765800515226815e-11
1.660434267000446e-10
1.8284653264732995e-10
1.3646232017607871e-10
6.45608139710122e-11
-1.0657606634128858e-12
-4.225791227387138e-11
-5.514469896509442e-11
-4.6103156299287116e-11
-2.600609130152082e-11
-5.180543018103939e-12
9.612010766416296e-12
1.5974561454484568e-11
1.501911748731546e-11
9.731226076646674e-12
3.3509257540356907e-12
-1.7310446066676908e-12
-4.406823986772615e-12
-4.725737116352678e-12
-3.453924337484734e-12
-1.5721810477445332e-12
1.0871365455065998e-13
1.138378064935418e-12
1.434908328951893e-12
1.1750905212319022e-12
6.442674881407691e-13
1.0749302036923223e-13
-2.656672582373554e-13
-4.189416533077171e-13
-3.8529087611861503e-13
-2.4385845685497624e-13
-7.833062683463517e-14
5.082752877390934e-14
1.166983918611113e-13
1.2198472414162467e-13
8.72884610546215e-14
3.811283363779219e-14
-4.8902414627693294e-15
-3.0578253798536776e-14
-3.730018047442293e-14
-2.992546178462873e-14
-1.5930873048000998e-14
-2.1115034286439874e-15
7.287768322882904e-15
1.0959341368008994e-14
9.861887653488816e-15
6.0890996057132505e-15
1.7999747403444544e-15
-1.4783985456212487e-15
-3.094950160445288e-15
-3.155920944489917e-15
-2.2136031546215477e-15
-9.303043495866708e-16
1.6858125686278453e-16
8.081210765471359e-16
9.575902617681956e-16
7.50364462511185e-16
3.8206216922998917e-16
2.668652550982974e-17
-2.0969478679860465e-16
-2.970740811932153e-16
-2.629269385239046e-16
-1.6253324988949164e-16
-5.152810003585286e-17
3.1577111936102764e-17
7.111463807851375e-17
7.075639587578836e-17
4.526626237370284e-17
1.1822676416330888e-17
-1.6224809146931522e-17
-3.2112055319736226e-17
-3.535100000936247e-17
-2.9576888585919265e-17
-1.9900381302508997e-17
-1.0772057160485096e-17
-4.837032738263439e-18
-2.7732240653996835e-18
-3.8024316594338194e-18
-6.4677776019088695e-18
-9.337249284426248e-18
-1.1441105194955154e-17
-1.2404490675065748e-17
-1.23458482455664e-17
-1.1658815307055971e-17
-1.0788409611216462e-17
-1.0073391429508623e-17
-9.679653759320886e-18
-9.611980123739714e-18
-9.771722207738893e-18
-1.0025547406446731e-17
-1.0259753507090242e-17
-1.0408514441162704e-17
-1.0456823471537097e-17
-1.0426508704723143e-17
-1.035589852452182e-17
-1.0281809918120386e-17
-1.0228623083078984e-17
-1.0205246613762916e-17
-1.0208021695326452e-17
-1.0226478536827964e-17
-1.0249102524857868e-17
-1.0267308494782228e-17
-1.0277041929933838e-17
-1.0278379331548507e-17
-1.0273987201199288e-17
-1.0267339351419065e-17
-1.0261337188914069e-17
-1.0257615204807033e-17
-1.0256496587668273e-17
-1.0257374035434884e-17
-1.0259240860400028e-17
-1.0261151578568143e-17
-1.0262494257747644e-17
-1.0263058833196881e-17
-1.026295502152955e-17
-1.0262460666015079e-17
-1.0261873352578276e-17
-1.0261410364691288e-17
-1.0261170420231922e-17
-1.0261146431295607e-17
-1.0261266569561368e-17
-1.0261440437334981e-17
-1.026159407339025e-17
-1.0261686980273379e-17
-1.0261712467728302e-17
-1.0261687332496963e-17
-1.0261638006749569e-17
