0
-0.00010511073868394889
-0.00010511073869064332
-0.00010511073868188205
-0.00010511073865301182
-0.00010511073860658853
-0.00010511073855530214
-0.00010511073852160478
-0.00010511073853231241
-0.0001051107386079221
-0.00010511073874884319
-0.00010511073892353591
-0.00010511073906551057
-0.00010511073908580886
-0.00010511073890380267
-0.00010511073849176422
-0.00010511073791923581
-0.00010511073737521667
-0.00010511073714435715
-0.00010511073752219662
-0.00010511073867583659
-0.00010511074048704062
-0.00010511074244488449
-0.00010511074366962087
-0.00010511074313215876
-0.00010511074007453479
-0.00010511073454082247
-0.00010511072782093898
-0.0001051107225380765
-0.00010511072212981877
-0.0001051107296267344
-0.00010511074592261258
-0.00010511076809373417
-0.0001051107886239344
-0.00010511079644310984
-0.00010511078031995369
-0.00010511073430338367
-0.00010511066372015135
-0.00010511058909572484
-0.00010511054486076529
-0.00010511057045406617
-0.00010511069379326287
-0.0001051109108292691
-0.00010511116898726529
-0.00010511136491070103
-0.00010511136592202115
-0.00010511105838979523
-0.00010511041478334606
-0.00010510955721592162
-0.00010510878412300382
-0.00010510852553068135
-0.0001051092075101187
-0.00010511103990625723
-0.00010511378741795115
-0.00010511662718213107
-0.00010511821325676882
-0.00010511703631472414
-0.00010511207263424941
-0.00010510357046839336
-0.00010509366599491073
-0.00010508642637843099
-0.00010508696620125273
-0.0001050995348564144
-0.00010512492018566733
-0.00010515805102485345
-0.00010518709561862255
-0.00010519536847129568
-0.00010516673600594067
-0.00010509388783977225
-0.00010498706073114603
-0.00010487917862058567
-0.00010482279544859883
-0.00010487558946370208
-0.00010507491262362511
-0.00010540758485165459
-0.00010578705906299592
-0.00010605348868132095
-0.00010600995768739811
-0.0001054980082174271
-0.0001044980538318942
-0.00010321963735625946
-0.00010213115803706925
-0.00010187928403480558
-0.0001030737352108743
-0.0001059653559611406
-0.00011011419196260636
-0.00011420534666220818
-0.0001161891427003503
-0.00011386475064795558
-0.00010587706403596975
-9.287540299133417e-05
-7.835694608702924e-05
-6.859623819341374e-05
-7.116504529787415e-05
-9.19537959034764e-05
-0.0001312927796657434
-0.0001805621359268479
-0.00022124503414557126
-0.0002283088215426117
-0.00017876003650962863
-6.416045484338992e-05
9.676463635628677e-05
0.00025158574302962207
0.00032044110635171723
0.00021946761084452724
-0.00010019506949291515
-0.0006080046392617666
-0.0011629576929823486
-0.0015188969107230812
-0.0013846268441956842
-0.0005409362732357034
0.0010102597725768886
0.002919734939957581
0.004463518817615127
0.004685318283190448
0.002737167079041588
-0.0016355006699171177
-0.0076229715244285085
-0.013143559388492815
-0.015173540095753743
-0.010803245351213363
0.0010065668859801772
0.01730029863503517
0.02926594885872094
0.021418023972724798
-0.027503625243913546
0.058387908263349005
0.05689063694775477
-0.046376021656541255
-0.052194560567238396
-0.14397634806701914
-0.0880375727501551
-0.0391875040087935
0.0489689179019266
0.21199514680417494
0.6656280125230026
-0.3955842283181842
-0.1904926033318133
-0.13788260067410132
-0.2446142718584751
-0.5025125512740198
0.5029668993622656
0.3753830513516142
0.2897460452558487
0.18489543331929845
-0.027698562185479586
-0.2395893362922741
-0.5135842572942994
-0.2564732095692902
-0.00696065531887158
0.15624089372775993
0.188833739962549
0.2464762292721888
0.05191856185875689
0.07209659352951199
-0.09079795639439382
-0.09472736892283772
-0.04322122783070069
0.13461499660347023
-0.09457280407126559
-0.04874166241911132
-0.014792753751867097
-0.038820458927608555
-0.12360738701800408
-0.03367361739121262
0.09319837527375488
0.13059375718702923
0.148096091779413
-0.0001800216308750782
-0.08077581767308376
-0.07989805560784713
0.00153159772387544
-0.046160035212271903
-0.03672423580153668
0.01436545247021014
0.09014920522681802
-0.028640177451197103
0.03593906868332614
0.06001144921408209
0.020733675433125216
-0.09941810283599646
-0.10817846869935711
-0.0005532960164173082
0.04123078464475852
0.044713477578298154
0.042253425788964016
0.06585452464944618
-0.05692777768837701
-0.10570441406295503
-0.0692567912738302
0.05227069196196071
0.04484319224293301
0.07880739812543848
0.10994727477757006
0.08504199575170847
-0.04776865595214317
-0.1256041600019115
-0.1582290808310689
-0.12087693481117659
-0.1562663938544621
0.013117059728546035
0.26505371479877804
0.25588469816759607
0.2046024023796689
0.08888383555141655
-0.14506371582424063
-0.3624662577240182
-0.2175821004226327
-0.13761394742354538
0.08143416344905598
0.2668149405261268
0.2540492138012157
0.07227369009665556
-0.06411456366079872
-0.15564229122073037
-0.2121850591282393
-0.04623232325360595
0.1311511400373536
0.11056304156725104
0.08238568129197209
0.03556504581438933
-0.04118782376721553
-0.1561305410705542
-0.11132343116981236
-0.1021711809957565
0.07898042145624765
0.23628867213182386
0.16432439943891566
0.046572733482510856
0.06094718818665715
-0.20872179442149733
-0.3597819247852991
-0.1627552221631581
0.036634402509476034
0.10432439560686005
0.29775255860038025
0.2463869066113221
0.1408993236776039
-0.06434021137606936
-0.2361221306705207
-0.24036994382287902
-0.12155210259091169
-0.09083724409828862
0.07360465105994252
0.21559688233443228
0.18442039763049517
0.019185133079321695
-0.060927700537376915
-0.05879376102878863
0.004793293476031092
-0.10146356460901641
-0.01164284196480825
0.043436842871206145
0.03982197304781966
-0.038159082383777784
0.0020300623249882685
-0.039818907961143554
0.04190293211029578
0.05709204262598373
0.01884116175959083
-0.05676861489042519
0.0499751739828712
-0.03675090331827415
-0.08834708498873943
-0.07376728264557296
0.0359671233907464
0.06108365015852435
0.00579977708151303
0.05294616089981662
0.162946161874054
0.07879384026819176
-0.062852544019556
-0.1164183310829486
-0.11203221580514347
-0.24508423104797813
-0.07496084356000787
0.06550580742719984
0.25210757433404235
0.14847136786887932
0.189397078652256
-0.02622061234802011
-0.13121185923201445
-0.17726309930094625
-0.018729256743282033
-0.09880338901206477
-0.04183638329342131
0.14723334950694725
0.07790868333679937
-0.0333684286717629
0.02979993690736476
0.0792800899067458
-0.0790084215908095
-0.04397112609160135
-0.016889077708436666
0.0009891305713459046
0.009858790874550306
0.011549179019414456
0.00885554818293901
0.0045852738049923965
0.000790911016720274
-0.0015687672809612018
-0.0025253275171542165
-0.002692516214636171
-0.0027539804385356428
-0.0030388039229320607
-0.003323929883963368
-0.002927406976131441
-0.0010710706752199276
0.0025970852039973566
0.007510438174536342
0.011959105061108477
0.013354610659484066
0.009092461751871598
-0.002096860937511385
-0.018705289816538143
-0.0355739209376322
-0.044354294282810326
-0.035874603475185514
-0.004415766553269194
0.04696232427759747
0.10180550289845147
0.1286320792838828
0.08421021135053372
-0.07776291158989389
-0.19433400332668563
-0.08116940039859363
-0.1252017844178189
-0.08531424930567423
0.09853874942812803
0.29063292196134616
0.14439429974287252
0.09237742113223826
-0.2555695849303254
-0.10666756824642591
-0.07597255203041782
0.02189080995872142
-0.02277467798949427
0.1858367883373846
0.04745380957648808
-0.03582569410472182
-0.059849147920455203
-0.017865183856954583
-0.10065493014621593
-0.09893056335904823
-0.008599783203803836
0.16216057796408825
0.18684645315273565
0.21937464708046958
0.0005667302915425609
-0.12765653167134408
-0.4043619017255473
-0.23484610942216186
0.014273230794891288
0.20714928211037917
0.22051985145764502
0.12199696413827903
-0.04769819550609965
0.3162950086635532
-0.6163962431868598
-0.10379956933415808
0.17890028227429935
0.3500821703864626
-0.067129712135737
0.46868043709035234
-0.4665766059580916
-0.4473438319021045
-0.39146988024179186
-0.1683978204992428
0.37582654129347254
1.3833333351204273
-0.6481509968380155
0.11696234495100337
-0.14626247119340802
-0.3071555952903694
-0.8585982768210247
1.0998556607974699
0.07152522257632173
-0.0327230850883317
-0.0899926671776934
-0.15905753105511558
-0.27447129192410075
-0.04500243329651014
0.14154625602955098
0.3088749553734193
0.2831268169119838
0.08986926963457474
-0.24023497863117813
-0.2596548873189435
-0.2932263034064751
-0.2365744686182119
0.03130578409468432
0.22243915978240794
0.40868431639742575
0.3962071049756047
0.11614705117710951
-0.16331367590072163
-0.20618382009877342
-0.3689604632098291
-0.36490243542274237
-0.04330922386055201
0.21109504099402926
0.2610626269825932
0.19028382759962822
0.07752972852041352
-0.02083192413694325
-0.07700178064324363
-0.08814829095002838
-0.06719987789342768
-0.03258426367244498
-0.00027000668982191247
0.020383863877917532
0.027141341437207357
0.022971640681816986
0.013201590853934455
0.002969864777071627
-0.004332941132713611
-0.007509783937940775
-0.007149427908518793
-0.004793143453594471
-0.002079832249880805
-0.00013926825792093652
0.0006590395807151296
0.0006262086180013172
0.0004473681988672044
0.0007816125928177038
0.0018999199653621283
0.0034740597404371394
0.004599956204566744
0.004092528288673025
0.0010171028420335063
-0.004674176671879383
-0.011633392717505043
-0.017029934013158613
-0.017148510617941568
-0.00876571667634153
0.008909126914438778
0.03232044648361172
0.05257237259247951
0.05627626586925238
0.02875287857688369
-0.04077948216803458
-0.15353681092045438
-0.09739941202302278
-0.04735873023081981
0.028849918900440263
0.161206230015547
0.167299015954169
0.04572284217384
-0.024129639901937984
-0.07560123500656207
-0.14411306652373543
-0.05636743686627099
-0.023232563264846552
-0.03842800553560097
0.11716042906816264
0.06764857710148707
0.03387545579644986
0.02750298447620877
0.04909648483359558
-0.10982079539536412
-0.0621260932410878
-0.019975887156500442
0.008865199007208233
0.0222779866600497
0.022839175884410125
0.015651495475481243
0.006063381155959261
-0.0019449863429539175
-0.006419883540951184
-0.007257365445047856
-0.00553645530921705
-0.002739721828139139
-0.000139747105182777
0.0015212266667992069
0.002067757737886785
0.0017373296039166668
0.0009542761445783023
0.0001285858633956653
-0.0004668202730897029
-0.0007309205788954117
-0.0007029876295872444
-0.0004988358979723501
-0.0002466357022891064
-4.248199939180438e-05
6.768775210607899e-05
8.389401769145082e-05
3.5175376463237036e-05
-4.0075718151559675e-05
-0.00010933316327194645
-0.00015361078344999158
-0.00016804876618544952
-0.0001579836370285576
-0.00013357302235000412
-0.00010533438170083674
-8.167544998985448e-05
-6.826080157416558e-05
-6.829714566202637e-05
-8.269811124617295e-05
-0.00010953826940892724
-0.0001429789265456232
-0.00017259694842955013
-0.00018441086751646093
-0.00016459915325139028
-0.0001058600379640401
-1.4775362428556655e-05
8.305476696312876e-05
0.00014415462768040474
0.00011785057070771983
-3.315125223541922e-05
-0.0003066712494875601
-0.0006391482733766989
-0.0009012053742846242
-0.0009230673200523152
-0.0005546494120434345
0.0002491919885352068
0.001345717876175212
0.0023659904426081703
0.0027660993023679065
0.001994793685459302
-0.0002374689625860699
-0.003662016922815901
-0.007259184256650488
-0.009327207596319666
-0.007937064699667503
-0.0017862962355944861
0.008712090048304304
0.020460751167865002
0.027302172861301446
0.020654905344874606
-0.00870473256038479
-0.06805336415152832
0.03987706968420089
-0.08147870981700847
-0.02262618265847857
0.029972294562809393
0.0905241903563764
-0.029632506154709963
0.07564292911684221
0.007098147166330183
-0.03795925354296012
-0.062495496474435405
-0.06695054346679485
-0.048411420009768766
-0.0026176884885297648
0.07167801170509897
0.16785441620364275
0.06866228625570124
-0.052335856802202145
-0.024741202482507482
-0.07248170239975497
-0.20539620085507232
-0.01452364465224837
0.12699727321277554
0.05775067682999761
0.018936967391026405
0.04541207710165836
-0.040777375095549594
-0.03338329100788659
0.05839037009226897
0.012914665109490795
0.0011007506957269931
-0.007504233330081532
-0.038563616564999875
-0.10811376602591123
-0.020387847162415963
0.03097033383889469
0.05871874690731627
0.07646686779772267
0.09393392805129776
-0.0852858351101896
-0.06306478105947697
-0.04424360563016497
-0.03407024860602372
-0.03696529531052371
0.14317037655478407
0.10211447748169439
0.035503912419760385
-0.05900453348944747
-0.17820901317242338
-0.11065877330392514
-0.03729200610335884
0.0634879329826717
0.20772591974432345
0.19840946610558072
0.022536201726726157
-0.1451197151264816
-0.13270384948519912
-0.1604459354121099
-0.03302393021825885
0.06184464295949652
0.14856627285966337
0.05520502819831591
0.005001701644013199
0.010658879612618825
-0.12765854321941597
-0.021279513883437864
0.10976066153903291
0.040321554636316384
-0.0556822973639096
-0.0006448850205957813
-0.008700273234144124
-0.0822761725554811
-0.010850063380187805
0.02750860648965449
0.06201846113745846
-0.07655034054043804
0.03809741516637125
0.02271418851192963
0.08140307553604917
0.00520554343207357
-0.025370325252811812
-0.03545436751804535
-0.04996482610792069
-0.08857974356614305
0.037070246802280306
0.12357036806696636
-0.026047537119772826
-0.004709679599259107
-0.0032994267381098482
-0.01198107286554865
-0.021190908050852095
-0.022786536778043168
-0.011642947404875864
0.012403582801596971
0.04282769735998694
0.0658421030548978
0.061952522213808224
0.010095156856651657
-0.10625526417086381
-0.09287030784508189
-0.14105975499999784
-0.028674114781280825
0.0736989664448675
0.19328342862641648
0.14630174391689804
0.13400081117722748
-0.05411099055942448
-0.23079010838702158
-0.19964228021135175
-0.14759234976869237
-0.04578944906223746
0.14017720138360804
0.23426929822965553
0.2347924638849061
0.10690189080158428
-0.012983068807762002
-0.20131123369187368
-0.12511610746405144
-0.22092628133478265
-0.08211506936970371
-0.059003706598267425
0.1282276085325432
0.1678827289980991
0.13307407927656903
0.06313883752633122
0.1553569358132341
-0.03115579665184052
-0.16114023593151122
-0.10321479387927353
-0.11051258283427097
-0.20779327635558315
0.01141444979400136
0.17750347943514433
0.13063642718832552
0.1053316857729618
0.1194088136374261
-0.029256321748188686
-0.1580092253757548
-0.08956162530283257
-0.0413972131772066
-0.018475699618590864
-0.011447848790517495
-0.000385808614606313
0.03767452097410154
0.1200284537673556
0.05130753133130464
0.020530359863094857
0.0032358442536335693
-0.0319863352005535
-0.11477491421310808
-0.06507560217104282
-0.08878799463847079
0.02147551538812758
0.08088452188957203
0.10442086034851632
0.09983124095520864
0.06462800387563751
-0.011341062602490262
-0.13857611111112622
-0.11883128051934452
-0.1382227508009579
0.034176928563882304
0.041185925855880254
0.12747205360595357
0.1282808461319911
0.060938624025277
-0.07823058137044352
-0.11131322637703638
-0.07247640965538789
-0.0007475059679253202
0.06594321232498586
0.0948864672789733
0.06158462997589529
-0.047569987877479854
-0.23310552610261095
-0.08216579761330174
0.028314812104103255
0.12481210120579261
0.22900232460467498
0.15190352628405498
-0.10650059518899689
-0.1517818431308904
-0.18672433642026795
-0.20499715683881733
0.009126886658014336
0.27423090272805056
0.2015805387806654
0.18695837744773067
0.009507985241681198
-0.16098658178895178
-0.3515587840357825
-0.17453206589634104
-0.023126104606925116
0.12318996125508345
0.2860504772187168
0.27460682114113266
0.07801497379996777
-0.13193294956218415
-0.1890405383039961
-0.31743115680096645
-0.12019395934696532
0.022500737251069443
0.1448337748429436
0.28033262592752345
0.2475048625891586
0.04289605472938404
-0.1551381729337998
-0.1737194069961832
-0.2297410719808948
-0.11841190420649778
-0.01127327326699105
0.13524564525398136
0.1640481706391925
0.10048934625686169
0.14079818979578523
0.05013094588785128
-0.02883699767232585
-0.15944114780113397
-0.19203700844106097
-0.14882893943484274
-0.017643545288574737
0.04335031927912267
0.09182378286564444
0.18328298785637057
0.15498053498996214
0.016885306447300033
-0.047842555023570196
-0.07385554708632136
-0.09993718323819964
-0.15572452285019708
-0.053339159201556546
0.013593415353077419
0.06381339723249708
0.11805659430458705
0.18882950159746573
0.074562527128243
-0.03947301563371716
-0.17405942497363816
-0.1461996448103434
-0.16141352007318568
-0.012099530447615756
0.11700088051977092
0.2387368768879664
0.15385375058887032
0.04675257516255865
-0.1106507031616862
-0.1480985903737783
-0.08348934607855142
-0.11203340841706645
-0.002125156604801205
0.10068292485255424
0.06296771806962145
-0.05087210255465088
0.007000717391694137
0.056274513365781764
0.08170953625592343
0.032516869142093036
0.028504493229286845
-0.0275463874098012
-0.03319246926016617
-0.06835652682364445
0.020451802349938507
-0.16944693080046042
0.005890707151227215
0.03125996988118354
0.01859225129596785
-0.11263824789702738
-0.05785642337042923
0.050927367631817565
0.22845930174077253
0.42958345885276583
-0.042830077223967325
0.08649099390190122
0.7028607939814072
-1.4566007375871597
-0.9711540988775944
0.07029691557775446
0.44210230979234816
-0.27427267183299686
1.6434733984827417
0.8075971362398663
-0.09383200387000425
-0.666853083044522
-0.748241304795565
-0.7339151989894911
-0.3264894599076736
0.2807479503505146
0.5825074411518929
0.5164390978514335
0.21466373785717027
-0.030638499845265246
-0.17946460683227444
-0.2362191502684469
-0.23073411224754672
0.0017853139738506067
0.03463028447572229
0.05470053822223785
0.06036623808814659
0.05567832456607727
0.04461762216097057
0.027944042355280606
0.0036341140215147253
-0.029644792532520076
-0.06779162684021554
-0.09768812084433558
-0.0970986629299054
-0.039384213670228305
0.09742988521690966
0.11980687022145452
0.2102222429697312
0.12531460445739556
0.0030971261004394284
-0.22168801203021915
-0.19857995332178166
-0.1453811773323555
-0.04110002483112159
-0.030667624735552013
0.16002602431755453
0.20383504087623142
0.15356907291826521
0.030783634959949305
0.025364532330392014
-0.09479078593072873
-0.1681571561994898
-0.2240484838937522
-0.07290358163706048
0.09424205878378646
0.09741854826321021
0.15431670080120521
0.06732371359796673
0.01586636077173121
-0.04339837517492401
0.03125994613997535
-0.02012745972724421
-0.04392207125747747
-0.0590296125338705
-0.047804118965641434
-0.1543403593687102
-0.09159773568447403
0.04301614454022927
0.14629727830754333
0.08708167894422598
0.289382253775112
0.12616961509498384
-0.0736851151953756
-0.20695821007660506
-0.1718248072641989
-0.24566028881504942
-0.07179905697577807
0.14151702238729238
0.211585496328905
0.16655236949455407
0.032302646530926446
0.025881639445080172
-0.04320753111760819
-0.16604990321525492
-0.12608739935234534
-0.09423473142710301
-0.030387601550396066
0.10845166995125695
0.15620879879152957
0.12668390330170054
0.20823686191102475
-0.032952542742942584
-0.24165786251388519
-0.25860944362510896
-0.10792748638032611
0.007728078301558984
0.10261536936106797
0.19671648453927307
0.30356981729702676
0.022928410602441315
-0.2586580296871209
-0.16046969993538918
-0.09803502298181395
-0.07656114527883918
0.10974497568095025
0.2731773290113744
0.02624668128993661
-0.022575443874058153
-0.06912466633345345
-0.11064378910843725
-0.14243552064955928
0.04317412472649662
0.05439761005141574
0.09514168132772055
0.16048654396604084
0.0354129593819458
-0.1017035664293869
-0.07164593993592493
-0.0858563277911376
-0.14054361951137584
-0.016142544470223265
0.11725080812902694
0.09028870839653264
0.12420962568320162
0.023928144898140886
-0.023207672576320126
-0.04289267660065407
-0.0655967871971715
-0.11768855771393975
-0.014944733449445769
0.03974840507929826
0.054427524809148954
0.04329605906905335
0.021364361565050942
0.0003555456178779823
-0.013203912401680569
-0.01779150255562943
-0.015330876268669422
-0.009200403901561066
-0.002568134996619767
0.002543062099465232
0.005422798257487727
0.00629663897350008
0.005741612225417308
0.004205606291638923
0.0018261261312022287
-0.0014133038457218928
-0.005302491737137088
-0.009021945528877738
-0.011017287690992679
-0.009334245158425833
-0.0024657232876589765
0.009462488240979916
0.023576852010614727
0.033769444788868674
0.03134261936956663
0.006950618704812919
-0.04659622932610417
-0.13176895661928434
-0.045454852628036176
0.019155759211987984
0.06813169357562282
0.10158921994496317
0.11045865578497792
0.07768469233163781
-0.015284528340525733
-0.17823164879903688
-0.20184571277589042
-0.051994637646475425
-0.07215190292238258
0.0053814685073617415
0.24234975469902056
0.2770866959197982
0.11300453788603716
-0.08259485809647252
-0.16904768872729783
-0.21619879488823213
-0.08798385272565422
-0.031349081216140245
0.1270337286438092
0.17756508749745084
0.12184322082048836
-0.031875223792547716
-0.06983814152358613
-0.1713974050525937
-0.10790704984864734
-0.04490142175431672
0.051281070707493534
0.20403413804215995
0.2180761840681415
0.0765103795304136
-0.05406645850703924
-0.21137767849120528
-0.22272065259022608
-0.09377449504933279
-0.0057695078376772905
0.07774807051012274
0.19738184759376068
0.18309916036621252
0.04398643568770391
-0.03377560020383113
-0.08054131977604033
-0.13157246082070448
-0.21504162726193288
0.05581100239013993
0.0840156625619189
0.08431354028436343
0.07562419911729333
0.07405131659774085
-0.11120462617296843
-0.07860649097782348
-0.03290785628047312
0.016678588674079904
0.057826622201644445
0.07622561212928924
0.057496157412209044
-0.009372877300627446
-0.12745198944701194
-0.0878631840151971
-0.0686793327972073
-0.03845465875978048
0.03566086880981917
0.17743780772376658
0.1925225755353396
0.06481785521442994
-0.03939333566119149
-0.1603484576140077
-0.13062711886978956
-0.1633618095280855
-0.04752993437993968
0.047725089735413714
0.1613269244764609
0.12554032736596668
0.15390082172134942
0.036328589778996834
-0.05687682687149559
-0.16390030358091293
-0.1175676930371603
-0.13412300749067205
-0.00871215978870075
0.08114642358963149
0.16598787810041085
0.07281450819771217
0.015955905707310897
-0.006633098623062569
-0.011032438250343531
-0.020493132988491446
-0.05676190670085692
-0.13257014023756983
-0.047795262913219574
0.00934941670760657
0.056488403292507046
0.10887089315862275
0.17218307225105053
0.03961830172904464
-0.10519946422448519
-0.08037633741414942
-0.09620621360807409
-0.14799477978614323
-0.01435468266374087
0.13820937692462623
0.146228349379119
0.03931303456732946
0.032983808853643444
-0.07370765049383346
-0.0960886134533329
-0.05931223659644008
0.006351381342076993
0.06904138034925493
0.09779367694285827
0.06514395332559564
-0.049121477392340414
-0.05322291477969882
-0.13930596515155286
-0.08248871360914242
-0.045000969454154
0.014388602398805494
0.1278340842949752
0.3069459981486161
0.1372189697709221
-0.01829921993963509
-0.20627779732755738
-0.2657027246652401
-0.21284627068139558
-0.03506690456579614
0.1038301668298031
0.24904131219403805
0.23741146941494418
0.08474837789221872
-0.017000022893490528
-0.09195187524571123
-0.1656468315437663
-0.25003925172249225
-0.1346679918707648
0.011965640222919254
0.23096960407039477
0.15603612255774799
0.19778407595469488
0.13594515882784253
-0.07738630680819124
-0.3047976770258013
-0.2062094461361623
-0.023975619250360306
0.024435807427374244
0.14502331592260734
0.15987180532242243
0.09850483125408312
-0.008019132989755472
-0.1287937438341316
-0.2320009878353029
-0.08431539180293122
0.14645132445614448
0.08509668977050232
0.1415917238476699
0.10620847842470546
-0.04998178390038231
-0.16893848331838165
-0.09611692322454565
-0.0711793074556396
0.07810568679580661
0.1379462077773372
0.10789623617699559
-0.0004088505949015483
-0.16406239197232755
-0.15010409269447803
-0.11935977255701301
-0.03463041528520124
0.1274243094329024
0.3644620551985308
0.24248916028015008
0.10094884449460233
-0.12968110860586335
-0.30200149472984145
-0.4266753790237437
-0.2589913677250703
-0.10465951561670085
0.15434849672868933
0.421191738362486
0.5461503267966626
0.5039436735974996
-0.2034536233764802
-0.3177043187070536
-0.37843414452645596
-0.47754962026375547
-0.4301299985664532
0.2280442269093433
0.41644026590730643
0.2690917615332666
0.2925573455174781
0.1367308407027545
-0.013502123740431566
-0.22578236026209061
-0.19368828668339946
-0.20626636757349304
-0.12361633951508604
0.034970812717507564
0.0887695982237686
0.08227829414200079
0.06654975325819003
0.08147626470461501
0.14404775106670756
0.04539792126545706
-0.04313717900849081
-0.1573748958256577
-0.12562343326364114
-0.15733659128572947
-0.03926264962620556
0.059542576351021004
0.1758894228361645
0.13856309040434703
0.15796364374016783
0.023451790691124054
-0.09058900081962253
-0.2126078949498215
-0.16091717645329404
-0.13557927791764018
0.0812438541276586
0.11658891077662616
0.1934145751918858
0.11847180258415449
0.07644731228822448
-0.1672306401244167
-0.056076196598683514
-0.02861085076569378
-0.10559176138586406
-0.08228072952366992
0.0722479304080257
0.008836788854003476
-0.013132289567571067
0.06072791393514911
0.06732929167219372
0.01751353932629799
0.09338295818218315
0.05243579830972664
0.03789818629606592
-0.20702257314819814
-0.12474401449798614
-0.13320188997703902
-0.023497841459526908
0.03383782130708347
0.276373863022798
0.13595487769553277
0.028812697910960958
-0.047041319849049835
-0.10719525565189496
-0.17213384345523106
-0.05891415886384241
0.02317364836849685
0.071710832536902
0.08637453884512486
0.06325520987249855
-0.00870516446369709
0.05265636073386799
0.027115136973175757
-0.10099310107567742
-0.13581890368515095
-0.0660011955667726
-0.06598554002900107
-0.10326264230867696
0.05038857375739157
0.40811963712605304
0.9637760562080868
-0.5006461609710946
-0.5957338975639925
-0.30126669164311765
-0.35177896186554936
-0.6423404801395332
0.7429402147771828
0.8885110575953614
0.6084190749513327
0.02901361195272091
-0.3971516296047918
-0.45083894140384706
-0.4953785000165894
-0.435320797227111
0.10127760055231107
0.3533818591602012
0.3977602527326979
0.31427853594730115
0.16015742810367894
-0.038089634686963386
-0.27477132439216806
-0.34436350327323184
-0.22100148715537174
-0.04802016870799343
0.05749435826067916
0.18663905840005823
0.21382123064800565
0.17392992196310544
0.049157366074075205
-0.030657989113872047
-0.17490990148119062
-0.11081859238460133
0.04011446071812881
-0.01770830677546234
-0.14062795641106876
0.059446591827544644
0.012296104188213931
-0.0198142208403196
0.04454537262642523
0.09130416111700068
-0.0024793815144011646
0.02133762862369261
-0.003690467561832744
-0.06995517374294945
0.006287742288460239
-0.010705010895633834
0.029628330919274526
0.07098646082531805
0.058013853836603096
-0.05518919090453371
-0.0968982414980657
-0.07187452705625827
-0.1599717703161474
0.07941216403724587
0.09760358573570369
0.1443489816686324
0.0568763875811832
0.05378765149577254
-0.06476492699013495
-0.11171447325785913
-0.10555023774995574
-0.06416912445903501
-0.0026134243603743042
0.06490896748092574
0.12055797607611692
0.13917502764421938
0.08853539511174831
-0.06491269211637846
-0.14588483181198655
-0.15922859047963991
-0.08267587893451266
-0.06703999086614726
0.1551804363411541
0.05499219474922411
0.09033961702098159
0.09271417661359514
0.060658821165485766
-0.038348117056142356
-0.058589503709147964
-0.062344354906872
-0.10563733896322536
-0.027257157271005708
-0.04350594238906462
0.050732762864130164
0.07588430226028066
0.05910016582388043
0.026093313272578203
-0.004410498160133303
-0.022726732469871183
-0.027208004236070428
-0.021429389376126963
-0.010968985344052435
-0.0008487253860487446
0.005860312095567423
0.008288731725326305
0.007231691499304391
0.004287146611069189
0.0010600221716313258
-0.001342908202795992
-0.0024765963843320906
-0.0024543214098297146
-0.0017077898497561404
-0.0007358194731897813
7.573415665480499e-05
0.0005327599854621139
0.0006229817612541002
0.0004530011822505725
0.0001713986694926568
-9.301253885225147e-05
-0.0002640917311756295
-0.00032276718373267893
-0.000292022981325539
-0.0002142859442918322
-0.00013105498992302655
-7.030134080341262e-05
-4.2714512360653766e-05
-4.471592181960452e-05
-6.481489068378155e-05
-9.00975345972969e-05
-0.00011077633021934392
-0.00012209392453155178
-0.0001239592137956768
-0.00011926202106315393
-0.00011187719792026511
-0.000105094584579401
-0.00010080800543673512
-9.943742787310751e-05
-0.0001003392952710374
-0.00010239779523203548
-0.00010454624069923833
-0.00010608165117263337
-0.00010675038871694358
-0.00010666222661884803
-0.00010612265422939859
-0.00010546573610046097
-0.0001049394393407015
-0.0001046599182816794
-0.00010462368996386933
-0.00010475264913939895
-0.00010494583282367299
-0.0001051193196982285
-0.00010522618021845496
-0.00010525757392102371
-0.0001052315567200098
-0.00010517757692864978
-0.00010512305549555958
-0.000105085462477947
-0.00010507036244465072
-0.00010507390022108073
-0.00010508740159681482
-0.00010510196023412532
-0.00010511163073462649
-0.00010511470791429067
-0.0001051132492778411
-0.00010511138517777354
-0.00010511309997154544
-0.00010512016183997127
-0.00010513081343615763
-0.00010513972608996865
-0.00010513951471218258
-0.00010512373624616395
-0.00010509073305173184
-0.00010504703808519059
-0.00010500858253495996
-0.00010499798768674393
-0.00010503709461144213
-0.00010513567388393093
-0.00010527963685160348
-0.00010542421970485979
-0.00010549833684462846
-0.00010542440764526799
-0.00010515285355568383
-0.00010470278346943753
-0.0001041924219230693
-0.0001038383461066507
-0.0001039058150208175
-0.00010460628766362956
-0.00010596198235376425
-0.00010768509123145832
-0.00010913967705800065
-0.00010945301774126669
-0.00010780826774445665
-0.00010387944879877359
-9.82770114928886e-05
-9.279052368705177e-05
-9.019113176891683e-05
-9.343562484799204e-05
-0.00010431702596938876
-0.00012190547128654445
-0.00014142601793053596
-0.00015438002620493608
-0.00015057210967934164
-0.0001221497931012027
-6.883331173651057e-05
-2.4490273339150553e-06
5.187186151153814e-05
6.0355590601893225e-05
-7.78670045788238e-06
-0.0001634536805157138
-0.0003807383399101754
-0.0005883320248201812
-0.0006783116500077314
-0.0005380661145856211
-0.00010305240768285853
0.0005835390365799634
0.001329622880537933
0.0018026163384951646
0.0016120624927329164
0.0004688850844427788
-0.0016127192682265897
-0.004145601010782561
-0.0061349024203040895
-0.00627472322974704
-0.003416009317499056
0.002762556781472931
0.011084082326322665
0.018517528410996784
0.02046738723121468
0.011901548271691455
-0.01080063246288398
-0.0478120615526993
-0.09450242357170666
0.05837064795176398
0.02257518920562426
0.008929115439773152
0.023618662297004586
0.06559703075429218
-0.0740791959567738
-0.010777016352072318
0.0369333185195738
0.051567508720552796
0.021390134212243235
-0.05534155735551659
-0.16776315523516983
-0.09301179834016222
-0.0012475358028080454
0.13531259541159005
0.13195845772202677
0.18378075162517135
0.06452655244450509
-0.06643929229272832
-0.2509028941991513
-0.11706736834572436
-0.06905979404135092
-0.08485258188298031
0.07657383456592771
0.2615712458036714
0.10680413503754475
0.028335203801737624
0.018368004829274948
-0.15007470269806297
-0.11328121765231441
-0.10598226423661108
0.04686045209235423
0.13398258381930295
0.15817835103297295
-0.06492402314755137
-0.10822824879047276
-0.13497765622427002
-0.10268449591508934
0.029421473812135304
0.08998343749646176
0.28516775528810323
0.19281958715490247
-0.03519534484199772
-0.26185481764926427
-0.1484748100830446
-0.13893252292855604
-0.05035664741437271
0.12707982762219633
0.2226214268526103
0.07384113886981096
-0.08334430383897308
-0.020714505076019022
-0.11968043962530112
0.02924426245994459
0.027635712933430367
0.07017314936846528
-0.05436161183831763
0.03839997989141542
-0.06944778694574524
0.004406178062756018
0.04486546313672202
0.041402849493367685
-0.010422846572625417
-0.10804977548268158
-0.04208903328723175
0.0017766321283260293
0.039080534928813464
0.08201251419598525
0.1358356482405044
-0.0019341128769755091
