0
-7.335616787408522e-05
-7.335616788261396e-05
-7.335616788099206e-05
-7.335616786412708e-05
-7.335616783148282e-05
-7.335616778998822e-05
-7.335616775495555e-05
-7.335616774740027e-05
-7.335616778699448e-05
-7.335616788159245e-05
-7.335616801650046e-05
-7.335616814863051e-05
-7.33561682112541e-05
-7.335616813316544e-05
-7.335616787117431e-05
-7.33561674476521e-05
-7.335616697756072e-05
-7.335616666553971e-05
-7.33561667571077e-05
-7.335616744139387e-05
-7.335616872520137e-05
-7.335617032382691e-05
-7.335617163216846e-05
-7.335617183696131e-05
-7.335617019674588e-05
-7.335616644895064e-05
-7.335616121725367e-05
-7.335615621862927e-05
-7.335615405177441e-05
-7.335615742820199e-05
-7.335616790143908e-05
-7.335618442928924e-05
-7.335620238080778e-05
-7.33562137354961e-05
-7.335620906854939e-05
-7.335618138047158e-05
-7.335613095428072e-05
-7.335606944302935e-05
-7.335602072648534e-05
-7.3356016239506e-05
-7.335608386556782e-05
-7.33562321339429e-05
-7.3356434782536e-05
-7.335662350634217e-05
-7.335669721640658e-05
-7.33565528295077e-05
-7.33561349119383e-05
-7.335549065551515e-05
-7.33548061876151e-05
-7.335439548667198e-05
-7.335461985652226e-05
-7.335573733833276e-05
-7.335771560629412e-05
-7.336007936038391e-05
-7.336188744703173e-05
-7.3361926281141e-05
-7.335914979553417e-05
-7.335329219476831e-05
-7.334545183793711e-05
-7.333834174460086e-05
-7.333588976762637e-05
-7.334200800166249e-05
-7.335865568409343e-05
-7.338374014778894e-05
-7.34097962751429e-05
-7.342454710911415e-05
-7.34141612236265e-05
-7.336916684375773e-05
-7.329165018799467e-05
-7.320093595884896e-05
-7.313406952301848e-05
-7.313784589329774e-05
-7.325140727888617e-05
-7.348251115745471e-05
-7.378549057597868e-05
-7.405275047315068e-05
-7.413184751924482e-05
-7.387458567949066e-05
-7.321251521902238e-05
-7.223695322149786e-05
-7.124671445883271e-05
-7.072128804488039e-05
-7.118940533506614e-05
-7.299705307313523e-05
-7.60308940905376e-05
-7.950751609678674e-05
-8.197057929328458e-05
-8.161793940349962e-05
-7.698906174598845e-05
-6.788307999169164e-05
-5.6188936485966477e-05
-4.616746492495424e-05
-4.372829012886642e-05
-5.447446301809006e-05
-8.076322727549036e-05
-0.00011866036172573172
-0.00015622729026859756
-0.00017475869837199322
-0.00015407333116263756
-8.160321549473619e-05
3.699322002859513e-05
0.0001700398208560648
0.0002603505787426896
0.00023860337573279036
5.04565620572628e-05
-0.00030797778033959255
-0.0007589331723668972
-0.0011339115347085186
-0.0012040322124500108
-0.0007577111805336981
0.00028518348611422157
0.0017578619035733287
0.0031860916936240474
0.003844515939086841
0.002970066380967488
0.00011859571124823839
-0.004428146785308337
-0.009377812101446188
-0.012479958421064068
-0.011094283980151751
-0.0033122173815087683
0.010564066806095382
0.026642373126259514
0.03679132901802798
0.0293022886194292
-0.00891708278352809
-0.08901826819758359
-0.016779079565646962
0.009686062004744696
0.00020494590583752472
-0.029273857681309502
0.14001174080186327
-0.07422583219305767
-0.058938835369589375
-0.008718319652598672
0.07196207800117689
-0.03253555616303726
0.051303701539507335
0.08885693232024473
0.04290648577582402
-0.11835734429602267
-0.012352968761930185
-0.034581767703934986
-0.15522691320779639
-0.12179570432071765
0.13184531808845473
0.07179907173742653
0.14962909924872514
0.19175628211052181
-0.003431602997113155
-0.05960893927714675
-0.2098893288514488
-0.08238635542151525
-0.08947067700883181
-0.024682137696486632
-0.06829797492893987
0.20055414194594806
0.18967442849353466
0.08281285680704538
0.036327479141640924
-0.014855866247528965
-0.14376102741782254
-0.21483481891844783
-0.06977407164426974
0.08007500007355488
0.05329648173203975
0.09152857276415781
0.04946629209572081
-0.014979868605551623
-0.0484289475538278
-0.007332245821789249
-0.06152577332250865
0.003101307397822793
-0.01752657664526735
0.0531996359862573
0.17364393146662188
0.08861720664250294
-0.061585282440170794
-0.12880799396044992
-0.1444008536997073
-0.11052206132516017
0.0011967442410052095
0.04263889214503156
0.07582746753302323
0.1573792467317231
0.12564220910674043
-0.005665515966576613
-0.04585264300973138
-0.01906557147515666
-0.15315008654873785
-0.27008506070876437
0.018255136580108598
0.10758387191108273
0.19380141966960324
0.2653778459889086
0.1007637543519048
-0.12625351503250665
-0.23458469592607886
-0.22261890548031543
-0.2606640285737504
0.105955911239182
0.14275933835733035
0.305671007427805
0.22221739716774042
0.08190526864051527
-0.1604495659321055
-0.17006173186039028
-0.2122494040231252
-0.13484970147940792
0.041193853511514396
0.12118057590543564
0.12818124888015486
0.09152963063142906
0.037180640854235565
-0.017047422666116467
-0.06101369591415194
-0.08850901468606809
-0.0932574783948976
-0.0674393411811438
-0.004091025206310158
0.09733999145177483
0.2250152255823523
0.1520808312735149
0.04048580233495561
-0.1482685014582236
-0.2385238705960556
-0.22779900935216668
-0.08204832125350238
0.05793415009733168
0.26030901108850846
0.18170987642230585
0.049784227857012524
0.054668514457193625
-0.048303868862232015
-0.12632084379029718
-0.05162774981591927
-0.08415768482302702
-0.05873190087120592
0.020571567936702846
-0.02151229400329873
0.06059950369967298
0.12212616297308386
0.016655064354488318
-0.012517353795697295
0.06294408468324926
-0.14442946977008428
-0.03625986746503305
-0.02589885936111417
0.06354464026969378
0.0006111206622946721
0.14726444515156364
0.06228502297086041
-0.09314572396015772
-0.14853323007443653
-0.11811858078455914
0.0014745351393618755
0.02865021087624673
0.19030217742031796
0.11430990452270869
0.02448186465445428
-0.06007113823078314
-0.121680970478067
-0.13976361470156337
-0.08884511790175105
0.058712959410709684
0.12543223764989422
0.1195282500633817
0.027716562233970392
0.013319796418636749
0.02099885868596512
-0.01283961389246275
-0.1466007578324287
-0.020476969975796323
-0.04717732451998941
-0.008733319304827347
-0.06010858962295871
0.06128817215119615
0.0223644265865943
0.08034954222320823
0.07120643517980216
0.003066905296954571
0.0560922796784667
-0.011408343178060824
-0.05228027913572752
-0.11804148848099622
-0.04786973741651777
-0.061866798062786575
0.039961042933002504
0.07343763547007094
0.06273016740082536
0.032437116920063146
0.0016565127705427676
-0.018749963946239803
-0.02582133454631743
-0.022140577468321612
-0.012801912141505473
-0.0028126310172315316
0.00446764116829736
0.0077701837919986905
0.00752945871006112
0.005100938497909026
0.0019835568997700692
-0.0007018759181719071
-0.0024013546799535016
-0.0030452970670131084
-0.0028298586203809655
-0.0020025646850720543
-0.0007492410990342537
0.0007887628633313058
0.0024057836322457474
0.00371765802058784
0.004141533867527091
0.0030410828608473765
4.1434455379790554e-05
-0.0045738587624490476
-0.009560348036469709
-0.012727536581134987
-0.011456981386388735
-0.003764953483130646
0.010288832056821589
0.027314424225250832
0.04007669855730084
0.03835546169054944
0.011402914228780904
-0.04848209450052299
-0.1425556488916765
-0.06417928581535957
-0.0007316905721832175
0.06107756075151396
0.12831552315014988
0.1965186839129694
0.049055567865831415
-0.13752161301512206
-0.1836542584726394
-0.09647763041318076
-0.06364172177297492
-0.05413365165984375
0.17411168197414112
0.26297067870301755
0.04391361888182658
-0.06725036341562117
-0.06943341784097408
-0.17111979304452363
-0.18484801378226967
0.0752834434539384
0.19206309152073456
0.1414840187397104
0.09060487320877304
1.0223032265569015e-05
-0.16872671549794638
-0.24323407357764587
-0.03250092898169015
0.07539427778270333
0.10908912857512867
0.10540025294912958
0.10009470249791833
-0.07901290409720327
-0.21569580765361077
-0.10681279189819623
0.0365474256311692
0.18780706011988454
0.30540520131687365
0.13830971510441686
-0.16147093451600228
-0.2210937068047405
-0.22963361433078866
-0.329056240863503
-0.01923109010666154
0.2221624297626691
0.3100000978280136
0.32189456915156467
0.07827831368382504
-0.06127409640451362
-0.1853949625644202
-0.2076464349526758
-0.2412317560645288
0.020470743217968358
0.11337095844132584
0.20260518241236108
0.07691492359682138
-0.05771857829544449
0.017946948662310176
-0.06474859425345196
-0.06234140136722828
-0.12033158394197098
0.02285531973607532
0.028634524633705378
0.14904345869759872
0.01810939941596939
0.04654776950282754
0.021465045192504424
-0.0890076727042315
-0.1278225220390389
0.059660823170345136
0.032932366308208845
-0.03895382808180289
0.024778825964478862
0.01674913074258345
-0.05998155002786819
0.005557275615096181
0.0289418087620655
0.026785192792905095
0.01359156896741243
-0.0002982836685809785
-0.009336867687789303
-0.012123705031539443
-0.009988906196327127
-0.005411771609560419
-0.0007516270955674561
0.002472904187291274
0.003757280573740082
0.003396331147051696
0.0020966107886569597
0.0006025155937972763
-0.0005515712213517895
-0.0011320115487621766
-0.0011690585089892385
-0.0008509222110048895
-0.0004072860114993189
-2.2557509567767913e-05
0.00020496184054165747
0.00026209013729402677
0.0001936107563175259
6.702031592041741e-05
-5.685810052606767e-05
-0.00014038830533485345
-0.00017233991348120987
-0.0001616915677679951
-0.00012740867614556358
-8.886149525386446e-05
-5.963616928462783e-05
-4.5422431011418437e-05
-4.513939459521276e-05
-5.375914736235165e-05
-6.532413772860292e-05
-7.514629893322331e-05
-8.080269784996026e-05
-8.205923911767806e-05
-8.01398925383327e-05
-7.680965181306833e-05
-7.362553988866137e-05
-7.152743983484635e-05
-7.077149157429083e-05
-7.110101378330067e-05
-7.20144933032388e-05
-7.301157838274566e-05
-7.374864632907958e-05
-7.408882204964464e-05
-7.406966844799793e-05
-7.382869301272691e-05
-7.352495910214495e-05
-7.328203558524931e-05
-7.316158485419093e-05
-7.316422197745696e-05
-7.324766096368317e-05
-7.335132057240484e-05
-7.341933420107957e-05
-7.34176638164473e-05
-7.334378068907572e-05
-7.322841776469607e-05
-7.312874578836227e-05
-7.311228649375889e-05
-7.323229217171103e-05
-7.349877767658226e-05
-7.385415523171603e-05
-7.416634439834797e-05
-7.425228218606813e-05
-7.393822492135127e-05
-7.314930677769289e-05
-7.200208318493619e-05
-7.085682697215383e-05
-7.028073397625849e-05
-7.088843673046801e-05
-7.306699539114346e-05
-7.665357402092063e-05
-8.069696752288524e-05
-8.346905337409774e-05
-8.286556954680834e-05
-7.72247351042255e-05
-6.640288941019327e-05
-5.272630845072345e-05
-4.1278300140574876e-05
-3.899428231894556e-05
-5.231891225648846e-05
-8.374522619497104e-05
-0.00012829242743336129
-0.00017162251085651412
-0.000191675117717583
-0.00016505703899381103
-7.779727887522348e-05
6.229865880791258e-05
0.00021685537080711045
0.0003180953469958722
0.0002851741361321678
5.643620085051515e-05
-0.00036906373650605285
-0.0008958574945417955
-0.0013231482709087255
-0.0013826203417509433
-0.0008314498457652836
0.00041330133676051415
0.002141157446108975
0.0037819345452929686
0.004478464598389955
0.003343299262366525
-0.00012023618761285642
-0.005544798134146995
-0.011377005230215769
-0.014954667446919022
-0.013180789034411488
-0.00381696556662653
0.012864990830947524
0.03264833764915857
0.046933682995158085
0.04400974196049495
0.01228288756569682
-0.055116618848222415
-0.1558854688107912
-0.07635570154428344
0.006726958812931056
0.12025855173697082
0.08649170153136078
0.11559009765320005
0.0020161750164324685
-0.07391854257311613
-0.14025039809371956
-0.025856796548310766
0.04598228740133295
0.06131817091424727
0.01648216283645803
-0.08293174604295935
-0.0242907762309435
0.00898549651628383
0.03376532398082261
0.0637195201205815
0.10715921787431135
-0.032860844361387385
-0.15618853651991135
-0.06224141626657779
0.05236039108648952
-0.006216006464789179
-0.03141017127191186
0.18023919781185363
0.026296444714764493
-0.10223959499540998
-0.01906841701888319
0.06103174970055437
-0.0738571822903917
-0.029861833557549636
-0.00624959690790304
0.003449686549875583
0.00841174458036531
0.01646628244449181
0.03030145729342182
0.04522940009064289
0.04950783353999349
0.027585975940138868
-0.034279366758977026
-0.14165280587572907
-0.08720110949384845
-0.04998436597042724
0.00010506317718213963
0.09370431189677572
0.25214095456528596
0.08036664960092976
-0.03417468366308559
-0.11610728812401887
-0.19256323002720827
-0.08388359925884811
0.0013627530842774407
0.06531211729713399
0.11494679866978205
0.1548246855846209
-0.017868792613939997
-0.01361352263422298
-0.04620889810868929
-0.1259390322369027
-0.0534003540139339
-0.016748811282935223
0.006342001849474272
0.04259875560465085
0.11508172576928288
0.035962294268054314
0.002616317160531569
-0.0017128906919143016
-0.002983583293653898
-0.02873198169496595
-0.09998680163898789
-0.02497989187178242
0.0036374608117336
0.007408081917993657
0.017078233745890105
0.0655060200900617
-0.01968489573887952
-0.02208660794098034
0.05994582365368307
0.012685990378960869
0.009448575849747488
0.01571305920980365
-0.0038558443559255987
-0.0778538281460429
-0.021784226801018845
-0.0346244236713771
-0.09949591202005735
0.011382819798463091
0.12856638615145516
0.0764196634020258
0.06631287551253885
0.09447023185550944
-0.054697928179409744
-0.20115774264410483
-0.16089121994650776
0.05975809060360573
0.06478876408178962
0.06461250158125192
0.0699807365717359
0.08683891964156605
-0.08580308162350782
-0.05463072086098196
-0.02863381248604349
-0.015507574745189018
-0.01946689679383792
-0.041127467830106096
0.12092419308613193
0.06799583924522833
-4.893429111374455e-05
-0.08445860123748171
0.014211207982091578
-0.1018001217435048
-0.026443999775915595
0.0493345807848379
0.13536180131268533
0.03989413920516834
-0.031380799713272796
-0.0744912842479446
-0.08538080269140143
-0.05891825170189614
0.009871487326815375
0.1223052440296446
0.07177226900957057
0.04102148824396567
0.002883839064459691
-0.07516277787588754
-0.023838588212776672
-0.06458288233480089
-0.004031330344532041
-0.03192975899665815
0.07718908950854188
-0.0407146756691092
0.05439430186956395
-3.062376988111056e-05
0.025163409450015745
-0.05323141161328363
-0.03292457611359146
0.07363389248209808
0.04092698970536649
0.03413158260351231
0.015011094750187127
-0.05068093709200477
-0.18582976370399001
0.0032913834561105124
0.1284619315935959
0.016771516596550483
-0.09527809177814081
0.030758560711023626
0.027550353386800362
-0.08498721862457455
0.09511519122159583
0.14971008615775194
0.042571739665717076
-0.07385353680437468
-0.047946091477444185
-0.11729970365555163
-0.09948986447431359
0.011860961354170498
0.04457004596954058
0.03993082882286878
0.04192807200714541
0.08681081007399558
-0.004311024127145409
-0.028353667233202377
0.0015022560075878407
0.06124086657072834
-0.07649312896605671
-0.03465004893187913
-0.025617435507622403
-0.04825306823426559
-0.08906355759386862
0.07256238295626538
0.05638973045453034
0.07305223292234513
0.1183096350418466
-0.027866720612493262
0.0033773335421209694
-0.021121685777276453
-0.125752203368513
-0.11708950619743232
0.020309105394178094
-0.07840291116910592
0.033197560494605524
0.2006442700618568
0.05643770852160886
0.011736047208503922
0.05440582732581325
-0.04623539432702888
-0.1297900252870676
-0.03337330491250242
0.01831075363380915
0.019046979518695495
-0.017631399449628327
-0.06184524245751048
-0.07471719270096518
-0.018577953031351107
0.13175179117033026
0.17939571860647613
0.1009622911003144
0.049843250732717094
-0.032417697237757365
-0.1995249256005737
-0.2839977576597382
-0.08698044110671498
0.021475117805111365
0.09133192125000102
0.17469766423065625
0.30793442547772554
0.10056558274085059
-0.06491735225830966
-0.2227548598249206
-0.20798352672909867
-0.2419780938381634
0.074525411119266
0.158825802036804
0.23665280998429394
0.13119695269038806
0.05632745194595445
-0.18340922546621052
-0.1874786693073329
-0.1531386215574008
-0.07301862131239913
0.061183326077717794
0.2503451101563951
0.27957479297587556
0.11548042238568347
-0.08744153827062597
-0.17220978951797838
-0.3620437090788485
-0.248096728831872
0.01142477052151187
0.2791477426026356
0.21769488978703452
0.26843922541559884
0.038261675906010255
-0.10101604601104794
-0.20131164689654668
-0.12036619406632422
-0.10422544487155681
0.024232637165963515
0.06826672670381899
0.052571054595186927
0.013815303204455266
-0.010190561142493983
0.010015171234386652
0.08914390385317149
0.024788656161590615
-0.0006303960928453165
-0.014158399687064942
-0.044370619281916907
-0.1134964701325925
-0.032008163358745526
0.0026047022297548987
0.00249973118199031
-0.017236035750282132
0.15369746636955117
0.1149958293039575
0.05438085798659934
-0.04812154913956609
-0.011223478052810439
-0.241888281655027
-0.12762924940186288
-0.035369957589138926
0.08161656445744142
0.0703719489298637
0.16294429299398863
0.16458872191859333
0.049951412328712225
-0.03094217451484465
-0.1384865507741734
-0.12564986201064438
-0.22242792473734485
-0.027743604086372227
0.08878741824291593
0.17642833960406676
0.08844427851645252
0.06802764896832544
-0.06098381215809286
-0.09720626014067762
-0.05964558991843471
0.01742254281283307
0.09093679043738241
0.11637678880380625
0.05617689610516532
-0.11095663327875903
-0.18148349307069236
-0.12232612054703401
-0.07322220770068737
0.0425001754789787
0.10043422502822186
0.15548415936237758
0.2261167313814087
0.08774012798840257
-0.12223680035244643
-0.08897061915184258
-0.09919749643884991
-0.22121662374591283
-0.09167205896407137
0.08765003739128473
0.14333374909174088
0.11768752846674514
0.05502257520107668
-0.00876980931419958
-0.05126961576396765
-0.06363851580035122
-0.04778474821662946
-0.012822435533464904
0.02773130444732755
0.05778928388351009
0.060288969955052105
0.01953948808384073
-0.0752288647455682
-0.02566955755320273
-0.020888714361013035
-0.03636817885325885
-0.03629576707966762
0.0205587707164765
-0.027761535801347888
0.04390486934260337
0.03927403279768391
0.13560823045109754
0.08436279460619965
0.01853439013871424
-0.134050113673462
-0.034361325090059174
-0.11703878878236303
-0.18090915828561785
0.011871737514713395
0.12755539791160725
0.045694773973778614
0.041533660679060315
0.17073107083754135
0.060176539417405674
-0.09341267785655386
-0.11782547341007069
-0.055367596619148744
0.04789472366448825
-0.04917654128260699
0.022547562259467607
0.04452228110014606
0.0100591444144277
-0.07782186990566146
-0.009585905577002582
0.027000423551388826
0.042960379976421804
0.044994351509026746
0.03420534867071146
0.007299558798673535
-0.03998980845344761
-0.10848444492902144
0.008029580940746468
-0.07610628830062176
0.05941966997179454
0.036032201587187764
0.07034921698440594
-0.03074824217536609
0.1276108240586595
-0.07062118978732689
-0.04839724466250127
-0.030072923079734
-0.03633850336348041
-0.08126604680352263
0.02774896329667907
0.08758738819479414
0.09609892957502754
0.04995787631724936
-0.05474979426131854
-0.019059859690198452
-0.03622793365383672
-0.08776961521182355
-0.14275510493597335
0.03828786471091807
0.09514032692373926
0.05749077967731712
0.13585952905668985
0.11733197900755955
-0.03190870086576529
-0.15770554325042732
-0.10563470705143334
-0.10959957701788575
0.014872728754265103
0.07095042850718383
0.0753713805154551
0.05063208891517056
0.017601535357596045
-0.00926379478083526
-0.02340966326452828
-0.02496333327281272
-0.018056271350372362
-0.007979679552369234
0.0009268108487153985
0.0062906491261617205
0.007725304554443461
0.0062189951637342585
0.0033179812707800453
0.00043579338652812333
-0.0015416033925056212
-0.0023394452575339402
-0.002154105303591328
-0.0014149448301902566
-0.0005590935905031303
0.0001134249866916118
0.00048561254714867946
0.0005893580810165272
0.0005293947732865682
0.0004054210418821933
0.0002623523662973387
8.280746524195761e-05
-0.00018062897035327105
-0.0005497777920792047
-0.0009674851357622086
-0.0012747031714225785
-0.0012403533908425647
-0.0006507109504111717
0.000559128660862328
0.002176768831150582
0.0036533044672403254
0.00418148223198515
0.002949983527826223
-0.0004517458577312456
-0.005592289600043677
-0.010919039539584072
-0.013876165237658281
-0.011600238225522792
-0.002203379565564338
0.01361321877018497
0.03115733499250328
0.041267807881345875
0.03138251363914146
-0.011665848895612908
-0.0976638121063561
-0.029077403274855744
0.001370656459954491
0.010618556170682455
0.022647726814439717
0.06415706480390636
-0.04031975675528572
-0.07293882795201173
-0.02626453163737785
0.09406194513255565
0.06825739328826387
0.06393312172457878
0.04107844345146241
-0.03974856307958708
-0.20786638402691154
-0.07465164559882793
-0.030611494403846768
-0.04900348456520925
0.1048686294024594
0.26198378248948767
0.04010914892462764
0.040456573575122716
0.052088546560422895
-0.13758189334531407
-0.33062364621701285
-0.11036281724131489
-0.04163881019822024
0.11924971654781219
0.20807163545457824
0.23614336781114187
0.1808399365563252
-0.012252279372754497
-0.2155088994700575
-0.29856190332229526
-0.10841957526502806
-0.05766079521378518
0.07561692709736353
0.13720552975416717
0.18039652607548803
0.04995784007914892
-0.028544206668511603
-0.05186928994899533
-0.03537544373489828
-0.004963135404133033
0.01239759158095867
-0.0028258706267338188
-0.05687568518681074
-0.140705639236058
-0.032575469687308185
0.09492589013232032
0.06505930439022288
0.08738374554727753
0.15200748242192177
0.030209471582939317
-0.1181219161649535
-0.13230952520341677
-0.03795580795889763
-0.03762593150673666
-0.10821824910101666
-0.005888668138868465
0.1228434103403925
0.12697810585850877
0.03803895188141745
0.06197458763651662
-0.02195040008382614
-0.055463984824945474
-0.0908958620083969
0.020875904652076192
0.04126369971666827
-0.04839417552028794
-0.043441507530914074
-0.11720127036390211
-0.026932229085151534
0.07646772124590719
0.23728687722283182
0.08574776866063862
0.03386650241081693
-0.12237850164236712
-0.19632071686021535
-0.20328789589832913
0.04328163423996761
0.13055929713237252
0.24158129150107704
0.15123479617508095
0.027105399501019874
-0.16341879399103743
-0.24228022167569055
-0.21143892238567996
-0.05050000349026028
0.07624149667393092
0.20537335110428234
0.3584734000102595
0.1319603119744855
-0.10221465205819727
-0.1846683094241847
-0.1502093351176322
-0.21061440785129812
-0.14564338783648337
0.09400419446818004
0.17271430000031965
0.14998566406216127
0.06151626888401499
0.10770657255143175
0.053142459779815424
0.037096738713419695
-0.20811385186872078
-0.1364259927730584
-0.1714668635998658
-0.09966025487263
-0.07562733031965298
0.16152343672371014
0.266303545364165
0.26703567345174883
0.15558731518183805
-0.10916388855227527
-0.1852694930698164
-0.325320007897941
-0.15653457908786866
-0.07090430615166211
0.17142234708271167
0.2277678245201491
0.15383028846148356
-0.012975778976352013
-0.06279172337493683
-0.013941874227959845
-0.1067530124319147
0.006273742440014808
0.07108299509276446
0.041686133068898776
-0.11209082335807742
0.0006632945800646839
-0.006037278826859581
-0.09706298862290481
-0.022357640450323242
0.07342466852153727
0.039647333482613505
0.10943146015417195
0.09318879253461093
-0.022160427898269195
-0.06813027424550205
-0.08556192529878504
-0.11454738912902433
0.013531542176670887
0.08004152084643729
0.07925239209359629
0.016030890655647882
-0.09729568157809396
-0.04408024377534913
-0.006575018198162861
0.03055948854062181
0.07690890879545428
0.13433582975827724
-0.002339187560163311
-0.1416892383662336
-0.09032749550595326
-0.04830547714037117
-0.007584984028095845
0.045591280905317305
0.12554080300629603
0.041593268999189435
-0.005386826129346919
-0.023027730364777302
-0.02421916536798166
-0.02205127244525132
-0.024809249165431223
-0.03267496927090247
-0.037179820589425365
-0.02368867706754662
0.02365690960191824
0.11596935594951459
0.05467254873524546
0.02961661210283969
0.021372964575949296
0.007275258005732095
-0.23082576462269672
-0.10012176071530698
0.005399628703883566
0.10167734305345906
0.006865367337249816
0.1322862038887148
0.07571659141489244
0.01973981123103334
-0.06395634327697951
-0.00553501125715266
-0.02603093112327002
-0.12792250467217497
-0.09045321046672378
-0.07184508753779335
-0.01881278096270679
0.11846797665040125
0.16998807440859082
0.13343601417623724
0.17047612768098344
0.014254162902079072
-0.21305510653828397
-0.17757495450948935
-0.11313240054450964
-0.20966819990873453
-0.014733284137257288
0.1521466079698295
0.17671551341628622
0.12613596371233246
0.2316903429968783
0.08341560995785159
-0.16201778422798035
-0.16340959352358153
-0.17383422199144893
-0.22394072031274542
-0.11569174487196092
0.1716066492235756
0.26598712126435436
0.18501173226852258
0.12329844005714455
0.05087012256398418
-0.0768066094528198
-0.3010621115308859
-0.24171362857043358
-0.0857733927016587
0.011940927581749732
0.11619027512555409
0.2913882805855678
0.18180374763463597
-0.0010324336174553845
-0.07980822255673785
-0.10233133051311494
-0.1259957540419854
-0.0013116708399997163
0.04091237715918202
-0.0037836130684499036
-0.11360784234133667
-0.04676159595074214
0.04742616210480003
0.014525413652488266
0.08126620645015935
0.24578308562157766
0.07525873152841704
-0.08728403390255375
-0.1080785527974544
-0.04353953681865549
-0.12258570396811512
-0.13559075812098548
-0.03329689797436437
0.06365095293651858
0.04670186082555231
-0.0026584379941958156
0.16648639612220126
0.16060740208338403
0.1385406309803572
0.020607107649943175
-0.09159551676986323
-0.28987817145378014
-0.23618489388603459
-0.14888951205442813
-0.003222239166769173
0.2546748019737194
0.2856714345090564
0.13602891787036794
0.02399027457952966
-0.0615458782600588
-0.1514147034198724
-0.08061339953437692
-0.07310359284317929
-0.13232302587360859
-0.04030176447863802
0.03465173752092943
0.1245191698257474
0.2473206938137758
0.1976455925774389
-0.05382881733692807
-0.15100520848926113
-0.1365003128874172
-0.23536361609316342
-0.044632029781818246
0.06756881327973355
0.15356755067270805
0.07198726835722517
0.0731055888014469
-0.011738830857000948
0.02568485593654583
-0.02721418868294769
0.003207311028174363
-0.11392636260791836
-0.005347383478654995
-0.08793658344597897
0.0326260407665506
-0.04119866707727655
0.09504710806428213
0.04092881776698567
0.18617247657553393
-0.09017551570142414
-0.01572540170608673
-0.016963064787735682
-0.11030322263711895
-0.09502423789046173
0.04951966842160154
-0.0385554285227634
0.0893891753106323
0.08318872319770482
-0.01520702567967875
0.02158266394793936
0.003115683378961946
-0.07887922838107628
-0.04824764802306054
0.058955840957021166
-0.0017695140776001793
0.1207857285823395
-0.021498701955322115
-0.07018726749619784
-0.054196219319293075
0.015045152425909102
-0.054314426613594355
-0.03598390315475445
0.10974718100104641
0.02912271343476123
-0.032534902529927905
-0.037383606682869025
0.040157603409176935
0.010761537995851275
0.06987446680827204
-0.00012127196661618197
-0.025447039890678487
-0.03502592965334935
-0.05464728533407749
-0.10290005366024221
0.009918525952606772
0.0798395969238928
0.10551079242491085
0.0849994716378834
0.015221312107977954
-0.1052762322966828
-0.07137754585398225
-0.06692217522660142
-0.06341905377843698
-0.02349074774645225
0.09131148338769529
0.11051607869840009
0.045853263772138185
0.08666502467266846
0.0014255732736802448
-0.054865641565350724
-0.1296498034759417
-0.06159465198076564
-0.07265704391371837
0.03440946265885543
0.07298152970714541
0.0657259131582602
0.0367908953359156
0.0056081083280153515
-0.01625146398665306
-0.025101093178203412
-0.022988501873987183
-0.014707046290397138
-0.005134833459880805
0.0024119196569569613
0.006660495754947374
0.007955430464341983
0.0073843692430136075
0.00592344194460946
0.003940467804007972
0.0011989602234872597
-0.002696683121795261
-0.007642174272091146
-0.012489920516099092
-0.014960097800585888
-0.012239847454039962
-0.002278802770329748
0.014525091843664184
0.03387369363398563
0.04716028499352587
0.0428112607399092
0.009587218947188579
-0.058802398753763675
-0.1593647131913968
-0.07789122322046031
0.008906262764407128
0.12712311051121933
0.09726752409992034
0.12711588141378155
0.008912770639528875
-0.07784033622775301
-0.15924825302293877
-0.05862897515862423
0.009766388157951417
0.042905993608234085
0.04706724349717728
0.03352295056871532
0.013935795243417905
-0.0029558432991243153
-0.012720780134734341
-0.014891841480819672
-0.011585044472288041
-0.0058593295623737135
-0.00040405796297677735
0.0031674178658038094
0.004425728513024155
0.0038235629508147585
0.0022295135408013913
0.0005036722458710187
-0.0007679840814060782
-0.0013559688185932014
-0.0013281012334841883
-0.0009192634291834276
-0.00039684704758182555
3.4546680775392904e-05
0.00027383955164660346
0.0003169736971278748
0.00022254561028032578
7.052469232777629e-05
-7.053183672296418e-05
-0.0001606649649186572
-0.0001904707266560149
-0.00017281069140935584
-0.00013062401235114038
-8.607325072563872e-05
-5.3918711652636046e-05
-3.963435699873601e-05
-4.11113952199088e-05
-5.2100706578006315e-05
-6.568205944587681e-05
-7.666848802519239e-05
-8.258715931404271e-05
-8.345367047683422e-05
-8.085328263804257e-05
-7.687012087744834e-05
-7.325407871675101e-05
-7.099790720745855e-05
-7.030571760162603e-05
-7.081896816281648e-05
-7.193490335091598e-05
-7.308419516631131e-05
-7.389619643884555e-05
-7.424155354206255e-05
-7.418393279087933e-05
-7.388929130326219e-05
-7.353657244321061e-05
-7.325714399462064e-05
-7.311130099723885e-05
-7.309554348674296e-05
-7.31670588070204e-05
-7.327146569349437e-05
-7.336398938441417e-05
-7.341990017967487e-05
-7.343492199585305e-05
-7.341916956230857e-05
-7.33888573693147e-05
-7.335912994636533e-05
-7.333976244074592e-05
-7.33339471827584e-05
-7.333938177365869e-05
-7.335052454461458e-05
-7.33610371584649e-05
-7.336582122526586e-05
-7.336241835956576e-05
-7.335172906826523e-05
-7.333800305375263e-05
-7.332796828389409e-05
-7.332896089559356e-05
-7.33461281364183e-05
-7.33792313633655e-05
-7.342014904750603e-05
-7.345259336549709e-05
-7.345545606885395e-05
-7.341030763967424e-05
-7.331185795100873e-05
-7.317802334759061e-05
-7.30544586812481e-05
-7.300812045593401e-05
-7.310665238339314e-05
-7.3385496831456e-05
-7.381178985735903e-05
-7.426094843115398e-05
-7.452484820927791e-05
-7.436590000254522e-05
-7.361702326569816e-05
-7.230489599888903e-05
-7.074925776236944e-05
-6.957543095317234e-05
-6.9583518901642e-05
-7.145555136366876e-05
-7.535083872924842e-05
-8.052406266151566e-05
-8.516751087104084e-05
-8.668530555324056e-05
-8.251522352659204e-05
-7.141093976890585e-05
-5.482002565475521e-05
-3.7734178246198856e-05
-2.82863385482755e-05
-3.556590175700119e-05
-6.569444980195383e-05
-0.00011708631201345942
-0.00017675648938367516
-0.00022010339532903825
-0.00021629038881379085
-0.00013982372215270338
1.3782282336037482e-05
0.00021360048210207776
0.000387976996326737
0.00043620338808615726
0.00026128185674028135
-0.00018012066714369
-0.0008251700543056279
-0.0014742068370466892
-0.001809714863420392
-0.0014843617687114263
-0.0002747916865042355
0.0017364987456393581
0.004024602390816723
0.005624670498665985
0.005353028778920202
0.0022650213120662495
-0.0037386255815082246
-0.011369940320608547
-0.01778230927720384
-0.019072961472661996
-0.011611693472313694
0.005961299811364338
0.030630446459496103
0.05370776626111293
0.0613548116244975
0.0375811007273538
-0.03049263495231219
-0.1465163713729986
-0.1003656663598199
-0.06774130378706246
-0.015317147166027101
0.08938379834565384
0.2665584669838194
0.11564788058611064
0.013761279196851987
-0.07763494474444184
-0.19995806933369958
-0.18362792896654534
-0.03852991329122205
0.04767273934209907
0.1033040195050826
0.16165120159648538
0.04980877874941499
-0.01858269648953423
-0.044840522416573
-0.041587670836845794
-0.02617777149992364
-0.013804283949936776
-0.01233513964543248
-0.020002975577283234
-0.026236147547358035
-0.01524101918618722
0.028634891139721484
0.1152586901884438
0.04459778009951544
0.005697511723997654
-0.020679751551955304
-0.05660943640296124
-0.12077829402961075
-0.023827370873273697
0.0330829932522239
0.056272095363434624
0.05537802581853721
0.03908939958571689
0.012552194709270777
-0.022808481880401743
-0.06754814848120143
-0.12191951598632864
0.015455636975840445
0.14723180746342457
0.07586782854915074
0.002497559404872521
