0
0.00015896783911240435
0.00026917188062913723
0.00031077507295993974
0.00022345246405750056
-2.46012285048864e-05
-0.00040444471232605904
-0.0008053939319488925
-0.0010421204388878862
-0.0009026483543082013
-0.00023732544055862854
0.0009313134138685429
0.0023198372041138868
0.0033724094363465963
0.0033770289881377455
0.0017264666026394722
-0.0017206599978322184
-0.006298584034355647
-0.010393032574285232
-0.01168697876487867
-0.007900533185360083
0.0020455105264653565
0.016755675450516073
0.0315131622439097
0.03848240919537871
0.028403684124159948
-0.0062775251294983426
-0.06764381411493268
-0.14940250915194195
-0.036555545745307935
0.09135250003969936
0.05396323243888055
0.06299877859569351
0.1172051630361747
0.0015646236966203586
-0.10865792440496895
-0.04036294145967554
-0.014209937875098015
-0.038205781116744
-0.10529838296237397
0.004326469087911043
0.1169267779710599
0.056819621093165205
0.03867156975654259
0.06299538567455297
-0.08383869863973036
-0.02538362687656292
0.01175307686803193
0.005396307317671197
-0.05589946619071772
0.030939403734615047
-0.11609075193991383
-0.06749194388027317
0.01074910338809423
0.14797424158708308
0.1600789228849557
0.0443487191572337
-0.019764676179238907
-0.06385549485799218
-0.12023018146364911
-0.21200492928161116
0.052613260175702635
0.07998234809941539
0.08543444128599675
0.0854314180098492
0.09101168654640833
-0.0950940319318513
-0.07736345881091482
-0.06394452160729075
-0.06298950700122884
0.11943717229851407
0.07963390330353079
0.015741397836167195
-0.07232092852353315
0.0179621568125048
-0.10727013706510469
-0.03816888399835411
0.03722740641032523
0.12999630795785053
0.04725407195094478
-0.00935565489513849
-0.04270796958179343
-0.057277564163940704
-0.05587011141416521
-0.037795245646555044
0.0004963770530230736
0.06256592791264354
0.14840001158359808
0.0521410065159321
-0.037293316537284314
-0.13264193635139693
-0.04350421680172858
-0.17294842607757382
0.08246031530391572
0.12908058073427778
0.17105888800183658
0.006737919367544732
0.028979583098227592
-0.1704820662123457
-0.19499203473108243
-0.03873174449124509
0.11307171866995026
0.0792791047260837
0.07565067928254518
0.10877710859666222
-0.026218648836955356
-0.14354368102921672
-0.06155207710889651
0.0029801193609063693
0.03893875690476826
0.04247210181431911
0.01657299967364547
-0.030409560169957717
-0.08669314646011379
0.06071500660380994
0.023507854304054502
0.00962442253683612
0.021539123738334984
0.055915713307384006
-0.0952355937873016
-0.042372219634066434
0.0039194085683127355
0.034640418220560375
0.0432922700472001
0.02642387138743878
-0.01563103845597716
-0.07773158145945357
0.050836496085114216
-0.01398972848996582
-0.05322736360485258
-0.04916138143861742
0.008346528111547255
-0.08571031544641874
0.041280041347147634
0.1352228409517598
0.3172224599937858
0.29484309868002995
-0.016223379603670943
-0.46335589340976124
-0.42958174229526225
-0.4191140791628702
-0.26541582837845573
0.23610852427805365
1.2788200569377255
-0.40499308702773024
0.42299525705323515
0.5024699705996366
-0.30122020697323915
-1.3531012137699328
0.3990527282952327
-0.3407367372256884
-0.20565207497640342
0.4212192364902568
0.5793599134394025
0.30183382094260003
-0.002899958826608631
-0.3524116253950664
-0.37766174735617614
-0.10523605196362378
0.055989044144055
0.11852273675533676
0.11083011365152715
0.06716184781970237
0.017639218851637044
-0.01806450640301598
-0.03244339740681108
-0.028109933455808013
-0.0136715641221091
0.0007863717813400341
0.007437819435426546
0.0030914191029947882
-0.009967826339535097
-0.024671596646774808
-0.031346025943734236
-0.02119954708751925
0.009394630717255
0.054878139842931585
0.09832883062136524
0.11283334641665184
0.06747661715279642
-0.06255639673840929
-0.28443802966686726
-0.17919528981068503
-0.10088253115460077
0.014213414258287147
0.2300827875618234
0.391012885830977
0.10678018615961647
-0.05089217725299237
-0.13907733954139492
-0.22538103820846692
-0.16783226688960806
-6.167399669216568e-05
0.07401622821314413
0.07583544554818152
0.04115475527852599
0.00668326400771247
-0.0018345757885671204
0.022445819649341257
0.06484159568614116
0.09232745660230755
0.0622987314889288
-0.06440410111236095
-0.10903282685168456
-0.26325356137333394
-0.08480837329484812
-0.10356176172680605
0.16231146219749054
0.18420466847016287
0.40215924156370547
0.01263219208131621
-0.030371881675708243
-0.20116805209721267
-0.18061060146203525
-0.2345949182328666
6.314681048886238e-05
0.1188270700353232
0.14268426283036903
0.1058572174093106
0.04343273234423465
-0.017054335012026627
-0.05872158897759698
-0.07423526513945654
-0.06293741588278146
-0.028585267547409976
0.021032505175982714
0.07290218594000131
0.10763310210548638
0.10045214593865222
0.025780879935443445
-0.13488470167034922
-0.18418325721473264
-0.10298505877325669
-0.05086064032721176
0.025810052060648986
0.18000159423598813
0.24905579864329244
0.04399047223736766
-0.05291675603187587
-0.08155603819069887
-0.09118477777753912
-0.12616185018354456
-0.014861958641232348
0.03532246521292131
0.036343819344961024
0.012683394393103514
-0.008158052431955285
-0.0053305646346179245
0.027635207369538405
0.07872247946306317
0.11830197484526178
0.10576133632097501
0.001410540097575112
-0.21883324092407536
-0.35062365779706023
-0.15579253376072225
0.031698655756567995
0.28885991117616033
0.28132125813089087
0.24402889370632916
-0.02749297239819571
-0.1723684216889304
-0.24890551984567874
-0.11530608173850886
-0.013961058827742576
0.03592478321225927
0.0366273592714608
0.0036314742383125515
0.15487115282550065
0.10158111068942614
0.04381370565314479
-0.02817817027932776
-0.12784031199626075
-0.2647076264617116
-0.039220715703150104
0.15735847289414878
0.1380984733692137
0.11359131686846066
0.08711146228508028
-0.14580310984367967
-0.19369581065104277
-0.06413285188437184
0.03965563525216382
0.11895788355843884
0.17754280865083386
0.019802070355493563
-0.1490655396429009
-0.12098220847746147
-0.08309677978792315
-0.018442888620947506
0.09003115223590845
0.2535915911440005
0.07313349552659006
-0.06126257956591468
-0.16593793370000112
-0.056526944230839836
-0.14179946939762966
-0.0216324222175932
0.1099773393334632
0.25862174052571446
0.023438065913898735
-0.005303958054634497
-0.04370769401484407
-0.10844933155020739
-0.2112968253073442
-0.15778525618749029
0.04781918750962848
0.19229186859602904
0.24244057257692062
0.33977479817354506
0.20629939121132534
-0.23739796897116452
-0.6467900549743462
-0.631034918970502
-0.1444846686308856
0.502977441210971
0.8223080818408446
0.9228086251554729
0.3059811038815617
-0.9186688172836608
-1.4061218265253785
-1.1595320909378073
-0.3479608999306246
1.2347716487173706
1.6874199019906977
1.3310587252413433
0.2885105282826754
-0.6686226908899107
-1.6175217840541194
-1.1635544910054099
-0.5460881360681286
0.39786181996939535
0.8063993650384746
0.7209517195267349
0.40168821147419725
0.059486028496711994
-0.17919804018039392
-0.27355560427715486
-0.24588904463702957
-0.14965197117354687
-0.04056882932616749
0.041861195000075783
0.08085684628471639
0.07940540874684453
0.05231799306245536
0.01756047382663419
-0.010293425242223897
-0.02339196949275545
-0.021008881033742082
-0.008014697718626363
0.007528966845947105
0.01691378195999845
0.013097602529661202
-0.007402200735294124
-0.043285694713388036
-0.08832749577519365
0.06731039459720702
0.034379592334014504
0.02123786072650771
0.031177873520507226
0.06147070005599913
-0.09551894614453309
-0.04968306651463365
-0.010162816068076974
0.01681799733574021
0.02870922997195144
0.026240908697976677
0.012597086124267935
-0.007243845035603426
-0.02688914026001107
-0.039019745689282376
-0.03659429452646508
-0.01516245772941415
0.02394053331657584
0.07055691384240267
0.10449361773977897
0.0978221806219753
0.021492307543919377
-0.14469658742839273
-0.20177110007081803
-0.12518706362940168
-0.06610344645287199
0.03848577895340168
0.2491822904025408
0.20661179977318883
0.11921941970161129
-0.038985355324998715
-0.12000490884182537
-0.1861559453037859
-0.09298866050118106
-0.07659035041152909
0.0513108007808625
0.10032089525717959
0.09310163673512596
0.05578412445403485
0.010552968178713614
-0.027817534272559837
-0.05168240362069914
-0.05814865795982805
-0.04672301293074608
-0.018625946998713908
0.02170859826497321
0.06373346578431183
0.08827073568992308
0.06743391913827192
-0.03159852897401771
-0.03894595630629677
0.027901805971760653
-0.026382404900803087
-0.16885465424356233
-0.13833581100805045
-0.053336186906922274
-0.02770723915762654
0.20888822015691516
0.29126596670791194
0.20653640114378044
0.09479357013415633
-0.13607756334625878
-0.38563305649737617
-0.33457451545210054
-0.026214207291208165
0.13835661464883886
0.19143978685724508
0.18172014081823593
0.15674248470462532
-0.04902546617700509
-0.21833445136141127
-0.14929948506569748
-0.05152230771195606
0.0564161314182598
0.14733328045213917
0.1857348134866965
0.13122832465446818
-0.05291206430136394
-0.18699477652632662
-0.26221508981541813
-0.2339434161651868
-0.02572994225504894
0.2552085061579858
0.29529171023155004
0.15246579414624237
0.042472206694346044
-0.06227299812933842
-0.22206601884279578
-0.11250201113247375
-0.006584611287670608
0.03864719881031104
-0.011222810259055778
0.032354334915081176
-0.023271160927013347
0.04150396255542294
0.05152511725890616
0.030973008412476633
-0.0003923448268407596
-0.028557311235537758
-0.04473742178756961
-0.044205576447630034
-0.02568227459469633
0.00807200734484618
0.048756814427881386
0.08130214001165385
0.08448518669370025
0.03456938002016723
-0.08808261401395012
-0.0911224514292321
-0.16405466988700176
-0.07691694422081101
0.014505178210622229
0.15780189463503358
0.1909000476843606
0.13171468361080288
-0.025463780471759845
-0.10558077031256256
-0.14257762308523952
-0.16777117296404312
-0.0014436813740701878
0.14975209152902536
0.08988828783757075
0.027896742144115215
-0.028312859404229056
-0.07604602562540487
-0.12026129740007882
0.025024919269490124
0.1361407010445016
0.18098737358152517
0.12390542913266953
-0.06479517556279281
-0.196074925739456
-0.2504990185855443
-0.17340687478744637
-0.08130646000955748
0.12005670081101512
0.3104592310827847
0.33107164112650633
0.17044772382899406
-0.03344120167434484
-0.17508961304345302
-0.35342648941951965
-0.24378841586851693
-0.07948655272123299
0.1516045592719097
0.0960153446946208
0.2148888339147181
0.1632818970214633
-0.02470461532935688
-0.14157911781790325
-0.0033716490623614897
-0.04099781500274508
-0.09000098389054753
0.01826340613953093
0.062421115025393215
0.03364268222531911
-0.06437621414173132
-0.017225463886984392
-0.0028984110835599797
0.004081323556999048
0.028046377164152394
0.08799130364388932
-0.005181851636191817
-0.0493427658581384
-0.049877481310587536
-0.017349142527115106
0.034935850510217026
0.0929586936016253
-0.05626368578212101
-0.022936841499416327
-0.01286351257123385
-0.02649303015224038
-0.059221144247466787
0.09694742071677688
0.050919395681177704
0.010229003945357395
-0.020123169151674
-0.037469662713879574
-0.04051734977279857
-0.028637828771267686
-0.002146406359410081
0.036437593527993584
0.08098337333817761
0.12150080732679776
-0.05389171986617959
-0.05481069002569337
-0.0837985775931387
-0.13347480054118496
-0.18812400900830062
0.16935781546591736
0.14680194867705734
0.13256269647138613
0.291003237391635
-0.03247270757972636
0.10344013110807085
-0.543583792221913
-0.38130381831185955
-0.37563720039855814
0.34064813084859435
0.2456293068518774
1.002463097747579
0.44374516972841443
-0.42449937408627675
-0.8004360938531078
-0.85879223257351
-0.5364402595790001
0.4562074386165484
1.1999750319738
0.7246627641123066
0.18224097868601416
-0.34941582905540325
-0.833183247640544
-0.6254007119951583
-0.03554779658511551
0.2921852914910572
0.37281173214521984
0.25833240916269495
0.012071159366051262
-0.11049545381506172
-0.0706165766995128
-0.04642331016811018
-0.028353187671802706
-0.01357920402467735
-0.0017067264174366822
0.00747881123279874
0.014445145494362148
0.019288882183087643
0.02095398339610517
0.01703087029619393
0.004494737864124376
-0.018756310289487686
-0.05218554120444522
-0.09162553950024138
0.07023185006005442
0.041761385371188044
0.02954095336442745
0.036044398450451355
0.05902615692356513
-0.10712185073691334
-0.06879580876886264
-0.030831239080196297
0.004274567492740771
0.035161545529852775
0.05927584166707902
0.07109373568764625
0.06257196180248793
0.026624192333411713
-0.03704635227122309
-0.11605814789841586
-0.1829050688627915
-0.19956054865117992
-0.1312407300481361
0.031761182416064966
0.24953184197087366
0.4145963715636657
0.5516052852135965
0.4434222137158257
0.08541755581454576
-0.44093294399752453
-0.8954420594526636
-1.635249435433841
-0.8254359663776568
0.08367927332761958
1.424487390773282
1.9628454899470014
1.7835886914524286
0.05587782451155556
-0.9047010704740701
-1.6981068649530897
-1.6761503609360218
-0.6106107069498357
0.5666927420686365
0.9436800471804676
0.7499524870202712
0.4589489444765506
0.1056767739745504
-0.15966926113837035
-0.27949554424155204
-0.2681476441541026
-0.1782967033565991
-0.06861588725104682
0.018187224741930068
0.0640388239068881
0.07279907627013908
0.060763928404995636
0.04541392088363797
0.03645375433167956
0.031514089088415
0.017143777253577706
-0.025793045398250718
-0.11436417189104403
-0.05617393812992998
-0.04494748283737388
-0.06072016325325607
0.12541268716589749
0.14376469010623244
0.018569008907836436
-0.036879874497097405
-0.021330827859208097
-0.14362640406924657
-0.01945403265000544
0.1316720636543219
0.0888122968736305
0.03207494854529165
-0.05412352081078834
-0.17743367780938582
-0.13532337761908572
0.08385756927456507
0.09597890544715561
0.11412159067008111
0.14269168135111873
-0.024435759111955335
-0.20084010327455007
-0.0011464623767342777
-0.03444643660734659
-0.10054493189046228
0.009491657809056246
0.10891314417290827
0.00898609448118307
0.11366687149085758
0.21793066445515763
-0.08885241196672437
-0.21530140083383778
-0.15937595100342722
-0.10319058382478366
-0.014791962143841184
0.1426834846854842
0.19761919932817726
0.15764979436577073
0.0036571585070965655
-0.10733265888753006
-0.031251920176904736
-0.021825908045537613
-0.11593712382201767
-0.123746884656939
-0.026296393813619066
0.018708726914160617
0.06452708228525007
0.16005672602635032
0.13617815126312333
-0.002185824823267174
-0.07628202930147543
-0.1267119469949888
-0.0024215897273055036
0.05108793486397436
0.0017900159742210836
0.03818068847157565
-0.027119333145653103
-0.15768269699636875
-0.09821699830458551
0.015495428400469522
0.04261623644709883
0.2221633500941257
0.16126216593525092
0.031066892467740782
-0.02742730349078088
-0.08881731203757808
-0.224210042629671
-0.08334121809339833
0.11709051828046689
-0.003739358322708547
0.0034012147421550926
0.005314273153915672
-0.13034016238132798
-0.15368954955457334
0.1493145594283676
0.14312333286192067
0.3381748195353085
0.4012286746086276
0.18346963707031422
-0.23612301736835356
-0.5020618966118696
-0.9445230079873183
-0.5699568302117954
-0.09131017184170523
0.6044682460708691
0.9698220066066076
1.319954491010373
0.19490136451990095
-0.4240766582294581
-0.8491358433824164
-0.7959849678539039
-0.7020310124309966
0.12100845076214929
0.4895916034371695
0.5133615660923073
0.3419979195017076
0.11518107415388236
-0.06968738230140765
-0.16754921613181997
-0.17773125426210723
-0.12656456792299428
-0.04922161285856453
0.023448302981717982
0.07112090314040201
0.0844262568830112
0.06239530005169002
0.009637906483150471
-0.06530145754590212
-0.1505942640643812
-0.03204912895636887
0.10454365471598294
0.06972918014410324
0.06689101374149349
0.09095327923742247
-0.06960338933272
-0.22804570809766608
0.005810372837788561
0.028790927943282106
0.04422930981972711
0.05907012642389181
0.08003319842305823
-0.08936252075848057
-0.05007917532918118
-0.007402668039244089
0.029903413694013826
0.05068921162219314
0.042918295933473356
-0.00405117919013659
-0.09647206177483648
-0.03331537106276748
-0.004712714945593731
0.007354704043556035
0.02611046665903779
0.07566849158971582
-0.02336971958878483
-0.05735902705219553
-0.0216508041526495
0.07873312128634376
0.029726830705954752
0.010298314307769865
-0.003940277911545651
-0.03606442418127408
-0.10326560592533383
-0.013815180575023457
0.033400665091712106
0.04673260892982829
0.0380416630791468
0.018961076565473627
-0.0015615536106391066
-0.01796056150371865
-0.02735621902568247
-0.02835530598230104
-0.020287513728919446
-0.0034499425806653237
0.01968154751220073
0.04294216195078516
0.05573001681393743
0.04403289622896162
-0.0063377315599207635
-0.10486925743985517
-0.05141036903662735
-0.03323172266695426
-0.02568878798372638
0.003149696996152923
0.08499901699272382
0.043163005676981586
0.08619452518309917
0.005463873366160592
-0.02254788204396458
-0.029954068371935802
-0.049158581600986975
-0.1050947469838575
-0.010268658135264662
0.03615176244416155
0.04538413612017242
0.033675767584868004
0.016583962697269167
0.004657223412645547
0.0014853848041298423
0.0042421543622951615
0.006229975264419963
0.000583195011890156
-0.01590636113437504
-0.03998598514104407
-0.06130233400155705
-0.06481331915033221
-0.036471094445807734
0.028738590698043104
0.1187150498578175
0.19958956574741774
0.218155449310363
0.11358030826364189
-0.16267370527288247
-0.42411132101869153
-0.4325084332091625
-0.2963679981652295
0.11075176035705829
0.5153646553883996
0.6041936304318931
0.39486804543358184
0.029693435613326775
-0.4042884140464955
-0.6369765949565764
-0.3742763559868283
-0.07042735434847495
0.2775699370314214
0.31490886155491776
0.3029787880408989
0.09457209566331794
-0.08081399644837364
-0.21899306521925477
-0.1336517561900718
-0.04551798658624621
0.026479455714922114
0.06952491778224727
0.07714948392461003
0.04747742859639214
-0.018439171843919758
-0.11726172532445533
-0.04337537303969302
0.010704623566345434
0.05294191685768314
0.08991332323934119
0.12581478265210025
-0.03648705804658478
-0.19245179934086196
-0.1326752441050272
-0.0421254354952823
0.09648766744583133
0.09585680436923137
0.15671018496831815
0.06371730695936657
-0.012709654964492102
-0.10858452128950907
-0.054942591582640025
-0.06685898442635425
-0.1368410120374521
-0.03514727110109065
0.08257419241928253
0.062266700202276946
0.13683685070547694
0.1143066562739819
-0.027808511506426003
-0.14060432844143902
-0.09548764464832842
0.027948068941914254
0.15545406957885308
0.23190516136760028
0.034971305844623095
-0.4126204698712247
-0.4358779465671452
0.4894480005401575
-0.8799884747295119
0.21510692313833715
1.1005160962186442
0.4368670566960454
-0.7960883437932589
0.5067167414438473
-0.3993987062859224
-0.6754806957649365
-0.06891670404903187
0.30507379261220896
0.36901597912158196
0.2810480770474157
0.032899622638926644
-0.14725114349922946
-0.38851704821591654
-0.3743190134518851
-0.15041339243066046
0.05215448025092245
0.3822457019253455
0.5318686774988968
0.3105080051156193
0.04106035436825623
-0.21964050732033236
-0.4420266303185232
-0.37984181568895914
-0.13543935267502674
0.05575173357667695
0.21956026665256656
0.2217398125320761
0.14068381115919334
0.04370513853110016
-0.027069251316796106
-0.05770229569696941
-0.05657677893336837
-0.04378309182299175
-0.0400555481242205
-0.05858435152180362
-0.10158892164680451
0.03803686077030332
0.17130914822457688
0.10666470496070002
0.04560258408927017
-0.01731900980275935
-0.09011652804776006
-0.17692018954062358
-0.07283383652094944
0.03706647313677635
0.17382102713661085
-0.04263460518359726
-0.0010278905411982644
0.096147090458679
0.031644486893576525
-0.022965273016870975
0.10016515912588383
-0.025241961008854088
-0.2106664408224488
-0.24807175627280553
-0.11266881876606648
0.025556935300018534
0.18402133261144135
0.3499686701075157
0.47192546977248445
0.2675931366370678
-0.14984491303537742
-0.6332817585250673
-0.7651969455933791
-0.44015672493757435
-0.07839980603088588
0.5293684589058747
0.9597960005616107
0.7002729358266235
0.120165695577974
-0.3187075987200473
-0.6170841240426513
-0.5769867723863921
-0.3472102318244977
0.006529107111659819
0.3003990043422364
0.4060885515434283
0.2131132282503865
0.19490453542640016
-0.010757551772542848
-0.20376250608075605
-0.20970703652411968
-0.06141183371102452
0.01838482156258834
0.028015916402238553
-0.01018864382838699
-0.054305641597554626
-0.052715785929683866
0.042723709263502475
0.06287721599703976
0.21011001119683428
0.05296958248329179
-0.07093163568252112
-0.04370799688666211
0.05001876981165273
-0.05753821923909051
-0.00011733582934742838
-0.16622908981635323
-0.2972769586305793
-0.0969894438572234
0.14837352238658974
0.3433941408105802
0.3583702546075366
0.21449628090601242
-0.11509146434509833
-0.28930166758533143
-0.5756244993607335
-0.23001554477881428
0.11120690264043116
0.42559778045146307
0.4909910631445464
0.07445944807453887
-0.06758508727239865
-0.17621486992054966
-0.26919055799067
-0.32223666429273473
-0.06166441543000537
0.026636347869471534
0.07290191120680727
0.1905475364251318
0.2444590166135073
0.4305547767703742
0.07378638599376103
-0.15366252132765976
-0.39899217822627003
-0.39094759441746624
-0.21006870283553836
0.12381353944253788
0.2447988656206764
0.22016394635410044
0.12507047443894584
0.02173679150642701
-0.051728288594584046
-0.08230561938844226
-0.07578365884172819
-0.04749422106766383
-0.013846608975269315
0.013112146929149323
0.02761967109658011
0.029406779383048833
0.021579140745573572
0.008475161451349142
-0.005710760483341365
-0.017396016535470692
-0.023543483846457307
-0.021664862728147542
-0.010388659958794481
0.009296913040890318
0.03252393800371505
0.04956425839837928
0.04631312599017908
0.006808553345170829
-0.08243141346376737
-0.0274083956111473
-0.022734425998838764
-0.050457427469397825
-0.08247992274906976
0.1137079470680591
0.1674266868785876
-0.10241947675429575
-0.0920265460758733
0.18638277717769322
0.10753155370916566
-0.1605749399043441
-0.048161141667958936
0.024796554920827545
-0.14567721798509567
-0.1467271233931244
0.046503017831603995
0.2616375702456797
0.1186826083903623
0.022651165450891457
-0.037780590225299227
-0.08536988339905673
-0.14571338789839813
-0.03877087032599826
0.0263138533987018
0.05180680979329517
0.048180616075542235
0.02916982296652189
0.007219987504842629
-0.009320315909977905
-0.016946260527091993
-0.01615333615107847
-0.009821735310836499
-0.001587490195372369
0.005340271639468681
0.008804010605086326
0.007900287779364487
0.0029763242874611237
-0.004437374422135826
-0.01177216290271019
-0.015795327537435764
-0.013391635239019562
-0.002799422485896493
0.014923046670777096
0.034739723412126215
0.04752465192955295
0.04164046530036439
0.006356689191984879
-0.06359770815842741
-0.16398368022567067
-0.07961770924449467
0.01287571787676551
0.13825429964658806
0.11407681633548812
0.14397788656435984
0.015996801668992283
-0.0929840614632504
-0.20847372503559122
-0.14915398407737795
0.07875228775593687
0.08143249102889107
0.07258243045091366
0.06660375891433407
0.07312739517718646
-0.10522504487108084
-0.07183140251037733
-0.03329457725707041
0.003184715521154241
0.03107718711045851
0.04443658371937017
0.037349259251489596
0.0039582153211642655
-0.06042947645258373
0.042566560547626954
-0.08376078060470026
-0.030429474089416684
0.01629654671591833
0.07226867059866898
-0.04815762470235239
0.06445850915559428
0.012507797117775783
-0.0088892339441677
-0.010136549301237514
-0.003935570857466643
-0.0014235869840356745
-0.008632722192031558
-0.024132267190822947
-0.03853324391374315
-0.03626498603723582
0.0004142253668660735
0.08587358233164444
0.02543156727794365
0.011289367906607978
0.02153012031408222
0.022815618002367068
-0.02354019048730682
0.04677717435520671
0.010039892586961934
-0.13803743011214475
-0.17861096244917715
-0.07189268280210875
0.03401141597691492
0.18925224925329967
0.22762040398881547
0.1565949507020208
-0.04380437613166132
-0.21272006679739913
-0.19409525977839895
-0.022016215714189498
0.08894591521624202
-0.05419596199714514
-0.027918041608475795
-0.0020502562096006162
0.04866000918510047
0.13466221184841054
0.246808964508836
0.15931130418648515
-0.15910291701187798
-0.3289133376536886
-0.34493175924251535
-0.17034879982553167
0.05570303138037148
0.39851343214275087
0.5037138310797582
0.1792473287554074
-0.20854545495354318
-0.3234160045154119
-0.23826899985102168
-0.2144348954956193
0.1108954479393048
0.32646570084459436
0.240928304442906
-0.12535097694754527
-0.14627003455148427
-0.1930189313297839
-0.03636199176876983
0.14952584979167788
0.1816335364709133
0.06346078224944599
-0.01597173797930943
-0.07823167003492422
-0.1480594304189214
-0.045522866322484555
0.01918647446638451
0.046779095164642806
0.04617831759195335
0.02993921653976772
0.009826426795088368
-0.0060579090036651595
-0.014169531548454661
-0.014803346723393519
-0.010518914571459504
-0.00447890479764181
0.0007703393402666211
0.0038693853146017382
0.004633299600032969
0.003676670215815921
0.00192709154127621
0.00022004773936270197
-0.0009283757851099482
-0.001365468119299634
-0.0012162503267322254
-0.0007425878741061895
-0.00021132195981290436
0.00019074714294740596
0.0003857071600231593
0.00038883763405882563
0.00026962044714273054
0.00011016816637318169
-2.5018871653651662e-05
-0.0001026968633311628
-0.00011976541103157613
-9.316360881942173e-05
-4.7227704429554524e-05
-3.3846909211199356e-06
2.5462128610904608e-05
3.5827618365300467e-05
3.127318678256543e-05
1.8707399504530015e-05
4.9996302249259365e-06
-5.151974114600587e-06
-9.892810045112848e-06
-9.748738525727048e-06
-6.586512836903535e-06
-2.5317828596630517e-06
8.022218033452874e-07
2.6457714581388255e-06
3.0155639402556473e-06
2.421543923629971e-06
1.5084566589700911e-06
7.657829150270336e-07
3.7854094483420176e-07
2.3198211699688932e-07
3.897050328020788e-08
-4.676614960219909e-07
-1.3474297224774918e-06
-2.339140374549222e-06
-2.8801824715693764e-06
-2.2868981784943916e-06
-7.5804892487073e-08
3.6592655150421414e-06
7.962880066048463e-06
1.1009138363408497e-05
1.052029546083285e-05
4.645861642342612e-06
-6.8677569165049135e-06
-2.1624518018733725e-05
-3.422660266853459e-05
-3.719936627474677e-05
-2.3475804503944225e-05
9.880295878094662e-06
5.782863086752893e-05
0.00010520745760341649
0.00012833261949618186
0.00010172456422628569
9.623952206003119e-06
-0.00014059996817126645
-0.00030865715772290884
-0.00042208456407563405
-0.0003932813056296574
-0.00015388633365973273
0.00030038359992210926
0.0008704725527203613
0.0013429053644339365
0.001428736528097427
0.0008624119965904074
-0.00045335907421184963
-0.002301398343127699
-0.004073890381221269
-0.004844821947160534
-0.0036426137956315275
9.285580013540322e-05
0.00598215828520475
0.012316841215308624
0.016064470571484798
0.013467715653013981
0.0012472354469666009
-0.021883808913685996
-0.05400117948046115
-0.08979988298813911
0.07801988302146214
0.05602523523196933
0.047089538219515344
0.04874501858514155
0.05394332329548314
-0.1458755253887383
-0.15684224302237426
0.019990890489347345
-0.01165156560898953
0.15350435973437745
0.11802471295093192
0.07916127853589207
-0.17031268604650443
-0.03810529135449691
-0.12748669807352261
-0.03427286165568788
0.05256716621394878
0.1469999131311894
0.06080635352291013
-0.00011535854908481642
-0.03633532993932163
-0.052450872768380154
-0.05320267573795998
-0.04022013542943741
-0.010923869217260927
0.0400330438889594
0.11761341162626143
0.023117596136880608
-0.04772591626557265
-0.10471645220936693
0.03828884499825604
-0.0347367078265824
0.059738636801783464
0.1066163218294158
0.09474572621836168
-0.17946072185660575
-0.10828610282926475
-0.07091714106876229
-0.03572141159454272
0.032793832473914354
0.1640404229803428
0.17196168824846114
0.050105937383890777
-0.02637745471839783
-0.09213712497071735
-0.1795809157789918
-0.10810096790396914
-0.07876610441307691
0.12362244730965172
0.12232702798088005
0.138045240254085
-0.019682406263775425
0.04415314654170456
-0.0873896949766714
-0.036245028447118945
-0.020874070294764603
-0.049265877326132274
-0.11562060376370488
-0.001728079361052089
0.11737372315273842
0.06534239077319227
0.05695836781341326
0.09382117840315449
-0.03519654889007013
-0.1491751219109845
-0.06820731650599055
-0.007168211961483908
0.027582303563218023
0.03796026927995192
0.03134282749552054
0.016860905195715738
0.002292224317477209
-0.007641268272078077
-0.011500664629790859
-0.01031103331016165
-0.006308211942807244
-0.0017852800637024942
0.001647250367522005
0.003313413327762623
0.003338706569848788
0.0023157867644709854
0.0009474163949313299
-0.0002135654334736778
-0.0008818082120011525
-0.0010302527790924173
-0.0008036496690348496
-0.0004102160515959667
-3.333215402838125e-05
0.00021645832322457104
0.00030891836912383733
0.0002736209609939469
0.00016825302405062484
4.992235055069318e-05
-4.242608285229205e-05
-9.285972549429287e-05
-0.00010369008379667066
-8.635493850810926e-05
-5.298873243091258e-05
-1.190927268459785e-05
3.21745219952163e-05
7.463492439728607e-05
0.0001068878876511248
0.0001149448787293155
8.272961578353907e-05
3.4742631853667464e-07
-0.0001251135861275869
-0.0002611177079218976
-0.00034964870846295875
-0.0003206265588083884
-0.00011974919694425055
0.00025494926481173594
0.0007211238600111382
0.0011033789329980674
0.0011656600873359837
0.0006926929861839642
-0.00039124584418616804
-0.0019031676071296383
-0.003340465178161907
-0.0039424702045932
-0.002916193622051653
0.0001874284076226137
0.005040039141863972
0.010216178728116917
0.013194199777105203
0.01083544355049032
0.0003409170922560741
-0.019563829262389167
-0.04771926963545744
-0.08050502995303366
0.0869335877582497
0.05846885832408174
0.03477953527370472
0.01239542002100656
-0.01530104173812564
-0.055461053901250744
-0.11277807153618304
0.012427266188865546
0.1241991151214071
0.029286600180734555
-0.06503291508584881
0.04746336947484272
-0.028672643501781215
-0.09055313847865089
0.0631153830076125
0.031865242952946814
0.013242425908269219
0.003020799944905396
-0.0037751108225132167
-0.011145710123013639
-0.020254269314303852
-0.028183258964093752
-0.027959390415684526
-0.01013414843551619
0.03435466946352878
0.1109248468621326
0.018939117592401362
-0.04884934698862067
-0.10486310984587817
0.03585482095468593
-0.04191728638206935
0.048028027419139564
0.09428952445477932
0.08893639712232751
-0.17073600436289485
-0.0801403723726744
-0.02636083139800279
0.010447466187024385
0.05294325320338018
0.12104428264591398
0.02710841393926494
-0.02625671105980263
-0.04510792249887977
-0.040625660553595365
-0.02482497413643578
-0.007179884415664234
0.00690637276043068
0.01575798593918986
0.019868763933766062
0.020088002364123215
0.01642962225549809
0.008028391443515326
-0.005733310578950253
-0.023412012367184872
-0.03986270551751429
-0.045740246101259756
-0.028846419419531026
0.022632504061743924
0.11585397378459532
0.049631220295565694
0.013067577706081208
-0.01253304341312079
-0.048911958928719294
-0.11495653467046323
-0.021861271978547613
0.02893135318707752
0.04453561725108408
0.037065085646061854
0.019380561488162105
0.001703362017480849
-0.010064029977940024
-0.014293606659959952
-0.012415844269639912
-0.007277591460958571
-0.0017033912105475669
0.0023878120607299324
0.004250590380861723
0.004113563554465801
0.002748793395655809
0.0010300727396884873
-0.0003778806226035603
-0.0011505444791480924
-0.0012802550885047598
-0.0009625204239477482
