0
0.012364848940972475
0.12428499509140938
0.024107609386456005
0.10689942182326176
-0.02656874647586731
-0.16666090137252026
-0.29360547739679127
0.01929352928903785
-0.003187653770669225
0.2493479582521896
0.36213995273561783
0.2926953583696131
-0.019261931122697595
-0.2303868816657477
-0.7684250085186916
-0.41479234292859946
-0.10545189070976299
0.4470502447670378
0.7182595529517525
0.7391777203773375
0.08264876830712233
-0.3234311635253764
-0.9617493165475153
-0.6869588842669582
-0.10221120365899887
0.43778307993761034
0.5999101021284065
0.6368994428819896
0.16107264368397894
-0.2602229760100168
-0.4870890280845237
-0.37778600072806184
-0.1624463886633878
-0.03141570883980239
0.2581232841032993
0.1618890877331704
0.3243405867927381
0.16088636473376297
0.05328679118493089
-0.24065428886237494
-0.16785003514462168
-0.3596792557545339
-0.2195212541259201
0.07657134623266197
0.36660123494783997
0.28321563818230794
0.2377228271277298
0.21561218333017146
-0.21391041613729986
-0.6789845002828025
-0.38676226351217424
-0.11632927617368381
0.1718414847018861
0.7138280629011275
0.7195147415952368
0.16292334318136198
-0.4068394171315275
-0.8380725807413416
-0.7469138967526299
-0.10278141979961301
0.5617402819475645
0.7207854370609756
0.6205356033872773
0.0580121678715932
-0.4165143400377714
-0.676338619395101
-0.3876038931322447
0.01345928378978296
0.3261242272525983
0.37452355303691465
0.18946781660626727
-0.006994937282115438
-0.20809111875960243
-0.21988114403082032
-0.0541985820671042
0.07806895594275838
0.17079976562224375
0.22405744148420823
-0.1550251807730456
-0.35113265011796607
-0.1409086808281838
0.10326138569182369
0.20536998617855598
0.3768932990696712
0.21209715914275667
-0.30872688999708375
-0.40901411852730946
-0.30442635273348684
0.0027482480161009452
0.3196845749085116
0.4522881536527552
0.1950329394272091
-0.07142475407527667
-0.37265409426643886
-0.3271887223413974
-0.13569144124035012
0.020595664056863697
0.1705311348684489
0.33739539930302914
0.325050563571495
0.11371996692367004
-0.1311895077015949
-0.44028849676021165
-0.42011224582935863
-0.24212146291117423
0.1524227322749572
0.43246867422050617
0.4505141351634262
0.22135655100860718
-0.08417843753294776
-0.32824925021582485
-0.38350825483286377
-0.10942961834376634
0.06311822345769223
0.1347654308772923
0.1297347719924658
0.08264190337175613
0.02591491441340794
-0.018276793703509226
-0.040465915508185804
-0.04179592525765665
-0.029569240711387727
-0.012606746549427447
0.002104918691070958
0.010919475393644192
0.013402081956466002
0.01121176242191442
0.00672478046312305
0.001957194409131429
-0.0019429234402701932
-0.004644473950251656
-0.006231103598877437
-0.006737153124403002
-0.005883720139400157
-0.00316577061535143
0.001718464433468038
0.008272513355950096
0.014747331269400272
0.018173814174000692
0.015133554425480212
0.003270748252174652
-0.0168209875946152
-0.04008984362220345
-0.05688417437336577
-0.05506089168770442
-0.02464232563870272
0.03572322033878618
0.11248714538665909
0.1740453749211869
0.17363700908737023
0.05977635723405715
-0.20723067504981543
-0.43768034883077345
-0.2011499895001172
-0.028119975970623677
0.17314832424377458
0.08832433276670125
0.3660482237518732
0.19450157020561967
0.09346790131960549
-0.07508566485054097
-0.08081592659245039
-0.29109764529827975
-0.4397035686888906
-0.2073820151524933
-0.21919563408481882
0.3437069478570707
1.1281299309237278
1.403920041137512
0.28277868117000404
-0.6397351421875672
-2.440532770321179
-3.863022096565401
-2.187614121698008
2.6123197590019287
9.073981268988017
2.9022031024862205
-3.8230945765051776
-0.0531445192889377
1.3533005107249179
-13.440644869216307
-2.0505332245093135
8.109269190432682
2.7862494463342125
-3.0735903075658917
5.725495358834939
1.4079645133260463
-1.2132295394084576
-1.603448314637008
-1.8568296292209063
-1.416580517432811
-0.44865722515769013
-0.12190584684309635
0.19318459283506362
1.0300324557474618
1.0797091257555635
0.6418444079678549
0.11244939544211587
-0.2706631990357537
-0.42576603774426464
-0.38553910912407163
-0.2394246474678382
-0.08092532235568821
0.027256945569768497
0.0663192689271047
0.05566516552445381
0.03507904739705548
0.042324496393540335
0.09296009774009388
0.16773104992303428
0.21114304339597867
0.14249123758657992
-0.12269985578502106
-0.44695203744703593
-0.4503891055211735
-0.505608423714106
0.8463309670052865
-0.5388664674150001
0.14840981279977958
0.23643799615756234
0.9613070069912563
0.6953660539556547
2.2240214817374717
0.4665540719106485
-2.3862014096027635
-4.772240928018487
-6.168978430454924
0.13020664566757145
6.280407184993092
5.08732333285074
4.909791034057021
4.819231686433373
-1.5135420186853863
-7.263899203911117
-6.010667205583054
-8.841584849459972
-1.006334335725353
3.8079599396528985
5.867035101307781
7.265755991554584
8.353918434443877
-1.087573858991886
-6.26154165157868
-6.864154633180375
-4.703635602061732
-0.2504266045857162
2.347876240041324
2.9822260509435976
2.3246706379455135
1.1299184413906471
0.0034325774315788864
-0.7123249601420505
-0.9372201787088282
-0.7772580792321317
-0.4219832070676577
-0.05536721081832873
0.19850485283224195
0.2921438611085253
0.24337304010602706
0.11014966556815388
-0.03637890446078456
-0.133693093354746
-0.14292288957148944
-0.05839466133820647
0.08683783010052185
0.2198561162170488
0.2335266473774775
0.2016931437478092
0.004409323592865087
-0.24074609653452816
-0.35015335108395407
-0.6603022530267155
-1.0392832396589902
-0.12741049846051283
1.2018906506363025
1.9850165494995864
2.5485255095065273
1.1535427893827501
-2.297898380783533
-5.539543204675341
-6.879160925412599
-0.6705519758856084
8.871479012900219
7.6017703443591795
6.080038190029875
2.250282594429708
-10.013837024445944
-13.03237347995559
-5.748175223722764
0.5249540569767857
8.572340883305788
11.900431324018234
3.371112557423229
-1.1050209884803133
-2.9069037911484474
-6.736679446197112
-4.129487079057786
0.16390060281147356
1.7940308665335665
1.2058002581719702
1.468845307569445
1.2420509641813626
0.5588099314196058
-0.11400953480944985
-0.5278871148948256
-0.6296701037343471
-0.49490867294105667
-0.25106740955939577
-0.015798631375618866
0.13768540137613788
0.1883085031166371
0.15584043623291394
0.08108420321913438
0.0064258337073004705
-0.03796647722528861
-0.04064885425500692
-0.008920068118503117
0.03588470348970891
0.06615511560527325
0.0575109369832694
-0.0013214136091235346
-0.1003530437007476
-0.2050095307747286
-0.2612305040446201
-0.21153893656943062
-0.021468967104054937
0.28921641396447356
0.6213080868921351
0.7906206065951887
0.5535903032836013
0.066466519754337
-0.8339255826344545
-2.1550146643368633
-1.9140124172406967
-0.17186242936363288
1.2623339713431974
2.6903417586984624
3.609275862341124
2.0846936605724085
-1.3586068216821616
-4.758813667647198
-6.941352721369297
-4.654511937253587
3.317602567730239
11.498231599560807
7.254883467822483
2.903405691913805
-6.722098341913713
-8.287058811145872
-10.351908469926377
-1.3675900219182986
5.402065135294427
11.274342272593561
4.047565720662646
-0.36525160601699147
-2.4254512567326563
-3.7804369718598454
-2.712721345301368
-0.5775920022612513
0.0533009370081532
0.0915432627327435
0.6856882523871908
1.2780374056977057
1.0260143802261963
0.4433926865600293
-0.10212464554640076
-0.42318516689181074
-0.4896828925350709
-0.37244309559815536
-0.17995102417351883
-0.007829115824640898
0.08943440279045446
0.10434240380613309
0.06559085777719827
0.01847656774458285
0.0037310378367430112
0.040193422976226724
0.11496155891483105
0.1832884592492077
0.1791028200589453
0.03489355655752379
-0.293517664109263
-0.6053327642085716
-0.2461427941399889
-0.32005839001741965
0.07650407492956054
0.608146391369796
1.0582272117282048
0.7114200366546916
0.5758594026042483
-0.5550837851686563
-1.820882235403567
-2.226961662590432
-0.8297547204399582
0.6077657237850368
2.3058798066010002
3.5532727419848174
2.45101391367909
-1.441715127886826
-3.1675944714225985
-5.000512162348795
-2.136226137520684
4.285493268776287
-1.9794908763850576
1.884363883973547
5.543356648249779
8.234281585630539
-5.125286145844985
-5.250507552590381
-4.333071267759344
-3.7783242322879795
-6.5762609740096165
4.849253913587198
11.994663939610906
6.217453026147572
0.2693128380837555
-3.6555755572884174
-6.585074865585931
-4.103843642368687
-1.754398235120492
1.5568231788823776
2.7165543541337
2.3900750815520357
1.3474741602308327
0.23476873388503217
-0.5510859663621372
-0.8766405049471812
-0.807060964132571
-0.5079915030499973
-0.15506878114791078
0.12453575382673611
0.27271684949819464
0.2912876383784364
0.217687655484397
0.09968490393085407
-0.021764107884112278
-0.11880428078957508
-0.17488113778507047
-0.1805297347105797
-0.13238884262276837
-0.038510912257870754
0.07100322673718298
0.33316681449233915
0.44895781276959157
0.4956595836642363
0.15841290534523136
-0.22338047383761586
-1.0092292953251851
-1.4325289304697448
-0.8197102143862688
-0.26445016377705355
1.0543443288860583
2.3473861732988404
2.13567687129318
1.266215305566833
0.24399097050619173
-1.9435917536430998
-4.3790981653476635
-2.6388023351986685
-1.9715300823571418
0.1336139060743471
3.63071224088488
9.360020629638566
0.9884496608578841
-5.246301823825487
-0.36757693068601904
3.459309540891421
-7.727023933987524
-7.63363821462956
5.155502318139669
4.643783278052313
-2.4608811352071385
2.540733059355669
7.716748968930432
-0.14802216592693762
-5.818639751517322
-4.347635536676139
-1.5960401816902743
0.7475120678515919
1.792343698777778
1.7360214659595938
1.0896881707034058
0.31465178558134244
-0.27989187526036086
-0.564492886920533
-0.5578447329677513
-0.3650728602894242
-0.11429145775183057
0.0899089908691801
0.1895073941447664
0.17562397095601565
0.07821109835564234
-0.04963841253001274
-0.14813792461157937
-0.16658463051141043
-0.07864571798277947
0.10342091709573124
0.31863775020971213
0.45666201368586606
0.3720836639252995
-0.08465752764888715
-0.6254031992727892
-0.8851354262392823
-0.8031140764133768
-0.43733234968976975
1.188146257354799
2.820897719635501
-0.6676353055155372
-0.29020630118151297
-0.1074647603047769
-0.9671262933273458
-2.052255075231193
-0.46986267839008244
-0.6942843701583468
0.9471682954281285
7.787872455678089
0.5920608050152576
-5.177530376104794
-1.4040828220627901
0.6612906055932244
-5.886477419237979
0.3833679635596494
5.495911354641018
1.4451807686700215
-1.4342571616726758
1.1775279724310255
-0.25653605744816177
0.9391500124097615
0.4091715124773141
-0.8279302360544905
-3.773774675722954
-1.0964005317692804
0.7279717433358895
1.3646786704949168
1.2886870693771808
0.8247834356964949
0.2140327844870784
-0.26061896168588955
-0.48456224345760185
-0.4740379970474373
-0.31694588201181484
-0.11613745104617067
0.04942566891177889
0.14089403249442495
0.15682560991411496
0.11961842354930412
0.05950392904832678
0.0021658176661824673
-0.037349726033796916
-0.05480077178644608
-0.053228188191885656
-0.038495895521124805
-0.016072766600793768
0.00993660332654672
0.035777838782716814
0.05628118169587523
0.06396940876479869
0.05036782190569352
0.009899047876411526
-0.05463101450620247
-0.12734561815468323
-0.1786441594091002
-0.17151848752454835
-0.0759267303589343
0.11098211740979204
0.34491595873245456
0.5238463405979136
0.49591393645105813
0.09059892430643879
-0.43079887028288366
-0.9197927801486041
-0.9022415496206533
-0.5778202940984937
0.13245167568374544
0.6986970178663316
1.2810468554515058
1.0514147880627518
0.5712460614972568
0.4411407879572536
-0.5871921934882753
-3.2712583507476585
-1.3600407865965327
-0.14386256255461038
0.9088559696109566
1.8477747816425487
3.5212578376076658
0.29928603317301317
-1.127605793356905
-2.683848874670013
-3.0307393403184277
-1.5406667497053295
1.4344670501097228
2.409907010906288
2.7902480813230404
2.551095917723385
0.0466794838912715
-2.0403987916547814
-2.6507528129433564
-2.2861412453971552
-1.223327346579851
0.9394993562090441
1.600334625495769
1.5801076740342779
0.9276640796733133
0.16568932779772672
-0.38765299053163693
-0.6198039732548358
-0.5705743250170586
-0.357186923022602
-0.10630657288444
0.08993047161006092
0.18995696622217229
0.19676310028206642
0.14026849247813666
0.058203795710192276
-0.01776722897390118
-0.0683026842956619
-0.08622304875927554
-0.07305708695926168
-0.03551941155892955
0.016091493884982214
0.06740381243994684
0.09881444345700426
0.08581631438172495
0.0025209165973246322
0.028601818993163143
-0.042084840405543285
-0.1946786146133043
-0.19263531465985134
-0.18702120701613428
-0.33730043983879837
-0.0409324523537706
1.2364112362839608
0.3430996866180548
0.2500673949177187
-0.1070482320153222
0.24291846335251077
-1.0113181413039873
-0.5955736902234806
-0.8223711779362386
-0.22199756046117808
-1.0366828923170792
-1.7629592886437946
2.893868552158177
9.109242624638119
0.9361274540091409
-7.155343878230005
-1.2280742546587975
-2.423034862606739
-8.026344691148806
0.6606153626482629
10.057720824246756
5.354237861759106
0.4265197641279097
-1.245020447738469
-2.428716586338171
-3.2396585743029482
-3.013225530348562
-0.4740890801335891
1.3344154545972684
1.9650001900282272
1.584545492470192
0.7760889562948514
-0.009114882849167828
-0.5182357261791106
-0.686993621550702
-0.5813079442340608
-0.3248452191704466
-0.039662380338834506
0.18668960788067945
0.3079590460783608
0.30929644310339144
0.19275136150635597
-0.03271381647096427
-0.3537605121709258
-0.5510378915677474
0.00027401522178064833
0.12328968138865072
0.627078236257931
0.696619649231682
-0.1061307905951913
-0.8266373833723586
-0.49352113155946564
0.5017382140070501
-1.1905990616831605
0.7062801854161805
1.066138579567111
0.12775228966811814
-0.9264943117487977
0.6253495730735854
-0.5437453694618027
-0.3897136939642804
0.5251947569797235
0.45538791045670535
0.29689064551252475
-0.18371649374727597
-0.31883606983617196
-0.717143711296123
-1.0617939255159072
-0.5393980996889314
1.9018499142176568
4.882031824579635
-5.267106926865637
-0.7296687459779414
0.5882240922348126
0.25173574205064253
-3.522651613691255
6.508771600775129
1.0149815144390895
-0.8615097778953299
-2.397496130643342
-1.5493248055475812
-1.033019603112134
0.3275632507928151
0.9675937260901085
1.0824684718337014
0.7047020421832269
0.19885192286736042
-0.19859699084952667
-0.3888764618924106
-0.3820761565245253
-0.250005703795783
-0.08001312242858714
0.057840323197406264
0.12622537776056156
0.12115782139058465
0.0635312401120912
-0.012689344748381532
-0.0718409681642659
-0.08607035460586421
-0.0429966024243162
0.04839932842713771
0.15462245614701056
0.21937604624042642
0.17237767355835673
-0.05423527655878397
-0.504872367253843
-0.18137631449115543
-0.03366467968181303
0.034557825420641015
0.1449574900585528
0.21356311856861845
-0.28302583415343774
-0.13721217029865865
0.1697195996742268
0.4621810876982435
0.48436371751577256
0.33783508097720943
-0.05834183188668957
-0.6948253441220648
-1.4055356463725779
-0.8302519784531863
0.7774427339225991
1.0970686245428207
1.0619169799311177
0.38149181378969776
-0.5133029431156023
-1.8998048540461232
-1.3830173523098095
0.07658127771970581
2.522807999852344
2.1712371629761478
0.6194409506776022
-0.6745148056934709
-1.6519349847056761
-2.493434446112252
-1.0967858087966
0.7621370011558397
1.3747950258728299
1.1793760244438733
0.6236054177722632
0.05754705299786745
-0.31818641022736494
-0.44863174824165486
-0.3827317890992733
-0.2175215640972833
-0.0485871882995979
0.061466324234819215
0.09383170354386193
0.0673390234714391
0.02198443473375401
-0.0010993156968628244
0.022163642948199194
0.08626936701924084
0.1519000894814473
0.1514939781627006
0.004512724342841435
-0.16019899323683898
-0.18045687117922748
-0.24263962393123137
-0.27660074465003287
0.032302986866242785
0.2150473312229349
0.18109563282298738
0.18103126318638232
0.18018292775377667
0.05081333320245441
-0.01437221595114942
-0.0696287784599051
-0.17060574044492896
0.27601348019744104
0.15921628393310333
-0.10133215504082484
-1.34028499822242
-0.6602234215182651
-0.47904915107453583
0.19473366485661872
2.882000147020754
6.785574829734409
-5.191262207109011
-3.75973151214872
-1.5425186511501177
-2.2294666236181713
-3.046823857039334
8.267926454376546
5.66133963366022
0.6393110322712565
-2.093502826172305
-3.8260500761127756
-3.147657294387711
-1.8909947357080474
0.7925551508378307
1.995308879274321
1.8917655169685514
1.130629968882927
0.25749980045793897
-0.3846459098373285
-0.6691311329240537
-0.6356117157904901
-0.4117002735803674
-0.13865500552338295
0.07862052972377438
0.19138654837479932
0.20195916266689592
0.14452058409364393
0.06292386345249011
-0.006642545230243855
-0.044650346092946665
-0.049160493055421604
-0.031160991101747835
-0.007383271740751197
0.0068357159468324345
0.0029935279410293857
-0.01769498975393138
-0.04437024154768473
-0.05970792805682166
-0.04602815884638966
0.0065255253328797705
0.09164557336670881
0.18133509376667326
0.2265881758766101
0.16666849096756292
-0.05344821791366405
-0.4621325850646721
-0.6453123435496214
-0.14559725365043116
-0.08214126855406621
0.41152307630314994
0.7440576538910783
0.8353695827469437
0.1143517276595044
-0.44841798410231504
-1.0812017960405558
-0.3449266679698768
-0.08294315985590044
-0.4010936304664412
1.1216824500874654
1.6044984961417836
0.23429547754454805
-2.155844676717399
-1.1058288726520182
-1.1642314292880578
0.44362572039909587
1.9208711107498948
2.6096263366624823
0.5514120792316543
-0.47079262642767705
-1.810801551159916
-1.9962024205668585
-0.7807608623935551
0.7405001360015978
0.9363130918681339
0.5796120863546912
-0.04285304316184368
0.18128365670936974
0.12456027724785386
-0.015992539846091048
-0.12697698997665766
-0.16639139095157296
-0.14037632204842615
-0.07806574333680215
-0.011334165230644223
0.037262275733676437
0.05841042335407091
0.05413571924221168
0.033163848575563114
0.0062005628655151974
-0.017347867066278312
-0.03090908255721978
-0.031082497052978778
-0.017604500171212057
0.006505171274761676
0.034655934569188425
0.05689043386115027
0.06147516665299867
0.03847365236351454
-0.01499952047286128
-0.08941899739275257
-0.16012145270303588
-0.19034725475544156
-0.14221447007948734
0.00480693095130876
0.23215770645555014
0.46519917632056407
0.570813909273903
0.37737244796659836
-0.28206993267521463
-0.7129101418098737
-1.307800232470194
-0.523744967703337
0.09724412737622572
1.0655897109249917
1.2602915951585527
0.8550014514699171
-0.7192086573995613
-0.9652620672362761
-0.6769870294379186
-0.08372671573727551
1.1989978727682988
1.4070911338988414
-0.742726689128877
-2.031062996420911
-1.3323139428653754
-0.6460848117352489
1.0317318727114697
3.820289697129014
3.2930523756521883
-1.310554157311755
-3.1907090126389215
-3.0509653665744474
-2.5956277538677504
0.07348847287377393
3.7463384139449363
3.928519585679761
1.2864642141572649
-0.6088851125087974
-2.214309691006387
-2.2587236824007744
-1.372967947432303
0.22534562867623054
0.9570649791583589
1.0250140615768384
0.7137989620813061
0.29066305651921065
-0.060340066948907305
-0.25918264708180033
-0.3122712420269569
-0.27336419585892047
-0.20186736767379815
-0.1332122737502074
-0.06892624278577895
0.01340408826948605
0.13621808807750968
0.2941733774149635
0.4341274434349304
0.4531923094335713
0.22023014895882012
-0.3820783320000226
-1.0071758982638734
-0.8063884793240539
-0.4221828775610421
0.1773511321519805
0.8300114873700918
1.5005847131985948
0.6225804621380073
-0.11470783515053164
-0.7275812287762153
-0.8635400622776638
-0.9214662269598803
-0.39710451044866746
0.12839031091376446
0.958782215522004
1.2316966456384353
0.6739827475869666
-0.41447295858204336
-0.5437100971235713
-0.9985652060140978
-1.4124808942578109
-0.37491705778389656
1.1189881592037902
1.390788709614482
1.2060448282799103
0.5427560066188026
-0.5784003359995201
-1.0079628438667847
-1.1557775789804245
-0.8935758444901817
0.09511745080187041
0.7053954820609508
0.7528266173287546
0.4937804588948911
0.15369260406510243
-0.11676966106295857
-0.25225455742643665
-0.25694915297428683
-0.17557912602618647
-0.06406232258794135
0.031650453690166676
0.08559638718361103
0.09225894878601187
0.061358349919408396
0.01095705385506315
-0.038534389815923366
-0.06870741778011875
-0.06648094016028318
-0.02737829139851772
0.040941718455356484
0.11585358657804228
0.15967130501327872
0.12444303173615837
-0.037557300232054516
-0.15944291868486044
-0.24608160009890934
-0.267407971586057
-0.1638357177262162
0.13490417372103
0.28166918159287746
0.2836930423375849
0.28546091682613195
0.1717861264222857
-0.0054564882949257355
0.21920868887780548
-0.019589313462454214
-1.0696308539649622
-1.1386235726595537
-0.5142485428693281
-0.2329092440270734
0.8151400037903844
2.5770589056573305
2.169910838095068
0.6929594494698857
-1.869992984363549
-2.889897174191552
-2.739491585280653
-1.1191382598992483
1.0993199909049878
3.5261309966990106
2.6696797821951717
0.798004552115438
-0.694888134624654
-2.0103231593451967
-2.1972662782447516
-0.8036583873151242
0.41514840322493796
0.9067789270519226
0.8644946902432936
0.5384612069855981
0.15379627588938927
-0.13999521511523522
-0.28189994641853333
-0.2827200309264029
-0.19375832998667125
-0.07533338455518783
0.02536702143072257
0.08384464621905077
0.09710449932268199
0.07627483207262517
0.03787560385103734
-0.002817382862928302
-0.03493870483822432
-0.05221570885851725
-0.05173867752349522
-0.0330224292028121
0.0016155829374351997
0.045461894918226345
0.0857995992909041
0.10408324447551592
0.07941528656724355
-0.0044287991375886165
-0.15018663882564556
-0.34027035907705666
-0.1365184821910343
-0.08974630170817316
0.24154386294329463
0.2688457592761465
0.3568216721599046
0.22112521849749467
0.3460158515766892
-0.3801706486609364
-0.6216263378174203
-0.7596233377640688
-0.28137728828988506
-0.20257319217586614
0.680056637193619
1.1234393043875994
0.9855215583158812
0.008058502484534224
-0.5562709362109712
-1.0831424681180435
-0.9084267753082529
-0.2816699527482632
0.4407788320355941
0.7638921241475015
0.601071372715562
0.22470502259314024
0.03944383346358247
-0.41518374874673997
-0.43910882984011446
-0.1368779672495073
0.012244510438139133
-0.029516626715142227
0.14251582341152289
0.16511484449914396
0.09171000857788579
-0.022416403250447737
-0.13089619806009806
-0.0023536142416921042
-0.022942472147482306
0.0032953911751528
0.0557662507317362
0.10084756152655076
0.09844201092082665
0.01183954076694732
0.01969565517794375
-0.2730316231951626
-0.42992292560927636
-0.18838570669364937
0.12280422073166601
0.3574656436993333
0.727219367746123
0.5903429011679373
-0.13690478887994362
-0.7473964225467299
-0.9013692859543637
-0.5954733473041909
0.04077384688716441
0.7173760150082462
1.1373232068166927
0.5534975384931416
-0.2503994900709195
-0.7472755642113107
-0.43131221011291726
-0.77906694020986
0.3748640738104902
0.6398524093373956
0.4536936499506608
-0.33839463780058254
0.10058606241237605
-0.4070155904349247
-0.053330320116018064
0.15722806798053812
0.20966183212592127
0.08015929003781501
-0.06016733669226267
-0.23896656062005756
-0.07558703975133726
0.02361794883154125
0.06549001517162978
0.06599738039094329
0.04408610876799874
0.01610762585692869
-0.0073752018420831615
-0.021961676082549616
-0.027671344826003683
-0.026378227915309235
-0.019711206446656675
-0.008272523235082386
0.007629527055763175
0.026195255866341544
0.042229714874649084
0.0461925372862598
0.024983969880732284
-0.035455551958717246
-0.14657608836802785
-0.11420772485049079
0.06251118127278117
0.19014591765206634
0.27953189383927723
-0.053752784709332056
-0.18608379023135746
-0.2818109632967092
-0.293260071568473
-0.16897375206543835
0.5294551967642838
0.4072856429806201
0.22266946356454775
0.08758499673704015
-0.1133719230112365
-0.4913655312054459
-0.3199872452841938
-0.2127245567316562
-0.11985592592867463
0.25414147660628794
0.41965572561486436
0.6697955678044248
0.05959285208497384
-0.39640983821990133
-0.5103077439059124
-0.30081450980959656
-0.17919284366843544
0.2517429239121515
0.5870924398336204
0.4064813070132516
0.06810325317482123
-0.48437007947647026
-0.5049666879065365
-0.22817291324187744
0.13887741559017605
0.010809815221587842
0.6091020211871822
0.5473384782849985
0.025968973644385617
-0.7598640447560698
-0.40452385175420075
-0.47941906493833264
0.06578025682116038
0.6861612616240158
0.8171485456870352
0.2568157719327566
-0.4337974551751168
-0.5114341390230552
-0.4228036397582769
-0.583592345165602
0.22433981853059887
0.8365358364320636
0.4800238585664703
-0.04711033132941
0.2209948046475834
-0.3661761866094255
-0.6486948049070266
-0.4321056369373308
-0.07867407157789442
0.2807302865250783
0.7191264720273691
0.48342840741143445
-0.023548218458200976
-0.2409237887974068
-0.4296945941007356
-0.44559980984583075
-0.11804248179398018
0.35624754748248444
0.20417550055057915
0.05827127722794393
0.13870842922813276
-0.15765801726622747
0.14165787837668098
0.19295090905433093
-0.049195709268129044
-0.6156320989944847
-0.11031526286881944
-0.10733935551083083
0.24074673763502635
0.5871347572694396
0.37574746232788137
-0.164897734762907
-0.4163956534205415
-0.5589535405938558
-0.36378112102650034
0.20226105243295434
0.5591163814559406
0.49154538827148964
0.33588673558672777
-0.014026441449097437
-0.2803239247053511
-0.5628353842359027
-0.7047351629730161
-0.27758666190133463
0.20614672930566733
0.6571360413575941
0.9652092429702481
0.5676084806010531
-0.35553711033321
-0.8571848178241157
-0.7845417085723327
-0.5469666292722098
0.29214572375645026
0.7961372299954891
0.820386452486858
0.18184552486324218
-0.15114250856124328
-0.6449792061133001
-0.5722080831269566
-0.1838774265937554
0.3044170901211506
0.5094622876908763
0.2663677419144689
-0.1866274148057862
-0.21760206159840434
-0.20399873908478555
-0.13300311757385558
0.1970550816282231
0.37395038686513027
0.17058457440410615
-0.050441039778375184
-0.325873896738655
-0.2782330376221212
-0.1062000791253183
0.015537327615539536
0.12597318052534323
0.26115753260538804
0.23859818932209206
0.2498779191293926
-0.13472104438600396
-0.3512071719436487
-0.42330753776012536
-0.14942770594843147
0.09814110067870362
0.3612258342901283
0.2770632502959005
0.2622765874182076
-0.09276796360473444
-0.2170916209338451
-0.34389371524795553
-0.09496679482221655
-0.07224424548652177
0.1400880928187455
0.16476426962151047
0.21759883158588877
0.0972752874108283
-0.016613237481176994
-0.1564829078057103
-0.15373679804205403
-0.025148611092367008
0.03617265007727143
-0.13789945805155196
-0.09748817456939489
0.01158946203927069
0.23079742152082286
0.17350987182091931
0.2169188116196156
0.10542965249542541
-0.03392481969722395
-0.46834720483336534
-0.4367023412044154
-0.1367407569991404
0.2721328587523657
0.2517133572753546
0.46137620588090117
0.1385224175274594
-0.3092588495485693
-0.09914316374616793
-0.46022508223352276
-0.020547751775753232
0.40041516986712566
0.39311545661064506
-0.44359971427593076
0.29663772567416213
-0.5719785455133096
-0.2284344531280784
0.3502160786459785
0.5806023778240493
-0.1342269048938724
0.19424032379898987
-0.25278624810053396
-0.48968295399158007
-0.31766014246835234
0.0742515868436044
0.29679606654597607
0.3420017361085578
0.36887797070004996
0.30340314659158285
0.057463661494476376
-0.4371425643404334
-0.9919319959858424
-0.5390104384858294
-0.1364440005833064
0.5950000403238129
0.8151186188670444
1.0098769692922986
0.16249832894151017
-0.43741497612263636
-0.9513157163345696
-0.7351802360187266
-0.09324513037864578
0.34125487663511733
0.5962845001106714
0.33314958816231993
0.016458087165548762
-0.3062726900257672
-0.21196659596856143
-0.09977633828893444
0.21528927745147614
0.30981929551561904
0.16058428667880914
-0.24505745582540633
-0.4987861794096187
-0.3661550049662634
0.007818589243821918
0.4811645495027411
0.49156429757970704
0.4380722016411861
-0.12206096625698908
-0.4586828694368741
-0.6426844396672405
0.07908111005814901
-0.10323461919748095
0.4342473952029112
0.13354851069374668
0.03539153882887259
-0.03610714229336557
-0.08026835232698341
0.08226642393387804
0.2188349726081218
0.0986997893641857
-0.4916309914847909
-0.13642149473006984
-0.3877375601163764
0.024532845152379818
0.37067060889355646
0.4943467367162765
0.39219723062237866
0.009619669025095211
-0.34396004571964567
-0.5660133839061107
-0.13009776656293476
-0.26575855410127835
0.24405038185645733
0.44958238595327193
0.4132125903128586
-0.20920796763692256
-0.17796950710274434
-0.06994833597240975
-0.47482323284812167
0.007115423150971838
0.3629161242743749
0.562982917942425
-0.03901145024484625
0.10274383393101937
-0.45620632496370994
-0.5310219077145311
-0.29615547178118423
0.11015619392338791
0.5650681348626423
0.3320186563832512
0.23605059231144485
0.05433872645186085
-0.27451751004509795
-0.4272241709551459
-0.06872545555210811
-0.03189638474347687
-0.11050961042144726
0.1338506187562845
0.15514842373788817
0.20338152418489774
0.10923611325389022
0.07788692024200443
-0.10679762156627864
-0.27047695308190906
-0.234715674279907
-0.00764400897082575
0.21743413979007095
0.05594667344645372
0.12236161083042378
0.021691534549068216
-0.05458224434638476
-0.12750549213095397
-0.025911436176069936
0.22008066810943616
-0.014070179849925427
0.05920623746141943
-0.3551335835855609
-0.032646857681501
-0.13271045899873415
0.19208644833396546
0.18276617102541712
0.26188070122812845
0.027725021248071326
-0.14243507936303915
-0.2815313835966507
-0.019165710191103597
-0.1711579745489003
0.26414935813741836
0.10266158455553168
-0.03305856939391346
-0.32256108594287514
0.24467002939496096
0.0634918020986887
0.11076323637740605
0.14806580488654142
-0.06971286293865196
-0.1814353209835095
-0.20642775910975014
-0.13601259916166042
0.06618124418204056
0.05443716685147556
0.2847697317534244
-0.20219336687202685
0.20627956588147747
0.09094173440593621
0.2063773924531564
-0.10423673466269504
-0.08903517794436196
-0.5683769860419566
-0.3244531464801891
0.29458290602894033
-0.044407487907631514
0.513087364168592
0.5847586128090766
0.14083315476061822
-0.6874268282924567
-0.1834022337280684
-0.2154273485959629
-0.013621037366461076
0.23933981498784745
0.0026322566670990803
