0
-6.435026569183617e-05
-6.428085226027737e-05
-6.42267414381774e-05
-6.422348214677808e-05
-6.430219642963155e-05
-6.447167243777754e-05
-6.47010701831647e-05
-6.491211865408824e-05
-6.499015877895214e-05
-6.481952877637478e-05
-6.433998241316153e-05
-6.360854436236762e-05
-6.283947506011882e-05
-6.238994371630088e-05
-6.266695741378137e-05
-6.395570794799236e-05
-6.620831867522328e-05
-6.887411576185932e-05
-7.087917134698514e-05
-7.08518421712126e-05
-6.762593746414572e-05
-6.093469029081631e-05
-5.206427870351573e-05
-4.41213508585581e-05
-4.1558668711804684e-05
-4.876203085369821e-05
-6.785000228989703e-05
-9.631387364805941e-05
-0.00012556818557355083
-0.00014165466668836175
-0.00012900257909062167
-7.716633681209879e-05
1.105192473720032e-05
0.00011329391262483582
0.00018731276622362407
0.00018024915848753327
4.8521542763232516e-05
-0.00021531098085924465
-0.0005579046241729789
-0.0008561387120650106
-0.0009372918542664427
-0.0006353738513646489
0.0001231616478629716
0.0012295103128095778
0.0023402886651915397
0.0029105924718777127
0.0023455547056681018
0.00026449934385530704
-0.003187118062751833
-0.007103937401288671
-0.009825586090652847
-0.00931619805174799
-0.003948692234804755
0.006458220624105965
0.019715354269983106
0.03097246269667835
0.033573807825924736
0.02130335079444929
-0.008283546746401606
-0.050464092226976856
-0.091551708398332
-0.11057446974129123
-0.08574162491091669
-0.0055210198253691336
0.11805663123952741
0.23849688134977443
0.272213670234926
0.3092085275056204
0.03860217640340771
-0.4151712058492876
-0.6559108129712531
-0.5929705318541797
-0.044311031565848744
1.0312664276047894
-0.519313290067405
0.498210180555858
0.7795647176734735
0.10127728098087153
-1.0700985913812993
0.6568524430204549
-0.15251379540893553
-0.5092196098213165
-0.3620534153642226
0.022031516699820845
0.2555936512955531
0.20995626686797658
0.18496358723811662
0.07963069420042186
-0.028695113307791575
-0.09382676781598963
-0.10033435371367909
-0.057032635291802594
0.011721357458129748
0.07440329271968067
0.09964216380843215
0.06284938366143256
-0.04766298437501414
-0.22615134376189588
-0.24894700174656334
-0.08057939141835457
0.11296287245812679
0.34713797118304485
0.404828045264176
0.23312378538128198
-0.2446987987688906
-0.3042215326300906
-0.3907981198366462
-0.29815933913501597
-0.16400040898498625
0.5151025064787211
0.25528240995545054
0.3549470570605094
0.0741458826099103
0.030599033926402404
-0.38834998434487633
-0.20526346842326243
-0.43412554483088145
-0.07283033026722986
0.2898665557624322
0.4566307162669073
0.20229511366659794
0.06323252341299625
-0.058672327001225544
-0.27829092415764106
-0.3023407884756515
-0.006027447310828033
0.1818767403305386
0.08291373531427439
-0.03681165041830024
-0.07894363247929802
-0.12923596420789915
-0.07641298431726454
0.1682228200905606
0.2536290092358485
0.17886556979011486
0.09412033376079823
-0.0857738754073226
-0.25844977431584265
-0.30873938650793503
-0.08931769559924453
-0.013386631400026319
0.13923003343744356
0.20637739188753157
0.22531290956925143
0.019134317733402618
-0.007584007513407481
-0.06363213959864475
-0.16004961588676309
-0.29874094929732614
-0.06627903709734974
0.16413205195253172
0.22349304765708
0.13518923205597538
0.10626567208612298
-0.07433387320633437
-0.2304437299849578
-0.18957654482482805
0.02535034466273688
0.2002645296832238
0.12996893137472942
0.01613939186179281
-0.1344101649596134
-0.11072976456785553
-0.09945625514215208
-0.08902534186756993
0.12344850690571375
0.324969738111377
0.28338263080336723
-0.04802298358573076
-0.31720240450747755
-0.35523375849455213
-0.16051845838706694
0.7082758229121715
-0.6717146227398021
0.19972406654672864
0.4286888274781544
0.1098765005967718
-0.8874254635851179
0.6713963615976252
-0.018577108073662443
-0.202761383860992
0.03628591562722579
0.1872365586906168
0.12357533955389204
0.1219724846624025
-0.11621711812152413
-0.444345347834755
-0.25704272647373055
-0.0902243255772326
0.1628109704086041
0.22254105078430184
0.39037784150565547
0.1224647962524144
0.018288156266097783
-0.17330813365777042
-0.13423011209870447
-0.15096992849895943
-0.09055468995793785
0.015090914089384146
-0.026442346494451565
0.02574441029891059
0.03206429357399844
0.05533045252678921
0.14482881326981917
0.1255242184879405
-0.00503807709970189
-0.07177519197518699
-0.11124404854855337
-0.15905740499295584
-0.039987341493214285
0.03622703632710566
0.07289083990853103
0.08017053988109833
0.06802134980839052
0.04130436049754203
-0.0012391981161125405
-0.06436959931819211
-0.15193520839437963
-0.06331189718532686
0.00709120680112565
0.06665305535285758
0.11913899267350585
0.15993194693369428
-0.025312150095330683
-0.05739794075351158
-0.15691904331705514
-0.13729096678104064
-0.0008926144444472399
0.05983234718611231
0.05703068893824407
0.20077265485901608
0.09472499397759845
-0.06323072972047829
-0.07523841904119218
-0.1350524914177704
-0.22107078231897806
-0.09456742022376528
0.09546876834297899
0.40300324972458246
1.0762093010939744
-1.245686941221835
-0.5294679073807128
0.05536974375775432
0.13258871039346842
-0.29455863225554546
1.3391263813354626
0.35058202649481374
-0.3847770083091086
-0.6077245221047106
-0.6400996591727501
0.045234662627748154
0.23738524268434788
0.38086548395327796
0.15604427496949025
-0.14342774710345563
0.1711770576961128
-0.427895484746945
-0.0914779692298165
0.20215714106586177
0.2440642813478737
-0.20604641561288484
0.38471511881804815
-0.0663708059002357
-0.24086405786597576
-0.20061104456975565
0.027360724490171382
0.05795441992035351
-0.05478337070782392
-0.029296049058937814
0.025881197045006677
-0.007863721805328874
0.12230852942641555
0.2277546579485422
0.07447643385296246
-0.009846161505697403
-0.11895650723742292
-0.14547349781347912
-0.15891846574433652
0.009601913604372143
-0.02786552021986179
-0.022756972509349365
-0.10592878447494687
0.19117978602815644
0.11544094412833879
0.27672786567306484
0.04330992775473305
-0.049760157765507906
-0.2809138281890442
0.08373691259162093
0.01535584962145663
-0.05974315811650045
-0.45371213857486653
-0.024808765739999548
0.0007279190612285326
0.19597590228558762
0.29740832325839966
0.575855230540833
0.023279713738952854
-0.4409078043940972
-0.5477271482805517
-0.05026342464475565
0.30092005093926866
0.1735821455952104
0.062069439522977596
0.2921878661107668
-0.5747496497277161
-0.3397952935693264
0.030368468303153043
0.3925273782807386
0.01055845456646486
0.5399358573181322
0.01997008411935818
-0.3232100040002635
-0.465890374858945
-0.17583207815047433
-0.009087993205665747
0.28205335854925007
0.33324975676268975
0.1522031168042505
-0.08955865294622767
-0.05347642284119211
-0.22085641841564788
-0.07494998811731897
0.11618192084036454
0.11227612160676227
-0.0923705698337456
-0.06795747263839352
-0.15405938112434997
-0.07059286810611606
0.06565523188081475
0.1214336766469745
0.12899518084156472
0.27521172539029604
0.10237456839010453
-0.07783764090758218
-0.1600202288657271
-0.21715780366964435
-0.27805385014332334
-0.11791336909748655
-0.0660287898413616
0.1710037441192704
0.27750389001183684
0.2987618703996409
0.22344366587018838
0.18533079854724838
-0.11486996919527391
-0.37399513711185584
-0.4491319358604133
-0.5324173219073268
-0.34844573755023134
0.6235876867700828
1.5116829352127454
-0.5865859667326209
-0.024794964388194743
0.9955862412525242
-1.7527793707417973
-1.0960958786892951
1.1573192933197536
0.6150751492064395
-0.7165619061929175
1.1468957257800156
-0.24353122249310882
-0.36800094609897965
-0.323852537174403
-0.007010608924916573
0.10364979510266689
0.15511400092313338
0.1230394409869793
0.011700631956556757
-0.1466329103483604
-0.09300546176785303
-0.14581540829816853
-0.00974362391743218
0.010032828615463025
0.19060355542710095
0.1755438310003372
0.1657063416533572
-0.07979271014441473
-0.032024733744844006
-0.17345212011638977
-0.17767384670125047
-0.09375119523962215
0.06081579910139351
0.09770015756946224
0.04844425455931296
0.15260107570432263
0.04759084114151567
-0.03711756505483111
-0.08127031306843106
-0.07247429723039696
-0.20527376364134417
-0.0832765299786807
0.07498285125478706
0.22862676826550618
0.310302388511684
0.23100462612876382
0.09733512005312289
-0.16036993971602834
-0.5567706947281122
-0.6293574267335426
-0.23769558656523765
0.009482106568871999
0.30340691873861075
0.7756981028113484
1.0516531795705213
0.6363764405378114
-1.0570226420507256
-0.844879982802193
-0.49922242328960825
-0.49095764871122116
-0.3697141240006178
2.2165790358941213
-0.7249989520334408
-0.186278009995213
0.3973169384971301
0.11865552608361253
-1.212624252348161
1.3321935594515264
0.21454536161624477
-0.5479874568665115
-0.3508379593918629
0.030260168670493515
0.06622650892140672
0.09028020038626029
-0.09884600545982966
-0.04421675935422033
-0.04590780283637855
0.018448497118738656
0.07080934730419966
0.2114280832668355
0.10334273337877486
-0.034060518521424596
-0.021440067748963686
-0.1077908749958797
-0.1547713239207134
-0.021752828541731117
0.044867137226919394
0.016727520871209833
0.08373810060486832
0.0514865759252766
-0.06222472617783874
-0.030668326954367588
-0.021333453375262327
0.0004818465093645597
0.06717658919863036
0.0035116625156490183
-0.17917209504745146
-0.0887743499488029
0.04231854149211389
0.15419185463021015
0.3617678219312317
0.36648199461700165
0.07932853108740374
-0.34764559408884393
-0.6909687838265304
-0.8408911383549811
-0.4153936859359207
0.19253096348191606
0.9446437239747539
1.2889099810124387
1.323404906499405
0.6158634715807841
-1.919067175548
-1.9099533774210953
-1.0306441074947859
-0.35779649719100903
0.39620722665742786
2.3890792234028284
1.3340262625568222
0.011934669951492439
-0.7588705223306103
-0.8939863688725447
-0.7796817909059082
-0.20816130886191836
0.2640876769137991
0.5275013784962757
0.3082631510899466
0.14990462279809075
0.0007983534680026273
-0.1868037693566254
-0.24832837875839883
-0.19578282336509872
-0.011071672101666468
0.15232659902596185
0.15987293635943492
0.08265757679081577
-0.014937556262256037
-0.08348103678380324
-0.09213246321769951
-0.029013139815917712
0.10012561752777716
0.07436466613668358
0.061739627387432876
0.0257201709014801
-0.06627271999319351
-0.23419660672048576
-0.07951970086833754
0.015232667933785526
0.08087995052996219
0.1520357483003168
0.2576492987052698
0.01563020364509012
-0.16669488403607796
-0.28802180993547766
-0.14894381074782598
-0.15301379683450933
0.08519856317271723
0.3280233297311211
0.5057570691905937
0.31931090225634146
0.059651525753643284
-0.3581280020563052
-0.757057449769088
-0.8736203795263294
-0.3617287619297082
0.36875895483071525
0.8884201260694892
1.2831937659253227
0.9166512363167646
-0.15997848387044838
-1.3494799839995002
-1.2239526301544215
-0.6488829825389714
0.0527740124179764
0.6841731885629
0.9165364600235899
0.615368856947002
-0.42202241559662784
-0.10142356221678302
-0.43751807464321274
-0.13943250358329407
0.013019012513247875
0.5955557621955353
-0.0331311713844468
0.09883697677523867
0.009482782357763831
-0.40577961622196673
-0.5530117021523556
-0.33790041335958043
0.011472106897871221
0.4999261568818895
0.7104650289591566
0.35705790366458867
0.06070759942790875
-0.2442824319208943
-0.4786135601191617
-0.3744497063186497
-0.03584976754041204
0.08534956868277034
0.19455048627770732
0.14372995378781225
0.011914468809019158
-0.1169238401719976
-0.1749018848671558
-0.12884957737103278
0.0045050527981927045
0.3496626258000242
0.5752496281778766
0.5149735353570032
0.20953035055470642
-0.4360254424394608
-1.595920826319751
-1.0926922367018312
-0.4140135176687057
0.4154524799611801
1.5239911218040527
2.482832886983133
0.240950292394653
-0.46531795497349304
-1.028728469347809
-1.6465158126903132
-1.603912561910979
0.5915467154308351
1.007296793527569
1.027461833282024
0.6725840873382845
0.13247417655138588
-0.8677484861128865
-0.6687537846639574
-0.25966318148740014
0.5413703741041859
0.5004031588847633
0.37647251093949907
-0.4685010509531317
-0.6570568834033583
-0.5858654537324902
0.3749707303297136
1.2709697805414915
0.14724662952418593
-0.36229128426094437
-0.6356304851287031
-0.6582860227427247
-0.42427642179452635
1.051574568100105
1.1151183172715606
0.46248081682462544
-0.44866012714842257
-0.9645901682306601
-0.7917413515496926
-0.36504478347673597
0.35563868475858457
0.860078198345042
0.6472142270279192
0.18996386512618446
-0.2796028448297915
-0.5622026606044015
-0.4700030575233944
-0.206681076958447
0.24013120144440814
0.4921326162320855
0.3662556739849962
0.06359188835557326
-0.23141056714833044
-0.3414200329854655
-0.2827534816191515
-0.05629798170155846
0.15201877149903079
0.36194628942641643
0.18656295493511232
0.023966254399044973
-0.1426473879575594
-0.1370722871796502
-0.17900384840046346
-0.07567567405172274
-0.02043143626636221
0.20093280453827886
-0.001424590539992093
-0.033749660836823125
0.07277822154895537
0.2608163756602035
0.054893521606915074
0.17881679810304735
-0.02021413463541197
-0.3470742541710853
-0.7432995374289716
-0.8910474303925854
-0.04232508643683992
0.7312900482652613
1.8873591072166296
2.7882929018714524
-1.272129534062685
-2.191106973264004
-1.9606259363268501
-2.0064339505755364
-1.6072428558673215
4.198700961720945
4.061122824120992
1.1927622417918742
-1.061889279666939
-1.9452316876861706
-2.9326613051663832
-1.7803119470190991
0.959611470301217
2.130919924093135
1.4957400415111624
0.43774395599246757
-0.5070679303724462
-1.072558180301247
-0.6473163791355864
-0.046345920514196795
0.5098947364751001
0.402250530209118
0.21093614222526472
-0.0856425787132727
-0.306006877421288
-0.25630065428060916
-0.12255252441106633
0.13000748588299593
0.14920787268672725
0.18302654124994994
0.06712324657879723
0.01760692238748787
-0.16915689623558966
-0.11116977312618054
-0.0332378486346243
0.03956264970741652
0.0859290998270303
0.09041032622567469
0.04499687110553862
-0.04881117465968081
-0.1779858728077295
-0.11795824734768263
-0.03684168005030554
0.09525447100539779
0.09343804787087591
0.14558079930320456
0.004673353627060772
-0.010677330896741968
-0.006501132743167684
0.10443842323736056
0.22610517536835203
0.10450211385007006
-0.45047775895382935
-0.7542188186007117
-0.6561169079808488
0.027138113616304003
0.6584685576278028
1.3249810486496993
1.4060963831978481
0.7878286517141483
-1.6717073057218712
-1.8465653266764883
-1.4593512123786454
-0.8543490003565328
0.3494728330815686
2.338306605162958
1.9614847294304523
0.8258249806862039
-0.12929906885662112
-1.1661626909970952
-1.4196403387907328
-1.1550651758328603
-0.26274277331727086
0.3811691400611776
0.6860288292688164
0.6726773110933854
0.5870060789811377
0.030513366558761402
-0.2758619100642983
-0.2937635517318144
-0.24588250505170728
-0.18565757198338945
0.029461036983248246
0.15486493901707155
0.16548780235678007
0.05578279114614686
-0.1630658885727175
-0.06654243941686326
-0.02081301001708518
0.011845407808922546
0.06620944695287627
0.16722617758481945
-0.0748952991924622
-0.0661283339571258
-0.02645536736656384
0.014923617103093392
0.025781596695091755
0.17776423605432393
0.05370639962759332
-0.14542407355436496
-0.1961624185719963
-0.25435573836864145
-0.2665645235854361
0.008279465069809953
0.37128631564844905
0.559811259407507
0.6400879574118757
0.4265904809502477
-0.2701724025194957
-0.7784836530549417
-1.3057391389328106
-1.5115465304751992
0.06711711629364152
1.3399734955399618
2.3638819399660647
2.4641597854127775
-1.9831730150267106
-1.0965598454655037
0.8124775131719949
-4.863770816063248
-1.7874560690855184
4.685485993883838
2.1987953676553067
-1.7276696997920686
2.6207056600928014
-0.25058406458239285
-1.9736382817369602
-1.4027171186331113
-0.09923865935361971
0.3443089261091269
0.32400839232139117
0.1937294608022811
0.003633995073804619
0.02931520034421641
0.3082575960834851
0.3949564597711544
0.14151102272303073
-0.0944622602747779
-0.21900065705146166
-0.3585588420786501
-0.4181286151677896
-0.053133970083257945
0.13809998341536536
0.20221519484010356
0.20656583404883494
0.2133297624897013
0.06113543021797323
-0.04095764088283274
-0.1075098864362062
-0.16345313112309215
-0.23031571141107815
-0.11817818388467105
-0.026790117390645494
0.24495340283375783
0.28615810277886217
0.2650075459614
0.13012974339668576
-0.17569320285556983
-0.4934344534687429
-0.22619636987429126
0.07204713708134469
0.09095640802903843
0.14117098216261909
-0.2809918914857614
-0.734904245504605
-0.27571425960213225
1.1170119402288399
1.7381033717883139
1.8028962984083396
0.7531216601387002
-1.7888236896882248
-4.262630259727184
-3.080951028856732
-1.4751942872720516
1.5007961641420289
5.055529950075099
4.940580970582537
1.252352002807649
-0.9610697309224924
-2.887022199245454
-4.011906004669593
-2.387055613697841
0.19108423069463937
1.6321194223747852
1.8503893041893908
1.1778702188423515
0.570852171938031
-0.13045477679114154
-0.465460406774663
-0.5476306012005057
-0.41568958805692285
-0.1708580635821379
0.07758555958607465
0.04727478381622259
0.0970692856875464
0.025482822223765456
0.05985436126479747
0.04218594941138874
0.01591802869832504
0.016212736447135997
0.06484866257942964
-0.030373507174121253
-0.07279366528481358
-0.07242976304786537
-0.04193837036465314
0.005486231342195935
0.0559948893618522
0.09384754416560866
0.10096059807893565
0.05888639644960965
-0.04648347935242654
-0.2192092085150548
-0.25003301595416155
-0.11924381730690443
-0.007316125423176545
0.2890730698227386
0.5423338045926326
0.4892646440198566
0.042667326217114776
-0.4816558572501654
-1.3329141113654277
-0.7049637960976658
0.2585241022879213
0.8324335582736205
1.2684363936115808
1.570238003051872
0.3089473611280021
-1.5179240193062733
-2.2074008756679473
-1.6954977383466838
-0.7676297836243168
0.8487097761209331
2.9329134935257404
2.619795487253747
0.7144481496363642
-0.683734309911042
-1.8516007238701908
-2.4567027991700434
-1.186619913378818
0.3473040408153561
1.2083895923290477
1.2530688667694276
0.6137006475113064
-0.00756789120731034
-0.20415986757748483
-0.28294803189543444
-0.24533714641925464
-0.14937306925722577
-0.0694275489760562
-0.06456502965065357
0.03938322726764937
0.05386570358443675
0.020662646954316622
-0.001812408275852839
0.04535704022681673
0.006731323656049728
0.10184451999163237
0.12083763036760005
0.027470494956883067
-0.030961357608964565
-0.10926357756852423
-0.24976559810172325
-0.07235646566503123
0.027289716700290335
0.07061082246440047
0.08281160405310245
0.07815647120560686
0.049162311870380684
0.16374394903884085
0.17226064299277255
0.023804847902401397
-0.11200844270421838
-0.4247413414348482
-0.6534820398324234
-0.296096171828149
0.1599068567219502
0.5917197448376639
0.9973939694222146
0.8748398415597235
0.03961890436279829
-0.7169818762357743
-1.1464456692345324
-0.8682053682862041
-0.33225158697512425
0.1632410638601748
0.6024616549943321
0.7527969199124279
0.46764868367889184
0.620718565970795
-0.11043847308080626
-0.40991078836138883
-0.25131329877580894
-0.41078921716390276
-0.7894394931347536
0.03608138657082459
0.4263234346188602
0.25836054630864286
0.08389330839787239
0.08130495403228503
0.013893660646414775
0.00111965974944889
0.10512798585493767
0.1319667939612574
0.04512097392987434
-0.21273468261437
-0.2957488859107699
-0.23581940057635187
-0.034510023364785564
0.13182762420660177
0.2968552087298502
0.28633507424973914
0.10579300998624626
-0.06088085598704473
-0.24190899037676622
-0.26240034675379637
-0.13117150983654674
-0.03615092042173112
0.04924510094232027
0.15137995081853012
0.27967118264066343
0.2154466838228704
0.11227185450887038
-0.09053050924798588
-0.2448209818833451
-0.3692673064522841
-0.23360271270440758
-0.15927274082163945
0.16141232399293437
0.2325807472581653
0.5192963421102799
0.22205860678682177
0.0713739373341097
-0.054298616373863504
-0.09216101835226088
-0.5518259696062837
-0.47969795032867596
-0.24375705558020333
0.05486933016063582
0.34677724856463515
0.7482705515486655
0.3222310849031018
0.26172388883356873
-0.09639382089867635
-0.23242865372074467
-0.7943364818260727
-0.557837741386893
-0.41416941018138187
0.005762730152675924
0.4758817060213773
1.1066341296081343
0.890009761697455
0.2815219588109393
-0.37032940348394405
-0.9557495326517432
-1.121762262948202
-0.4079112373604166
0.17722472042734122
0.5333395360582581
0.6130826820710694
0.5589078248063805
0.2566404431276187
-0.07935699786336181
-0.28832500029603764
-0.42373262813603263
-0.5103361694702696
-0.3153092301161296
0.055479604272360136
0.3351554931674671
0.45665040420056896
0.3118144522421072
0.12369531649336009
0.04082035426671861
-0.2464140623366147
-0.4749120304444815
-0.1753807490921352
-0.047191931667735956
0.05238643261413772
0.3054088118914155
0.5231477319216948
0.13644910088181977
-0.40871566760511685
-0.8519903707340873
-0.3225873519061932
0.2467870370886435
1.0964160124167817
0.2163328071390912
0.33738954576641084
-0.2545685918031106
-0.6842010020930014
-1.0452124964278617
0.4313674912616798
0.3883822775240348
0.5339489998133714
0.4232253764066331
0.04182824166973968
-1.0049463786301664
-0.7026792199304601
-0.44882525969094594
0.5093928876945334
0.825976564117995
1.2146541239336601
0.6380093474898394
-0.25809544631246845
-1.268731029453323
-1.1363645116932168
-0.47311783254207956
0.07356942442228932
0.6029637189376073
0.7030057094283247
0.3777337341858034
0.18653011500379685
0.012341997411728204
-0.1371976436882081
-0.3032785929464712
-0.3381520048793597
-0.2713147856383483
-0.09129494641080386
0.05200162145958041
0.22703758673377983
0.2912302121271267
0.2638235926406301
0.11112362949164539
-0.05058437573546088
-0.33541587757768715
-0.05795412221036035
0.09812204928735778
-0.09514552584263604
-0.19696660021086188
-0.0990715463930445
-0.04158373724199603
-0.04135666671891182
0.27233448278043415
0.22246226915356312
0.25789640746280357
-0.05706632490102216
-0.034589732967749656
-0.03909134786197406
-0.2535345930083712
-0.0445185968274177
0.06626931407990516
-0.18095831897762615
-0.3809313179758321
0.3265674114502383
0.23677077055287768
0.2563931779485235
0.08376426325049734
-0.20231804363636138
-0.3446308627683491
-0.10421908206438348
0.14358669465560409
0.6116992442280984
-0.09632058585371535
-0.18177298929364735
-0.4448521565513357
-0.28162368067059873
-0.2890122554679447
0.9213727231539063
0.5065719419839461
0.18324269666258228
-0.365369616867732
-0.46638144482446364
-0.4270324613637927
0.09042659035601551
0.48024343771027106
0.19009026302567905
-0.2920453579380804
-0.2559911975278579
-0.1903708963425541
-0.005978464063126237
0.34082350702124475
0.6310861395344339
0.381424296729993
0.06369981361582926
-0.4550915936141318
-0.6640184784931437
-0.768755320014373
-0.27919436728411545
0.16721155277943162
0.7520328743358671
0.8113182666993309
0.5847349683968607
-0.0015492409370539803
-0.3117109327109947
-0.746468442193489
-0.6798142096674793
-0.20964441594168487
0.061895542383845155
0.41585739764927515
0.5821087985127512
0.5004439998911779
0.09314259982998106
-0.3434588969711838
-0.732070357633864
-0.6044497072755756
-0.30169183883917144
0.609191523311247
1.1087679219215871
0.7053001528432737
0.03892819297868859
-0.4831100519106753
-1.0298206257044127
-0.8910081952131471
-0.2475062379827036
0.4192089904794814
0.8821852560112305
1.3087948847221258
-0.789759444323293
-0.1817870106778867
0.09124351539031943
-0.25925908521244506
-0.9376703100632876
0.760802889898678
0.1630972118981066
-0.17969272944190523
0.10397833488887362
0.20201771004065805
0.11703293768459264
-0.3328523036414346
-0.3129595510685846
-0.17448646027329856
0.13683249317120103
0.4669598297723354
0.4404409503388909
0.05538766501572513
-0.3093653618010403
-0.47780101140649905
-0.4599481024776783
-0.04479838349704145
0.39229651008586264
0.4714803677175485
0.38995005226371443
0.11444448699729047
-0.20981855051117623
-0.6372231664747545
-0.39763833529631454
-0.08254054271356008
0.15121843144051123
0.36160574076889773
0.5952420156310846
0.2675126694326192
-0.24192971789697953
-0.5773538245410059
-0.3863966191083813
-0.10211582198545012
0.26422661455771884
0.5193750172705501
0.48010110256068644
-0.030476366268618615
-0.5786077616944868
-0.7121149803490636
-0.3591130478030792
0.15842199617522837
0.6968933224405599
0.860713523144559
0.5865101829818729
-0.24512774247025088
-0.9701962977902322
-0.6885672474273973
-0.22030984170570372
0.3103377032288526
-0.14284816849222742
0.40750933783007637
0.1267884883205066
0.3086325073496305
0.14517408270869908
0.5258275461460271
0.26632412884106016
-0.4382653139316844
-0.9510460608976709
-0.9419804053219857
-0.16784978330582456
0.3063516864161204
0.8510185940868815
0.8021132261771171
0.4052870524840852
-0.005024967142858408
-0.3853390843069307
-0.5315202137078927
-0.41607067007857623
-0.1360304582482436
-0.08684747320766638
0.03268948711159102
0.18916292756646919
0.1681813147618606
0.32690307624617493
0.35835704905975024
0.07642841258690246
-0.17598648677070314
-0.30039392472507503
-0.40816241219723076
-0.19029424193862465
0.0993154882962909
0.24450085727059773
0.25552881378534437
0.15397325315491628
-0.03869152907499894
-0.10520487726699142
-0.23060211130036026
-0.19868108528891867
0.008580603521128095
0.2067144631113607
0.20141945619347573
0.18276680708909945
-0.0745658308482415
-0.2034114426403277
-0.03076396548071107
0.036413045902962383
0.021545318192323203
-0.01820763224052979
-0.1973567523752852
-0.4171551838157313
-0.3901043242938986
0.3294451923681578
1.5174134527883085
0.0687351080629967
1.0158597836756813
-0.8200646939007085
-1.359120715862489
-1.8019575424711667
0.1904958080013585
-0.34017695499885015
1.8640105579372597
1.575793229395741
1.0092991313247721
0.00873491681897472
-1.0940393407919264
-1.7773948362956586
-1.2278736596583741
-0.4820960900013032
0.5646386382829419
1.6916150141677333
1.4626223895455197
0.555995498437606
-0.45450118096194975
-1.0642675626490135
-1.3711427115426853
-0.6136567482080758
0.2554382507151226
0.7501991255693311
0.7996320034594269
0.4892051266653768
0.021437136927981482
-0.29065892839323804
-0.3989175959733612
-0.2771035985852121
-0.0761458267711846
0.10965463839382676
0.05952458321617804
0.026506436992284183
-0.07531192217965131
-0.09252042770329298
-0.05947403170104003
0.17281068202287794
0.11033096134934137
0.1975667931665814
0.21154303518124218
0.07091312773346552
-0.34150096837972116
-0.34863159644975367
-0.05018682329420944
0.09731120901321647
0.08757331106215555
0.15960557226993538
-0.015470610983968552
-0.3521595406268538
-0.370749517390026
0.18168927882602762
0.7131423878516169
1.1786048453936486
-0.7098397002559019
-0.4528865989620143
-0.5229374130095712
-0.5295324940616701
-0.6078070164688891
1.1634940454292602
0.5213883017022749
0.1723785048142003
-0.04126137305980433
-0.15206336673087323
-0.05505507014899326
-0.08043511617159106
-0.16149558003128808
-0.20685831848242087
-0.08331306916263971
-0.01198897333208063
0.2234313623147181
0.26138648516339164
0.14676881599751915
-0.07934283482680672
-0.18238273451560974
-0.1314880265801584
-0.09575986971344139
-0.043813050220180054
0.05179152872132322
0.20688621116705136
0.21879475852819938
0.06456447946275555
-0.09320658094097553
-0.09402609698948675
-0.16520581116824537
-0.3118328423703616
-0.11630570376962049
0.050612697482697436
0.2100917428073858
0.35439685810254357
0.43480693337088333
0.16665240171612586
-0.14573039672463864
-0.16933855212812976
-0.5007825699079664
-0.8388730269411284
-0.38586326162223406
0.3164767421132423
0.522396453175007
0.8082054299894191
0.6139322181364574
0.22199906157548055
-0.21814957425451376
-0.6265522976462626
-0.7105787860641013
-0.0894881792920705
-0.04679351046827661
-0.12073068308163896
0.06876375685019524
0.16690606757691556
0.21964628532326574
0.4140129975894153
0.4374471508983637
0.06548498743004146
-0.22047569006512657
-0.3923588650900043
-0.42544660068236484
-0.2551123211188006
0.04786106601556962
0.27948470410070375
0.2867647982225239
0.1435207392662638
-0.07238175418531502
-0.0944014421767108
-0.07425892549644912
0.017267394184203994
-0.0073587251702108255
0.050880013747907155
-0.018976077224120244
-0.03444522312077554
-0.01639464305899282
0.013700786867137212
0.03587761118259776
0.03331084146863101
-0.0062767372112110436
-0.08937160646044781
-0.015976329803298366
0.019949973496491448
0.028671947580800466
0.021909643411911407
0.010033355202502672
9.644212726790614e-05
-0.004850868811101992
-0.0052228063866370045
-0.003528064996926097
-0.0026861736783339468
-0.004516833383175694
-0.008785279320661515
-0.013061479590167733
-0.013505514596988333
-0.006496725037651519
0.009238198773811452
0.03063804199131565
0.049318783917137655
0.05241895218794152
0.025697249030740294
-0.041539803161950474
-0.15116447504303626
-0.09288139443111564
-0.04496139519248085
0.02015311091192618
0.12680055875078955
0.28709042301391524
0.09613160063376824
-0.06565472074116377
-0.223507338913904
-0.19654042120524112
-0.18899764805623742
0.010857200690180566
0.22336444689029522
0.2651398625863493
0.13803183364140376
0.02511884335442079
-0.10397426935449851
-0.2807592298009501
-0.12421406204862291
-0.03190626573231686
0.020314286798271422
0.07012782370787672
0.1555506459847158
0.10188652050611485
0.1135983983729232
-0.026154653648857714
-0.14849593853446613
-0.08727680597086727
-0.06745963966815507
-0.09757507176523804
0.03149998338422477
0.14171199506868362
0.05935782287595519
0.006377001679901603
-0.005638037438140981
0.022770320348672313
0.08125762773829077
-0.04504866986465953
-0.16923718696710396
-0.0976534369155222
-0.028543047439394686
0.04474296229432997
0.12721791753185033
0.2156285731891486
0.09551679000853386
-0.055635099822124674
-0.2597310659857461
-0.12749035058199126
-0.05100130427058268
-0.0031861218829240564
0.05517930087149128
0.1635221160067871
0.14916199026964758
0.01917508042817039
-0.04081940972697572
-0.06098847783813932
-0.07730906643591182
-0.12110668438535067
-0.011582997460878274
0.04673528709896327
0.06172146222273526
0.048332876675445335
0.022724181989551544
-0.002182067892864185
-0.0187437103230513
-0.024458946149726435
-0.020519118675505238
-0.01007473278571212
0.0030573875690652875
0.015010823654788358
0.02202805885896962
0.020612982355001582
0.008066561195197035
-0.016531432394189364
-0.051276502324864526
-0.09103606147123451
0.07167206012321264
0.04446665133417457
0.032346476850465405
0.035684102794841036
0.05000261077434143
-0.13233242322778282
-0.11939424433553837
0.082630789441272
0.07035056831478687
0.042737855810562136
0.0003270975100428218
-0.05511504104747174
-0.12047460775028067
0.008532722975501495
0.13631910523641988
0.06585356008877259
-0.002322230433945274
