0
0.0018279700795802271
0.03096113051123723
0.04682222331367259
0.0366163365184195
-0.010150480047267246
-0.09947395518066847
-0.030961269031070247
0.002610099419981347
0.013575451927685082
0.015745959145709486
0.019958914799304915
0.03029198321048475
0.04227380459920593
0.04393257852002853
0.01978954424705769
-0.04302952878507578
-0.1483718270676314
-0.0867657242890405
-0.03545455529672185
0.03645010488709748
0.1590426732580564
0.15212467105121394
0.01883832921418588
-0.05512657657630343
-0.0967792437030246
-0.13789204312423184
-0.007197531459732005
0.07477218960204349
0.09757893946334258
0.06059011607338379
-0.027913237456460373
-0.1515159672207104
-0.08697931910207216
-0.007360488541136668
0.11253728872234046
0.08956327959088692
0.1270339695368145
0.01352372561820508
-0.07335062147006882
-0.15940395035662147
-0.06564360243407882
-0.0026397778163255057
0.030504592313519582
0.0427351188791112
0.04509707409956493
0.04486734222759138
0.042021435059082825
0.0292832717351492
-0.004267955251526131
-0.06732534250322704
-0.1604922048654289
-0.07302877697071683
0.015926394897293875
0.13159696417044056
0.0953605249748904
0.11748756645524305
-0.0061460633119546524
-0.09223636243799213
-0.16437440943190731
-0.04639055193540883
0.04242967955820848
0.08898208233270373
0.08559496854508059
0.028821437527017584
-0.08062003945209065
-0.0364950476284156
-0.025357790293380842
-0.026053418202633318
-0.011483984798808015
0.04724875700786457
-0.024898394842548695
-0.012926324506066794
0.08341439253087413
0.04747141770233577
0.04729601544478825
0.04145997049068376
-0.011592443905827325
-0.14270892060262533
-0.1628649762450747
-0.05901768368941411
0.002882387934110682
0.06803038509699463
0.17907806601064555
0.1633291650715096
0.02536389982783985
-0.052423791686806255
-0.10201572872156862
-0.15809815741412966
-0.04710896274759934
0.0192443873147751
0.04446026693563932
0.04260665076866397
0.03104495834908794
0.023310929026842776
0.024330311432556775
0.02914028304003544
0.025272598585910567
-0.001956218216367967
-0.06281453470207497
-0.1573806776153099
-0.07295728496043566
0.013757385857203722
0.12993049674726712
0.0975775865170816
0.1258415645797641
0.007768792106698283
-0.0771406787840221
-0.15584799437697788
-0.053250421937367
0.014403670519421588
0.04209377390272589
0.03453424564365602
0.0020527197641761934
-0.04426499403855661
0.10339702723807763
0.047402687709541196
-0.015164329631656544
-0.09011959732951932
0.017438187570345955
-0.09356786031353498
-0.018599422271978687
0.05181997740411246
0.12971291352061545
0.02692653457345551
-0.04652384948206187
-0.08259466115912317
-0.07465483729383812
-0.017645979009839715
0.0901753569702877
0.04434716197542372
0.03169925544393159
0.029958749229412364
0.010418669880702806
-0.0565722024884887
0.005397930873440403
-0.01457892804170081
-0.11047428329036843
-0.058991794712384145
-0.023902727801866083
0.03547317119584302
0.15369840158629414
0.14982072478753197
0.022490656806371277
-0.0484981848798271
-0.09482754784041261
-0.14935453881748958
-0.03680209639617792
0.031448195415889474
0.05739172705117338
0.052363182974582805
0.03128201577404085
0.007524685916155395
-0.010143386199279406
-0.018285242895463304
-0.017729310500466063
-0.011670585696627387
-0.003813779312219534
0.0028953002374546245
0.006798112043168702
0.007464077901813443
0.005338021130574652
0.001370121488664271
-0.003221235086921572
-0.007059933841512494
-0.008718527950935414
-0.00697052842144026
-0.0012621386709982892
0.007679263436743662
0.01735804265985287
0.02351176940944759
0.020924070074176338
0.005121781480170242
-0.025402662490764383
-0.06728400193776048
-0.11181409861791067
0.0531923493775033
0.03918220692682647
0.05155029817647188
0.08543080605552127
0.12481658315309388
-0.053797406536922554
-0.07380425181124067
-0.1493343863205225
-0.07810674385991255
-0.039464624375657946
0.0010593307007449153
0.081836777992758
0.23325517422513825
0.06815832937273161
-0.02182562814846953
-0.06282806134618699
-0.08979338008684508
-0.13570175268876178
-0.02291218227403918
0.040754585133750944
0.06074486463222552
0.05084973108402597
0.02713907418517821
0.0030049811381444138
-0.013469808113233183
-0.019754667809867323
-0.017454051930130252
-0.010237578580954509
-0.0019736020247594728
0.004455791531243604
0.00758108626471321
0.0072158783986852795
0.004078199958037129
-0.0005840087961532322
-0.0052525256862629875
-0.008322406298759853
-0.008334636683120936
-0.004366955032606846
0.003424570578155519
0.013292977369019892
0.021746144707895532
0.024113898502748594
0.01604224141489419
-0.0042467621141260925
-0.03359593287275437
-0.06258872339634558
-0.07657389467567619
-0.06000184497185797
-0.004035962709376293
0.08410463545078954
0.1731595767727475
0.20512979797277006
0.10117875304707409
-0.0229854330697814
-0.23510084802188239
-0.3641859020961242
-0.38629324919265995
-0.024372701841524864
0.43703996676397966
1.3285186652510124
-0.8258120246170664
-0.3201297159448931
-0.06904078157460455
-0.20708836681298218
-0.8934762603503816
1.2755616143991904
0.6518395686542029
-0.07197174432806244
-0.2526943511714337
-0.26908511947837455
-0.2848460224956008
-0.21510742385544285
0.09304794994353352
0.061622437938965026
-0.03376331187738404
0.11029769347164392
0.19647046321398745
0.10264521253179007
0.06781951698363375
0.09050635833941154
-0.061186174559720245
-0.2319735824956258
-0.26073032391388484
-0.1674742373673657
0.04948690960962317
0.20610132829146469
0.31940826391196053
0.19598076535708975
0.028429687644314142
-0.19775267146318115
-0.2901468821146026
-0.23516178919874967
0.009089018416263977
0.10877893039158208
0.14025990828112936
0.17098023479249927
0.04189233289182926
-0.043672105645100816
-0.12269896369989171
-0.06763144455683237
0.023818621783006397
0.24233324703020406
0.08344226157645519
0.06651569606718694
-0.04526847223758244
-0.42817001344347216
-0.3907791398196774
-0.1827932861220408
0.1779774816066426
0.26486843464985355
0.5991443913703527
0.4185984837224962
0.0694151940729948
-0.37536472810638566
-0.4776041438653211
-0.39042022317249375
-0.2246902935753521
0.1643012983112989
0.36940855920600113
0.4111684771197862
0.11599476162438546
-0.09742073370624307
-0.22020809720545656
-0.24729532932777704
-0.1702150244272936
0.025082288875420317
0.1532334940686044
0.21988260617191704
0.21320514970641322
0.10222746653238764
-0.15536583236605184
-0.19776998274286176
-0.24164377916369503
-0.06971547760153776
-0.028439383710323618
0.16340389571751698
0.1985550606277818
0.16349004695224412
-0.07527486794075433
-0.07764503033017552
-0.029496214659814567
-0.13812596217560422
-0.02697379105537717
0.06813815975103989
0.10083652879929035
0.015270301315568039
-0.05185400146557652
0.03284958026109397
0.005703082306372055
0.013614063134615278
0.02203913352258177
0.02198271684270958
-0.16554766241554728
-0.08948684033760235
-0.07472853603533054
-0.0347450814321442
0.1107547038676654
0.21702623058463988
0.09969542484289619
0.12937034117092808
0.03811431696365596
-0.06318986767770897
-0.2612125255752835
-0.2173536476403406
-0.15301708523774707
-0.047838137692228
0.1487887287038361
0.29745265033069257
0.24760665986385164
0.023636018446934557
0.023026151811470687
-0.17354219855401956
-0.18506716961841188
-0.21341833032032761
-0.033671097035443985
0.0046380483429503865
0.16581363741518276
0.11009765871056235
0.0756586372021994
0.06609173607895415
0.046824016661163946
-0.04904644755684567
-0.10751218703787241
-0.016750584523851
-0.05080641348265443
-0.05747425595258728
-0.0525990958804184
-0.021397421153408338
0.07416712375197786
0.0842983215964177
0.05977885019061668
0.043014076097456666
0.0637471416730576
-0.06025392402948095
-0.1190208137353046
-0.10546342100178117
-0.012661035248522906
-0.03525408130975206
0.025165861662243768
0.1528209307962501
0.11211978379662382
0.047152962045408635
0.08850278016445505
-0.03282555153499624
-0.16721808627174686
-0.12894133614512052
-0.08493193441971485
-0.15442325001028326
-0.021284859395621008
0.04249618073863746
0.1470881546132294
0.156122846640411
0.2670266414778279
0.20691915550745313
0.04705926116472906
-0.16627513039170674
-0.37193988285794466
-0.25627710389209385
-0.22905340398295979
-0.020548782355428025
0.09921340388141925
0.28495592165797873
0.27492361034891527
0.15559098016706033
-0.05876319630512013
-0.02790970761164779
-0.07075896321216593
-0.1392560873723722
0.012102398301418965
0.055071422949566316
-0.08957276240051915
-0.03799263412705337
-0.13954985106859577
-0.08403887382980882
0.08075580157879042
0.1237612805823807
0.0020711068393125852
0.034563159259794037
0.08259262212186075
0.14123377231632503
0.14279775167959147
-0.02766780239124569
-0.10773033930459561
-0.22931196040504215
-0.29406999969778896
-0.15914475744952253
0.16323565388466865
0.2938824386735618
0.26884328389020207
0.1239032506259794
-0.11251557821129152
-0.21694165365682513
-0.16280649359650745
-0.11304089170635143
-0.01853613877309868
0.17576354739385552
0.11919053641437993
0.04251706881433274
-0.05156733265181587
0.008069973679479694
-0.03587053961589059
0.13972290113719316
0.05154279228342643
0.0256726811353945
-0.1864239372895509
-0.19538612434924923
-0.16917313260148492
-0.039166334066044826
0.08279875506477953
0.2804567981032057
0.2093045782130948
0.08067967298371675
0.059034906437078385
-0.12674987320510742
-0.16179856471851164
-0.1201983870322941
-0.04379846778527632
-0.1303880076815749
0.0662907108847271
0.025469585754435645
0.04054016499081715
-0.0027430505139052997
0.1540043104569931
0.12855890620325186
0.09449637498052643
-0.011618088622505416
-0.07381437490131536
-0.17538315790798678
-0.1786502133948922
-0.11172993427351158
0.034065012753030886
0.09603394967787401
0.1245706553367236
0.16595235514809686
0.049081317270623155
-0.020150805673343684
-0.05624223044347031
-0.08544049842189191
-0.13499722419946744
-0.024288533102646098
0.039587951925244065
0.06123853626816375
0.052860175806455086
0.02898700275154482
0.002240628131005143
-0.018820652063276978
-0.029829865494171118
-0.0295803805286255
-0.018905820336031654
-0.0002261860052773849
0.022098919616601837
0.04109693804827145
0.04704447326711283
0.02864010124130668
-0.024305362816788623
-0.11733213271938359
-0.04838235444455942
-0.006989542308190364
0.02363422650376896
0.06221994894835574
0.12455330002182272
0.02017453614952908
-0.04798586175782457
-0.08118747367149831
-0.08129739838961514
-0.048245817700934356
0.019949604810313555
0.12459419303215236
0.06270128838039185
0.024564923696116136
-0.005845486044882098
-0.04750926149440561
-0.11735205345798827
-0.02574459991819965
0.025664551647786218
0.043113417805118216
0.03759876358450459
0.02100483544285268
0.0029957293455724664
-0.010500930150545491
-0.017213019674415315
-0.01742295037667923
-0.012622930468303739
-0.004556285656613567
0.005079356008729579
0.014388471213556377
0.02091138339496863
0.021648924373892948
0.013844671393317314
-0.0034743319825771314
-0.027684585863066134
-0.05140742272144613
-0.06311213834524088
-0.05031387811852947
-0.005380490102564626
0.06728198592679006
0.14518205648367183
0.18606817512302234
0.1333558221816923
-0.07070091190767518
-0.2667609767112334
-0.26097539054263597
-0.21561890033997289
-0.05312964323364213
0.1258334419272542
0.4154274623090882
0.2780234965038273
0.12776175641119014
-0.06959906743722671
-0.18074626554899326
-0.2790991941813304
-0.2188176538041016
-0.017266309780868235
0.1493142420679844
0.13735917135513204
0.019169737066765894
0.06344435801012192
-0.08234160263251529
-0.2053687808952874
0.06406124917712996
0.24969142137356135
0.23374722980006113
0.07083447122729528
0.011952670152297234
-0.26440168684049076
-0.22109195023278258
-0.2402723415905902
-0.21830076327786738
0.018752044685405842
0.2813787625178227
0.1727558633692505
0.24605369303273672
0.17389950555996095
-0.0628193870348791
0.03483648459199585
-0.08903956654099252
-0.2081467798613559
-0.07577318682262588
0.006435923366525838
-0.1931106365839222
-0.03315864030937515
-0.012187633105208645
0.006636513793170017
0.16349316068877692
0.1698669227052392
0.08359608323861412
0.09667780601412192
0.1385425221665254
-0.10615552073482162
-0.1696965556900626
-0.1704503019196466
-0.18691311719036038
-0.04303113670674851
0.09227796558711857
0.09271918276968485
0.054012353868682646
0.07118477936017373
0.019296503162095236
0.14137705932037867
0.04527261166639014
-0.09096262741612371
-0.10749026451150924
-0.048850263582666135
-0.15223491215507498
-0.04121835722738954
0.07388065813690092
0.19035520685544025
0.10548610208667115
0.010659220451181206
-0.11050792904215252
-0.08028390496412158
-0.1234738225628135
-0.06527100404126535
0.06838597041663903
0.24893325467730737
0.24469075564508816
0.024896835685657735
-0.23079291138217023
-0.32020652138741373
-0.20986491385518674
-0.03532221629485771
0.08724692130884344
0.44156586416315385
0.29149878862098694
0.06930039295056131
-0.2234094907752622
-0.20332722922228053
-0.2885012516297114
-0.0851127665040397
0.01610416854459985
0.23290172450573476
0.1779909841034133
0.045484019214237954
0.0032398582467052803
-0.005881081968056238
-0.0542699276587024
-0.014142872549499511
0.05978888194485369
-0.054186187046990596
-0.13446609546902202
-0.11391718198871886
-0.0879266627151009
-0.13330800517805197
0.0639389480654241
0.17705607551243216
0.2107585397432704
0.285885180155125
0.24360930869111044
0.07221889527650413
-0.04657213862890774
-0.28130118908689616
-0.6989423746339983
-0.43361902078697057
-0.08828905347704938
0.02684532750451599
0.22681399647342707
0.7726978926131345
0.6029277589583653
0.09494003711356616
-0.1318191186495467
-0.1731733276268074
-0.37081900761657804
-0.43528808247417544
0.02020888795248141
0.1219925971550191
-0.25130410283268606
0.11588874501949811
0.13804228547517797
-0.22473603833482172
-0.22705601632726238
0.4027988846650927
0.4144413161486155
0.4071449546585141
0.029793377147423073
0.011376740150068875
-0.18393609660696073
-0.6906733602172319
-0.5819949072867412
0.16925691560560532
0.3009148522156866
0.24607184580857236
0.30269512667646775
0.0009794192121993829
-0.12266329761052894
-0.14220901466788033
-0.15136177246584595
-0.06955341832041485
0.15276134670266414
0.1297593609459074
0.23958317852349442
0.030601888824728
0.0359113197970514
-0.20617961984015204
-0.33145263283093573
-0.33634047464802397
0.022199652187473277
0.2120514670663501
0.30123956385323747
0.3325334960820251
0.10735710053562691
-0.014828160705715207
-0.3019297276377201
-0.2257582190069926
-0.23912981278290696
0.03803948002991831
0.019571486535381138
0.14217879004789688
0.24851109489050802
0.17119245957428703
-0.07641022779807838
-0.10042386544238135
-0.11948566282542143
-0.15503343022711374
-0.023628613567643782
0.0658576837889823
0.11024764478999999
0.10769452594699126
0.054252902014960615
-0.05624907313520808
-0.02871173541589639
-0.061353776825393565
-0.14120238700488172
-0.04311969948463247
0.06628079396448729
0.020397921121666048
0.04250247968904217
0.1371218511640893
0.08621938951252218
0.05223131792432805
-0.01196374297985821
-0.14843989295445886
-0.1793146704682971
-0.09665402840140322
-0.061252732353789904
-0.011617545388997572
0.11897079382448333
0.18237428789551158
0.19898760560597395
0.1504755153242577
-0.015000477680371419
-0.16609869800213864
-0.16539394261817383
-0.2480594573846581
-0.20974242688965336
-0.008215148542333841
0.22152164381080394
0.3441114543365621
0.20132847248329835
-0.001545672467882948
-0.09613324044869628
-0.13938777125014543
-0.1956401456546724
-0.11930800451791651
0.056223703529861176
0.12138993408467391
0.08622252665771792
-0.027479400185652394
0.005870501139649005
0.009638466724356724
0.0015714445274408204
-0.007259383684108175
-0.011790849773935982
-0.011298433251370853
-0.0074305227516742066
-0.002508029268976547
0.001591169582016116
0.003902836484407626
0.004338902818981492
0.0033730818923436174
0.0016753265487089348
-0.0001519180411072928
-0.0016803983927730628
-0.0026356452699910155
-0.00282852639932768
-0.0021224924806314102
-0.00048570639557250105
0.0018813655235402646
0.004413326430578068
0.006151536424105261
0.005924081515365056
0.0027754498066844438
-0.0034274568311315726
-0.011424129245720727
-0.018342202272925164
-0.02015907797346459
-0.013023944914143885
0.004694489407803207
0.03019200826065111
0.054783500353891415
0.06429425650546311
0.04202211940607649
-0.025867967427589157
-0.14389436493013447
-0.10222811136586032
-0.07579937981815042
-0.029174559351709435
0.07336979513182032
0.25560245509108737
0.11951718668901067
0.04228887959403476
-0.017928893687727352
-0.1087924099222435
-0.26769634651358987
-0.10877286217780034
-0.01791232246209776
0.0422677443718295
0.11942940479933828
0.25544524139324476
0.07318165655220157
-0.029312440640311913
-0.07578225324318219
-0.10196843034986454
-0.14337620853629865
-0.025196379418488356
0.042603604821470714
0.06444440356907297
0.054175767561902725
0.02868451039366134
0.00250720049011519
-0.015207675352583794
-0.021260337414518226
-0.017188097268373358
-0.007269618125554651
0.003432745265023248
0.010555417224493699
0.01137295491313529
0.005323585284911851
-0.005765563521417944
-0.017802127345672977
-0.0251224827730892
-0.022014102845277925
-0.005129742477628555
0.023558635255805094
0.054113032758561705
0.06745955077485856
0.03674341597574878
-0.0684494351140481
-0.07577555874738237
-0.0034740348750802686
-0.055366839804826824
-0.018879971561780153
0.1337049444782303
0.04162042012390683
-0.04908199816484774
-0.09034935188625336
-0.036977123688326334
-0.05187481081638909
0.08836310128484054
0.188867526942455
0.23507097828068238
-0.20378147668502586
-0.16651062078975887
-0.09037515083557389
-0.20454061389016182
-0.13015961579110555
0.31270044810885095
0.2949683352416877
0.1716661772166412
0.08421633989550112
-0.025741785876081634
-0.19423701340361452
-0.4124969964601803
-0.41400046718406097
-0.07901286361524418
0.14116962364687133
0.38593014059242237
0.545423882269905
0.433757925101344
-0.013854154505333354
-0.3179272245341864
-0.6138609760149238
-0.40892727434347786
-0.15302271548949606
0.16746391608333056
0.41357606319945295
0.4653159537868659
0.19412000655612113
-0.15336119762480777
-0.3572862556692264
-0.41727225229615883
-0.14426321000129574
0.24177047961625026
0.7077491659639052
-0.1976561137411252
0.056677734043457134
-0.005799410750247365
-0.2525930283022989
-0.5248433566306187
0.3739479537321544
0.07930369563813158
0.057840104857122966
-0.006036604893293797
-0.024330694375428435
0.08233826680763985
-0.02433752179912829
-0.10617246882451514
0.0486079103561743
0.024928090280784975
-0.017291624240029436
0.0612286963853999
0.18636631011359053
-0.1193730980662143
-0.12513677525672037
-0.0807071558741165
-0.009245356232683204
-0.10614170120059559
0.05558300503540761
0.1150387119933977
0.1116907927020034
0.07584731518190967
0.024322119837818023
-0.03787372476091122
-0.11138024171308258
-0.19522779381431257
-0.08221390860573011
0.04063549531442941
0.18671056581701456
0.16255145207220403
0.16303490502936893
-0.027634853187935623
-0.22883558765155285
-0.25357007180783875
-0.10085304625490625
0.045264406703793475
0.20921196751583576
0.21315636229519744
0.06737412454652209
-0.03372237739715372
-0.10854371886502928
-0.18046260353884738
-0.06935957076477436
0.013516542599710897
0.06564476237311116
0.08926176043319256
0.08613996940853882
0.05417224004716848
-0.012384151720103551
-0.11910218370453042
-0.06592861961799491
-0.042864747124563334
-0.02913599047186649
0.0032691779576801425
0.0825752628600383
0.028950078567155323
0.04778311150402308
0.12696915649868776
0.03956536338927722
-0.04842254396644513
-0.16722661478301462
-0.13312282301606732
-0.14287000271280736
0.024622106153414813
0.19969264903919542
0.2098104723009465
0.06905774656822859
-0.026432851238988007
-0.0956577591051434
-0.164524787305659
-0.05629987335434026
0.015327968654441781
0.048469339473096035
0.05082609258400989
0.034985911769842795
0.01353063266775279
-0.0043777003781118795
-0.014311197242159795
-0.016068126260236442
-0.012111728913418092
-0.005792844727346066
3.13176359450627e-05
0.0037088055314194956
0.004865182842134827
0.004051743080540288
0.0022361146291135538
0.0003514561038842837
-0.0009784571602973022
-0.0015196119952522538
-0.0013623141727681675
-0.0007848432946723709
-0.00011311820773730676
0.000383308586245279
0.0005474566860376052
0.00035148437710933405
-0.0001120663262561491
-0.0006548911730913199
-0.0010330679190498687
-0.0010079090236483096
-0.0004289968239705011
0.0006730694009583586
0.002016030427311856
0.003064049246513716
0.0031392593062445754
0.0016635056255492758
-0.0015080365078189053
-0.005769298987244001
-0.009627137810879316
-0.010921169993270863
-0.007503289041434516
0.001681311250056784
0.015393565777802347
0.02927134418999827
0.03594264092926741
0.026488342411031846
-0.006801519679891874
-0.06712160282708514
-0.15068614546150652
-0.04665899954859836
0.05971423625350555
0.1815914225572443
0.12514511873197084
0.08731548148949671
-0.14165201896636648
-0.17192891303951005
-0.2075448410305721
-0.04352790566556974
0.13121960731291085
0.32672630582198364
0.14474686535432224
-0.023785078724762498
-0.19463689039593907
-0.18156524059639842
-0.18796271581680066
-0.003703192225116887
0.1908821428090769
0.21589957794048828
0.08237541259824341
-0.01294997615342162
-0.08633504813687315
-0.16048259419655844
-0.056243452163308026
0.01370651464117279
0.04710798975782238
0.05039137201397236
0.03468766553575191
0.011660246611085645
-0.009381862088955617
-0.022637805536271646
-0.025631623032703648
-0.01848418388214915
-0.003345075811140289
0.015733859288339157
0.03271752207779864
0.03988824605018293
0.029119570356295754
-0.0057028113539555544
-0.06566629914421461
-0.14450104941329533
-0.028458525085349042
0.10072384812427722
0.0603552721657572
0.06088239734139661
0.10209694946118865
-0.026822085542541965
-0.14342468211135187
-0.06597873249291566
-0.007913646757484608
0.025168457311413404
0.03526704368778916
0.029378804685768204
0.01606049218881356
0.0025507605521117383
-0.0067916801491667
-0.010662868094703194
-0.010005383150428463
-0.006802058807821876
-0.0029903088499717402
0.0001901810592412572
0.0023394114576114726
0.003639578114901769
0.004413221377806688
0.004730523257232763
0.004248348602420876
0.0023654371826681065
-0.0013451161007832604
-0.006589177104211189
-0.011948372321596411
-0.014905224283295255
-0.012504245412610112
-0.002657024678290444
0.01419850593754493
0.03368731486269281
0.04712642636593855
0.04289015894170399
0.009718574972834624
-0.05867306304978717
-0.159271204235457
-0.07784374188582165
0.008915598216007695
0.12711111918549955
0.09725139297345535
0.12710765560709722
0.008917521151400374
-0.07782343459996857
-0.15922335041837665
-0.05860087607098576
0.009794052962849109
0.04293140973305711
0.04709004795746426
0.033543353926752166
0.013953765847383419
-0.0029408828272962503
-0.012709559779232375
-0.014884297872326487
-0.01157926942028169
-0.005851044733254574
-0.0003872196559462315
0.0031985840891888243
0.0044735380215767855
0.0038835263712344824
0.0022884582899041633
0.0005411322314274482
-0.0007739082874803175
-0.0014186003854313712
-0.0014405831259373465
-0.0010461761670852846
-0.0004750598815842717
8.08514031310075e-05
0.0005031534627810492
0.0007315609579999862
0.0007346723726198009
0.0004934441626497362
1.197336075033814e-05
-0.0006478622033869349
-0.0013290221020963895
-0.0017707920457480616
-0.0016582922263473022
-0.0007407471741548321
0.0010031289836307162
0.0032120680342647688
0.005089032862125774
0.005535272569386768
0.003515456358179875
-0.0013924970869851868
-0.008428477109929307
-0.015334402480098852
-0.01859917480910477
-0.014478485947036728
-0.0007548830533516091
0.021165262105303898
0.0445949277194651
0.057322425610647904
0.04357464117020081
-0.01167928728861744
-0.11699230992170631
-0.06919944159756403
-0.05099318779660112
-0.032974551755224894
0.019732085200330308
0.13804864877897313
0.1397884518373125
0.024106280655646826
-0.028267192133574235
-0.04901495108212734
-0.0726742491455245
-0.12697977915334266
-0.026387181796686424
0.029296350030843434
0.05121544423356661
0.0545725424743437
0.05137865036870693
0.04553520767013609
0.03190196988135215
-0.00043415010314164123
-0.061926085369596456
-0.15574528721942693
-0.07320083787249586
0.006380572840722438
0.11078851225385603
0.0666673809229658
0.09087339105800032
-0.015572018260406844
-0.06930251120227218
-0.10234981236176147
0.04284926015665077
0.11977959343959896
0.08485281636166264
-0.0950263173049401
-0.03489582888355363
-0.1258623666452126
-0.13329218518917155
-0.0008415265011856844
0.1397652498390481
0.15564018748603764
0.10034004502379654
0.006002519515698382
-0.118206727221363
-0.0823209699168419
-0.10941893147308342
-0.030247565411444324
0.11965402802633354
0.10073613151318787
0.07013249813967821
-0.015550909377363505
0.005544885670246695
-0.09171168573707572
-0.11221803727781758
-0.036875262300706
-0.024451992928321117
-0.019573066082262416
0.03462447225656481
0.1822216135794552
0.042465019043323386
0.0034355871078821975
0.023488791453104344
0.040451686251565984
-0.013319272253023174
0.006800012285400216
-0.12584967221207236
-0.19839556304870584
-0.15724657905532505
-0.11892717778047444
0.007770165312767256
0.29306235879877973
0.35927432580715185
0.3656149459454922
0.21232604978869618
-0.23406238266852217
-0.5006787490829296
-0.4665660721046725
-0.33441434954018834
-0.026602513673855334
0.39283681575842977
0.47878174887198677
0.3629641154377268
0.12407162055255405
-0.22144285004110756
-0.3084100428961325
-0.19996517033587638
-0.1634804821852109
-0.054065456982220865
0.2910556298289083
0.24946851214045548
0.007179091663535174
-0.045966778565976384
-0.11698073206497261
-0.20804180584311083
-0.11570427041820644
0.1665406718599642
0.2425736443990438
0.10776468134976068
-0.053361425866117494
-0.06397387231542646
-0.14748861936865812
-0.11932480163447891
0.018427706871582215
0.07742433590447367
0.07901366513016303
0.04800732828877032
0.006951530448731609
-0.02737406201037008
-0.04498428565865504
-0.04214239920436238
-0.020497964938210055
0.013244349371660158
0.04712168571543105
0.06397400596284473
0.04289510104237628
-0.037168469703674746
0.008144229005511582
-0.025132889914346503
-0.12432666977670283
-0.058526461863566186
0.018200971372922255
-0.041367370496391775
0.010736846529024227
0.20547467386286644
0.14771389809229
0.013538247290223739
-0.04451382019988101
-0.08549629271063812
-0.16515229254335861
-0.12290467006893657
0.02527513555229795
0.0865080935796475
0.08436935268602795
0.04917084763468096
0.00871799672875461
-0.017998220029400956
-0.023346571846997736
-0.01031161003649242
0.010479408223509295
0.0249117929419131
0.01991883105664321
-0.012284388210965412
-0.07109513147965073
-0.14660850720669916
-0.021848026599634814
0.12178684426073955
0.09735357706927489
0.10638330323066084
0.13714129698318533
-0.031315191691604356
-0.2203517620697414
-0.2418981966169888
-0.09232529451527258
0.04642869057842759
0.19843841493510755
0.18189003715583166
0.1995551051074226
0.03658187575215964
-0.13289448389704125
-0.3331669369403552
-0.1744077147956992
-0.046447691615275476
0.07778456576929811
0.23057324749757727
0.2349123192795968
0.09393974489022722
-0.010854335056202502
-0.11191656189382906
-0.24201322984106124
-0.22089745063713606
-0.04822188949195693
0.09428789974902484
0.23276282238456542
0.18832943793349965
0.16780125155037626
-0.037635466968672544
-0.24538920783974943
-0.2700022158523693
-0.11344967662651506
0.03762657028247708
0.2063794963951772
0.2149637160142592
0.0740686052982828
-0.02224764934295648
-0.09453232753779013
-0.17044409633965973
-0.07573391751122587
-0.0275961485220038
0.1676488329348874
0.1131364043942136
0.01857813871712558
-0.10191578224653733
-0.030718485871916473
-0.14736427119921228
-0.030644580288965852
0.1371939795194864
0.16521697098633112
0.049983169546432775
-0.024492340396606294
-0.08233910942313025
-0.14864060741802182
-0.042500545024205756
0.026870091466078678
0.0599588648451219
0.06357743870326465
0.04647567353510277
0.016088788110470476
-0.02245931474078079
-0.0653267699640096
-0.10816232803199913
0.05491950555321005
0.030689682652524208
0.02471544243935201
0.0389954275658592
0.07065743291523746
-0.08751652735899272
-0.04490322402466392
-0.010156587725757582
0.011164222110442283
0.017690862546101516
0.012022464028264417
-0.0003834164445093286
-0.012728578294179282
-0.018533505186919718
-0.013356551277784626
0.0035211301048065314
0.027758287016403763
0.04955934362001266
0.05492805767496918
0.02898790479051349
-0.03897291988545546
-0.15012203225899104
-0.09258702299089547
-0.042007176045340704
0.032999100113964126
0.1617335053887641
0.16191035059669615
0.03357666144451852
-0.04094275014535647
-0.09104994384215344
-0.14838151062212493
-0.037629052062599165
0.029093692231221765
0.05300788685215815
0.045334754850031946
0.02192914585796465
-0.001987453953355668
-0.015626606287688437
-0.014535831262322326
-0.0008089816350281509
0.01799851632079042
0.03095439936076219
0.026660919596075527
-0.0032795052624692606
-0.060900205452428045
-0.13973670834296012
-0.025184971843372147
0.1020252502688699
0.05999431245937824
0.05957764346528522
0.1006065532153648
-0.027948193987636066
-0.14394101202593043
-0.0659163970483031
-0.007482636084174615
0.02569388241218303
0.035644322638743446
0.029459794277985955
0.015821108418532504
0.0020927777792406873
-0.007264035722673737
-0.010893325414653605
-0.009764602025215919
-0.005987843049598283
-0.001725027874679566
0.0015068715287867923
0.003072511850995506
0.0030918961126521157
0.0021247627783354253
0.0008339084636779442
-0.0002597769137019117
-0.0008878912593026644
-0.0010256406329820203
-0.0008101846702599328
-0.00043842700547568216
-8.369037429032568e-05
0.00014966523095288043
0.00023345866526083448
0.00019650054306835415
9.467994563546776e-05
-1.641007244504273e-05
-9.870536882382948e-05
-0.0001371120295318402
-0.0001357868689792796
-0.0001097764234135146
-7.632083136329483e-05
-4.8653801381185644e-05
-3.3316434189744885e-05
-3.0540014978756776e-05
-3.64661619761017e-05
-4.585562480947235e-05
-5.427647778636198e-05
-5.9282581331609084e-05
-6.056635110171193e-05
-5.937138242501303e-05
-5.7559615189187355e-05
-5.669367968800125e-05
-5.739106168804142e-05
-5.909194681128017e-05
-6.0283167195476416e-05
-5.913182030298594e-05
-5.438632424769472e-05
-4.6293626888948845e-05
-3.7182397885558455e-05
-3.1329311232004576e-05
-3.382965406042505e-05
-4.8483056456683075e-05
-7.516186876478225e-05
-0.00010763482241461043
-0.00013315284261982023
-0.0001349995832253662
-9.84573220052422e-05
-1.9228442335515295e-05
8.840678783155576e-05
0.00018786069186196746
0.00022533711815951268
0.00014636520202282907
-7.77446282654829e-05
-0.00042079989032920134
-0.0007827835448835811
-0.0009962964681319716
-0.0008699376349222101
-0.00026867295490544743
0.0007869627810918324
0.002040818222159947
0.002990846990763464
0.0029942290314884283
0.00150314822970265
-0.0016090809139494187
-0.005739908266706158
-0.009430260617505216
-0.010587202172466212
-0.007153387721441433
0.0018399352934298195
0.015118359024382529
0.028392269473202756
0.034526328993630236
0.025047063865982953
-0.007065927274389039
-0.06402374963759742
-0.14064716662815588
-0.02406006250887929
0.10352416983626786
0.05953591117062043
0.055318176661722264
0.09236575372754612
-0.037905225196486404
-0.15095501379417106
-0.0641513973313787
0.007654455448724393
0.054375922207570246
0.070678917662645
0.05494617898240443
0.008703505386069161
-0.06284000815248889
-0.1497559061765035
-0.037331151658027015
0.09178281826566533
0.05325316489410239
0.05615178593198535
0.09969130493135624
-0.026761731202118274
-0.14027928796711725
-0.05903047424826612
0.0027344260762208724
0.03756693679278753
0.04511607899710284
0.030658589218133064
0.0031236328093775427
