0
2.4110024572966685e-17
2.4340923519791392e-17
2.4691237467178452e-17
2.5057637400119292e-17
2.526889146986947e-17
2.5130838301840614e-17
2.4508764299120145e-17
2.34282983235621e-17
2.2155849052250306e-17
2.120706992932567e-17
2.1237405014159073e-17
2.2800212850544432e-17
2.6014807559939238e-17
3.0255725803088335e-17
3.402867474162577e-17
3.520265157363516e-17
3.169057487049503e-17
2.2503330173915822e-17
8.874517928229081e-18
-5.057354977282804e-18
-1.2602310092021233e-17
-6.334889152898943e-18
1.8673338235322817e-17
6.097560071698973e-17
1.0976255613203064e-16
1.4475500866348722e-16
1.407012744563076e-16
7.693549157027601e-17
-4.977610843783624e-17
-2.1352341233372439e-16
-3.551053952558294e-16
-3.918824020864923e-16
-2.448979881389081e-16
1.2007203729940813e-16
6.496893110756897e-16
1.1785150262826472e-15
1.4454746593929005e-15
1.167010382623097e-15
1.6377359133314248e-16
-1.4905025284606813e-15
-3.3584435602409958e-15
-4.643511405308177e-15
-4.374083234262238e-15
-1.780660556066494e-15
3.2075884842397424e-15
9.522394088613894e-15
1.482167798463593e-14
1.590441492965943e-14
9.789597619892216e-15
-4.68696262818937e-15
-2.524436435580681e-14
-4.5281049223613634e-14
-5.462032870167212e-14
-4.245052773854499e-14
-2.2846120298486337e-15
6.233272614727179e-14
1.3374923270791196e-13
1.8071598242389007e-13
1.6589549699718032e-13
6.072835896863272e-14
-1.3539712135819035e-13
-3.786217265057486e-13
-5.764176712551489e-13
-6.049392587355837e-13
-3.518784403083586e-13
2.2149089540248518e-13
1.0185187426024257e-12
1.7762333916544229e-12
2.098400471899227e-12
1.5734447879366356e-12
-3.162211359618616e-14
-2.5527236511860657e-12
-5.279109324589749e-12
-6.986319200369519e-12
-6.241447502034954e-12
-1.9883166104142393e-12
5.713354401756186e-12
1.5069679404546458e-11
2.243010111330563e-11
2.3008783648534647e-11
1.258420995404573e-11
-1.0092828501928774e-11
-4.095837869865495e-11
-6.955419351507465e-11
-8.047030255907967e-11
-5.8065196491125337e-11
5.960140699548359e-12
1.0421051263655187e-10
2.0813159258816545e-10
2.698006079150278e-10
2.3430152109829077e-10
6.272955948379563e-11
-2.393423598943773e-10
-5.987938370646288e-10
-8.717854198253995e-10
-8.735978122565123e-10
-4.459370266380271e-10
4.497173482188769e-10
1.6436082807749388e-09
2.7204700135334253e-09
3.081677823059257e-09
2.1338341115899224e-09
-4.1576031262318686e-10
-4.240323993287946e-09
-8.195072993569703e-09
-1.0406597567476588e-08
-8.773196075997447e-09
-1.868124676803544e-09
9.965510536748486e-09
2.3756566795510265e-08
3.384470473738895e-08
3.310901512165433e-08
1.5629574378389835e-08
-1.96980184236867e-08
-6.582329380633027e-08
-1.0628217389706856e-07
-1.1784682396314961e-07
-7.804686419584408e-08
2.331716184133544e-08
1.7202488246597633e-07
3.2227013452374027e-07
4.0090171413329537e-07
3.2760173165395584e-07
5.03079843717025e-08
-4.127283521667597e-07
-9.41125176600359e-07
-1.3124160299352537e-06
-1.2524327503541196e-06
-5.404113369963219e-07
8.512140410909034e-07
2.631087885267086e-06
4.14740690903615e-06
4.4999256634042155e-06
2.8394105897381126e-06
-1.184233099315816e-06
-6.959712573304277e-06
-1.2657584469087178e-05
-1.542478573729316e-05
-1.2196534608700423e-05
-1.0838224374925987e-06
1.7013194671963396e-05
3.7229894685407864e-05
5.083347036157222e-05
4.728140776563819e-05
1.8366623946195983e-05
-3.638238243376465e-05
-0.00010497922997959415
-0.00016165591975376625
-0.00017156272675134524
-0.0001026719394666575
5.679941085776229e-05
0.0002808304079662022
0.0004964746518787114
0.0005925686459798577
0.00045232779523502034
7.632818227377626e-06
-0.0006991519951506345
-0.0014719098865014274
-0.0019681158790234576
-0.001782499613221389
-0.0006099971807910511
0.0015464565373875631
0.004199928557316915
0.006340823051805149
0.006634700201131368
0.0038965123661776685
-0.0022327334592086266
-0.010625953850366038
-0.018370046778758056
-0.021202544788620215
-0.014938227521048416
0.002164058968457571
0.026574864729093244
0.04710335894422273
0.044030151710881364
-0.009361325289929254
0.05737059894226149
0.01791327285482631
-0.1444104110040575
-0.2322837680210131
-0.03442795178769319
0.06888457049211949
0.09633338074567936
0.2563476364541657
0.34375599983896243
0.14651531958024525
-0.33728664030869704
-0.4775414190545524
-0.1952490226488023
-0.3609871273598628
-0.014228410110277468
0.39918019246415193
0.58215896664857
0.3495042052589627
0.21296578477265712
-0.20501987129661048
-0.33258864000507765
-0.3971536077229931
-0.3776887097917656
0.025800938072874143
0.1991981453693996
0.19969851231050065
0.12815189181152534
0.0986518012871043
0.013607494633913583
-0.051495686955474386
-0.05329306883095198
0.0221496534073035
-0.03318993348190287
-0.039948177166134996
-0.02241346229787163
-0.001471448247395219
0.009741804198328981
0.007389087570632644
-0.003863700624776839
-0.013285774174193354
-0.00743613563947737
0.026268840301735943
0.09651122338235348
0.006257926890672661
-0.04747191372141181
-0.07267269956688724
-0.08144388358469005
-0.09043280559785735
0.07692313845728899
0.18752960271551444
0.1978295648209906
0.058005572792854225
-0.07758230697335107
-0.2357280199175595
-0.21055136808473932
-0.15659078341471358
0.007016409593738275
0.18124745866424438
0.2652928409136016
0.13528809962956673
0.03060955392995816
-0.04851761572166614
-0.13274371943256144
-0.06883978322284556
-0.104082580379177
-0.07467057643087276
-0.0009287052049304773
0.11055467061231705
0.06001072062686427
0.046252438450988365
0.06051883200801611
0.08457140291078125
-0.10659031520611809
-0.13881339675341567
-0.032337689937508324
0.0024006552891319664
-0.03493280791978388
0.06201976715242466
0.10093943691534757
0.0859480910095342
0.015340041003199755
-0.11720226372489662
-0.11874431793901659
0.007363796275699299
0.0645747662819413
0.06411374488553383
0.024442721124124562
-0.029717160737354132
-0.06832022711798773
-0.05729418049826694
0.03901310397866077
0.053881655161140976
0.013257866638230774
-0.06913994853127478
0.004398477002453684
0.013630396438480439
0.12084732210064392
0.07447435019850066
0.016208378776683404
-0.10890875169857124
-0.14162871593205914
-0.10010551998901579
0.023019982283853543
0.05681149747233828
0.042654612138160714
0.02225630905187285
0.026509038068496197
0.06814106324874511
0.14001354271625685
0.01966346832211803
-0.12086700005648567
-0.10268761961154048
-0.12938581250857126
-0.18226522402634343
-0.024036503061491212
0.18955244028680454
0.2940090322222358
0.10233668112183097
-0.001150115746881359
-0.05690861083738782
-0.11785216384131822
-0.23353559630946955
-0.036608526323341495
0.06418806940177463
0.08317111935156472
0.05067904297878119
0.003141148073084781
-0.026577350336329356
-0.016515595953349834
0.04030129899862285
0.1354402948181787
0.04847555328878462
-0.046118934487505564
-0.17015518536805255
-0.1339172082067652
-0.1326907639130683
0.05034929822956638
0.23568639312567982
0.2371643890116912
0.054869336830052545
-0.12516215481029147
-0.12424564452335603
-0.16073185713824092
-0.040951768822115486
0.044794208154915686
0.12011736286860246
0.015827673531481134
-0.03855420085146592
-0.02249685998660155
0.07019215399540481
0.029133812865413056
0.028676837621878358
0.032804985832630106
0.0030428467777536307
-0.09218160920783464
-0.06906712613610544
-0.12348091094928286
-0.031514998110805985
0.04400982954541407
0.1427618875770201
0.09528773689331074
0.11457502724370602
-0.006300090815267494
-0.08988075492512054
-0.16542556778787346
-0.05909373096025679
0.013117005548997352
0.04766755432399013
0.05126953628777472
0.03608866994754064
0.014690922557399667
-0.0035581478965356107
-0.01397109026293745
-0.016139435946465844
-0.01241909550523801
-0.0061488421778712506
-0.0002359273647608833
0.0035955255151967906
0.004907690344850719
0.004212174217472092
0.0024607473239675335
0.0005860939364396509
-0.0007825496874616295
-0.0014044862333303502
-0.0013600980728490693
-0.0009079552705623479
-0.00033878992062640707
0.00012695438467596968
0.00038204148958522464
0.0004243034921118042
0.00031872974381558065
0.00015253820331272673
-1.8420336413867882e-07
-9.676064586368621e-05
-0.0001276960160347922
-0.00010745116149544703
-6.113541301287035e-05
-1.27660233148588e-05
2.1819971064887815e-05
3.6899874356390405e-05
3.493521158507317e-05
2.2798416077033366e-05
8.009874226733596e-06
-3.845090506656311e-06
-1.014719006596573e-05
-1.0970622711431587e-05
-8.070723098866236e-06
-3.719188212588252e-06
1.9393509923883964e-07
2.6094489786800615e-06
3.3241500085812986e-06
2.7398187735013845e-06
1.5157466139021527e-06
2.685780251566882e-07
-6.043113454510746e-07
-9.681955669062292e-07
-8.965455260508372e-07
-5.716535161384779e-07
-1.8782277487305232e-07
1.1363061080654598e-07
2.6897796641692735e-07
2.8344655096581904e-07
2.0425502864035015e-07
9.046141957846104e-08
-9.798563657034866e-09
-7.029550145015148e-08
-8.68130057810944e-08
-7.03448404030729e-08
-3.8054095617553555e-08
-5.652383159676582e-09
1.6930949078773857e-08
2.64424905944624e-08
2.475862100948351e-08
1.63140102889517e-08
5.7373923651127284e-09
-3.588499657169982e-09
-9.902388573817753e-09
-1.2673062253203677e-08
-1.194329569593861e-08
-7.878772173230304e-09
-7.822315057432265e-10
8.460983951257567e-09
1.781603752732309e-08
2.3881715912000768e-08
2.2464536610912786e-08
1.0126951188611488e-08
-1.3561651450062172e-08
-4.387429234660053e-08
-7.008198216876629e-08
-7.714139642440588e-08
-5.0565189293526755e-08
1.6093960854756093e-08
1.1334587471237944e-07
2.111323353686997e-07
2.616607211108968e-07
2.1264493273720692e-07
3.046640033922751e-08
-2.72408987490599e-07
-6.168081574921175e-07
-8.57135810046723e-07
-8.145653038054591e-07
-3.4587802983675105e-07
5.652845477250146e-07
1.726720521596016e-06
2.7113286192699646e-06
2.9312458179600158e-06
1.8342450825583773e-06
-8.034320865931612e-07
-4.576148591548862e-06
-8.283454984360263e-06
-1.006035829609948e-05
-7.910702773088972e-06
-6.147811518937464e-07
1.12188964205379e-05
2.4392333751043217e-05
3.3191063147520424e-05
3.073970414579895e-05
1.171645009332389e-05
-2.412250399555324e-05
-6.887538381812028e-05
-0.00010566104488840097
-0.0001117264503398591
-6.625165847923151e-05
3.826749082393152e-05
0.00018459189954513213
0.000324872499395933
0.0003864630236408819
0.0002933266462000101
1.5381646168286974e-06
-0.0004604321899081599
-0.0009637282894403451
-0.0012843352095055316
-0.0011582166403841514
-0.0003881361534849265
0.0010205247964925406
0.002745127385918131
0.004121215717526245
0.004272578621768894
0.002421746839458503
-0.0016673006793323452
-0.0072559892157756985
-0.012427957361400179
-0.014353220656107607
-0.010169501812288227
0.0015772651683867425
0.019283917674993403
0.03706254768371511
0.04468299518796136
0.029242964796271056
-0.02144374850595722
-0.1145774843233031
-0.048780629124284006
-0.012858072475762527
0.012181332095340707
0.04829459199665754
0.11446406755014871
0.021843190853330124
-0.02829759966150894
-0.04334673171288915
-0.03573205853807593
-0.018568253802580457
-0.002142173168296499
0.00788505068556766
0.010482659571394123
0.007947437797021385
0.003998136254916511
0.0019189303397025587
0.0032165246046177345
0.007051933095072205
0.01054102380148686
0.009875767867529275
0.0020579155294744404
-0.013166602171863964
-0.031797382662782744
-0.04523667819028403
-0.0417355786301241
-0.009775176529619678
0.05728363421090059
0.15685309226844188
0.07515018286779324
-0.010768625199353421
-0.12690721325045062
-0.09413078430441518
-0.12113860963954687
-0.0015787911009883283
0.08354616912850785
0.15942423511610834
0.049877142758945475
-0.02822032319642723
-0.06689857335263011
-0.06578656707806889
-0.0292165930869997
0.03656297451990051
0.125313515272554
0.03213094494219905
-0.04532049020412916
-0.10589654027692698
-0.1457258076011622
-0.16236205840267734
0.03703138280768964
0.2253415172289909
0.3477337451825991
0.32257997350573553
0.055539212008981514
-0.33380608487944297
-0.47994131384568745
-0.34595193272756475
-0.21631273019661176
0.08611677781741485
0.36190889811333
0.38692472855686555
0.2694459725020767
0.226134375566694
-0.01607038008736152
-0.19354830053839797
-0.2641705066734565
-0.3635870636335308
-0.3733008857606901
-0.11001791104519595
0.2615821642573652
0.39884084968997086
0.3463725351253531
0.3105789020805928
0.053320763172935215
-0.29335349068110106
-0.39806939330235447
-0.29888610787042375
-0.1827753855917388
0.016053574372554665
0.19849617850382242
0.27035606278262025
0.3106336767300285
0.1492782839070866
-0.03857847558057209
-0.12108498799103287
-0.1860320195302404
-0.31400424934734844
-0.15746599232067335
0.06806803088275103
0.17967543466419297
0.21350017153096706
0.20906479781742565
-0.001976420882939787
-0.1993797289659348
-0.17126140757448674
-0.10865189856221935
-0.0021276973251752908
0.15734351830746376
0.17444309646411874
0.045619714262012584
-0.04169452822452983
-0.1058486751450918
-0.1653180297246212
-0.033544920065122275
0.08342646371001258
0.1862423220359502
0.08017980459590117
-0.026001841176187635
-0.11937777780393047
-0.18165187721822867
-0.1901678253870347
0.0767074943806697
0.23023779187723575
0.2616102687668046
0.13720650858182792
0.002951488872852173
-0.20211303385439408
-0.3275395436432267
-0.19581312650274363
0.0039508419179436725
0.11013089991443151
0.17301941453954772
0.2360645322426545
0.12151045477428803
0.025910185152671513
-0.0731457489532602
-0.20219774746813995
-0.1752096116011308
-0.1818803552785905
0.014101433878297865
0.06579367761349274
0.22592685572006002
0.1282253612824147
0.1738990364252275
-0.07194015501583208
-0.07286652982688405
-0.10544534001615222
-0.04035831146478844
-0.1257881679600458
0.02286956139888711
0.02507690200256547
-0.0707173879335926
0.0010333605145350748
0.10797758140686492
0.10515424762771253
0.023959526139231507
0.06742381677359846
0.012820305438592115
0.0206076854728959
-0.1531130716215448
-0.14466491557236213
-0.17564788129023415
-0.05363343695536221
0.018987532488558008
0.23128183391135732
0.35153270087179533
0.32385163421791796
0.07883326314695958
-0.24194123939916212
-0.4546335352916253
-0.5074619265895659
-0.27354184643029283
0.03005153038248406
0.19872697530444744
0.383907237062341
0.641584794835165
0.5043132234256197
0.1891921838239303
-0.15647238118184023
-0.5830265564235914
-0.8615096087653107
-0.627283082508217
-0.1643515985455961
0.16275844358889643
0.6392312440132133
0.9154100593414944
0.5356231288029488
-0.09676426465820462
-0.10873320010434653
0.2918587760625353
-1.5145514720267215
-0.694904625871553
0.07410805147743679
0.4058505254385007
-0.029669049376231136
1.4457844906479949
0.4784255734229883
-0.3318702651248388
-0.6154547330096082
-0.5971179232530157
-0.46080209459247123
-0.13365712652548742
0.30213860017176297
0.5746401334406425
0.37916164921961204
0.14434918939070443
0.019696591086452466
-0.11234637171263548
-0.40559074826052566
-0.21205933867996193
-0.04877483991204809
0.02200624030738862
-0.0038217886056263507
0.11712449805235739
0.05650083449506199
0.09280867670839552
0.09329994472383646
0.10293920305822818
-0.05822445763420477
-0.19045557613218783
-0.10576081662692632
-0.01937079045580563
0.05577334389281979
0.11090984829994875
0.14125049562891215
-0.05408937146978235
-0.07077914805315365
-0.09720233632558545
-0.11367792186406515
-0.09502051780944121
0.18304054986055934
0.13535725640283477
0.16036505048164218
0.03830620554559517
-0.06357007809218024
-0.18023332926418734
-0.1366392373337324
-0.13902228715208323
0.026738148700105862
0.1892140995317804
0.1807922387446598
0.026926250695258305
-0.06066696488076772
-0.0852826281458308
-0.06210043586146227
-0.01315668381274267
0.037418825479670244
0.06703512282452453
0.05745839265650127
-0.002517260448450232
-0.11445517113371118
-0.06862001432469282
-0.04476863064514229
-0.016441272509288937
0.04157914519291048
0.14461778942489334
0.09132146339489017
0.06170423807685227
0.021597678962963628
-0.06722144265151515
-0.23428440781752358
-0.0895098626335658
-0.0182640926748531
0.01551116758125939
0.059037397641450606
0.15684624287998863
0.13805082973952634
0.00890765947095577
-0.04717868413078574
-0.06279171213713734
-0.07569991561391187
-0.11804165318344104
-0.00890190000234677
0.047941931303456
0.06135793329575407
0.04717983776259971
0.022041355815673517
-0.0012173111555373838
-0.015623939142950488
-0.01979434083848978
-0.01615797413880588
-0.008728161066674681
-0.0012400927406207678
0.003920997069233649
0.005970523436537922
0.005384357506940119
0.003293512439487923
0.0008992300807585882
-0.0009199017537272459
-0.001761755018790825
-0.001660048808639412
-0.00093556375142272
-2.2271162884676566e-05
0.0006779250581938157
0.0008925250648213635
0.0005319974153745472
-0.00029025157922447757
-0.0012695568037688495
-0.0019638243007346545
-0.0019044463947326148
-0.000766538080926623
0.0014303763036943367
0.00416035216930288
0.006367107619893715
0.006674082739908485
0.0038677838979554397
-0.002418654397890343
-0.011039150160991598
-0.0190263433516776
-0.022011655565826956
-0.015613286193881729
0.0022844050713687076
0.02888423756305894
0.054415670072349105
0.06180201197769337
0.02892738627243123
-0.06642707851827581
-0.0400317266838061
-0.09503077742974189
-0.01832957651196449
0.018991027322972295
0.057111198364646024
-0.06005082814381621
0.1066063191247505
-0.01624371598873606
-0.019445812570074442
0.08705414364418138
0.07648343823325221
-0.08896137058307138
-0.04994431127131502
-0.04142526063803396
-0.08603574624036349
0.00880557553627346
0.04951420481700883
0.05161682938210127
0.03360308338923527
0.01143893065142278
-0.004803349211851776
-0.011744188195801305
-0.011341744320416826
-0.008276384531028767
-0.007050003646106216
-0.00960371551657962
-0.01398258458878001
-0.014282875965395646
-0.0018168390654330372
0.03288870451514585
0.09792708215962682
-0.0015890561758912548
-0.06421860984651989
-0.09243643433980459
-0.09361494484051111
-0.08283322759496307
0.112629424859568
0.24920977572283634
0.26705444226170183
0.09758818221333213
-0.3205437853561312
-0.22076906923402376
-0.1904012268320582
-0.16272456708925745
-0.02382180654214514
0.36676675407837656
0.14747218695590383
0.02668769088133285
0.06295671125672284
0.05756460890390151
-0.04028237813542372
-0.1185803697849383
-0.08258259651310543
-0.0348593808791231
-0.05959684380700075
-0.013565911192399173
0.07587877396421
0.007118873323485663
-0.0027453052022329873
0.0742847297833795
0.07058144379461007
0.018971574197774132
-0.048314628819114205
-0.09878283739249968
-0.09885132921861095
-0.015146188333493165
-0.01897868963631705
0.10672715446708105
0.16052148744029676
0.11878968936491353
-0.062045345335404435
-0.03700918481831504
-0.05989084636805979
-0.17038664077765328
-0.1853634801178428
0.10281595447901935
0.12053276636032084
0.10221599590987572
0.07901534221584416
0.0709172636197232
-0.11560461364992694
-0.0848643521864248
-0.046521088368696326
-0.010283751387604272
0.017252866131070757
0.03319907391829344
0.037237299841983436
0.030152234047481415
0.013201126601580307
-0.011190554986144281
-0.037761533552513826
-0.05678953429282707
-0.053739741849506584
-0.011043676342485358
0.0880424639830766
0.05464749662132383
0.09041873120280114
-0.01374940443479579
-0.07583251687854867
-0.11855999911565415
0.035031683015777984
-0.03540290890811377
0.053359019658064444
0.0875177463991489
0.05559841625657794
-0.05102826489562242
-0.03617617621566693
-0.0963394536965743
-0.019236489268512694
0.015322825144434343
0.03207215310948626
0.055494140335192815
0.10538499760398565
-0.005575186612059326
-0.07155635015761722
-0.09128568708607322
-0.06543763039971214
0.004552316869063638
0.11558789733020125
0.06078087488270687
0.027890406192023848
-0.00010311142943114635
-0.04194993052559169
-0.11367874357369688
-0.02461167019033785
0.02447094086123123
0.040374094420254
0.03438545637249264
0.01847197644375079
0.002197848983844442
-0.008836233743038793
-0.012984742700381278
-0.011463848493464001
-0.006848295818708317
-0.0017387433580742205
0.002069452251314839
0.003852455435535535
0.00378919245499591
0.0025723881103199182
0.0010024382092874754
-0.0003027268542399402
-0.0010339538294585895
-0.0011742364917033587
-0.000896923361574869
-0.0004418524650431116
-1.618975829556228e-05
0.000258153438684637
0.00035121937874207053
0.0003005741326434065
0.00017479587347378535
4.070230352753239e-05
-5.683715777288369e-05
-0.00010083131098745276
-9.722642889071784e-05
-6.462776350781062e-05
-2.3848673985405988e-05
9.39052157371649e-06
2.749409077388251e-05
3.0375593672958595e-05
2.272696746528585e-05
1.0800548422312707e-05
-1.1364038054846044e-07
-6.984033235074669e-06
-9.153397910284226e-06
-7.671777275217525e-06
-4.34204369461309e-06
-8.812327992512795e-07
1.583347184138616e-06
2.6490546914446125e-06
2.497326703462943e-06
1.6225926970715495e-06
5.631489919871465e-07
-2.8280628286204495e-07
-7.29888833340808e-07
-7.851774580227219e-07
-5.753224709126748e-07
-2.631389419646504e-07
1.644508319063655e-08
1.882207478219155e-07
2.3821787172861258e-07
1.9557061749872364e-07
1.0760216675578444e-07
1.838803083045702e-08
-4.3795068205657156e-08
-6.948431422340666e-08
-6.407192529428656e-08
-4.066804554554729e-08
-1.3178174882194315e-08
8.32502187616528e-09
1.9334975705499108e-08
2.0272264829429636e-08
1.4543917712992173e-08
6.38420785723085e-09
-7.695150733874716e-10
-5.055998832922079e-09
-6.191634793581526e-09
-4.97948699522107e-09
-2.6597836899179526e-09
-3.626292740112709e-10
1.2039466715096669e-09
1.819759205971333e-09
1.6419608152269978e-09
1.0174558532379409e-09
3.0503848674820723e-10
-2.4085500407499733e-10
-5.111591550272244e-10
-5.227994562277999e-10
-3.6714283401250925e-10
-1.5416768229720826e-10
2.866523620983239e-11
1.3541496705564282e-10
1.6073670865734287e-10
1.2663854060461257e-10
6.557294036349776e-11
6.48196318058283e-12
-3.293708018018214e-11
-4.7618418072272835e-11
-4.2066436038433727e-11
-2.543532009163959e-11
-6.967784701868639e-12
6.915994465323816e-12
1.357778074604566e-11
1.3588158860802242e-11
9.365310202369303e-12
3.743126475379715e-12
-1.0560246072246855e-12
-3.871792627383024e-12
-4.554660243612558e-12
-3.6216704620615257e-12
-1.8456706020838248e-12
5.843121537342806e-14
1.5835919094072307e-12
2.4379266553335725e-12
2.482974709305265e-12
1.6843069069270764e-12
1.24966937287529e-13
-1.9209129290614728e-12
-3.910625047813604e-12
-5.039486780323033e-12
-4.411023764632545e-12
-1.3937353251159743e-12
3.9088112870929295e-12
1.0255561572259589e-11
1.5187165482375977e-11
1.5505293091946428e-11
8.406507892606547e-12
-6.908461003996671e-12
-2.767107715756199e-11
-4.6829012472901515e-11
-5.4026756521738033e-11
-3.8786569063648336e-11
4.400309647628975e-12
7.047336062056911e-11
1.401592817078462e-10
1.8121798193486765e-10
1.5680289315835789e-10
4.0945132805534975e-11
-1.6233462901082128e-10
-4.036000474795313e-10
-5.860007465432585e-10
-5.854807499369512e-10
-2.9612425403728935e-10
3.071180141237428e-10
1.1091464354151036e-09
1.8300887072777115e-09
2.0675866938355606e-09
1.4239912427788598e-09
-2.949357620666604e-10
-2.866231162283152e-09
-5.517454265164629e-09
-6.988426020347974e-09
-5.869170020421313e-09
-1.2078278655642375e-09
6.754341542166661e-09
1.600933655939281e-08
2.2746520824650394e-08
2.2184270149733494e-08
1.036285378452533e-08
-1.3427084718284474e-08
-4.4408325550654945e-08
-7.148679587110558e-08
-7.905243648070473e-08
-5.205090881247084e-08
1.627479153298579e-08
1.1623832830972583e-07
2.1693940543627355e-07
2.691787637322622e-07
2.1908319905702709e-07
3.194236967092405e-08
-2.7956258707558155e-07
-6.341010700891231e-07
-8.819279602427933e-07
-8.389708738603964e-07
-3.576198247121311e-07
5.793639426139389e-07
1.7746808715319224e-06
2.7892012712564663e-06
3.0180108308490644e-06
1.8922970294153153e-06
-8.19374950236467e-07
-4.701182385365107e-06
-8.519281767075366e-06
-1.0355064986625098e-05
-8.153226111203625e-06
-6.553101848726492e-07
1.1517580409206917e-05
2.507992416298681e-05
3.4154435959233956e-05
3.166416354686078e-05
1.2123818214035033e-05
-2.4733122008944626e-05
-7.079393509781674e-05
-0.00010870119695178709
-0.0001150409718021669
-6.836634421328715e-05
3.909121909204282e-05
0.00018965364007592027
0.00033413760677136566
0.00039780524620783075
0.0003023619488666541
2.4747743552727724e-06
-0.0004727565870462319
-0.0009909371089116248
-0.0013216588358667234
-0.0011931322734033088
-0.00040203909326929623
0.001046682525545575
0.0028217071284831153
0.00423974394803626
0.004398990567827318
0.00249832043392156
-0.0017072293614812523
-0.007460362115822759
-0.01279149948009748
-0.014789148293564685
-0.0105049766815437
0.0015659132569046282
0.019790474730982926
0.03813807608510926
0.046127826760033894
0.03055953929221088
-0.020978684073462626
-0.11568770165506878
-0.05183460634108706
-0.017482337066989293
0.00734663634562642
0.045494322520341454
0.11622949408277107
0.029902320075212364
-0.014347679007084245
-0.02708434542219578
-0.023979403971534707
-0.019851564200504147
-0.02330219632771262
-0.033536224125214474
-0.040296709595844
-0.02707525117594216
0.023090018401141426
0.12080356893507165
0.0647308870298554
0.03949629601973128
0.01836719636539992
-0.029643230622674006
-0.130367468773576
-0.09599858587534854
-0.1207704219262366
0.017227142895933956
0.14840904945317043
0.1009850939407778
0.09138306032852501
0.11967701643881057
-0.028121666105606406
-0.17189422798834247
-0.1269126514801992
-0.09579900293491399
-0.06702287801574053
-0.021557713054289756
0.05386449129709787
0.151256303530033
0.2296408962064209
0.21306492195356436
0.20227998445052345
-0.100049264515246
-0.3560012434215284
-0.3609963960402086
-0.4262685614773723
-0.18448487469836994
0.17921259059481662
0.4775760556862464
0.46752270528765233
0.409565469581536
0.05391106369432709
-0.1422698485703118
-0.3725193478893993
-0.42792177383899654
-0.24999129057816108
-0.10326799800764187
0.026249124093860512
0.20945328917398695
0.338843844670843
0.29241111746828363
0.10839168434599514
-0.022228818583727807
-0.14532048873005823
-0.3213108027084276
-0.20033479966736759
-0.003797968566937541
0.08231818995472104
0.10212856218424124
0.1163309422318003
-0.01400745221410574
-0.04162880684258098
0.05757093726646529
0.08102727053775821
0.0017014838368221187
-0.024873989656722596
-0.05038668294622965
-0.12287987837774264
-0.07799679196955828
0.06562098959191107
0.1063002618673123
0.055883160407280724
-0.06507152432184071
-0.031771227648339145
-0.01880493222909241
-0.0031178181822330247
0.03346506028043104
0.10249282619593278
0.008591815455036692
-0.04897673884783664
-0.0733480566667822
-0.06701664855629688
-0.030305569728364106
0.037828503102355734
0.13718457624590852
0.06360833446100492
0.00812005686623746
-0.04116990000166043
-0.09510037172105537
-0.15959527231605827
-0.03428201267732257
0.08520104560999406
0.20212616785086923
0.11364866510359328
0.009021175690983856
-0.12740137592154793
-0.1095597743370343
-0.14281491627156653
-0.02036277734390893
0.07520404225864177
0.16597070577606682
0.07132334558858662
0.00253946140170724
-0.03852736551930583
-0.056741015633364825
-0.058845565848318473
-0.049025950492003326
-0.026848829426678173
0.011700267988827596
0.07081052686991517
0.15092513780621047
0.04651819340036129
-0.05295503452166177
-0.15914571700381966
-0.07993252500917382
-0.0162772824953647
0.037420379525956816
0.08970099247051348
0.14718451262880858
0.01107757774281624
-0.12324560127231668
-0.06369962181095568
-0.01768327274847283
0.010912102719306916
0.022687168309482017
0.02179312790450625
0.013963355327328331
0.0045399738922402046
-0.002820167258212685
-0.006544787419296175
-0.006810417582298259
-0.004817841631851913
-0.0020308304011675297
0.000379997788296916
0.001794649411285819
0.002134052793719446
0.0016851743983615063
0.0008764200729604954
9.164588874536206e-05
-0.0004334523579051592
-0.0006305757161834482
-0.0005587210270379191
-0.000339071606381763
-9.438690908713e-05
8.984997887944202e-05
0.0001783966768052911
0.00017878989366392698
0.0001232849708456486
4.972035957436817e-05
-1.2331318447090274e-05
-4.774872117141702e-05
-5.526941991369416e-05
-4.279361250349623e-05
-2.1555512303154566e-05
-1.395757286321587e-06
1.1795353838394484e-05
1.646380278965585e-05
1.428388676000554e-05
8.450494493690594e-06
2.1244039813563238e-06
-2.5408012700611105e-06
-4.700371103541754e-06
-4.601119747409005e-06
-3.103573754392372e-06
-1.188245336439346e-06
3.941822559613246e-07
1.2725295339513723e-06
1.431486933846275e-06
1.0856915077206908e-06
5.283471754198486e-07
1.0941743971227828e-08
-3.1985265839457606e-07
-4.294209386049336e-07
-3.6484470041156503e-07
-2.102169786033561e-07
-4.6827035059827665e-08
7.115797778737691e-08
1.2362281023879123e-07
1.1827061745424393e-07
7.800429936030235e-08
2.8202518977900053e-08
-1.2103260105842853e-08
-3.383218663597169e-08
-3.7031187523930786e-08
-2.7508056019045958e-08
-1.2904691750660835e-08
3.5943351364857487e-10
8.640079644089136e-09
1.1185369725234831e-08
9.307991541873215e-09
5.217633711262844e-09
1.0025151214862758e-09
-1.9771635600339437e-09
-3.2459921016150082e-09
-3.036646471464377e-09
-1.9572819771361603e-09
-6.639960211454863e-10
3.6136698078837287e-10
8.974705468591436e-10
9.568299994793662e-10
6.96025174434391e-10
3.139655498127164e-10
-2.568080954627514e-11
-2.3258030165917136e-10
-2.909691921921289e-10
-2.3718252701966784e-10
-1.291900824806431e-10
-2.0574321656571057e-11
5.4566686616263404e-11
8.509604825702474e-11
7.787806121191387e-11
4.902661374841286e-11
1.5483449705278368e-11
-1.0568736150428665e-11
-2.375735722323026e-11
-2.4694155301919025e-11
-1.7586632288599026e-11
-7.605461194959679e-12
1.08159622608275e-12
6.240972898466484e-12
7.559424613359125e-12
6.036447423723179e-12
3.1904908525427372e-12
3.948753427037494e-13
-1.4971436061970377e-12
-2.2274424640980615e-12
-1.994950248168057e-12
-1.2257597397913546e-12
-3.568325104805189e-13
3.0424846335178884e-13
6.276752343667844e-13
6.366024227049734e-13
4.4374980100153007e-13
1.8335960445174798e-13
-3.85679683631715e-14
-1.6695610131948616e-13
-1.9612352596844078e-13
-1.5341501666208543e-13
-7.854541204509236e-14
-6.672476370798962e-15
4.0892546424641805e-14
5.82450293126982e-14
5.1069921910448275e-14
3.061263709909322e-14
8.130303630197838e-15
-8.622794907780058e-15
-1.652674323408326e-14
-1.6366839388791645e-14
-1.1154485528893571e-14
-4.370594675218266e-15
1.2922793772116825e-15
4.48001486028525e-15
5.1076173815808935e-15
3.919622079578916e-15
1.9532746676777625e-15
1.0759067498261782e-16
-1.0862138122173995e-15
-1.4952903315467971e-15
-1.2802785899898955e-15
-7.37428109745313e-16
-1.5641588927234345e-16
2.675683986334703e-16
4.59985967951009e-16
4.458816130563255e-16
3.05500920702996e-16
1.289945512362405e-16
-1.5330772993527967e-17
-9.428960502304002e-17
-1.0726715529671758e-16
-7.44490596863678e-17
-2.288779692596587e-17
2.4454885362972356e-17
5.436565909079059e-17
6.391965019061258e-17
5.761393848949234e-17
4.323945841686935e-17
2.8241883037944833e-17
1.7526675459701617e-17
1.2862361597048694e-17
1.3481134278885999e-17
1.7249771748042123e-17
2.1836294117163663e-17
2.5510129992233968e-17
2.74608785148613e-17
2.771306996170028e-17
2.6811878765537718e-17
2.546191189914148e-17
2.4248941163776208e-17
2.350088823371998e-17
2.3280268710345075e-17
2.3462171526796254e-17
2.3842043931057658e-17
2.422872552334047e-17
2.4499138425514678e-17
2.4611662015931474e-17
2.458919520449473e-17
2.4488320450748803e-17
2.4369289256843675e-17
2.4275886724045717e-17
2.4227825717947565e-17
2.422344069534883e-17
2.424805852308711e-17
2.4283351116290102e-17
2.4314392922053806e-17
2.4333065467382912e-17
2.4338088928587814e-17
2.433290964217093e-17
2.4322889714401917e-17
2.4312931392671408e-17
2.4306117308750525e-17
2.4303417510251623e-17
2.4304162845388635e-17
2.4306855635824808e-17
2.430994097642344e-17
2.431231261128875e-17
2.4313493120949317e-17
2.4313551846633335e-17
2.4312882463920466e-17
2.431196110928627e-17
2.4311167623985124e-17
2.4310702475412747e-17
2.4310590123347788e-17
2.43107360335424e-17
2.4310999857788115e-17
2.431125602373725e-17
2.4311427464945212e-17
2.4311491837805973e-17
2.4311468391279353e-17
2.431139668924122e-17
2.431131681258299e-17
2.4311256671093378e-17
2.4311227770452307e-17
2.43112276490609e-17
2.43112457752701e-17
2.431126979523234e-17
2.4311290054367338e-17
2.431130161656894e-17
2.4311304070495703e-17
2.4311299996067033e-17
2.4311293061404825e-17
2.4311286479365456e-17
2.4311282172891046e-17
2.4311280649122813e-17
2.4311281361230307e-17
2.431128326600994e-17
2.4311285331480897e-17
2.431128685456125e-17
2.4311287559514933e-17
2.4311287526985678e-17
2.4311287037965798e-17
2.4311286412595397e-17
2.431128589595711e-17
2.4311285609218807e-17
2.431128555735948e-17
2.431128567028828e-17
2.4311285852270864e-17
2.4311286021199606e-17
2.4311286129192285e-17
2.4311286164953316e-17
2.431128614385923e-17
2.4311286093368315e-17
2.4311286040021362e-17
2.4311286001502588e-17
2.4311285984377863e-17
2.4311285986130493e-17
2.4311285999281386e-17
2.4311286015543406e-17
2.431128602870206e-17
2.4311286035792168e-17
2.431128603682956e-17
2.4311286033712148e-17
2.4311286028937943e-17
2.431128602460661e-17
