0
-1.623576999322341e-17
-1.6602102178977293e-17
-1.701660403263719e-17
-1.730296055428936e-17
-1.724567043929339e-17
-1.667350415507889e-17
-1.556958572564311e-17
-1.4169301112594328e-17
-1.2990716313787234e-17
-1.2743341127035409e-17
-1.4089589534361346e-17
-1.729099398748644e-17
-2.1846633320342636e-17
-2.6297444238339454e-17
-2.838913926580636e-17
-2.5721588481791757e-17
-1.6846996393231756e-17
-2.5361667102318833e-18
1.3313620213931287e-17
2.3784555164105358e-17
2.0594315624599692e-17
-2.614258546228558e-18
-4.6022815286782597e-17
-9.996351218103008e-17
-1.4396655825294272e-16
-1.5057831922942906e-16
-9.483733638898097e-17
3.197766967633862e-17
2.0862348807322798e-16
3.769691453190832e-16
4.492331218500352e-16
3.3403360997987095e-16
-2.066656252051528e-17
-5.790782070608971e-16
-1.1842462053005666e-15
-1.5650714288303563e-15
-1.403660674767618e-15
-4.648295755376125e-16
1.2399874300110316e-15
3.315227000041052e-15
4.953177488181669e-15
5.092810508577457e-15
2.7956424315484387e-15
-2.220634777755741e-15
-9.062162292948166e-15
-1.5416740861616977e-14
-1.7870076552133043e-14
-1.2948717944487066e-14
1.2024997047489584e-15
2.296689127126333e-14
4.603748477481767e-14
5.98028257768908e-14
5.207804305601723e-14
1.4196518297691297e-14
-5.267694131645591e-14
-1.3241367751576352e-13
-1.931841986116553e-13
-1.940310904415487e-13
-9.975545731445206e-14
9.839398956040153e-14
3.630571245575643e-13
6.024096733321944e-13
6.838032309253132e-13
4.754412546245984e-13
-8.817471861867902e-14
-9.35484759679966e-13
-1.8135836629085456e-12
-2.3075988826420807e-12
-1.9511365209385243e-12
-4.2622426371847714e-13
2.193837503191638e-12
5.253492675336292e-12
7.500040318116295e-12
7.354387453368464e-12
3.499807181877276e-12
-4.316868580143249e-12
-1.4543160692590974e-11
-2.3537979566967082e-11
-2.615372711574089e-11
-1.7398703924722197e-11
5.012400670688661e-12
3.796139337191298e-11
7.132691897741416e-11
8.89075989080796e-11
7.2877335747043e-11
1.1627306073778903e-11
-9.090429843972684e-11
-2.0814911517335445e-10
-2.9086673766215634e-10
-2.782517402691217e-10
-1.211870192618303e-10
1.8676612709873637e-10
5.814230201031876e-10
9.186149965925676e-10
9.988132048825003e-10
6.333273383102675e-10
-2.5641326958376906e-10
-1.5362217173129202e-09
-2.801792231705256e-09
-3.4211641538759536e-09
-2.7140258706626304e-09
-2.589205485633567e-10
3.748804818259809e-09
8.235257954823427e-09
1.1267300338767994e-08
1.050650040959354e-08
4.126311184645012e-09
-7.9906599817233e-09
-2.3202751982007677e-08
-3.580966901824652e-08
-3.808636526304351e-08
-2.2914862428909618e-08
1.2355518266858443e-08
6.200889355212472e-08
1.0992349899660077e-07
1.314768962951425e-07
1.0074631097889505e-07
2.5290989800655192e-09
-1.539428136772716e-07
-3.253700127136353e-07
-4.35950520548301e-07
-3.95870915721185e-07
-1.3743536962193074e-07
3.3873486197372083e-07
9.243542509184865e-07
1.394346422366693e-06
1.4499769193461602e-06
8.233216238800856e-07
-5.728120146284492e-07
-2.497012671167557e-06
-4.307505208284818e-06
-5.046045692364757e-06
-3.7264732719160453e-06
1.9549565479294093e-07
6.297555684618758e-06
1.2837894985953513e-05
1.684771135590214e-05
1.4882111646439417e-05
4.441483386775203e-06
-1.4247977760226224e-05
-3.676359934335997e-05
-5.423005377413652e-05
-5.5108862805203045e-05
-2.9339091576504902e-05
2.5846620787485154e-05
0.00010032443310391541
0.0001685853195649327
0.00019337507997817645
0.0001372346512606006
-1.916101417167335e-05
-0.0002569566367434529
-0.0005062491010287041
-0.0006509018420863647
-0.0005589201808176034
-0.00013823098001193817
0.0005949216147045171
0.001461426395710855
0.002113647601242197
0.002110010740038951
0.0010798754363838226
-0.001049976445196803
-0.0038432316197760134
-0.00627028037648818
-0.006871950715637063
-0.004241997893055969
0.0022064667514510037
0.011367956411000716
0.01976808319498647
0.021419865991997977
0.008419971585260975
-0.02781678550793944
-0.09517877311664666
-6.1000128845282614e-05
0.05233856824029513
0.056810122128168036
0.006920016685082933
0.0948731641844844
-0.08707248961943877
-0.1441952419728913
-0.07728827131054507
0.1176334905166611
0.04771862258171348
0.1211586917508575
0.14672398146042617
-0.06368272239539864
-0.2901566786729031
-0.1005067751321205
-0.05029046420700643
-0.08942357654524617
0.22564386537125566
0.318544910514202
0.1844536489071348
-0.008655107932821373
-0.10784820565658726
-0.3561501844249225
-0.17420334048499672
-0.15069031877000524
-0.046286871160647836
0.1895005181271691
0.3945826184476843
0.1727100720301883
0.08271106173996028
0.04316685954659144
-0.24877014211276968
-0.29099468119267
-0.15168464586366245
-0.054403258268553245
0.022641966239322023
0.13410535481617075
0.14699981107801888
0.11940707453706402
0.08508024257280473
0.04814127647975861
-0.011313858110478007
-0.12316569087524858
-0.10961808419938185
-0.16973354267195362
-0.07120288435656495
0.047905484661276976
0.06783481097393236
0.06961070254438305
0.11628844427455465
0.03793113215259538
0.023850270939491547
0.023520951435532022
-0.04455112624347321
-0.07838153620410389
0.024264189457305723
-0.018358690743294808
-0.059952472386673956
-0.11980216296330652
0.01697092180606125
-0.007331851892170424
0.06534779523268452
0.09513617707711544
0.13203966292602534
0.008288111315884241
-0.06333100032205859
-0.08582060014329738
-0.07145238500618678
-0.035394783755730616
0.008301028797629789
0.047769584748188695
0.07244143579389117
0.072043140024526
0.03718996627481961
-0.03778079378677683
-0.1506093588564168
-0.08768644664303456
-0.023788587011626307
0.07374388113982691
0.03708315074349344
0.08869848882802865
0.033942135100840425
0.05790589310402811
-0.07241277614862239
-0.0012130088991796236
0.025896533077338465
-0.027876761667983408
-0.18231144335996435
-0.03609701716293088
0.03185588610899803
0.05594451801272418
0.07424140480560551
0.11884811920253117
0.009249471616175597
-0.04964860646633817
-0.06500279859494534
-0.05083551266231505
-0.022555307907251302
0.006931255868508302
0.028814996347026302
0.03812777624230457
0.032709190360994705
0.012448099547212642
-0.020699708344851252
-0.06218637807094101
-0.10470178730946793
0.060738194664767854
0.042210815667033885
0.043652687321213836
0.06259106051281604
0.09037464190541297
-0.0845232633487293
-0.0709861734297796
-0.06967493380304483
-0.07005159695219089
-0.05201876377610705
0.0074159576931092175
0.12398230939435294
0.09564300610562078
0.09556237355190784
0.07168781470712203
-0.04584987154844225
-0.13082319456415345
-0.0439198186492529
-0.01704288296797048
-0.04272088163857392
-0.07093175098487063
-0.013938068216461765
0.041767744591463166
0.018585946999027016
0.02914023772312604
0.15933891564494113
0.056317671573559255
-0.07671604461005706
-0.07844080499949632
-0.02162186451128494
-0.0018903848745691228
0.07486638850757334
0.10539902393253746
0.0017414608774937751
-0.09729231745390186
-0.2177517535532328
-0.14816300986091907
-0.045358868162995634
0.15167752258870046
0.30360806632232196
0.25440874220882936
0.023058787126091298
-0.1938587853702458
-0.21074852662025284
-0.23892438645708952
-0.07684351104588184
0.09104857798843381
0.28717568841333463
0.12978566161692848
0.023885121695007613
-0.04162304014407605
-0.08990985070533407
-0.14785916756380812
-0.037372889252740335
0.030280756418087692
0.05564430128571174
0.04845143047226382
0.023138095829575236
-0.0055606674573190585
-0.02578845957430208
-0.030350462194777564
-0.01752883826843034
0.008603309896808275
0.03828950777156573
0.05701961273108445
0.047882534421056513
-0.004389869050180455
-0.10826342828712705
-0.06067616898120903
-0.04477564109909731
-0.03166777663939445
0.013625635704937572
0.12343789955965348
0.11861576530083083
0.002487888414520284
-0.0403713477958639
-0.040392046817539454
-0.035815264043142725
-0.06441875342445426
0.04373593214814082
0.07134402424262117
0.016433555758959658
-0.10734121674261189
-0.07270722613122282
-0.04342235422594794
0.018408572397514384
0.14348384338970752
0.14737589089651296
0.026432857773175434
-0.040612187738708005
-0.08565259258697101
-0.14139969634814573
-0.03235640361314224
0.03045331571354209
0.04985591927202071
0.03884460051424586
0.014858544307787136
-0.0059104380331788135
-0.01281558175117184
-0.0030993365958439005
0.01776125949822278
0.03759049066004491
0.04078708266251762
0.01301106836059262
-0.053532997872369356
-0.15571650803111892
-0.07792414225914436
0.0052246540072031855
0.12193031879502385
0.09413127182503098
0.1297317369400496
0.019368461425164876
-0.06083643935478373
-0.14156924550261948
-0.0506764498204743
-0.005139592820008354
-0.007236626530663399
-0.045623773488987
0.09962379381283856
0.0500256428970315
0.022118930515686013
0.023286180903638848
0.05101699726097051
-0.10460139279223159
-0.056438967046398475
-0.015754051974606203
0.010861919623917608
0.02226808424288725
0.021590411256307267
0.014038348764919021
0.004754164946715486
-0.0026214450184634383
-0.006452472947619633
-0.006839673429479536
-0.0049313295598072794
-0.0021719183202281757
0.00026014983832415195
0.0017229426422158414
0.002113944248818799
0.0017035005399679305
0.0009132051631439407
0.00012861835754980427
-0.00040789543707487306
-0.0006202436050882125
-0.0005613063076306265
-0.0003490888836137758
-0.00010600468936636243
8.091144405142432e-05
0.0001741273678015768
0.0001790914606326697
0.00012668769739478437
5.4207529507771056e-05
-8.65281865920968e-06
-4.621794254277633e-05
-5.644451957339557e-05
-4.635693435237236e-05
-2.6320897061174894e-05
-5.462550965520631e-06
1.0650412520401762e-05
2.009652974175533e-05
2.3260926757237393e-05
2.1155908979503422e-05
1.433592354072889e-05
2.893101873967234e-06
-1.2549184823442715e-05
-2.944657773822143e-05
-4.246558547831485e-05
-4.40415270242299e-05
-2.6852168549345762e-05
1.2093549294603713e-05
6.704483937028846e-05
0.00012092560556991055
0.00014698998593660917
0.0001163618326047215
1.1108844758938117e-05
-0.0001604441763621007
-0.0003524646690017594
-0.000482358122368544
-0.00045011268928659613
-0.00017749376603238764
0.0003407240968978955
0.0009917663885796327
0.0015319147395942148
0.0016305935095552746
0.000982860779672474
-0.0005254322077268793
-0.0026506329882605355
-0.004703644594095761
-0.005630858047818085
-0.004321524463691916
-0.00012133872902423567
0.006581488660374363
0.013944912717024482
0.018741304846350667
0.01715075319345197
0.006309692131970056
-0.013711087373519032
-0.0382300907157244
-0.05759707892038755
-0.05913107587438009
-0.03180783750870573
0.026870931772368233
0.10368282356848348
0.16508558567714704
0.15833143192193294
0.020212555882470083
-0.10726228776503055
-0.2582046783022758
-0.22753272967684543
-0.16540926885430415
0.014979957381073146
0.21757957121096264
0.33776938445298504
0.2398377088051564
0.14577695730280124
-0.16091617809230524
-0.3190398655023149
-0.36896741484080575
-0.1370067299282073
-0.031605824325756246
0.3479665431883305
0.3963169699927791
0.2894414806652039
-0.016737570241482373
-0.17425549274246818
-0.4221585737121212
-0.36672330395903996
-0.17335988621660162
0.023851155163461507
0.29673855912327207
0.4909650500321204
0.4004926824102163
0.16030971013290454
-0.1375372159817235
-0.40891661480058666
-0.5359987794597542
-0.3346949753091388
0.05640881620880964
0.16149444276718297
0.3329064281078189
0.3089300210775038
0.1778984834381802
-0.041035573165537326
0.003327174974980707
-0.18694526287046406
-0.12990670695448067
-0.13347630874167798
-0.07169224495403662
0.027733012913085924
-0.016645871618626105
0.04935840890692107
0.0982756682334422
0.0016731265769831087
0.013137514268425436
0.15680248255100773
0.023304663506169446
-0.02646174738457482
-0.05107593666995844
-0.114660595971148
-0.07301314082348928
0.036811495862566906
0.001480561411822787
0.03071610727561631
-0.047881226046189024
0.0031917092217955316
0.02232581087740469
0.040483621089687706
0.07533976883625676
0.12944123091968227
-0.006801300655618456
-0.14790354674997197
-0.1042203881051214
-0.0744608573134856
-0.042960639509712115
0.016960564642236328
0.13468413343918406
0.13211464249483992
0.015415812602585078
-0.02843885137571362
-0.029393432936102287
-0.02747621434762396
-0.0637645571212306
0.028397371102033723
0.030106206072158723
-0.05945661792752922
-0.02279957806706701
-0.027321183474618645
-0.03162480776648401
0.005922386760319362
0.11802342515872039
0.12095201777404359
0.011019625943569684
-0.033645800951668886
-0.04643236700026923
-0.06287525809764868
-0.11165125924160006
-0.008670835329522961
0.04429164895877344
0.05670561602477696
0.043852234221670505
0.021144583324328472
5.571246345443853e-05
-0.013518995264922198
-0.018677647463489086
-0.017580079488121937
-0.01322656612538555
-0.007806875936327009
-0.0020734097931191563
0.004255678592381706
0.011429061149726744
0.018523444262351425
0.02287386673984629
0.020564222544630334
0.008126899938008605
-0.014888805142385858
-0.043342478022109714
-0.06515339556864254
-0.06239346008375508
-0.015470920085940568
0.09004983960109149
0.05574782654089688
0.06441102492392291
0.07846078932978955
0.044244207905762584
-0.09803648263757876
-0.0008285402615430977
-0.0956044504793974
-0.18296434306564163
-0.029596012256620327
0.026553472703475533
0.0640063892184282
0.16187575047132305
0.1851564789651253
-0.024519394914539975
-0.050553407661254914
-0.09640078018460116
-0.17738081876142178
-0.11354586736135107
0.07331157722934425
0.1580415213244419
0.10819150963095663
0.08144922267369777
0.02749916654220787
-0.10503132795902594
-0.15856011870473477
-0.157213835444016
0.0981694075712947
0.02889490009284441
0.07195453407971576
0.07102327064308217
0.06803601062796395
-0.10254719573330263
-0.016298691406487497
-0.05910436149843258
-0.02661402112664699
0.07612557035259937
0.03480437759935721
0.026488817051925448
0.02162002113837185
-0.012373394803263946
-0.10650493208122014
-0.08605332821909177
0.03184206511558194
0.038259752959537804
0.13103447163435725
0.11355007343960986
-0.004550872696370031
-0.20450265388252095
-0.05514066058251277
-0.11219908204922396
-0.12267374713294173
0.1654134335505414
0.19031999149777548
0.1655592674328587
0.07540475356651373
0.07968032941143625
-0.2731255924685395
-0.22908895895749215
-0.2150574287079751
-0.03355984287762234
0.1315875129933236
0.301947163801699
0.29013338800739286
0.09180688652121698
-0.11178198622740355
-0.34184084860704606
-0.2067187252245283
-0.09108037238440275
0.044763222680196654
0.054511495580649855
0.18849890674166228
0.27606443166514866
0.11443643770214318
-0.1316861759862922
-0.11990629946066082
-0.11344357799487235
-0.16434585975744959
-0.10235150565648292
0.06756015376625495
0.1594359144088495
0.1959852891361355
-0.001517180621192565
-0.019130795177709974
-0.050671429877076624
-0.09416788825320611
-0.1473995898643215
-0.005407729994848664
0.1386483005599743
0.09002774677057686
0.04866921322731357
0.007631644313712616
-0.045181071091453646
-0.12278384890946281
-0.034412206963244665
0.01750641071806076
0.03759590096369281
0.03530613485106981
0.02154233363928949
0.005624303354567276
-0.006476059785206318
-0.012412020190911865
-0.012626563113401747
-0.009036033911260457
-0.0038224069441039005
0.0013067948186670224
0.005316507388224867
0.007656771913353021
0.00796370603353875
0.005910968683289593
0.0013554009948889467
-0.0052593182677312675
-0.012458056202538426
-0.017581151179362726
-0.017244725342677913
-0.008563330723044126
0.009039139736204812
0.031996896086730446
0.05162524078390018
0.05491260685128096
0.027594962528234734
-0.04083859888254335
-0.15167112349228284
-0.09331940522332523
-0.04176229704358578
0.03406776606161835
0.16321985812707912
0.16324003020788672
0.034126781880837814
-0.04167115121192068
-0.09321315458148789
-0.15158104141426323
-0.04080803726924771
0.027522372019154726
0.054714064440055735
0.05132342179212227
0.03167705480760347
0.00884507467872851
-0.008465162590097747
-0.016733815184964616
-0.016669265659737722
-0.011360749502816526
-0.004408545306934237
0.0013980945037752317
0.004655572792107729
0.005274230965477009
0.004022749842947345
0.0019728281435496967
5.413397373939753e-05
-0.001182549616344292
-0.0015973093982433295
-0.001354334645561596
-0.0007612994482736469
-0.00012481021607289346
0.00033978515317735963
0.0005379587765842856
0.0004805253742894244
0.0002467996712802699
-5.348409401508253e-05
-0.00030915570979210983
-0.0004272154204151646
-0.0003485500949444334
-6.475494259349743e-05
0.000364804362624258
0.0008044884556693505
0.0010565907726829884
0.0009106930461945107
0.00022935748324456073
-0.0009481934829061486
-0.002324606554710728
-0.003339327324637319
-0.003288562403277241
-0.0015853222423412455
0.0018863933799452236
0.006443087822814463
0.010476347344031713
0.0117112233478963
0.007944915862346597
-0.0018189804599017076
-0.016171193763948374
-0.03059085936293627
-0.037880999945284426
-0.030224528424053862
-0.002852239967325243
0.04142756368671502
0.08835548860840575
0.11094437568482947
0.07242487317879112
-0.06621953713171008
-0.1357137405137998
-0.14837119624451514
-0.09247400233919327
-0.13407178397586964
0.17361475637045365
0.276281449474293
0.20560909337577465
-0.02709901529539162
-0.027820001308027576
-0.20868040356241097
-0.17387164791386947
-0.1088982652978207
0.02213596107892014
0.06992015038244602
0.08638515997257887
0.10900426748529929
0.14820793708667515
-0.018134724270543894
-0.04165058875365442
0.006976113963092859
-0.14753237768470473
-0.17082005956606963
0.09130869271197159
0.016947588811505775
0.0061055348546021045
0.07461005304863548
0.04651134338735885
-0.052782989796326105
-0.0013412131546183916
0.01683213408690851
0.011430390929990474
-0.012896079952472722
-0.054120456733099426
0.09027453874329314
0.026659257672814542
-0.03155569608039095
-0.06150950012737964
-0.030248053948602457
-0.09702211851258262
-0.01923870188120861
0.03836318097987741
0.09319638138486135
0.13604010805193595
0.12732646357825808
0.0007677176249386828
-0.12569158695162444
-0.13429399651543175
-0.09179303553896977
-0.03824021233200487
0.016993658863759066
0.09183096415428009
0.02286762808855559
0.054751150706836144
0.030596235095461135
-0.014576058675606041
-0.05670285578182762
0.11773791678644252
-0.08561513308771168
-0.06538407726801537
-0.02116079254382346
0.04837681118433556
-0.05451323762828704
0.071905469208021
0.02689786534486774
0.0059285629036922765
0.000754267443647424
0.0011439174927418184
-0.002201666748743469
-0.014404702930655693
-0.033901832423084824
-0.05169981590022168
-0.053147941760259845
-0.022373173932316023
0.05143773401679472
0.16783807080752844
0.11168223647583327
0.05484750291928728
-0.03614133463752796
-0.1884308395379852
-0.21127892476642676
-0.08955159395427958
0.014291947152298373
0.1496100172694374
0.16187909390076555
0.0775211283443549
0.09462701723570162
-0.017397469273899048
-0.10945744147311995
-0.038668346522948774
-0.053060030486734994
-0.17960141606498012
-0.018780877633069685
0.0530830418586328
0.07499525164737049
0.08913348379735526
0.12953933179479052
0.015185804980655205
-0.05089417495406271
-0.07706818489564529
-0.07570387127280104
-0.056177965417173514
-0.020918699464325338
0.034464558057108935
0.1176656022487441
0.034717086476941925
-0.014247749204723431
-0.037127172863651754
-0.04977056022409259
-0.07450476026234763
0.061852720376272326
0.1303213762491659
0.10310621210008866
-0.04120072696034058
-0.11075192806802289
-0.09379775289384366
-0.1553039566556957
-0.03948434010619917
0.12107126942764236
0.19167785267877402
0.021325769234658214
0.032352987985425116
0.016858092461197665
-0.05978273064083449
-0.05003104491699266
-0.012740029518858416
-0.0020015762424307358
-0.05849468168372243
-0.004631399534414908
-0.04392317450686092
0.035809228648500065
0.05652541433127424
0.04309038451333952
0.017301129515271022
-0.005809915149322035
-0.018947048342659027
-0.021278552745045427
-0.015945950536151058
-0.007439950158848132
0.0003782209562866103
0.005281679964283048
0.006781096526999222
0.005639140820061503
0.0031701730144142364
0.0006249690781808487
-0.0011781029503445367
-0.001950889006222932
-0.001831432441386353
-0.0011848792483361425
-0.0004064561524982776
0.00021270186545660355
0.0005380563925104447
0.0005760887972841016
0.00042048448667293095
0.00019089415391714362
-1.3909858385421767e-05
-0.00013916323550785593
-0.00017502255484797179
-0.00014313600168151743
-7.832668165780611e-05
-1.2894938841600254e-05
3.25273567549369e-05
5.1125043837079125e-05
4.6950497622981676e-05
2.966878069417831e-05
9.48250972361964e-06
-6.247003795078162e-06
-1.4251698166675297e-05
-1.4872535872996033e-05
-1.062772940885677e-05
-4.627879999473129e-06
6.115477541282229e-07
3.7360407315528118e-06
4.548036294512456e-06
3.643624253743845e-06
1.935193175478813e-06
2.5076021982032743e-07
-8.932392648510879e-07
-1.3385574672153303e-06
-1.202931405090192e-06
-7.420110144476346e-07
-2.1899094994518615e-07
1.8023106653714962e-07
3.7663370576731354e-07
3.834613329383138e-07
2.682084684751297e-07
1.1164930731810988e-07
-2.2226832935983726e-08
-1.0000456986621304e-07
-1.1803359966622071e-07
-9.263539583226996e-08
-4.767890082728861e-08
-4.365691941414638e-09
2.4401588502770657e-08
3.499472753686997e-08
3.078517250291812e-08
1.8522024867625562e-08
4.987018102631166e-09
-5.132183291475501e-09
-9.93464653801764e-09
-9.875471935133609e-09
-6.758602482466988e-09
-2.6789319809694045e-09
7.377906648884169e-10
2.6696133054587093e-09
3.0594848718916597e-09
2.3521300480467303e-09
1.1710933153946637e-09
5.863012646144779e-11
-6.635293106092846e-10
-9.135192125097662e-10
-7.867830848389725e-10
-4.612045936816745e-10
-1.1136995330961796e-10
1.4466256739148244e-10
2.614308037618111e-10
2.5361302404177097e-10
1.6940195486946043e-10
6.320141847299302e-11
-2.361112329053596e-11
-7.08380769551913e-11
-7.806730016901059e-11
-5.765835152076997e-11
-2.6321193905311828e-11
1.6310043354607895e-12
1.7932052608840976e-11
2.0956468767043242e-11
1.4175873770090276e-11
3.640846003806714e-12
-4.555842382406453e-12
-6.263989591724234e-12
-4.710886808297053e-13
1.0361297479720526e-11
2.0863272562750572e-11
2.4268112571761715e-11
1.480073429462811e-11
-9.429725879179137e-12
-4.385663198350547e-11
-7.64333204040034e-11
-8.94678925261438e-11
-6.508134639521919e-11
6.220523413408741e-12
1.1618398879580258e-10
2.327320606239027e-10
3.0203874686983657e-10
2.624554031907069e-10
7.032371876901072e-11
-2.681186232174918e-10
-6.709018638754057e-10
-9.767976026341786e-10
-9.78784182366568e-10
-4.994866188876933e-10
5.042159845572821e-10
1.8420303094068669e-09
3.0485600917153404e-09
3.452989593214588e-09
2.390442287536649e-09
-4.669119485717604e-10
-4.7526686796888025e-09
-9.183808577844111e-09
-1.166096368276211e-08
-9.829191176270881e-09
-2.0901883362205723e-09
1.1170858372620847e-08
2.662382301183451e-08
3.7925454447503086e-08
3.709653671002712e-08
1.7504629147200394e-08
-2.2085634576957904e-08
-7.377110633333991e-08
-1.191006641364593e-07
-1.320458949822646e-07
-8.743028287896089e-08
2.6168871799319614e-08
1.9280799380084677e-07
3.611502872659235e-07
4.4922213458447175e-07
3.670286480599071e-07
5.6249018709104056e-08
-4.626372951109101e-07
-1.0547051055691132e-06
-1.4706492713067871e-06
-1.403257205454584e-06
-6.051976367276402e-07
9.543329989947362e-07
2.9487505977078746e-06
4.647591180413898e-06
5.0420726283635e-06
3.1806966617429694e-06
-1.3285859164813513e-06
-7.800444519176508e-06
-1.4184567635619525e-05
-1.7283816756260308e-05
-1.3664180872743955e-05
-1.2096314654885753e-06
1.907006334710173e-05
4.1722664758842426e-05
5.6961883935777234e-05
5.297463483859595e-05
2.0566331497599484e-05
-4.0787989554815335e-05
-0.00011765285372302465
-0.00018115058304100796
-0.00019222976633858816
-0.00011500571123060913
6.371614042622609e-05
0.0003147662696256827
0.0005563945184921944
0.0006640346959898137
0.0005068355186676197
8.49118420008427e-06
-0.0007834999831051592
-0.0016493809842801704
-0.0022054213279700885
-0.001997751578778818
-0.0006850791896800682
0.0017283169240012227
0.004695200866603741
0.007081928231265681
0.007390205341506085
0.004289245465141001
-0.002623609080537755
-0.012077280010388458
-0.02077746491570569
-0.023868720623936034
-0.016481866746437663
0.003703153085403599
0.03343299207597561
0.06140634527984205
0.067542759001813
0.024859691081408463
-0.09608502834446357
-0.12143403713362767
-0.06904518779369549
0.05384861368425674
0.04985098881858915
0.12879223705565973
0.10566236813137626
0.0010782676440232706
-0.1554043159849902
-0.12096294335531903
-0.03736899975181224
-0.03394619123928215
-0.03668475235455991
0.01785136765754829
0.1672050964180759
0.21080631627593185
0.10525943779648306
-0.030180594152909645
-0.09846549345996043
-0.20398744248873973
-0.23242546783510745
-0.03718165253182602
0.16432937374540602
0.18526710489614603
0.05885264672903713
0.027683511695705595
-0.06385781363309605
-0.173624289475139
-0.06377284609833538
0.09714608784461427
0.1313754081201463
0.049457129074356246
0.049861335317520655
-0.078320472880476
-0.15051326763221148
-0.18202244139538395
0.013905679898850746
0.2245142644531834
0.2342252816454344
0.02308892723055916
-0.030160846131909676
-0.14051761139972976
-0.3079786798013388
-0.11266803623849858
0.08242480056903244
0.12084898639966843
0.23805452771032468
0.24890416275752356
-0.05710062863445248
-0.11067522649913926
-0.14993634549824345
-0.20551464024787255
-0.08988120241117892
0.004915163915792866
0.10062334042805511
0.22052312881077787
0.17698602030863378
-0.035845153945529826
-0.04144896039344201
-0.07315786460051658
-0.16292822686756517
-0.13141164476069708
0.016875170761214833
0.09189302809282628
0.11138027823439305
0.0925721512700211
0.0460889301848198
-0.025685323131801458
-0.12569058810626058
-0.05670156283985729
-0.01606888876670413
0.007046716479963068
0.0311300380218459
0.07908526512203394
-0.02628463474758438
-0.06678730649724879
-0.03261357701387701
0.0748848869245623
0.04173448388793426
0.041893247366579185
0.040561575124655906
0.0003405179861981089
-0.11079184428166097
-0.11174916615937326
-0.003279184237744685
0.0326689084888204
0.028926504200834337
0.025784485602301007
0.062541067558933
-0.030021201428733896
-0.0348743716019815
0.04883095421647041
0.006112532209679577
0.008999199666824212
0.02148713126932226
0.005988483068272631
-0.06973283407440745
-0.026493463130024993
-0.06992520286538362
0.009954401423181422
0.03569525823545184
0.03683544917296671
0.04352406005596493
0.08121152084869988
-0.03231291406370805
-0.08732967945552918
-0.08095234550531048
-0.01571779461805448
0.10094084566009988
0.056446860369229766
0.03320229722815882
0.010316902401005273
-0.03272985124132157
-0.11143470768650443
-0.03241558481276938
0.007884550510967269
0.02108120276183744
0.021760801659800665
0.02086778279690323
0.019342291180983105
0.003530272039031356
-0.05663845274526544
-0.006208278596356388
0.09975900070705804
0.20493593078227768
0.06441782364077588
-0.1395499462144737
-0.18182523964073155
-0.18378032074418285
-0.21355536901311822
-0.10075577249004573
0.13502178585731542
0.24737950437165823
0.32741333928329364
0.17955261958324295
0.1168065701923142
-0.02224054140484909
-0.23885850971376174
-0.3314752320898139
-0.25662578490701865
-0.10383391990730459
0.110181063343919
0.22907059761348095
0.13276565396189413
0.1106697580569208
0.0399235466541593
-0.026917721239019855
-0.06432251056339887
-0.0687569898941042
-0.04994908096038668
-0.022047016776357734
0.00287800235547826
0.018040087527704644
0.022193765478126005
0.01801035077875699
0.009806621859616673
0.0015878292440102946
-0.004093789915780756
-0.006406572491249886
-0.005870405665103756
-0.003700373300849256
-0.0011737300713135395
0.0007905988040527807
0.0017866698606167448
0.0018595825698744536
0.001325721882896773
0.0005744596142386296
-8.006343541208292e-05
-0.0004692588737589911
-0.000569199554372393
-0.000454948237034431
-0.00024079344560959935
-3.020384124335864e-05
0.00011246300520373172
0.0001676653450275764
0.00015031193192457126
9.246083340634534e-05
2.7024656729302258e-05
-2.28062742021942e-05
-4.7224637051165584e-05
-4.7949230941801575e-05
-3.3455918286979555e-05
-1.3853031588957229e-05
2.8702021758948433e-06
1.2556638904550169e-05
1.4770144430675982e-05
1.1565009367002942e-05
5.93073267148563e-06
5.163542664262154e-07
-3.070545407791131e-06
-4.3826420774425335e-06
-3.846237604134938e-06
-2.3074792590797932e-06
-6.143166087557166e-07
6.485725808719459e-07
1.2454101823768852e-06
1.234702005077433e-06
8.429151263567943e-07
3.3217405536053294e-07
-9.457192834146397e-08
-3.3510074107157165e-07
-3.82799741742623e-07
-2.9361408176483986e-07
-1.4562653756858775e-07
-6.579029688712513e-09
8.345323091214154e-08
1.1439730085599003e-07
9.830483455526588e-08
5.746856622029398e-08
1.370971861377128e-08
-1.8253239774602033e-08
-3.278562038587473e-08
-3.175743340934632e-08
-2.1204086456906622e-08
-7.914602513706797e-09
2.9621433039463266e-09
8.920610909808676e-09
9.909091778314675e-09
7.44463583325366e-09
3.5638526842313463e-09
-2.9690196130557834e-12
-2.2589096683974947e-09
-2.9819455111808893e-09
-2.5095921039446606e-09
-1.4281613178574782e-09
-2.9856119272322486e-10
5.092795738441258e-10
8.616254727458903e-10
8.158917114180298e-10
5.325384530889876e-10
1.87190853432402e-10
-8.969483062000396e-11
-2.3692202615391584e-10
-2.562000926220041e-10
-1.8850839155791932e-10
-8.689553396117586e-11
4.49508916266441e-12
6.091979384051445e-11
7.762555152309448e-11
6.399031169125816e-11
3.540895931463192e-11
6.283012281260898e-12
-1.4105311938638904e-11
-2.260740666506986e-11
-2.0937454123458495e-11
-1.3351986228214818e-11
-4.388883561692736e-12
2.650979332823206e-12
6.278726019594661e-12
6.616270991807882e-12
4.766722619628554e-12
2.1100515356039824e-12
-2.28899976157999e-13
-1.637473587280876e-12
-2.0181320323414355e-12
-1.629689718584824e-12
-8.757336842159366e-13
-1.2560555288264147e-13
3.8819153955584736e-13
5.922378513447004e-13
5.366660130382701e-13
3.34152408430009e-13
1.0181192606772847e-13
-7.695152388499464e-14
-1.660717295188706e-13
-1.706812365629528e-13
-1.2038018499247151e-13
-5.102023646581341e-14
8.770824452427019e-15
4.386290975693079e-14
5.238439284037332e-14
4.143641060039414e-14
2.1583200899423348e-14
2.286042627590372e-15
-1.0641936969231497e-14
-1.5508618220997282e-14
-1.375704864543326e-14
-8.364038847456366e-15
-2.3486257916648693e-15
2.1848475960662745e-15
4.366988286554944e-15
4.380902753628473e-15
3.018557493662945e-15
1.21021311926155e-15
-3.164445571484396e-16
-1.1888175496023523e-15
-1.3751712166981606e-15
-1.0693440442564603e-15
-5.474596303007439e-16
-5.160421449359139e-17
2.731613498786478e-16
3.884015884821453e-16
3.351321962527442e-16
1.918509711395516e-16
3.6294487440237315e-17
-7.852257170798514e-17
-1.3175934550267836e-16
-1.2943130761350054e-16
-9.267119911026827e-17
-4.5587317953758876e-17
-6.6531336396868255e-18
1.4983755211446398e-17
1.8929043511196578e-17
1.0449928881332361e-17
-3.246584471081094e-18
-1.597342815804545e-17
-2.4118171590752946e-17
-2.6823904869865163e-17
-2.5244449170487944e-17
-2.1446102514901306e-17
-1.7428198295268568e-17
-1.4524255925625355e-17
-1.3230683313097125e-17
-1.3359422865044867e-17
-1.434797024165088e-17
-1.5572297239715066e-17
-1.6564034941389285e-17
-1.7099355404528765e-17
-1.717895647786602e-17
-1.6945384581091174e-17
-1.6586489638523527e-17
-1.6260210488649994e-17
-1.6056310730118585e-17
-1.599342627596822e-17
-1.603937664297402e-17
-1.6139862533513414e-17
-1.6243521116182866e-17
-1.631686380916875e-17
-1.6348154350915805e-17
-1.634307968074026e-17
-1.631657774113465e-17
-1.6284781913847993e-17
-1.625955118381621e-17
-1.6246342027023996e-17
-1.6244858336071285e-17
-1.6251256454688402e-17
-1.6260646604324162e-17
-1.6269001841244908e-17
-1.6274096873965658e-17
-1.6275540288593458e-17
-1.627422308950812e-17
-1.627156987911601e-17
-1.6268898660833525e-17
-1.626704900186832e-17
-1.626629594593033e-17
-1.626647157520858e-17
-1.6267180053986244e-17
-1.6268004765661592e-17
-1.626864585638355e-17
-1.6268970854658623e-17
-1.6268994506275616e-17
-1.6268820108997904e-17
-1.6268574779995887e-17
-1.626836106954514e-17
-1.6268234005717035e-17
-1.6268201388292553e-17
-1.6268238701711692e-17
-1.6268308627817972e-17
-1.6268377384503143e-17
-1.626842396117196e-17
-1.626844197989739e-17
-1.6268436310208608e-17
-1.6268417419893972e-17
-1.6268396054855693e-17
-1.6268379786124558e-17
-1.6268371815027636e-17
-1.626837157975595e-17
-1.626837631260467e-17
-1.626838271315363e-17
-1.6268388173067727e-17
-1.6268391335265963e-17
-1.6268392057556626e-17
-1.6268391010794562e-17
-1.6268389171091176e-17
-1.626838740332923e-17
-1.6268386232320445e-17
-1.6268385804050787e-17
-1.6268385979286346e-17
-1.6268386481740178e-17
-1.6268387034559846e-17
-1.626838744686471e-17
-1.626838764169324e-17
-1.6268387638163534e-17
-1.6268387510225497e-17
-1.6268387343463826e-17
-1.6268387204137543e-17
-1.6268387125616307e-17
-1.6268387110053875e-17
-1.626838713918081e-17
-1.6268387187501924e-17
-1.6268387232899976e-17
-1.6268387262291787e-17
-1.626838727239013e-17
-1.6268387267131306e-17
-1.626838725379508e-17
-1.626838723950702e-17
-1.6268387229073344e-17
-1.6268387224333846e-17
-1.6268387224677105e-17
-1.6268387228130436e-17
