0
-8.927368978897353e-10
-9.552397606298464e-10
-5.832718392471974e-10
2.9203451490085297e-10
1.531465393347573e-09
2.7355555302750634e-09
3.2903942082343567e-09
2.5457010100754047e-09
1.1418591641119404e-10
-3.784939242412287e-09
-8.08195995245027e-09
-1.0890175964422954e-08
-9.961498175444613e-09
-3.5845871630312957e-09
8.26022099275089e-09
2.2909323071278614e-08
3.477107015168151e-08
3.6381906984181065e-08
2.099803739539702e-08
-1.3663337941259016e-08
-6.170971500193523e-08
-1.0723202175525537e-07
-1.2633097612037078e-07
-9.42573279597179e-08
2.8846012097947926e-09
1.5498912185386633e-07
3.189983089316132e-07
4.2099524367734866e-07
3.7472011977611296e-07
1.1691647438027128e-07
-3.4814300533622866e-07
-9.115661296979408e-07
-1.3527808868537877e-06
-1.3834149737624156e-06
-7.500576030111565e-07
6.205622324720141e-07
2.480907739596741e-06
4.198418233943714e-06
4.843766922444301e-06
3.476598059263652e-06
-3.974499171891723e-07
-6.324245001697758e-06
-1.2574431118540344e-05
-1.625550697332371e-05
-1.4062178186513648e-05
-3.66566875828567e-06
1.4571814914441913e-05
3.621365866970399e-05
5.2570376767531616e-05
5.251345681282598e-05
2.654401364108838e-05
-2.7580098591776047e-05
-9.952729338959129e-05
-0.0001641857148248687
-0.00018546002713338736
-0.0001276850003022253
2.6547771635225638e-05
0.0002572127576507428
0.0004949897044428919
0.0006268106787768108
0.0005261851208411832
0.00010774060975743258
-0.0006068413685523726
-0.0014373681365268275
-0.00204190380000376
-0.001991312955044308
-0.0009299218087259641
0.0012070118546960928
0.003993413481567478
0.006439097047943782
0.0071530371469775665
0.004800408941258327
-0.00120135405796558
-0.00995306211706194
-0.018655385401983447
-0.022899796256091974
-0.017962655750002984
-0.0010985440961799994
0.02562073945901563
0.05283596182024488
0.0629621092321097
0.03175040338958337
-0.06741815634101991
-0.05736403755256479
0.049142156787462976
0.05361079237353818
-0.027789738512586298
-0.16923526854370594
-0.34705081296111184
-0.3591156105802767
-0.05015490502163048
0.4638872557247807
1.1854967582915752
1.4558852991923747
0.6179979235211965
-0.8815888095997553
-3.179666916045567
-1.9203445304063849
-1.0648369504975561
0.39087874402396
2.6149136893166403
6.522918925328694
-1.5693885267720298
-1.5653202617965152
-1.276281674121518
-1.2363487163790443
-3.92193465793789
1.959901144044981
1.6916739566386292
1.2958428979660517
0.4649785070476435
0.720554982847304
0.02452660115633917
-0.9636003237308186
-1.8158059502417112
-1.6930483780945298
-0.5671194488313032
1.081252986637144
2.1102219403942595
1.9611583651330833
0.9571596455250301
-0.9066032267659005
-1.4809108733842131
-1.5256687613532427
-0.7722442647895185
-0.030431249095246225
1.2413137682280162
1.1133534245139696
0.13909095097244803
-0.2851298979232168
-0.339607131708333
-0.3823504763922031
-0.14322800436214672
0.07745610797491817
0.20084657820312532
0.15368948234233337
0.05051311599376256
-0.020355583839988322
-0.0037210377565566103
-0.07725795443093797
-0.04595085793986758
0.0662879731735303
0.025793118222106202
-0.002152921041115257
-0.045937385218640235
-0.1224917166525603
-0.0355083314124827
0.02235690196497651
0.06386311579820086
0.10016215460509253
0.13521948409512985
-0.035875760371743705
-0.023854065109447174
-0.03873452279054571
-0.08282309852840633
-0.14688587408279066
-0.2125338527033317
-0.06206917119834605
0.10585854318847068
0.2600101771225316
0.5278931137898922
0.6032147322734632
0.17413369576128498
-0.43145268649153135
-0.9982752801510552
-1.3968690482378154
-1.2005201717658294
-0.15604534846472948
1.7057835715241476
3.961407567563373
1.9434893491415368
-1.0078272822482222
-1.1882263158685138
-2.5168408068990806
-4.553806682184877
-1.2318813218780393
2.2544678987205944
2.623731073952586
2.6267998974309643
2.416940289297748
-0.14627367439582886
-0.6314639257048358
-3.443185600279639
-1.7813393074288866
-1.039997790596924
0.6928753683084679
0.6206955125616869
2.5397725405913945
0.5128207862039067
-0.03253999123366517
-0.5510487634767539
-0.7739576223036406
-0.6730514954117419
-0.22310773826408406
0.21718304254612722
0.5008452935145872
0.4731685549128675
0.15167578491267394
-0.0824217911030162
-0.2772429402853315
-0.2921928793822726
-0.17801359548632922
0.03652470727315626
0.14726521140535656
0.16810407561992016
0.12035264059807499
0.023638013073310548
-0.10823097079574609
-0.06620916964574036
-0.04200808133650343
-0.02412288106065066
0.003922796352387575
0.0624011155216618
-0.028180320400713523
-0.05185008666498247
-0.001907698457801806
0.11555449024682171
0.08058724108018056
0.06197574392426332
0.02394786186758539
-0.06412209006308739
-0.2180020284110966
-0.23306233340049096
-0.08667427677614947
0.05017480244413348
0.19480661521861473
0.33500233036008914
0.41984559063293553
0.16596909454525524
-0.3194832263022993
-0.5053118280082836
-0.40445729852314466
-0.35756103144109924
-0.040427110005742464
0.5056934453615007
1.4319489564526826
-0.9559878358406704
-0.018126321134683324
0.4216150281374054
-0.10564343524379936
-1.2868228806950335
0.998721275340437
0.09671563312572581
-0.4151301980986016
-0.12962251983313375
0.18032852643927902
0.14722403445377344
-0.0073293077354053045
-0.08657184144280325
0.0736188001390369
0.20547926982167175
0.4197159457146605
0.025007776663191813
-0.6468148978440925
-0.6176830373608783
-0.2525878062037729
-0.06856713135517195
0.6382603640381279
1.3597879636973167
0.7547919514329438
-0.747452396827416
-1.5204970602261263
-1.1093771579974694
-0.4194843031344039
1.0600694978555505
1.606613344302495
1.2150087999114516
-0.01978919171503782
-0.8742738152559577
-1.733496267696095
-0.925068144200242
0.11676605370436918
0.840650700306655
0.9297955289820234
0.6426401252218843
0.17191843551461397
-0.16039248446853174
-0.47281048240652557
-0.6744100896717145
-0.4174122229422786
-0.07151229406896017
0.07092359784652831
0.36216259931281214
0.5522035574168984
0.3449808825335876
-0.027733240924572748
-0.20801866507253172
-0.2918849216753744
-0.19746404955422622
-0.03283146089275927
0.12797448116408863
0.057187370097866154
-0.02555917544300221
-0.0607432348694714
-0.1627490794314724
-0.038072714288715497
0.1943720507718431
0.18459002580910214
0.1394685472640907
0.22188628927338264
-0.03729642520809982
-0.31695039027271055
-0.27985695820959083
-0.15218900997375004
-0.11569632860572088
0.08466467282360117
0.3207844184712146
0.2568062416636763
0.1289363042436479
-0.06362095754804716
-0.1548226938433713
-0.1983860879518136
-0.05107730539591105
0.041303565275444036
0.05179170214913035
-0.026442130649754283
0.01618362792042311
-0.0009811115589056557
-0.05647874602283166
0.06621671366383543
0.17386548702260074
0.062330187801460935
-0.08001242341555605
-0.06500584002787717
-0.09613997542551869
-0.16224187316774605
-0.03645273815822292
0.11846564735264392
0.14005536461449844
0.05495091449411369
0.07064506945021776
-0.026995709706691025
-0.07002852028086395
-0.1002294833468484
0.040855987655961566
0.12102994161477372
-0.07592919222844993
-0.1470162630073564
-0.07083770628772497
-0.013052067522444958
0.06413232611213865
0.19075586242332854
0.1799888882621388
0.024768758273885586
-0.09816468813222705
-0.2183770204905344
-0.16021966110331018
0.06548839374485446
0.0636100281074695
0.050813473697744534
0.048286159230362106
0.074378002575884
-0.06029686524243976
0.04576286392413023
-0.01323863954442465
-0.04666599172634312
-0.06352911496142258
-0.07004740437695563
-0.06983383811102292
0.13329650278499483
0.13135557267407835
0.10961007875441797
0.047833185464727
-0.07388851503015247
-0.2666329394282634
-0.12529320511261402
-0.0264788250845301
0.0663449848244683
0.19190717442245733
0.1786779384467331
0.03600673686787229
-0.04772413364141218
-0.09969479432518007
-0.1528003134123231
-0.035620163255762775
0.034135978924821474
0.05106553492507287
0.018959103902482257
-0.054963684006150586
0.03364916438891104
0.08119289387938727
0.07355555573161313
-0.013011701818930457
-0.007559520750923447
-0.13781223694149874
-0.22340633703344143
0.1288753713329628
0.3271273137100562
0.19482548430538096
-0.22823255019459507
-0.28436633909874665
-0.29871221571209117
0.013626797576224101
0.13217001778925985
0.3104786607824431
0.15775020468274845
0.23089823445743982
0.8424915984081782
-1.5159572811710824
-0.3428204436922843
0.5006080989795509
-0.19776838810988126
-1.0069188700187233
1.7280505287870953
0.8639217068481044
-0.35382359943424685
-0.8895535792831282
-1.1070925510685694
-0.5652495460759906
0.36850118884205757
2.0885997561405687
0.3251593544828964
1.745410366543396
-1.804328422776701
-1.6271960501291407
-1.9078491345123043
0.9139626578753292
-0.4922926297639773
2.164031151239991
1.0896109103928366
0.12750142640327453
-0.2669586155572055
-0.3888010845658995
-0.4017731013073072
-0.4416782044458453
-0.33388260500937467
-0.34600623061581776
-0.18535252451738693
0.16129691327206944
0.3585366200585269
0.6444616188516038
0.7672469828700994
0.35530234954640055
-0.2705601051488306
-0.6491615775738091
-0.9147250142708025
-0.5418330414361032
0.07972098388407164
0.43304894942923067
0.6340568615886056
0.5827068425580748
0.12637620971525268
-0.3519278933992806
-0.3199948973030935
-0.2672747737369938
-0.07393833837458871
0.010805591749594357
0.17629290483756768
0.04491583153944911
-0.14217341337085207
-0.14341564626403222
0.0647678734362044
0.27341757083820456
0.434926899363699
0.2700385861726263
-0.11020560328529838
-0.5716908816864126
-0.524371628904869
-0.30312757462444806
0.02725420388626997
0.2415372213490346
0.5068079028428571
0.3342100475432089
0.14577334930303265
0.0669831247304149
-0.0529693460786844
-0.19974750217607942
-0.34337223127443145
-0.19266193046510674
-0.16671659881011297
0.009356756206699466
0.08365558692862754
0.03665101778810833
-0.17084616742240072
-0.05050250628076792
0.17074818975546918
0.5291370606134627
0.9349762600463123
0.8246764528807926
0.2541130851697076
-0.981362740044012
-2.0326997708888306
-1.9329128947553023
-1.2228203313613648
0.11823512371640124
2.66160249826152
3.702395997520724
1.6984676889601915
-0.15939617727817623
-1.429599064492382
-2.796881690061638
-2.627758156890482
-0.5911144997863773
1.0018388238009948
1.535891491684495
1.352226049661341
0.7955049410245156
0.303559327084924
-0.2321696372329167
-0.6385801962550206
-0.9915284282561001
-0.7410083183808235
-0.26252036193700257
0.1486155543280751
0.642559208458071
0.9587243569059057
0.5741486427409118
-0.12160471527977498
-0.4164198695862715
-0.637931217067735
-0.5066323816177017
-0.099564290780735
0.36333589467055194
0.3097918549673634
0.19165653022021542
0.059532309997188164
-0.05510955379112719
-0.1467226056815443
-0.032800374573535664
0.054920730659809146
0.08152014304762711
0.019739696437221645
-0.14110883117505202
-0.19006564115825036
-0.09543470703382949
-0.012985602822086157
0.09966481714437292
0.26665586597630564
0.28169341252508157
0.10595078547253584
-0.1212192519504839
-0.2610646315564963
-0.15067309582666122
-0.18361918693113066
-0.10337263099161104
-0.012598668582442843
0.20355095761237943
0.04627279318469912
0.17247575137096416
0.1729576564347958
0.16544154346285653
0.004903508934147685
-0.0906527076426277
-0.3049247366008883
-0.1872000420004601
-0.024151702480496546
-0.22547957496401513
0.07534531645773927
0.6088160837664148
0.3525079424459876
-0.08340577735080748
-0.2653484437836437
-0.5441721779558942
-0.8707370143163083
-0.22760619616834574
0.7227711278507609
1.185444086467365
0.9980520441225889
0.2357961498600056
-0.5345230313648164
-1.1629145605685383
-1.0161698608869303
-0.5034871360945052
0.3485144043057438
0.6679149794568675
0.6732438830283477
0.3998806152732282
0.04196761679697677
-0.27671387290547894
-0.3031548311671957
-0.2368328545492935
-0.10571406928864177
0.05347577873646422
0.20659995651704435
0.12633586233350932
-0.006790883167553224
-0.0030705985878584966
-0.06085163612599861
-0.16368869819738033
-0.0798984883552494
0.0334666618028752
0.0220200930697971
0.12286066657712225
0.15445313380697692
0.11135816105194214
-0.03387339496043161
-0.12197856926556655
-0.19457849631783955
-0.08287111824925572
-0.001733026842501704
0.04883467884634078
0.07603471349499946
0.08376885987082831
0.06339139477076905
-0.010985846579051129
0.018973676534744428
0.10322121112785734
-0.005141946156264144
-0.13714861322880634
-0.29796286889124995
-0.263706737268584
0.012281760827939999
0.38493924450710293
0.5007014205902982
0.3873116446632045
-0.14282168143906848
-0.47558586213166876
-0.5727390694271911
-0.35730433183896865
-0.11789451812717046
0.4654425022169564
0.48198111069454375
0.5532930497978154
0.21455829032956186
-0.07650777403231475
-0.5048795762018959
-0.6496334999359332
-0.2384568869974434
0.8804468954849676
-0.8570952076559938
0.25218155013254784
0.5485939538496633
-0.026005676832588673
-0.9608655930073808
1.2000255416860077
0.24732182895744856
-0.0886963348253563
-0.3175577658294375
-0.3577632193048255
-0.3060672301218536
-0.017676213621871554
0.09684391079913389
0.25945328837012066
0.3046223071266457
0.06068727667007006
-0.060326372157098886
-0.06209964544329148
-0.15518702085833386
-0.14534308607030935
-0.02450466952610961
0.032094747866660805
0.062151409098000814
0.10792702678525207
0.006648118109368975
-0.01723021502028742
0.043927765876296175
-0.019065111429337447
-0.02888598877177528
-0.016286577625640227
-0.013998526440821986
-0.05118479842133989
0.05079156180088419
0.08109213258430382
0.040874877908602246
-0.056272277750599245
-0.18536579091731165
-0.11371328261075522
-0.008330650067530797
0.15338567232336706
0.1726269173361783
0.2224248850640517
0.04949818691571955
-0.013710673776967308
-0.229290417909059
-0.23257738342862963
-0.21708084224571753
-0.13191809879111557
0.10610527677118096
0.1890631647855872
0.3910404521522024
0.3476125843167394
0.049440008474816395
-0.3478696203589848
-0.30261207712231303
-0.464795853329491
-0.26359801944432476
0.2898530590368344
0.5869625881774873
0.40347290349511356
0.0910842418248953
-0.21288557521794
0.04179782809931009
0.8545029220645697
-1.8950263322345657
-0.8363809216214646
-0.13330316696068428
-0.14864159378178946
-0.3374160748422523
3.2628778767353483
2.786930198217469
-0.021415498913288342
-1.2792584975785941
-2.3741935059132935
-3.1839517053973365
-2.386341568461876
0.68855490051383
2.467877979614672
3.270800296904752
2.667750001053407
0.5560871929907141
-0.8027024496928941
-2.6038423694052693
-2.6507566212878197
-1.1297399188757253
0.11838932098066055
0.8012357327448273
1.6734716817123567
1.1849069048548637
0.3378331045457698
-0.0035084976351867684
-0.5369221522226338
-0.6917286029766434
-0.5708877032935599
-0.2944068300629035
0.036549342780441384
0.5496025232292335
0.5928192989111591
0.3224222649504153
-0.10083156521191439
-0.5024294189206343
-0.47793838696238083
-0.3816656039436302
0.06963878359753263
0.37564566674541194
0.621058123648106
0.247162221252174
0.03870992808459583
-0.26854469210791465
-0.3636941510913918
-0.3306800149499093
-0.024351497189526564
0.13974697184259996
0.18098339941440553
0.1395219188319433
0.05965484385785332
-0.02354606253526505
-0.09161900438991237
-0.14461930608619214
0.0003500940077053128
0.11211255227134478
0.14949048384415892
0.06742231017356877
0.026036466979581868
-0.19806071217765295
-0.20129014034074136
-0.14767745125192158
0.028112269721282997
0.008926635684482315
0.2779473322806299
0.9023872410276748
-0.8758704116767546
-0.2403315211895535
0.20628731356184257
-0.15166668834427882
-0.740996855684903
1.1975016470122475
0.8057711747276806
-0.7892459364801094
-0.4650117433040312
-0.28893197395669784
-0.30969955639103225
-0.3616715124733249
1.1194325842823487
1.0809311414197358
0.45359708181170705
-0.22109854167942655
-0.9406616870477799
-1.3887794016914004
-0.9093196732790388
-0.1301598901348289
0.9598842159989601
1.3022243085059342
1.2660739609351899
0.39148262700945885
-0.1997288456606974
-1.1289919611947055
-1.0497755840213878
-0.5391866379305033
-0.026200226350271725
0.22726837262106456
0.49692271306257346
0.5376475009064143
0.3203399341131496
-0.01610260285543411
-0.18771100285605968
-0.16415671111611227
-0.15164538618120552
-0.17082140147867927
-0.03863461819759851
0.04096570642710106
0.07700721201397669
0.08497733916123681
0.0782404647969433
0.06157800285900173
0.02948041707611061
-0.030321434997364075
-0.12965815867423713
-0.07204817116614023
-0.04745130226727511
-0.03199260536047558
0.006862813138029765
0.10122213227606056
0.07278285601992349
0.12547886940810224
0.04360502856924303
-0.003475429772549448
-0.05127436960180563
-0.12818358962722887
-0.2461976647658505
-0.19873401541306654
0.03219677784077984
0.2609814419944802
0.28125148431699787
0.25477906798028344
0.31361935662148926
-0.02199585135203534
-0.6144185798343256
-0.6789019949514792
-0.36710810128293286
0.02636933131545526
0.6346533025780606
1.378161444957603
-0.26882094442477483
-0.29011306169474277
-0.3156953261240322
-0.5961647953597624
-0.7795356149267183
0.897567328405609
0.6024152562168246
0.0906528274096933
-0.10505480299820175
-0.2743322215205727
-0.11660573492720813
0.07747746255961015
0.044641302658756515
-0.03590496237543106
-0.13183870271616036
0.4484841396303957
0.05790278276930246
-0.29270514776224194
-0.5450913178141683
-0.2160237889739105
-0.43453582267822943
0.8084141104745688
0.6086023102923466
0.5123688375183926
0.31163701296029905
0.07713226884073812
-1.176891771539944
-0.6153447407721803
-0.11629085353666627
0.1649740383272785
-0.004475785907457374
0.23495603357591946
0.39081743297747557
0.3754959612272908
0.07742318045205307
-0.04703648443852395
-0.16262576112135935
-0.4337534806435289
-0.40466607081370326
-0.1921123859060635
0.10427064101032366
0.5768752136337446
0.48084627972886335
0.21404052748620728
-0.08394957453756643
-0.31246180044179456
-0.5780059128475676
-0.1629938759421252
0.09344547358394048
0.1974488687184018
0.18788843446346498
0.11706302011739539
0.0328503831323178
-0.03237014897339618
-0.06470197175342783
-0.06542780544243232
-0.04466453110826999
-0.015063721667505461
0.012512474923167068
0.030841737697889147
0.03634268863759504
0.028354792779528102
0.008679294684516546
-0.01824468741835424
-0.04491210257106303
-0.06101706752188126
-0.05543692834914564
-0.020419087152317952
0.042632477189669456
0.11766809122456874
0.17163307498942745
0.15799692838169596
0.027384100759931796
-0.2564055649329938
-0.30003305853110207
-0.27094325624875276
-0.10035238696925576
0.0995438839793721
0.40878886469582426
0.4731319605680511
0.4889739137674142
-0.39280210635016116
-0.4448439959115746
-0.3326419894104662
-0.2889962901595558
-0.3049731216690642
0.4592630683399315
0.6496963398128088
0.6922364877883276
-0.42230159571347176
-0.5362669626217921
-0.3107709379406456
-0.20995527012266088
-0.29383568551551725
0.7779516278855669
0.7379241142724013
0.10924886369864653
-0.18022085808218044
-0.368453547787254
-0.6246256078666437
-0.6249570161717908
0.2482620200935942
0.4811722291676464
0.5844476914369513
0.646237970262211
-0.30404630332497523
-1.1160443153875632
-0.9286002910196518
0.4198287999947799
0.7761914513745561
1.2619671460258193
0.6843025096847081
-0.016492762362452326
-1.2850175249532623
-1.4563629326228107
-0.6827675450630353
0.28991448315385
0.6868812784335551
0.6249414363861459
0.6190823437380845
0.30613657100019426
0.005820575187231567
-0.276284680270331
-0.41338888125399514
-0.5078277195664689
-0.24626774215546246
0.12650548938927758
0.2108548678308438
0.23749678391075824
0.24503173019423938
0.06046915847912226
-0.11043651276843375
-0.08168109858833297
-0.07753657722824904
-0.12044463595853433
-0.021229309966492294
0.02539127813890706
0.039431721033657316
0.04982939804930057
0.08663554401188614
-0.02645236728100048
-0.07780499378483424
-0.07159465343902671
-0.030050636800365706
0.005492207886031096
0.17556026881392725
0.20748524202578264
0.2264497133665861
-0.026915286002971568
-0.37546743693922624
-0.5881530679329778
-0.17532333636361408
-0.0032258617133471674
0.27297618171303756
0.36678872585100747
0.7232457358741264
0.10147672228458685
-0.014859417900342209
-0.38126860696191656
-0.5422114600819405
-0.5843758890727664
0.09079746965747157
0.16756192404772782
0.3922708529281275
0.5372414501069964
0.16603205111172456
-0.3900949578293313
-0.44286928970873574
-0.3505281382116604
-0.12191667834965927
0.3753928618905389
0.8073239516315799
0.37616815604500037
0.04402225872523522
-0.020968977397910375
-0.5848042769640847
-1.0930360637790897
-0.4430283306514534
-0.19863725837024768
0.3510128404461829
0.903852898369834
1.0561236558319556
0.4428979095845354
0.12881896174174515
-0.5479782470887196
-0.8951101822367242
-0.7773691500540563
-0.3504213368220577
0.1635546476091728
0.4556056717650254
0.4785017054910791
0.38622745610036396
0.2861261620395748
0.017398025563571975
-0.24146804492333443
-0.34391000863346016
-0.3389458300374514
-0.24182882428064742
-0.021915202417206948
0.18952098456263075
0.2764530340401879
0.3102492255309392
0.1276246285230153
-0.07817546862339671
-0.15140247553629185
-0.15715806238838106
-0.16135925752135108
-0.014423391177281425
0.05695440845719384
0.04919482037533867
-0.025395930573081708
0.051131144031941266
0.09274893251314237
0.10339557619516837
0.07633667644603298
-0.0007655091907781128
-0.1368866320366267
-0.32864388430172087
-0.15605990572340592
0.013388088749328059
0.21251422970958345
0.25856501195267834
0.3413344803034039
0.2223365534515724
-0.15212526593061818
-0.42767155000228996
-0.6180404915996376
-0.2926815770468172
0.016049623100208913
0.5867557029835307
0.6745094286999443
0.4841748549222309
-0.034715772336180374
-0.36760742663108054
-0.5976113703694064
-0.5684975925821775
-0.26601392498708515
-0.028141745629649967
0.2172926265829681
0.5012558068560397
0.7695619657173598
0.8680961498123934
0.5717314623326963
-0.34287088244624436
-1.5987516384902738
-1.3284958006374603
-0.8313319775793717
-0.40461691293051133
0.5489746980692889
1.766851190862481
1.9739974447719781
0.7855926995219575
-0.09968979745245715
-1.2131433002457517
-1.368293650593981
-1.5047609846897334
-0.37505482074869073
0.495752424726388
1.378295571935432
0.8621852322279442
0.1719152053686703
-0.09465443509590102
-0.9941440822724069
-0.43881117958945914
0.41377141978421145
0.3704852023459744
-0.19120003060733418
0.4829340023995046
-0.06569643896470378
-0.49327229223162483
-0.2375512055886345
0.0929115340497352
0.11985129084172631
0.08665231313814259
0.04405132215895074
0.03564415881792755
0.08748697699073896
0.003952527484310377
-0.030015956387616945
-0.04174655526013301
-0.0614063540818195
-0.11331762483458985
-0.010538859106926977
0.04606577912063496
0.06473014564243529
0.057553228754455114
0.03555148730154237
0.005864773371192197
-0.028268587094611705
-0.06546992139700213
-0.10365758402924265
0.06144158825016006
0.03587850873307925
0.025509177494259235
0.033669694097980006
0.05976822353606274
-0.1005885660340361
-0.054226469160915
-0.008738137985526499
0.02854060395301738
0.050658995016581505
0.05086220484920651
0.022974288179459693
-0.0372111036477921
-0.13001946981431803
-0.050724309904312814
0.009626510854916849
0.061126185487950485
0.11090306923225515
0.16026650579747692
0.005162051962180005
-0.15960872236014884
-0.13426278312780346
-0.1095781792177236
-0.06759109613462974
0.01112376349140896
0.13521703380783076
0.0897033260361368
0.22811504228138085
0.2747061372317797
0.13914031852825856
-0.25822902699924377
-0.5575296363618332
-0.53790665934626
-0.11407514360204243
0.24437728292503932
0.6758747039198415
0.4853547267357359
0.11418346557177186
-0.4680402936051499
-0.3491574446371792
-0.045368971018833006
0.3323493775218341
0.30919536650856067
0.07188081411601768
-0.5137237510864009
-0.6974412214571457
-0.45933848399003807
0.05142913319099849
0.6577678521974153
1.091345410888253
0.5471214495612509
0.07473964094122235
-0.5874064101553756
-0.7467126411990362
-0.6830699727544505
-0.19282200291536208
0.23419044291518729
0.6034184300355339
0.3820631847209985
0.060524086918901175
-0.0769244035940834
-0.16619300922100985
-0.16416728321559484
-0.042429033663526884
0.019945111727639683
0.04094248007644683
0.03688910937063537
0.021636613318891794
0.0052894558541541434
-0.006398806301287205
-0.011605282493072456
-0.011241817038661102
-0.00750268239583699
-0.0026457496240084324
0.001710675982962656
0.004745073991137649
0.006210185274206161
0.006088245591565956
0.004362513378725475
0.0010396787851168101
-0.0035897743593393343
-0.008609529105155011
-0.012301473663469661
-0.012382216995603159
-0.006780665387806971
0.005140632321867574
0.021297406373042893
0.03613615903017926
0.041080569202319686
0.02656600604733335
-0.014546059278900198
-0.08320733896154421
-0.17182643832749833
-0.06516253898928925
0.05468009564900109
0.20033571703454267
0.17165250106878785
0.1526692520815642
-0.08426909615298198
-0.16795491521507902
-0.31557120289174234
-0.12377108881252055
0.0316530713831576
0.18663899283845023
0.1739665460433449
0.20916932917292128
0.08354150954181397
-0.03255919969208233
-0.1773618897207366
-0.18149906183019587
-0.2551230138616704
-0.18453559000278688
0.05902991704525728
0.30097287008926454
0.3425902994010555
0.34774761315740005
0.044883484638030664
-0.2534384266279511
-0.21857755722809125
-0.272280413180866
-0.3638448885706286
-0.16711523477038512
0.09999486648075553
0.4383941962328736
1.224355507571979
-1.4271385769190814
0.11686119377321744
0.6042691664188504
0.10961027212441594
-1.143374623801708
1.4487257925750916
-0.09640175412728308
-0.7129362543112621
-0.6605191766705533
-0.11383547072170808
0.22518792222142617
0.2936171337075275
0.42263634361975316
0.29695475251092684
0.13191521164306705
-0.12534317447733803
-0.17300052881371228
-0.319305212116708
-0.24749274752272388
-0.19214420069570476
0.06658112535670199
0.19095205342973776
0.2619904239157445
0.15347786598590638
0.11255900038829808
-0.04777638925562531
-0.14405996551939224
-0.20959926708525026
-0.07976313280471667
0.01918130271555314
0.07487511953100942
0.08777559221356077
0.06682047195078643
0.02487395619479379
-0.0241659223193926
-0.06648340303365734
-0.08904263003297616
-0.08179006885909838
-0.04271801462301703
0.014381496676937342
0.05162774632247376
0.2021362966480449
0.3731791670897979
0.2612093263041436
-0.020730673555304276
-0.308256102632279
-0.7547684033939852
-0.8192447556869746
-0.2849920233336322
0.28819955254380475
0.8908347449811782
1.5950872273246324
0.9207409094215993
-0.14385741479164618
-1.0672658130948227
-1.673588424498795
-1.656913622518158
-0.3508602003840207
0.8304915220408462
1.8970574398556488
1.9765826875006252
0.8488678981702689
-0.4466755711167572
-1.7324482496077507
-1.9804726964194093
-1.6212100716822524
0.08165493152649791
1.3776826027146327
2.723646696920954
1.0772881670816545
0.04223985857752129
-0.9118407960193942
-1.3681539971366352
-1.8633955173386842
-0.6185748226185116
0.6691031614985795
1.1733974525924133
1.6546576864749445
0.5868923893343683
0.13117460030804437
-0.6340080080018073
-1.242638383106214
-1.7670071830429688
-0.3769105556876576
0.8462117818863139
1.0452222170105443
1.1028535682743763
0.7762300870365355
0.28048110571256774
-1.0706847893436564
-0.9839770120015814
-0.6976378289399418
-0.3184360507114218
-0.005278583942019672
0.7998085207088622
0.7101889939570889
0.3280569089810586
-0.00431053189538525
-0.22365194222541335
-0.3366575324682681
-0.19359065406869577
-0.058026699468602984
0.016958548153476524
0.0014346419735650955
0.0904786771851028
0.09865634996859969
0.05138704370174773
-0.023257045375074326
-0.10037123047227736
0.03860482976647742
0.004637281106517259
0.0010294418741243242
0.024246467018898384
0.06565740784380591
-0.08587034613529032
-0.04096873059634513
-0.007179754094036478
0.012392555643256496
0.018860228566464212
0.01611778839957867
0.008964297268610985
0.0015137631860214324
-0.003691544674301754
-0.005815802388171215
-0.005321639604981289
-0.0033289875563831408
-0.0010158727430802197
0.0007733278641154573
0.001669326306275052
0.0017183968373535102
0.001214917789601445
0.000518088055850152
-8.41531203433264e-05
-0.0004389122355258916
-0.0005265200345607325
-0.00041779070421299843
-0.00021873623003754232
-2.459480708418514e-05
0.00010590504098971394
0.00015544734603592714
0.0001383188620350068
8.434793045643504e-05
2.389577957942653e-05
-2.1806299348953345e-05
-4.392414089092081e-05
-4.4222319439514524e-05
-3.062133658746637e-05
-1.2466939079451634e-05
2.9075765294709306e-06
1.172898438476296e-05
1.3653243796978348e-05
1.0613373883000821e-05
5.380413361407921e-06
3.9156800980129003e-07
-2.887168310077393e-06
-4.0614594733257e-06
-3.5380129222364466e-06
-2.1035658260445683e-06
-5.399903473687914e-07
6.177271767060323e-07
1.1576369458149599e-06
1.1382782266737459e-06
7.710851822657412e-07
2.9830397301308055e-07
-9.386179108874652e-08
-3.1273180358609756e-07
-3.537016501044035e-07
-2.693317229270039e-07
-1.3196314164498204e-07
-3.895263503341961e-09
7.835288649763343e-08
1.0596205787014891e-07
9.038978799774243e-08
5.2350773804791885e-08
1.1957708301279402e-08
-1.732927451288112e-08
-3.045658395359848e-08
-2.9265613151797725e-08
-1.938628589489686e-08
-7.090123261411307e-09
2.901009505599241e-09
8.318171864794165e-09
9.151997095426847e-09
6.825759269507352e-09
3.225406912065417e-09
-5.844595862304692e-11
-2.1180487157390845e-09
-2.7607845583529826e-09
-2.306592402969287e-09
-1.2999599835501792e-09
-2.576706969764993e-10
4.82167838515518e-10
7.999336316608406e-10
7.515501938042628e-10
4.86577116535287e-10
1.6718469803015138e-10
-8.704629221691461e-11
-2.2077144842314004e-10
-2.365489934114133e-10
-1.7277667057545976e-10
-7.855588805632345e-11
5.550386464808459e-12
5.70303499000927e-11
7.181362240527386e-11
5.87676756870112e-11
3.218115944928096e-11
5.317349650723489e-12
-1.334509732388335e-11
-2.0998799600357937e-11
-1.9300223561848153e-11
-1.2213757319792647e-11
-3.927903835843567e-12
2.5331092210861928e-12
5.824767213226048e-12
6.0846288622497426e-12
4.345123900062079e-12
1.8829638864108173e-12
-2.6868407445500253e-13
-1.5529206094294322e-12
-1.887854763353242e-12
-1.5176875107917544e-12
-8.168027829834721e-13
-1.252139131167954e-13
3.4483815706924234e-13
5.281411430682818e-13
4.728483396986345e-13
2.8382842300472385e-13
6.913537801027898e-14
-9.485531470400568e-14
-1.7562820510370953e-13
-1.7855892791871023e-13
-1.3132201787020784e-13
-6.707176693690393e-14
-1.2091372993649841e-14
1.987934156488773e-14
2.7321659698249668e-14
1.6923206312998275e-14
-1.5212938330529532e-15
-1.9305376952897224e-14
-3.112606040449809e-14
-3.54874805789943e-14
-3.376913399634396e-14
-2.873970710580883e-14
-2.3183534107053723e-14
-1.9026624160541617e-14
-1.7051312388848048e-14
-1.7072335016671193e-14
-1.8349960757253546e-14
-2.0024292049606874e-14
-2.142753518427254e-14
-2.222168293757421e-14
-2.238279607127883e-14
-2.2093123467049706e-14
-2.160854785741912e-14
-2.115175277596786e-14
-2.0854977359282926e-14
-2.075199753651071e-14
-2.080375490055762e-14
-2.093728399041657e-14
-2.108091574164957e-14
-2.118614802063334e-14
-2.1234261010475922e-14
-2.1231218102256003e-14
-2.119674501851768e-14
-2.1153130172034497e-14
-2.1117339245599592e-14
-2.10976828930205e-14
