0
-5.257830398001234e-08
-5.2568531688770855e-08
-5.4857108547856074e-08
-5.965021470156664e-08
-6.603942535239467e-08
-7.180244802194793e-08
-7.37356997986023e-08
-6.866352077512785e-08
-5.501940527383458e-08
-3.45520077640819e-08
-1.338759534963732e-08
-1.551812261775664e-09
-1.0292176582141452e-08
-4.724430907630178e-08
-1.1057250111871892e-07
-1.8437693266146566e-07
-2.383661509927539e-07
-2.344319083654252e-07
-1.4089250011946087e-07
4.8163741391707455e-08
2.950073395910433e-07
5.115307837332034e-07
5.734285648059205e-07
3.604467857959122e-07
-1.820018159409314e-07
-9.778213077017976e-07
-1.7818814653766752e-06
-2.202709733083743e-06
-1.8104745033997966e-06
-3.265492897782529e-07
2.151410855102221e-06
4.9791900821292885e-06
6.966252383033861e-06
6.645358564475362e-06
2.835041712898916e-06
-4.6122729943178304e-06
-1.413743764246896e-05
-2.2252323600442242e-05
-2.4139195331078366e-05
-1.5253233968643917e-05
6.279283485937747e-06
3.7187193382343696e-05
6.768028577292379e-05
8.249024729544065e-05
6.521551076663647e-05
5.746477626804999e-06
-9.110023426064116e-05
-0.00019929188941797608
-0.00027209461433476027
-0.00025308927537352456
-9.83545555709278e-05
0.0001946330745621033
0.0005617260303735865
0.0008650188352398709
0.0009179961541475938
0.0005492322797895949
-0.00030437294176918864
-0.0015036232990233024
-0.0026581967512997605
-0.003173205335729433
-0.002423530150715911
-4.411328029194579e-05
0.003739667273294145
0.007881278816527984
0.010553791630930431
0.009599930853226836
0.0034074400384267825
-0.007975026050627809
-0.02189351583378415
-0.03288608363084301
-0.03376487515645393
-0.018222795408222
0.015381013530160583
0.060139605093487786
0.09831061906806093
0.10241655529181824
0.0408055480799151
-0.1128503502747944
-0.16866811588367533
-0.11233313335785783
-0.10357491611911326
-0.08345565021926765
0.2106062674270768
0.22641833374014375
0.1815186497245974
0.05649873978659075
1.9399925897211388e-05
-0.2560597921796092
-0.17692361332354034
-0.20755169251794237
0.03621161454119576
0.16617349259920167
0.21216800847516926
0.009440736738073859
-0.01171020684643678
-0.03105025952298846
-0.038183182908651865
-0.02880133762911281
0.00027764471772221056
0.055422675034764585
-0.05131189724519496
-0.10215819356468173
-0.07646839236074211
0.04364011074715497
0.065896208484021
0.18115948708060706
0.16055997484028187
-0.041015410548220214
-0.07486975153197659
-0.18463017573279583
-0.1934891251411042
-0.09756679964313243
0.1318189461572062
0.13781316938654095
0.1637638694629788
0.04054247025670864
-0.02022210060162181
-0.025480392370696475
0.005937491016457826
-0.1471816554222223
-0.0998953871968449
-0.056660487431272
-0.01255285197080705
0.040517926677237665
0.30552891754554923
0.1742467440759506
0.027035808500952444
-0.1603941877983081
-0.4061900926739811
-0.31334483178524936
0.13196203713527313
0.7530922232070392
-0.42946697213927704
0.1910515022080792
0.20377271301398764
-0.015294320393592438
-0.692297669848162
0.5577037795227971
-0.058276387880347086
-0.10565078720474629
-0.32370848165571225
-0.03459421075659121
0.04052120909898249
0.3607784280951875
0.14618148797308714
0.16627669846658652
-0.058178750088399005
-0.04019209719075792
-0.3025120353799672
-0.15185490087384207
-0.058660310668570706
0.1530011845726785
0.10477034586779627
0.055360100690036745
-0.11210028035335018
0.09631650558758173
-0.22783632321555547
-0.007689942488606048
0.20809191671165322
0.23752930344981213
-0.13704705862927785
0.035667046378375616
-0.11296901440984675
-0.05698053549661078
-0.06161850071303833
0.027171550173911048
-0.012039588520247243
0.023640620356079344
-0.043117410603149775
0.02283761555820721
0.060839838989262374
0.10685798673499432
-0.011794478169699104
-0.07872788278417941
-0.08813372471420741
-0.04318421742550929
0.04549442067642215
0.160973124196861
0.08170715834543146
-0.01502393071406574
-0.1477865101229606
-0.12545850002174905
-0.14434929471239566
0.009736394419943213
0.15448691740990111
0.3019698030010773
0.0519963031095825
-0.008126023685312922
-0.09657052671355591
-0.2256011486206639
-0.19115879846461464
0.03137781951067645
0.08264815700343903
0.007084090891734564
0.037155831930346564
0.17952262429901392
0.20810274067519038
0.06745148061991389
0.08711802556609735
-0.19602275956286933
-0.4141985010416695
-0.35282761520196165
-0.1501278930887289
0.08477656658763938
0.4396793113912833
0.5642544349798784
0.2460407090425355
0.008032810199542927
-0.26977886370037074
-0.31207809302767575
-0.40667733351459584
-0.17413524978922576
0.04165656578652798
0.15973301749078647
0.13047512407967504
0.09621280305552043
0.15496125079773213
0.13619794154895665
0.1940524000250205
0.01921425879148145
-0.13339442207137606
-0.2081414577114229
-0.31307001584624344
-0.29497281755712
0.06803770584282336
0.25522195879067183
0.1780577910915238
0.15016693735586423
0.06147410460966507
-0.037397588223067
-0.13892360671646703
-0.07270989543493836
0.10653962561231531
0.13368267830861788
-0.05192007294971515
-0.09302142314201005
-0.20504046646293228
-0.17352855090485583
-0.16073185563893802
0.2793291420830605
0.38174885629957594
0.35509693311464824
-0.023451824202196072
-0.19925417671757897
-0.4212821585748246
-0.32205302594731533
-0.10597180550362578
0.24871908976357548
0.37623452774138294
0.3055006221353012
0.0475627711117623
-0.2062210124564811
-0.27588261099672307
-0.1804339356698349
-0.1288284561272485
0.08088183430564114
0.25427913323066836
0.18974622594103674
0.07050021571395892
0.06454051935618035
-0.06617518491265567
-0.15019366676790646
-0.19046187637518905
-0.1542332678374679
-0.17401898825656295
0.03885961006720768
0.17103735638130046
0.2812275705329954
0.3809513860583063
0.23016703987235493
-0.048387494955542704
-0.3392640202066107
-0.4988259575921296
-0.3280141582849941
-0.3654879468956946
0.09376260812090607
0.5592177101579414
0.6990224835077675
0.3057638194371461
0.2887626101184906
-0.3022170744490102
-0.6295841627550397
-0.6143745676399168
-0.2967526122490597
-0.02516325205520048
0.32273460174784824
0.49644129992966557
0.42319918873357615
0.17035759102252596
-0.06890392297910908
-0.16446890049289883
-0.2197178909231967
-0.3355850695562031
-0.18064689329133402
0.02405492133081834
0.10275255248300695
0.10867324491474822
0.3013338434388309
0.12604566343804702
0.002265295803460842
-0.07662272711497443
-0.13403259248268573
-0.19662141688266327
-0.08251977609709886
0.00417962142740415
0.07137308259966939
0.13139791213796023
0.19224189933787228
0.05198025473452844
-0.10086258011038088
-0.08128386364945031
-0.09910945123044332
-0.1518559815659327
-0.022596420977688384
0.11596898547459514
0.09274510933423585
0.1283186138084323
0.027850447480332666
-0.02057539706032788
-0.0418417139881483
-0.06581684716058252
-0.11859379393364752
-0.015968944384305243
0.038972704086420826
0.05402547634726078
0.043211830465599455
0.02147207904855179
0.0005628065464863849
-0.01290181275419291
-0.017324497276018775
-0.014625835495818513
-0.008279979873786451
-0.0016295233662268775
0.003119489045242557
0.005170336936507599
0.004865611196250711
0.003160381268025984
0.0010980393936367357
-0.0005484947378824577
-0.0014190912332347604
-0.0015274755571656965
-0.0011198454296319873
-0.0005128217444558994
3.110011242890861e-05
0.00036550664072295433
0.00046308372916912117
0.000380392841050712
0.0002094306393802013
3.592948837123197e-05
-8.507434362238289e-05
-0.00013512815873529543
-0.00012468067076506134
-7.920922370951561e-05
-2.5755778643212915e-05
1.6080089950423583e-05
3.7519509505999685e-05
3.936773443221577e-05
2.8243185984498995e-05
1.2378796309316191e-05
-1.5380183623230525e-06
-9.88286270070871e-06
-1.2099458293578128e-05
-9.746289884873538e-06
-5.234171471597706e-06
-7.619320025710183e-07
2.2907425549650267e-06
3.4920937910832426e-06
3.144550160938498e-06
1.921232800130143e-06
5.212300289912603e-07
-5.55904022245088e-07
-1.0904796667193037e-06
-1.1070856633977158e-06
-7.778956005428195e-07
-3.182797882059837e-07
8.999296777228232e-08
3.3563621901772824e-07
3.809282996416602e-07
2.462749041568436e-07
-8.820534472249125e-09
-3.0025894957725477e-07
-5.298866985489784e-07
-5.987645924358886e-07
-4.3040020470787564e-07
-5.406463036606409e-09
6.011582898116147e-07
1.1988751672698648e-06
1.501379761024983e-06
1.2038861302660798e-06
1.1697289369325705e-07
-1.6756621153493717e-06
-3.6996774042166013e-06
-5.095168362881621e-06
-4.814241395702828e-06
-2.026366031007117e-06
3.3472170123400932e-06
1.0158490003257093e-05
1.588590512936092e-05
1.7079104612008035e-05
1.0519568316985051e-05
-5.0590761294813024e-06
-2.7213999092278674e-05
-4.8844015895587745e-05
-5.8985134911971526e-05
-4.597152990728217e-05
-2.777190486125547e-06
6.682844339177304e-05
0.00014387200097239395
0.0001947015354805562
0.0001790505551968265
6.604230637817705e-05
-0.0001451440854061256
-0.00040742417866665984
-0.0006212063093529571
-0.0006529929174693443
-0.000381482728419999
0.00023559011762884534
0.001094794564595301
0.0019134930936688269
0.0022652702287815282
0.0017068928401751968
-1.259715888663134e-05
-0.0027160191445479227
-0.005636217722137608
-0.007451367222412604
-0.00661548742018272
-0.001995014354539522
0.006319743730349938
0.016317337955034702
0.023875550976548948
0.023440727319055357
0.009706356864564456
-0.02000499827254052
-0.06346171567817332
-0.11250395931132673
0.045674259959927674
0.024684917283518577
0.033516875534559204
0.07151804451688137
0.12603883466510488
-0.025692564448669488
-0.010304016352492609
-0.04920674105391983
-0.1497586827816886
-0.1002409393447085
-0.07149783994501856
-0.02617168297769092
0.06619095470830716
0.2124787277258463
0.18372623742100713
0.11295376478860737
0.10662455185705448
0.0692890129641099
-0.06350346201917034
-0.29288962611947195
-0.5363137548769885
-0.6302989487076336
-0.363443266835042
0.06218879590255602
0.7554421563462453
1.6720156171212364
1.5925660700994546
0.3656136442302768
-1.5844930120660963
-1.7144265536582823
-1.836645611482144
-1.2670378145914403
-0.07688097265158025
1.959323454509521
2.3682784729847697
2.005119319342665
0.16786943892281964
-0.7700250357015247
-1.2243167517212963
-1.8145087199005812
-1.5950772334468086
0.04225781004790358
0.9719796136177398
1.0571126980259067
0.8302947046138197
0.38046544471242344
0.08018432619343552
-0.23285329311342265
-0.42697007492285977
-0.420204196043831
-0.32026451334515404
-0.18049780810841137
0.01716441656241739
0.1514392344001271
0.13070924621695984
0.2543314385556384
0.3796291510927932
0.705261556657586
-0.8240538584338056
-0.29437112294092826
-0.19120455572189615
-0.1732221190533616
-0.4604766621095206
0.9609929235440662
0.3239987772927558
0.06440991755826814
-0.18692637886300092
-0.4027671631344179
-0.3538385954430373
-0.006884834219459205
0.06888057244761427
0.48869601449553046
0.839964082904021
-0.5206760071499891
-0.2570153622113846
-0.23383212766295397
-0.49857051159945737
-0.6742771755240472
1.0324138416922586
1.2138302778399923
-0.35286616002597276
-0.10427098675238494
-0.07097068776687737
-0.4485218881931553
-1.3749247357966692
0.4712195223623166
0.4462909567941859
0.49777445506355156
0.31783129032668334
0.5131208324393123
0.0026739203432756043
-0.55596009025755
-0.7230835439421298
-0.23277265366813615
0.035974774247158475
0.26561694879220593
0.48748817776394937
0.3609968177538151
-0.04418644983369158
-0.45724643472249
-0.40868703186001354
-0.2333084391207857
0.11986239624861125
0.27026075329157656
0.5879987568770462
0.3865669693788154
0.1351201730773843
-0.3079960010176931
-0.44874574897372393
-0.7140153734758972
-0.42914796269936656
-0.028400198611683445
0.30124716413009683
0.5554290451053513
0.8484313062149366
0.37274990736912955
-0.0023467793672942347
0.3086804888471352
-1.5249007454298547
-0.8784595215464512
-0.02205065583631177
0.49073776544556996
-0.20560466427953478
1.2584392313711013
0.4318809929948532
-0.3955201669066231
-0.6062229975977205
-0.24517865527733074
0.40227017872798715
0.23539174024026482
0.16184349611388688
-0.2805030887436623
-0.3056488708411134
-0.47055090665146615
-0.08092331771179356
0.3864460540178969
0.4499416992862037
0.18875952826765868
0.019624823628749222
-0.10833994357995237
-0.10060150214604235
-0.09168551820334325
-0.014985053697965682
0.024921284471414815
-0.02774410944368396
-0.37092999970991475
-0.14841709926764987
0.13403651850747117
0.18343367194515275
0.2922340421689514
0.5181012607193195
0.07815897382434589
-0.4402835125424353
-0.4580469338438652
-0.3827506023710456
-0.1995832930821255
0.1199447628730243
0.5947766547325775
0.608326915893297
0.29433446552718634
-0.05521073981277034
-0.3598594846265456
-0.7090142419502735
-0.5261088331662621
-0.15478411049803859
0.1255246377843851
0.659657229139092
0.7681901326187751
0.3098919775793928
-0.1302132454314524
-0.4242614534707633
-0.6662132282889937
-0.3348925742332074
-0.07128046464090312
0.3225580671252634
0.46652781485508926
0.3791292956389675
0.060701378147252655
-0.10871499146979986
-0.3572209660223529
-0.30214423220823455
-0.13467996952967615
-0.01603212349867891
0.1127902009324025
0.31159142389901
0.2200917154479195
0.04398437027115472
0.15336785707230371
-0.30609341386742794
-0.19387785045082678
-0.15468102648160256
-0.005122433191181773
-0.13125893568735136
0.30331816328734656
0.14279915985766642
0.023675124413795216
-0.03642975360742876
-0.043065650045883565
-0.022720723840313716
-0.016052595080507433
0.13114912501854836
-0.022541610396677767
-0.1057708607455699
-0.12883674593225083
-0.08297865843420799
-0.14588038136864329
0.10721185807878744
0.2901036463621265
0.19566733806268982
0.39532946563008947
0.05151670832331112
-0.45884653397261255
-0.7180172905368596
-0.2504322752038193
-0.12539402448405113
1.2180516985941559
-0.8685411209716184
0.5160592051510033
0.7938053175686074
0.4989279790567974
-2.108175903921902
0.7893055283780636
-0.0003503383617001734
-0.24809972592962987
-0.2846452570071342
1.2113851447965982
0.4224510409171294
-0.7979448276915725
-0.31599116060204635
-1.118125122803107
-0.3336050956967063
0.31518733915385216
1.4431097139357476
0.5355288810711919
0.7114288376175594
-0.2654077115585956
-0.5272093999736106
-0.8138059400450955
-0.7844025243185434
-0.15762374500384874
0.3038414759579609
0.36421412230859523
0.25557607251728326
0.20970982942527944
0.20014008001988265
0.10711868173784478
0.11046061077683522
-0.09187557815727368
-0.24706453011778562
-0.30366789686750223
-0.1728052310802188
-0.10378947233254289
0.12129912367611223
0.17560337369260087
0.1642039349390751
-0.0024811405927083452
-0.03183721076431095
-0.06485368847676928
0.11652718840514001
0.09010605926145976
0.0012487282179932827
-0.023596149442917182
-0.06018474064386982
-0.17025412143294114
-0.18987815708510022
0.07447110257783116
0.041375612763243225
0.14362792251135958
0.21551963694414836
0.08300557751017669
-0.24035470039449608
-0.1518926069143942
-0.055629161272797226
0.041237202929647804
0.1295756296961922
0.198284861016205
0.03528465572021455
-0.1689709165571922
-0.21631247625406452
-0.09698643182103718
0.009774066244081713
0.12982713531987278
0.28513478289364824
0.08605835762954894
-0.07118093466049949
-0.2008050611034024
-0.11990433176401488
-0.041206538546536164
0.030337548426057074
0.09625777691171714
0.16029452734745198
0.02413496775676594
-0.11445296198756798
-0.060535881429053875
-0.019247089061972932
0.0067372920581987
0.018200391469093614
0.018744581649296894
0.013201321103947063
0.005973729560259711
-5.1282886069792525e-05
-0.0037830033739973136
-0.005510431894465959
-0.0061088934899875755
-0.006244905135475789
-0.005890910537929832
-0.004324051879271498
-0.0006109202479123157
0.005595438606961999
0.013266845318103586
0.019616439575106153
0.02047280669614566
0.011559276947905643
-0.009539218049877222
-0.04138854490821881
-0.07772640491355584
-0.10854538839118563
0.07627542955607039
0.08149943848438816
0.10131025070661673
0.1171337993268904
0.1006565561133811
-0.17777787593965028
-0.13777842218291847
-0.17889892725264728
-0.07661948014062905
0.013059826113473895
0.14122541326353752
0.15001623176899415
0.2588993557745446
0.058637134583280986
-0.08452152969987212
-0.2160213981128552
-0.1768151091398685
-0.19050986776623632
-0.05897074171156764
0.23240427485531562
0.3030279429494645
0.1653716422617456
0.019243642423572755
-0.1452058198915131
-0.3379227168282406
-0.15854616625038356
0.00886693581143755
0.1931136800788433
0.2267691088865301
0.13563744560712884
-0.06830969584240429
-0.18834206506300497
-0.24019603592039385
-0.04862868965702111
0.1540304875338887
0.32769964093446113
0.22602797936667857
0.003197829613072941
-0.17331695949367987
-0.5082365350860412
-0.3699758569899902
-0.09546622117342737
0.18964477231500332
0.5413559062843207
0.770873900500211
0.23535599731759543
-0.14601881444771192
-0.45374603511626493
-0.9221074589252952
-0.5062421786399468
-0.27942913937722086
0.33388767612633313
0.699228489717291
1.1097192311003665
0.5463055834279803
0.27907217932061074
-1.0883760942014145
-0.9484202461889157
-0.8220810074363741
-0.32317661462287345
0.23184167382384535
1.374811478100275
0.8211341177734844
0.21863480896744042
-0.26919393608165443
-0.5424146672013558
-0.720225652165042
-0.2948663732631094
0.097313707055389
0.2795312547451914
0.3169470959742934
0.2894044596493362
0.06712544671872755
-0.10260065660269371
-0.1964806345226098
-0.20841834481553806
-0.14160705958535544
-0.004964730717888456
0.18442251682092564
0.19541157680179552
0.17866611866712867
0.06928319448454058
-0.0017015818124744024
-0.2890591678966795
-0.21418559060606934
-0.15227555314521293
-0.03152752639630814
0.05407017382874309
0.22169876248925827
0.17334231213895177
0.17404831317746877
0.04097305537897125
-0.05449217292466649
-0.1736830720762843
-0.1923208078395529
-0.18367518670623426
-0.008596328756953443
0.08574838830546988
0.26079319067928836
0.28056543734464373
0.110571311109739
-0.07532774739365025
-0.28180577124808526
-0.4791765300482262
-0.19905707275904325
0.05552186201656756
0.1858972325381828
0.4669788944566757
0.5219545703546892
0.11397825172541762
-0.2396210661491535
-0.23412338105689606
-0.5368319611901632
-0.1541595848175214
-0.21876399268626043
0.19808336918027494
0.05229344678894732
0.28117798115551534
0.15959298122808882
0.8707996167944484
-0.899281855145665
0.25771178355943253
0.7130675348669012
-0.7476523387078229
-1.0746899335690498
0.6815117393791449
-0.2187521911656531
-0.621690944388061
0.679515711447927
0.4923429256777353
0.1749572858701035
0.002088252958999034
-0.04523860479265937
-0.06596414998260702
-0.007567193513260738
-0.026249120691514357
-0.24829701924756065
-0.3411116124513433
-0.10033035651855553
-0.05590058538850032
0.3052212272730526
0.5073945871769121
0.2562222231759881
-0.1808425786515901
-0.37987105463865933
-0.35540965234213073
-0.15239944584302628
0.35925712994639286
0.48751649536510683
0.3237657401799005
-0.042733838123101095
-0.300276806558638
-0.4863154868334822
-0.5668972479288991
-0.0351671126168821
0.26644432643510346
0.505550177057165
0.21400445638506538
0.25270666912294787
0.19863624474896552
-0.042324113480425585
-0.401773267661875
-0.4058717754287163
-0.13725724248211763
-0.213733419324524
0.010659928247524321
0.4244670344832942
0.32621601860386124
-0.008155444191570936
-0.1481389159359409
0.08301226202150527
0.01411799444972889
0.14278647487360452
-0.041254594827638685
-0.23103948326667062
-0.28109016721129887
-0.19570397175160767
0.06950228976028648
0.39339033515391186
0.2677860893189412
-0.023632400894880886
-0.2199780087242515
-0.28970335295214644
-0.0312864853279837
0.3291731868015762
0.3431760236771142
0.15011727788519208
-0.10566370081530371
-0.45356377107454177
-0.2786508502287304
-0.5164951690229254
-0.06753501739457515
0.3699161137450221
0.8580218726164935
0.3855120434111819
0.2575258714503476
-0.08294515892192748
-0.4068662689829313
-0.8405420804011307
-0.6182556524260979
-0.06477974301834216
0.18439263283829338
0.5316524745718115
0.5531693577014055
0.5449848750444879
0.29789592401404014
-0.2912465459704855
-0.5776728111035286
-0.5131462873059756
-0.3978769128135523
-0.25686114645329144
0.35295425323388074
0.5106647122268788
0.4898188148986349
0.3251478266257406
0.000617734452766571
-0.3382326212144173
-0.5552975083617798
-0.29245415255243346
-0.14978495726761462
0.1146699543657374
0.3669633972449184
0.4701900877848417
0.06048463179801239
-0.06436516829555117
-0.14063137056217845
-0.22251161753854118
-0.16196429657176972
0.007706913958076713
0.07978028453786638
0.07284638710128818
0.022728484038076664
-0.02886608827735831
-0.045919413512295074
-0.007894990608289377
0.08364668837568554
0.20300172744629844
0.10422636573748663
-0.06855494855389421
-0.16615518777493793
-0.21892706637926296
-0.226540410086338
0.04270709503333232
0.2422729471476158
0.23100103457334406
0.05630505370606545
-0.05718983387830143
-0.1107509644981847
-0.12724884670161402
0.057613143526519445
0.2058240200654811
0.08799410881633513
-0.10586341733431162
-0.15704333717954788
-0.21338860368853216
-0.19283555529582158
0.0025374125779860494
0.2634634694478455
0.24719239596070122
0.1562988751965629
0.1303125771656675
0.05408274280050833
-0.2185502034873767
-0.2320258338083137
-0.09624344252220071
-0.06238412026615651
-0.11319912897556596
0.030607641848817094
0.09020271533920327
-0.0002279252895109032
0.07559171640011866
0.1897525843032902
0.15427406272294059
0.11937444455947914
-0.013292682045123528
-0.16535042865885966
-0.2507974741696006
-0.14784346063603823
-0.08110037717561758
-0.0184693570889054
0.11749160200873357
0.22802063958175933
0.012991028160285497
-0.05140674052370725
0.07229496975729352
-0.02310403357955337
0.0135435939840209
0.10257396428486959
0.1504801287621973
-0.1294406463927768
-0.19645131561218898
-0.2667815082207678
-0.10829917949506732
-0.04855102242186349
0.20496188804323384
0.3380577623935336
0.2053358710563515
0.015972310000087173
-0.06585631742229439
-0.10708847524507306
-0.184140936662261
-0.16113532066980557
-0.07466276026171681
0.07123301343088188
0.10000521976777127
0.050921306889859214
0.16579376871511567
0.07877969413791538
-0.18800406221507082
-0.022832949731001428
0.5813741685288557
-0.7662459900004529
-0.45060168101970827
0.14681583493153177
0.43767476859796633
-0.1873687693908
1.0318360106167732
0.42918862641102423
-0.4658173256074527
-1.0942686172631022
-0.6371179612155088
-0.40565343736153636
0.3365730278357359
1.125712715866241
1.0434583283506162
0.08160031841536985
-0.25810465978771785
-0.729305041609876
-0.8886451396051637
-0.4494520936395318
0.34005996779396475
0.6896458613653907
0.641189431643488
0.24185348933199768
-0.2693120206448505
-0.45763806285273384
-0.47954553657669335
-0.272528829420652
0.041571359476544806
0.5384557880565133
0.46599350304748494
0.22404840307919097
-0.03992754415893636
-0.21641208490017397
-0.40608549470438754
-0.29010270830869733
-0.10976169076674566
0.13781133771920404
0.2884613620677099
0.19087630809890904
0.08656124527045056
-0.0028063514726311806
-0.07772472730071305
-0.15450052965488628
-0.05450426943734982
0.006199224193611673
0.0235172196126641
0.007081801535406518
-0.022439715342745383
-0.039226100062502746
-0.019949268066264313
0.04837185935810195
0.1622083711536202
0.09919236090584521
0.021277514621609067
-0.11655918743328932
-0.15428804764369952
-0.11539234796590349
2.5310964063123596e-05
0.015476561246525649
0.1722668747362766
0.12043592049993546
-0.09008962149664204
-0.015770474753709674
-0.022773954199094136
-0.08852546591370637
-0.0030715835952801244
0.028803672151541695
-0.015152485412381933
0.023121206391606596
0.08199397239108519
0.08408143487161134
0.14534721155381652
-0.010601457048882788
-0.034918174289301815
-0.3367842707894653
-0.47326685195249346
0.24906122871396796
0.559018860557137
-0.6044899428318506
0.07877776776456705
0.6853669627784886
0.0325833453111731
-0.5236517439282125
0.5233115829185133
0.05416074359696173
-0.4479056447693393
-0.4709562521170166
-0.05783011585769174
0.1955429080111803
0.32736816634413896
0.1890636684014914
0.025022192234674227
-0.1402727465598661
-0.10583976404546656
-0.09061932925946563
0.07372785284771347
0.15108988753919378
0.10947703744144285
-0.07003844422103694
-0.18479939411343907
-0.20493891788492244
-0.07394828058939583
0.08258941887225504
0.14126406904476263
0.1625164370212619
0.1756619743581382
-0.027824287455461897
-0.09086830047485676
-0.07891892987016452
-0.06397347236626708
-0.10956114767147028
-0.060657339134998677
0.05959805047795958
0.04684006901607686
0.10845861212106567
0.055910961115084465
-0.10072879035747215
0.045572196313028335
0.10099675496437839
-0.12402296186230863
0.1917475353562414
0.08642127290727736
-0.5820730162819198
-0.3395583053904744
0.09151400243046834
0.17043146829836742
0.5141002828797125
0.8813817179442519
-0.02353562611668863
-0.5250720827130868
-0.7348470977397942
-0.5113670581394988
-0.23840365482493936
0.5685331742324867
0.6311517006000656
0.26660783084491274
-0.24882213962343674
-0.30019965492618295
-0.13677565727509966
0.33898413746468936
0.7921276737842206
-0.5166085031111503
-0.2982481295412806
-0.40582291927410513
-0.41794892510292825
-0.4443285873729169
1.0459252189413581
0.5821593818183309
0.05203911197740407
-0.12160521419658786
-0.18014060422866662
-0.007987189528049053
-0.100404910534931
0.06940947036849704
-0.32456528840812876
-0.24990131985658712
-0.22174332307509703
0.0740730750560813
0.346117018578284
0.6611320477398495
0.21927516056529384
-0.04921677079798244
-0.2637206464831427
-0.3562791996737284
-0.23112331265341668
-0.13420644431598958
-0.04169917597393757
0.13051183512538692
0.10063990539357437
-0.01353112611594126
0.27202629687828916
0.18395714169939958
0.08357464831141287
0.07696188273140331
0.04109958685063203
-0.34041290128156876
-0.341726180040167
-0.16978160361731495
-0.15826218765443237
0.0167322220517272
0.10328331374557223
0.632372842711774
0.2815080242851263
0.0547637435853454
-0.11491979859286587
-0.14345945245904235
-0.5626190274320996
-0.08838456611611628
-0.0008020368642022693
0.060358268567190815
0.2864691237108442
0.2845685010447751
-0.13628714800892264
0.028852228194864462
-0.0163647125694874
-0.06024183816344353
-0.07145470001509728
0.010258709787372497
-0.12259807309703225
-0.15047561514222446
-0.141360362131952
0.026514430215686027
0.2378733508663893
0.31638344319618295
0.4116068841198052
0.003341899127147129
-0.27542613671257793
-0.4026317550937058
-0.3292035157164199
-0.15058434218671263
0.9054020869630643
-0.5256243067393265
0.03993477131746044
0.11267028247384853
0.007587335136802655
-0.5775708501623198
0.8194113918256418
0.21367969206392756
-0.027816746454632755
-0.175133381111984
-0.31434574243042396
-0.12373791351666588
-0.05521011964060257
0.07394198138280834
0.07842772787183269
0.19499076983872995
0.07013854054279275
-0.050138505311181455
-0.12674545216017535
-0.130646320426965
-0.04488007315666838
0.13304991234336278
0.1888047819276601
0.09099816281492708
-0.004607310555408497
-0.14611072474409278
-0.17402256480020994
-0.11146466947091187
0.04021937567289879
0.0990111970200558
0.09444694488140842
0.058010072216029884
0.0152686058239638
-0.018095760792411295
-0.03617117893913218
-0.03995053600324589
-0.03372914382634904
-0.02260652576540693
-0.012196456955274639
-0.01068310473075997
-0.03243366490289013
0.09837250023029746
0.14613426781037878
0.06629960139402313
0.013143009847442247
-0.047756252861392734
-0.12521517548667851
-0.19088599280746424
-0.17519035163656071
0.026135884171963615
0.13495755325066502
0.06684637431082877
0.10671167381373466
0.2907612140216953
-6.822821902847743e-05
-0.03323360380270397
-0.10612757837978185
-0.12130969018716709
-0.16243202012943103
-0.07736968640053021
-0.0727195933069518
0.07950332116558684
0.025510629154099244
0.008801242800385302
0.2509016097730446
0.33980886290772316
0.03046019140841594
-0.1418369833446756
-0.23878039737006634
-0.2952309940373597
-0.3034957890277437
-0.012497459546027967
0.2570856167030378
0.3871255434838053
0.23565334120623996
0.019755833719177416
-0.08654434271622108
-0.14010860893007565
-0.2081428538855214
-0.14733611521933138
0.010507318864919709
0.06293881637314276
0.03199438410179431
0.15349396546087177
0.06512109478270353
-0.0028115484583266077
-0.03187301795929985
-0.015441767256511625
-0.15583454525259416
-0.06098516437299459
0.0575948170098186
0.18533939366217214
0.1049960582124889
-0.0012503408312334369
-0.14713681522569685
-0.13660980244634285
-0.16013293328435627
0.004136640661094268
0.18366700986508508
0.20170948730002497
0.06860612233483186
-0.021788156045024588
-0.08912765664412445
-0.15876436403065233
-0.052821690966289
0.01617774972518699
0.04719258989327713
0.048355027726458305
0.03233684555878764
0.01159116462261021
-0.004958125969982024
-0.013198871565979053
-0.013344551501956082
-0.008387189090133905
-0.002253951691483036
0.0017627092091075348
0.002005280763287674
-0.0011914585006976319
-0.005738435895654061
-0.008536729561536598
-0.006613874027784763
0.0015321160921221587
0.01469393012401318
0.02827292846453874
0.03464909036011136
0.024928277172644817
-0.008055062962588285
-0.06625890562961784
-0.1438690052437179
-0.027177313338746494
0.1022896624194483
0.06207923166953771
0.06271900371177694
0.10385264598595557
-0.025647108505888548
-0.14360012072749417
-0.06825731322769349
-0.012544391161299065
0.018955238084501874
0.02953621719600039
0.027242851797562247
0.02072551395542113
0.015713736617973754
0.01319963754769504
0.009724793739977712
-0.0004909001666241559
-0.02236952904591154
-0.05689932321128861
-0.0994223150821287
0.05977231258359083
0.03243423775744218
0.027891255542573466
0.04889070817652411
0.08950174387914799
-0.06390074052035633
-0.02870417411831318
-0.020460435211779694
-0.04758850713622008
-0.10828132370403631
0.00922463183968015
0.12304649089952635
0.05204925445067553
0.010402553287273528
0.004279909919976892
0.03156637114767363
-0.11589100356571158
-0.048849895882658784
0.022398393714144916
0.08972831374299166
-0.05256620606418489
-0.008336534087584675
0.01974522318051737
0.02982441534525039
0.021014967839834444
-0.005888652782485883
-0.0473823629763195
-0.0965432549852317
0.05657337048515841
0.023033388696652387
0.012020557588825613
0.02780740233720328
0.06788673447966272
-0.0769982085867083
-0.020897187476616324
0.020621860297399344
0.034185784523385616
0.01201117056521179
-0.04559142518500027
-0.12923193050649645
-0.021695687908054317
0.09823172011576577
0.05008705076231875
0.04603305124612549
0.08729274734680671
-0.035936848560174775
-0.1412227794795564
-0.04880574821731426
0.023237277615113686
0.06210054387570699
0.061461932790407105
0.021633125511642554
-0.05052717457786782
-0.1419336949570305
-0.034636094984905184
0.09099069814994007
0.05146105291659804
0.05533994218831165
0.10044855975856004
-0.025444409861447668
-0.1405088221303775
-0.06294583291245347
-0.005711389258158858
0.026171922779726364
0.03517247482345718
0.02855125944735479
0.01493669558270322
0.0015165172367479932
-0.0074485123490456604
-0.010755258661606591
-0.009448370044010921
-0.005640348133785184
-0.0014489642904456557
0.001668801773435922
0.0031288794359175284
0.0030810394808661787
0.0020918995868366426
0.000814509297955811
-0.0002474675814549212
-0.0008422142470697248
-0.0009559441571805698
-0.0007298635710992027
-0.00035925965018166324
-1.276438873585474e-05
0.00021043007123407168
0.00028599736514886657
0.0002445713032883973
0.00014201833474068696
3.276303928600447e-05
-4.664107721301232e-05
-8.234128791163272e-05
