0
2.2373856159653944e-08
2.2373856159653944e-08
2.2373856159653944e-08
2.2373856159653944e-08
2.2373856159653944e-08
2.2373856159653944e-08
2.2373856159653944e-08
2.2373856159653944e-08
2.2373856159653944e-08
2.2373856159653944e-08
2.2373856159653944e-08
2.2373856159653944e-08
2.2373856159653944e-08
2.2373856159653944e-08
2.2373856159653944e-08
2.2373856159653948e-08
2.2373856159653948e-08
2.237385615965395e-08
2.2373856159653948e-08
2.2373856159653944e-08
2.2373856159653938e-08
2.237385615965393e-08
2.2373856159653928e-08
2.237385615965393e-08
2.237385615965394e-08
2.237385615965396e-08
2.2373856159653984e-08
2.2373856159654e-08
2.2373856159653997e-08
2.237385615965397e-08
2.237385615965391e-08
2.2373856159653838e-08
2.2373856159653772e-08
2.2373856159653752e-08
2.237385615965382e-08
2.237385615965398e-08
2.2373856159654222e-08
2.2373856159654467e-08
2.2373856159654596e-08
2.2373856159654477e-08
2.2373856159654027e-08
2.2373856159653273e-08
2.2373856159652416e-08
2.2373856159651813e-08
2.2373856159651913e-08
2.2373856159653067e-08
2.2373856159655327e-08
2.2373856159658216e-08
2.2373856159660677e-08
2.237385615966125e-08
2.2373856159658553e-08
2.2373856159652022e-08
2.2373856159642645e-08
2.2373856159633397e-08
2.2373856159628907e-08
2.2373856159634148e-08
2.2373856159652187e-08
2.2373856159681562e-08
2.2373856159714378e-08
2.237385615973646e-08
2.237385615973069e-08
2.237385615968375e-08
2.2373856159594877e-08
2.237385615948353e-08
2.2373856159391533e-08
2.2373856159375462e-08
2.2373856159487307e-08
2.237385615974619e-08
2.2373856160109876e-08
2.2373856160459966e-08
2.2373856160616038e-08
2.2373856160388557e-08
2.2373856159667014e-08
2.237385615852022e-08
2.2373856157266512e-08
2.2373856156461685e-08
2.2373856156762918e-08
2.2373856158663743e-08
2.2373856162155858e-08
2.2373856166441914e-08
2.2373856169870495e-08
2.2373856170254224e-08
2.2373856165636667e-08
2.2373856155390543e-08
2.2373856141298333e-08
2.2373856128072552e-08
2.237385612273401e-08
2.2373856132491642e-08
2.2373856161298985e-08
2.2373856206016296e-08
2.23738562538407e-08
2.2373856283006896e-08
2.2373856268311443e-08
2.2373856191537872e-08
2.2373856054489553e-08
2.2373855889721097e-08
2.2373855762343813e-08
2.2373855756834575e-08
2.2373855946644428e-08
2.2373856351600828e-08
2.2373856897011504e-08
2.237385739561202e-08
2.2373857574512762e-08
2.237385715998449e-08
2.2373856011869793e-08
2.2373854270184497e-08
2.237385244873651e-08
2.23738513988723e-08
2.2373852085835468e-08
2.2373855179186335e-08
2.2373860551206463e-08
2.2373866877075402e-08
2.2373871592931524e-08
2.237387144021251e-08
2.2373863668309192e-08
2.2373847684948332e-08
2.2373826600840852e-08
2.237380784599285e-08
2.237380201511417e-08
2.2373819483241876e-08
2.2373865165225505e-08
2.237393292433637e-08
2.2374002181882243e-08
2.237403967620365e-08
2.2374008493046594e-08
2.237388413750959e-08
2.237367381416058e-08
2.237343127584738e-08
2.2373257351366032e-08
2.2373277579507537e-08
2.2373594683670264e-08
2.237422470511117e-08
2.237503878451654e-08
2.2375742561469072e-08
2.237592517872729e-08
2.237519414189401e-08
2.237337940626749e-08
2.237074629470881e-08
2.236811744246379e-08
2.2366790868704057e-08
2.23681762162735e-08
2.2373164843501763e-08
2.238138971796218e-08
2.239067588783097e-08
2.2397062965856825e-08
2.2395720559274038e-08
2.2382823798395094e-08
2.235802193978813e-08
2.232662770967669e-08
2.230028634767252e-08
2.2294912204686217e-08
2.232532378142339e-08
2.2397304832155475e-08
2.2499509976942697e-08
2.259911363397282e-08
2.2645519297530618e-08
2.2584979635348905e-08
2.2385255329123526e-08
2.206398712388905e-08
2.1708954077883255e-08
2.1475524872530125e-08
2.154932036924121e-08
2.207229552393952e-08
2.3047436318296758e-08
2.425662631282713e-08
2.523980375796793e-08
2.5381255963271665e-08
2.4122709251278816e-08
2.1271795918996573e-08
1.730923976325948e-08
1.3542629684967905e-08
1.1941953866244925e-08
1.4553230287934817e-08
2.2534321336079355e-08
3.5068804799979994e-08
4.862238584183129e-08
5.710712524825153e-08
5.3399473956277515e-08
3.2249789528424505e-08
-6.0428696205982015e-09
-5.25574877768468e-08
-8.914308196332548e-08
-9.200648246685334e-08
-4.016314620471584e-08
7.259105896941162e-08
2.260433347463817e-07
3.6819198741614064e-07
4.2242256266952213e-07
3.109788544119857e-07
-7.380109069675033e-09
-4.958611788552569e-07
-1.0124760064554996e-06
-1.3189569699164995e-06
-1.1422963839370418e-06
-2.891255200085746e-07
1.2127647931599877e-06
2.999752139742901e-06
4.3566552939922005e-06
4.3651331038030705e-06
2.2383396515095777e-06
-2.2149796302407877e-06
-8.150534470874312e-06
-1.3503509214156595e-05
-1.5297711197655563e-05
-1.0583301705329123e-05
2.0941729367859486e-06
2.110903285408463e-05
4.076882623215097e-05
5.1759196397826506e-05
4.363190554970747e-05
9.295781341638259e-06
-4.9540079981727957e-05
-0.0001181006536629104
-0.00016824256500366926
-0.00016456436408041097
-7.764042598609097e-05
9.80085645561106e-05
0.0003273153256381246
0.0005284119327387639
0.0005858092274772749
0.00038779441319771927
-0.0001163257718815995
-0.0008558256092013536
-0.0016029329865701642
-0.001993897706829778
-0.0016292550714118166
-0.00024979250682866675
0.002054643233273841
0.004687473775245337
0.006546426095346812
0.006275111600862027
0.002786738033153681
-0.004040408050626208
-0.012740049072320316
-0.020060516848838302
-0.021546343612409462
-0.013084045837336206
0.006751508170998194
0.03417177426869181
0.05849308744482214
0.06243682218941506
0.025171307969756005
-0.07205920073273192
-0.03907279772318665
-0.0709603469743443
-0.1458386127305835
-0.02777768516080177
0.1251628643429994
0.14992954898811556
0.06820932475923124
0.08069048680847449
-0.03203111230682877
-0.10241643874277889
-0.16568747606035006
-0.05020911751436592
0.028163959068852346
0.06652549091080226
0.071243314609399
0.05273754108542876
0.021297023960721664
-0.014600861895479083
-0.047532435745208525
-0.06924610197521346
-0.06949622736460098
-0.03707031404176407
0.03664801970855909
0.15275062059943856
0.100910619395191
0.059123998321777185
-0.0015281184677881977
-0.10798080328162903
-0.27532123095359323
-0.10023705314361477
0.038843109783333996
0.17436579062921317
0.13792524614957768
0.14921668978400757
0.010276784221072258
-0.09300994807337896
-0.1835323332274827
-0.08353979693360335
-0.007449980056748695
0.04049821624710895
0.0637218040596008
0.0680139013527469
0.05641724286834227
0.026606266690681862
-0.02826337930815535
-0.11587939960433426
-0.04010430625798404
0.0025638629049366357
0.02400822188457319
0.0428818668519083
0.08132927495584136
-0.03870695950623134
-0.0988401738460131
-0.08731723010507228
-0.0022688931595141845
0.1449907927268264
0.12799551721179275
0.10673385876910571
0.03451344560446021
-0.1303550496057886
-0.2112127301954407
-0.203066073956905
-0.07075882755116934
0.04251594030052639
0.19827510554476294
0.24304565812707923
0.19321225861555053
0.030353132601347536
-0.09092218312688072
-0.22549614914414629
-0.21722832274415751
-0.08301569186975909
-0.006992786245390265
0.0536296805696823
0.15383803823560788
0.1427466263590265
0.04830562644106649
0.06939649849741668
-0.02287841796140155
-0.07593158565705592
-0.14198137203739808
-0.06445189128538292
-0.06855306914953412
0.0416747429781601
0.07997020985325387
0.07030323752444673
0.03833264740484234
0.004681652874279847
-0.018446447669532216
-0.0272876542991758
-0.024218758558943985
-0.014575421748745519
-0.003817581971459067
0.004252008636547484
0.008074937541086036
0.007999436028773944
0.005469240516471639
0.0021684540371214828
-0.0005939266685739092
-0.002155804251715361
-0.0024716951126848305
-0.0019009236577236777
-0.0009471502393574491
-4.842558712099439e-05
0.0005352579035338635
0.0007376260576014049
0.0006356394169990051
0.0003728913980350843
9.036282943185321e-05
-0.00011657784066657283
-0.00021115965681034053
-0.00020515370439069298
-0.00013737440129848641
-5.164389711899029e-05
1.8712088496686392e-05
5.740121200308585e-05
6.398920336864117e-05
4.82112368145356e-05
2.320141541976653e-05
1.489283914819429e-07
-1.4476732493355542e-05
-1.9209764360442662e-05
-1.620746804324859e-05
-9.24692221890705e-06
-1.9523133086613086e-06
3.279026163493186e-06
5.573590708855339e-06
5.294440438346782e-06
3.473847120383004e-06
1.2456301773680774e-06
-5.456914798608376e-07
-1.5019930104173857e-06
-1.631745839400369e-06
-1.1980490160101717e-06
-5.430734078765004e-07
4.7675865592082875e-08
4.1357603960924666e-07
5.23108511625546e-07
4.3627219057753113e-07
2.522634836721693e-07
6.414862027357274e-08
-6.790538224756725e-08
-1.2330971618121223e-07
-1.1293835484443461e-07
-6.418221298025962e-08
-6.341933010128019e-09
3.921016728573539e-08
6.278275941858016e-08
6.509753198210973e-08
5.323985263178323e-08
3.611223831094964e-08
2.0990956255681304e-08
1.1854357768136986e-08
9.353523961587014e-09
1.1831219395785206e-08
1.6686415196665147e-08
2.153197449009463e-08
2.486046795008691e-08
2.6191146042101782e-08
2.5842789329196404e-08
2.4540668354449898e-08
2.304109806631244e-08
2.188419838270087e-08
2.130487119051601e-08
2.1271646565908717e-08
2.15943235369736e-08
2.2041574758890497e-08
2.242818379945726e-08
2.265586528093543e-08
2.2711986643730178e-08
2.2642051413548294e-08
2.2514160692297498e-08
2.2389480301511896e-08
2.2305716175478956e-08
2.227397232662083e-08
2.228505541980672e-08
2.231979057334968e-08
2.2358659628301428e-08
2.238800776724087e-08
2.2402146848494398e-08
2.2402209769008876e-08
2.2393307585983503e-08
2.2381496790009306e-08
2.237156507591816e-08
2.2366014549528706e-08
2.2365108036254714e-08
2.236756659438563e-08
2.2371465282792456e-08
2.237499389890303e-08
2.2376928542231853e-08
2.2376813265675073e-08
2.237493245336787e-08
2.237216032977924e-08
2.2369732909260453e-08
2.2368942927012916e-08
2.2370748249488374e-08
2.237532672042407e-08
2.238169354103182e-08
2.238758016419348e-08
2.238979767087902e-08
2.2385218316183726e-08
2.2372284737684115e-08
2.235263481941859e-08
2.233212047164557e-08
2.2320366045558036e-08
2.2328228286844842e-08
2.2363181193852256e-08
2.2423687125036273e-08
2.249473494556218e-08
2.2547420577960065e-08
2.2545124860816636e-08
2.245707645733633e-08
2.2276905092698446e-08
2.2039940094706693e-08
2.1830001541116653e-08
2.1766238052001878e-08
2.1964915423600497e-08
2.2480447173532835e-08
2.3242678950897823e-08
2.4019159550016463e-08
2.4435495094202854e-08
2.4077468961390543e-08
2.267206050789114e-08
2.0303948748144155e-08
1.7581400666469454e-08
1.5640412627310055e-08
1.5891180954389302e-08
1.9482285443273157e-08
2.6582797832177937e-08
3.573042339107981e-08
4.360525114642e-08
4.5587649262686756e-08
3.728050660981009e-08
1.680536819945086e-08
-1.2809921451452082e-08
-4.2275627728306884e-08
-5.698368359346365e-08
-4.111988980282859e-08
1.524263219282925e-08
1.0783410778047339e-07
2.1205215545234633e-07
2.8328461950303376e-07
2.672809710757099e-07
1.2129356011679477e-07
-1.581789258670792e-07
-5.108861596116708e-07
-8.055152203704475e-07
-8.63157094484744e-07
-5.178500938617673e-07
2.9411612992854264e-07
1.4434531020805805e-06
2.5595667727713643e-06
3.073131872718829e-06
2.3813161592090852e-06
1.2541879166311293e-07
-3.4906538348442614e-06
-7.474322239303492e-06
-1.0075725022754074e-05
-9.210532922995657e-06
-3.2930091266830257e-06
7.693112073056641e-06
2.1275639983823205e-05
3.226789221047392e-05
3.3749213424373916e-05
1.9469151756685664e-05
-1.2683195157407065e-05
-5.723616618382779e-05
-9.943092289978031e-05
-0.00011710432968332603
-8.731371631886331e-05
2.808920984978722e-06
0.0001438674903847715
0.00029590924817531625
0.0003903776160328572
0.00034729462578615976
0.00010804488580762075
-0.0003233396493664428
-0.0008458050046453603
-0.0012547595762511326
-0.0012827935267469837
-0.0006949715533458769
0.0005766079152516386
0.0023025459959979708
0.0038969189271510604
0.00449960691284915
0.003241875580610691
-0.00032921651723640894
-0.005784602602489236
-0.011511162974775075
-0.014819544044147703
-0.012650453408371658
-0.0028871271534214424
0.01400426369244347
0.03359344733468933
0.04714236607057236
0.042987567460198425
0.009854119010376559
-0.05853858667584089
-0.15916204715300028
-0.07776706223629254
0.008965658206042828
0.12714664795727557
0.09728432984136867
0.1271457322329046
0.008963090046341288
-0.07777217978546117
-0.15916984610629037
-0.058547569594459545
0.009847391813623079
0.042987823870646355
0.04715385954237918
0.033617401683033545
0.014036383005329955
-0.0028577987270244254
-0.012639987419089182
-0.01484412880556669
-0.011579136904520216
-0.005887744213526531
-0.0004371614480039974
0.003179524803412623
0.004540059865694925
0.004079939795547061
0.0026207149992833584
0.0009515793852737215
-0.0004150332912748953
-0.0012910466709048032
-0.0017144814801149338
-0.0017925854607586241
-0.0015734239102389374
-0.0010054571893018745
-1.6259760024476088e-06
0.00142210324464966
0.003002445051103517
0.004166819215583567
0.004131243121731344
0.002188815183509924
-0.0018605890683662894
-0.007284324924751433
-0.012216372243238807
-0.01391707286251645
-0.009637905744341249
0.001970781412148341
0.019257841651574004
0.03639340787444899
0.043341531123734595
0.027514244465554817
-0.022922804225483963
-0.11492914504415376
-0.047178100309430704
-0.008960131018160185
0.017783094835714934
0.05382848977754544
0.11716896343721649
0.01875776230366812
-0.03898792337550869
-0.06074524945511886
-0.05509515618985035
-0.03141303729011644
0.0017197868684444592
0.03624161953444213
0.06330354206949258
0.07245495916083225
0.05275587812486063
-0.003649653413970455
-0.09640697160470087
-0.2126054798315286
-0.12618051516996687
-0.0031470609639025556
0.18774808727232659
0.2625093245382341
0.21305417858840192
0.00690712040863094
-0.20321924059001728
-0.2632975905049087
-0.20202349289637295
-0.021835084961904932
0.09950465697627234
0.19797540147082196
0.10808655299344427
0.049671585857064424
0.021448277547901587
0.0030527908570749137
-0.03577961854728433
-0.12229220420689434
-0.06833145650927884
-0.06253835736803703
-0.06981382698618607
-0.038724734310452626
0.08475268347652593
0.14075351543019904
0.1411334850576157
0.06188728724220142
0.0454050346133715
0.012750418328267735
-0.1168964789133937
-0.2047963424520562
-0.07530826700754352
-0.10793434009455957
-0.04154773895195656
0.009835367210915217
0.13371663671177325
0.1945727732705936
0.2153113150952231
0.1707642006913378
-0.003983421440562973
-0.192297302234868
-0.2682445084544055
-0.2717002659124599
-0.19516851270409344
0.012697818762490928
0.22790652274805234
0.32322278437146434
0.34197684200297973
0.08342958032208386
-0.09505409805724824
-0.2605291985760398
-0.27915646994610593
-0.19310270497682366
-0.008024623774545197
0.10535962050789222
0.19779434228604392
0.1223776871100632
0.11719023438153987
-0.004765792783738854
-0.05618899455573446
-0.06804424243381318
-0.07780861117646665
-0.11782489606475029
-0.007359864214108278
0.04985533473061028
0.06294864622100291
0.048108745803099
0.02229164706732858
-0.0014548388133639703
-0.016086526272060395
-0.020255114721118114
-0.016482086323993853
-0.008877711207415276
-0.0012445773154642595
0.004006187321761229
0.0060980422586939765
0.005530009508687922
0.003451027493782233
0.0010615951941196186
-0.0007805106304688888
-0.001702478406206873
-0.0017549744983423189
-0.0012410165957629942
-0.0005289059755595471
8.65488109774852e-05
0.00044895151910011815
0.0005382474695945776
0.0004269036635504403
0.00022333326573804071
2.4889351838117348e-05
-0.00010842923155572994
-0.0001589675417095529
-0.00014136808077445375
-8.61430430053454e-05
-2.4331385304322507e-05
2.237342954246871e-05
4.495579484140535e-05
4.52331802113454e-05
3.1310832245994454e-05
1.2745096085770566e-05
-2.9694287329162596e-06
-1.197969641008889e-05
-1.393829166938539e-05
-1.082428107527494e-05
-5.471663662972633e-06
-3.7167479984085626e-07
2.9781603015545173e-06
4.176041694593797e-06
3.6387687123819117e-06
2.1711315998685156e-06
5.724634929294965e-07
-6.106077409038705e-07
-1.1618030922232343e-06
-1.1413093689001028e-06
-7.654762525581569e-07
-2.820004148807063e-07
1.1882512033754471e-07
3.423670353285088e-07
3.84028687874088e-07
2.97616482807292e-07
1.5711249679392317e-07
2.6195248900858156e-08
-5.7832779666510716e-08
-8.59901097691883e-08
-7.001571191459787e-08
-3.109868017988377e-08
1.01997285092156e-08
4.012703553318564e-08
5.352731206402113e-08
5.2291749186295485e-08
4.218080278829108e-08
2.9606906458284177e-08
1.9395465943200448e-08
1.386302901480446e-08
1.3016333327798499e-08
1.539850909507048e-08
1.908089426627898e-08
2.2437711261194328e-08
2.4541787935552245e-08
2.519710270137129e-08
2.473138580816498e-08
2.3701571027141736e-08
2.263595203317455e-08
2.187996544253538e-08
2.155563120553348e-08
2.160555592522399e-08
2.1876721073372834e-08
2.2203317381489943e-08
2.246314587662895e-08
2.259970627032603e-08
2.2615686711063326e-08
2.2550388128286394e-08
2.245402298581777e-08
2.2368050561452786e-08
2.2315463609523804e-08
2.2300400409472826e-08
2.2313778291266214e-08
2.234098061056132e-08
2.2368446291206286e-08
2.2387510579666254e-08
2.239530928011625e-08
2.2393543179859087e-08
2.238627362577546e-08
2.2377791745520082e-08
2.2371197493249016e-08
2.2367869545710138e-08
2.236766321122284e-08
2.236950742772157e-08
2.237206997626532e-08
2.237426204712904e-08
2.2375488447208674e-08
2.2375662778535033e-08
2.2375070075486143e-08
2.237417142428203e-08
2.2373422325086385e-08
2.237314137417722e-08
2.2373436939061897e-08
2.2374186236562077e-08
2.2375062535446147e-08
2.2375613262453966e-08
2.2375393023893433e-08
2.2374142412412565e-08
2.2371975284500062e-08
2.2369503602917296e-08
2.236780850630192e-08
2.2368180675186413e-08
2.2371617419052898e-08
2.2378175601243696e-08
2.23864098700096e-08
2.239321972907084e-08
2.2394418013452676e-08
2.2386160995381283e-08
2.2367037705172603e-08
2.234017336636397e-08
2.2314319646173473e-08
2.2302806603037042e-08
2.231963132949357e-08
2.2372948282589638e-08
2.24576606230292e-08
2.2550241471343525e-08
2.2609631421722944e-08
2.2587296910512595e-08
2.244680990977042e-08
2.2188826378149517e-08
2.1872287378968964e-08
2.1619202151155906e-08
2.159112640323088e-08
2.1932498746846685e-08
2.2689523500163923e-08
2.3730382219516924e-08
2.4706866397289095e-08
2.5100381564084617e-08
2.43786229123631e-08
2.2249946999137823e-08
1.8946786303487533e-08
1.5415292094574696e-08
1.3263318111210057e-08
1.4352113171261148e-08
2.0026141748265675e-08
3.015054940909315e-08
4.231897903194324e-08
5.1721017473130025e-08
5.2117467370965904e-08
3.80858281790206e-08
8.166640716123169e-09
-3.2116992356767207e-08
-6.892839820823459e-08
-8.211084792710243e-08
-5.145280832928271e-08
3.338325133825261e-08
1.6203515628321573e-07
2.9653294658280003e-07
3.7398676044266887e-07
3.2311583605263503e-07
9.450664891552213e-08
-3.023427684538971e-07
-7.695095387412017e-07
-1.117579621575783e-06
-1.105890243949219e-06
-5.313866065821643e-07
6.49480126944656e-07
2.2067089537240045e-06
3.591320966489596e-06
4.020761633246664e-06
2.7289835888634754e-06
-6.464498039611824e-07
-5.651480801638397e-06
-1.0765406648996558e-05
-1.3531196091912581e-05
-1.1222885536719364e-05
-2.0328873195073947e-06
1.3504144340870678e-05
3.141529184562024e-05
4.4251628001682246e-05
4.274160289579421e-05
1.930232996003821e-05
-2.724327442791557e-05
-8.736827995152672e-05
-0.00013932386446899845
-0.00015276361441853936
-9.870858994895308e-05
3.5377386558144886e-05
0.00022986538633907016
0.0004239645491049731
0.0005217881409838656
0.00041923589955559777
5.05270955941329e-05
-0.0005571413840466046
-0.0012430301293648838
-0.0017145511831289416
-0.0016149025830681756
-0.0006615625955213138
0.0011715220701274498
0.0034925498356652564
0.005442997600898118
0.005850813819099135
0.0036276086311105315
-0.0016442384081469742
-0.009114029063939953
-0.016344631698499923
-0.01959665443808927
-0.01493330653684935
-9.604618278416222e-05
0.023291276494057867
0.04802417438179382
0.0611561961333143
0.046200209492062896
-0.012201631608186266
-0.12215402239844095
-0.07903821657055349
-0.06322396931965234
-0.04277816639350289
0.018745001751041507
0.15142464189654095
0.1685887087833569
0.06088611167068611
-0.002474793983406561
-0.06521122613077845
-0.17092754971706595
-0.15011615658641733
-0.011702835148186663
0.05825994329255522
0.0910313358319322
0.1255204218076298
-0.001747872584459961
-0.06409681977133873
-0.048432655434412455
0.044289799755549614
0.0007497004807752654
-0.0018124605551305376
0.008101096664439408
0.0003876358511348365
-0.052481671742884754
0.028234416612881116
0.03030421599736303
-0.04793689578944767
0.0026313456810261398
0.0007682082223979879
-0.027630951225280444
-0.05321492900091958
0.15245381815441386
0.012660828218879653
-0.05764297774729688
-0.053428648231106046
0.020260749559505364
-0.05094573057070567
0.11062560666703528
0.07702160687914095
0.01852962320246893
-0.09083441068327808
-0.06725473438250278
-0.11250665386963088
-0.012909255439611318
0.057214749525371776
0.12844347784977334
0.027889896424757563
-0.02772155406737035
-0.0357195175803715
-0.007486277658956643
0.03462285062919215
0.06263580873246016
0.04992517272586637
-0.021035357240359175
-0.1515996470495404
-0.12287204717271089
-0.0971041915729523
-0.025879344659679043
0.13602778683747951
0.21497035197414963
0.2064911119406519
0.07226300831910555
-0.051758315125470494
-0.23785756851861814
-0.14544061972150849
-0.20354254481138484
-0.00287062337969388
0.10036530107453696
0.17088960617750087
0.07626242051075485
0.07025599822808984
-0.017776357809372537
0.014265998060228543
-0.05460769089876204
-0.05982528011296287
-0.04123273124778781
-0.03454732839601161
-0.06615969956574941
0.04816495697852833
0.10149872342395637
0.09271634015739103
0.024296591740640448
-0.09778840411179125
-0.062416765339480734
-0.05158429158039801
-0.04058207913044149
-0.00116451411969353
0.09273556459309323
0.058561914514350194
0.10041540900611096
0.008111709096696056
-0.039290204285323205
-0.06657794845725418
-0.09462220509905914
-0.1347369520186328
0.012650165942099948
0.1546430620591107
0.09959311000091958
0.05100909814943298
0.004538629510471809
-0.050831863848644715
-0.1283556654197062
-0.03827262004649523
0.01582613645041644
0.037686449769927126
0.036363449333705035
0.022820442500049085
0.006709838022644128
-0.0056175851355621175
-0.011583260192909029
-0.011647105934704768
-0.007976396143338116
-0.003112748052383161
0.000968258700279901
0.0032671659635087774
0.0037127599317798832
0.0028417045954419197
0.0014065093540861855
6.059198586750914e-05
-0.0008097186652154208
-0.0011079267414181924
-0.0009512122249356397
-0.0005555143291360062
-0.0001319699673577452
0.0001771430175774679
0.0003174773052578459
0.0003072692747608881
0.0002049965420965509
7.636552034584813e-05
-2.8831264538324286e-05
-8.639645810264255e-05
-9.587266759200116e-05
-7.196607252291661e-05
-3.439154366296177e-05
1.1451361231817547e-07
2.191914680899307e-05
2.8887842105662257e-05
2.4296236414264778e-05
1.3821751649095344e-05
2.891146881794298e-06
-4.919625164424389e-06
-8.320762312597258e-06
-7.871192077097523e-06
-5.1253174975035544e-06
-1.7827154712799687e-06
8.951510702640445e-07
2.3173869947333396e-06
2.501647502406954e-06
1.8451358523250573e-06
8.613520334492286e-07
-2.2740831856272522e-08
-5.680727828759648e-07
-7.290092273705654e-07
-5.965396573008582e-07
-3.197280910998207e-07
-3.790261124934052e-08
1.5921503400622747e-07
2.412684651517011e-07
2.2492996347530612e-07
1.514298281888064e-07
6.468051613853792e-08
-3.4014284040141514e-09
-3.844212838367477e-08
-4.164977223610001e-08
-2.371518189921821e-08
2.0044600495154454e-09
2.4629969526602874e-08
3.824249374416897e-08
4.1907422351769224e-08
3.813530372078367e-08
3.083371909065379e-08
2.3575723607573365e-08
1.8608535540176997e-08
1.6639725103539587e-08
1.7182029211491333e-08
1.9144108534357892e-08
2.139270872262623e-08
2.312143173854918e-08
2.3982149558022818e-08
2.402525429452367e-08
2.3537583227009728e-08
2.28661379483283e-08
2.228778395149588e-08
2.1948675087324626e-08
2.18666849211242e-08
2.197294695998435e-08
2.216518709481549e-08
2.235188644313074e-08
2.2476870217007196e-08
2.2523842947526355e-08
2.2506820163032246e-08
2.245462011357212e-08
2.2396434471490898e-08
2.2352583968716037e-08
2.2331440790774804e-08
2.2331215297720337e-08
2.2344263691566514e-08
2.2361643776635818e-08
2.2376398846473408e-08
2.2385001540154706e-08
2.238717272447798e-08
2.2384724589706396e-08
2.2380155133015912e-08
2.2375546870951922e-08
2.2372037288426817e-08
2.2369854212746487e-08
2.2368720388790608e-08
2.23683529486565e-08
2.2368804959146225e-08
2.237049049986754e-08
2.23738702839526e-08
2.2378920135599922e-08
2.238462590686996e-08
2.2388807292513638e-08
2.2388530599246715e-08
2.2381201381855156e-08
2.2366141510557717e-08
2.2346116572169106e-08
2.232801439736405e-08
2.2321848385935366e-08
2.2337616661634728e-08
2.238033599281598e-08
2.2444651341267594e-08
2.251143840783843e-08
2.254923160730348e-08
2.252257175650763e-08
2.2407171455167238e-08
2.2208377359840488e-08
2.1975741720143803e-08
2.180426285345743e-08
2.1813945991961643e-08
2.2105175025771465e-08
2.26978499979366e-08
2.347486261975335e-08
2.416028446656151e-08
2.436316538683746e-08
2.3703439333295922e-08
2.2005546183976677e-08
1.950365327484357e-08
1.6964072337379634e-08
1.5616480133797255e-08
1.6816862348433958e-08
2.145257219181487e-08
2.9233017318487333e-08
3.814915284053286e-08
4.446613257227899e-08
4.356220165590236e-08
3.169159348338656e-08
8.33896345460642e-09
-2.1651602574254318e-08
-4.735306367934422e-08
-5.3609735765050944e-08
-2.605185702080713e-08
4.136655441535015e-08
1.3855674904867692e-07
2.349020699061133e-07
2.8243137273398663e-07
2.2938700946426762e-07
4.3534148828454e-08
-2.6062165553418597e-07
-6.018535017036818e-07
-8.335161182963588e-07
-7.778445132320762e-07
-2.954969945430472e-07
6.23472595672297e-07
1.7796080514317396e-06
2.740802880791148e-06
2.920212926249495e-06
1.775649464475267e-06
-8.973007789697884e-07
-4.668481645043766e-06
-8.316832647361499e-06
-9.973084682106761e-06
-7.664729856272351e-06
-2.2818654644214386e-07
1.1648240695116124e-05
2.4688679025509108e-05
3.31421943926433e-05
3.018035756222288e-05
1.0637010445678085e-05
-2.5480921319077256e-05
-6.99942269862445e-05
-0.00010583884484368396
-0.0001103183469596773
-6.302005723915928e-05
4.279943821419612e-05
0.00018895655321638004
0.000326832801129795
0.00038366836622906903
0.0002844053887846492
-1.2658174831753958e-05
-0.00047595818781278454
-0.0009736931949229427
-0.0012805892732220393
-0.001134636697489999
-0.00034481952075167806
0.0010736977264906365
0.002787683994135408
0.004126032398989058
0.004215387371172962
0.0022947524465292243
-0.0018420177365576604
-0.007420013828986616
-0.012494238506432213
-0.014232351483507944
-0.009812415422626598
0.0021316967162075084
0.01987699193348458
0.03742438090177501
0.044500980158986646
0.028291017078989487
-0.023143559238393282
-0.11662175315962295
-0.05036198159212949
-0.012928291126278768
0.014535191443591534
0.053323181190774185
0.12125054122156319
0.028082307944686562
-0.025961114566127305
-0.048261807969465886
-0.049571156651474386
-0.03951490065919207
-0.023761463235001088
-0.003896730563857717
0.020124575412100977
0.046112553253877066
0.06613062025218729
0.06512635115556266
0.022853974445954273
-0.08096028738334389
-0.059662542069985544
-0.1133880018332482
-0.025956489533458766
0.03362515127314465
0.1053877275078476
0.030292389106806195
0.04239607425157131
-0.03662972857915732
0.00019188459081206525
-0.054409596890924436
-0.019829893949349583
0.07513363608024497
-0.005030797720499714
-0.10008897385307264
-0.05183521283827963
0.09799052039812645
0.11014502500968408
0.15174776023162034
0.0025106085527239227
-0.13715532594496146
-0.23890019318596617
-0.24444275393465165
-0.07271870453476204
0.16302587769103377
0.33200030777459505
0.26411795683677847
0.13808273494567186
-0.11548988209217592
-0.19639458801404674
-0.2084865580083295
-0.033194167367981725
-0.11051500378618628
-0.03170928037718591
0.056145955897694805
0.23689204399471342
0.008379041933330559
0.06713722018231161
0.09827537767881916
-0.028360599435841852
-0.2573551110098267
-0.14563142273662538
-0.06286490437406758
0.0034862042372358934
0.23964374962445037
0.39776455062747307
-0.005496109184282336
-0.08045805193962473
-0.1466350699637236
-0.31096238749781396
-0.2494347470798397
0.2018831035673156
0.244740423090809
0.10848222677417033
0.037286816067129996
-0.12046782134615225
-0.11912324967199778
-0.12012861147630341
0.10417841404779123
0.1667383997054821
0.06313116319004877
-0.027744773423632494
0.06154962481201573
-0.1040324184943346
-0.15192433162223484
-0.09411807159751825
0.07559229066824927
-0.02170406133234459
0.04183892213819974
0.09082150524648137
0.13817436874650493
-0.018819011107198132
0.0033560239218768414
-0.01837603163384213
-0.10357397718571369
-0.05861845259191278
-0.0707887218091468
-0.10830899072305883
0.07317535096512276
0.11930598289916344
0.06429265542206544
0.12089562971900311
0.07648950180141656
-0.10343472007672294
-0.06549568804128814
-0.055615453566207756
-0.10726186592421026
-0.03419259509691632
-0.029461220455709567
0.12964044365893806
0.07287278396376934
0.027733633054422353
0.012446480770527946
0.032850016669346144
-0.11685274323526634
-0.05077141543712625
0.012830011626056962
0.05520061901716312
0.05990710053811245
0.015184965124887217
-0.0837372293676283
-0.03257715799043497
-0.01710254389706765
-0.014333149424064596
0.003882985277303307
0.06554641118267383
-0.007270355256924048
-0.0031686797943145596
0.07607661007837219
0.015937330132365327
-0.007502229813761378
-0.021934132542129194
-0.05240695891986792
-0.115996734123586
-0.019321681324240215
0.040240656028910235
0.07020992775788193
0.07747919618475285
0.06412779286247677
0.026505573916854125
-0.04196130958447765
-0.14554005078009935
-0.0810953135219333
-0.035824606969679096
0.010678863469556737
0.08059970779007296
0.19081162676463
0.14788552324264115
-0.05222307680039289
-0.21953931654332703
-0.16303915082607143
-0.08537680760369547
0.017335214294950715
0.15035197157361382
0.3126874249871812
0.09173906277764399
-0.13615930670779802
-0.1988377651431649
-0.118297137297046
-0.10260956252249336
0.056496422903557005
0.17970460571483526
0.09225468431988011
0.016000780338500404
-0.03550905674186203
-0.057937743858982246
-0.05410954465825496
-0.031010230834312435
0.0024714191793858034
0.036427699329870666
0.05994175026564374
0.06139295182765553
0.030145625843226467
-0.0401118908964611
-0.147330225390151
-0.07830662283573825
-0.009143670991915442
0.09019113789189147
0.04822304257567128
0.08376223485487974
-5.750018856020812e-05
-0.01760336362045069
0.001974940392968322
0.021111338528873192
0.002197669494664992
-0.0839493197005972
-0.051492123049837885
-0.09661817904168776
0.0007061593438792793
0.07053299428426127
0.14412576932597046
0.04547829088575009
-0.01401667862485689
-0.03628877280110434
-0.0331122662838617
-0.020213135696185224
-0.01112175255607831
-0.012515875243856254
-0.02207809079767589
-0.029204764341620757
-0.018318086679184067
0.026031258179799836
0.11365211642840534
0.04455593793543909
0.007750681630172662
-0.01634379749591885
-0.05057651612109333
-0.1147392637987456
-0.02052068670235421
0.030556975548616454
0.045817681786476924
0.03770653598045452
0.019394529788877273
0.0013068256626225338
-0.010580730425239139
-0.014677563827511085
-0.0125217805000505
-0.007094800180103851
-0.001345812108416318
0.002720869070395198
0.0043373510101391705
0.003789745554586024
0.0019914017429879393
2.07184708416797e-05
-0.0012440473523149783
-0.001343455762280438
-0.00031526619969657034
0.0013428587859396852
0.0028099164669954132
0.003173132506171417
0.0017439358824630166
-0.0015879560489143523
-0.006065636118560404
-0.009995252172676135
-0.011054216873817836
-0.007059695039873464
0.0028891827991677534
0.017210887001128675
0.031104553460620406
0.036862091279595485
0.025620267538022407
-0.009558146031130832
-0.07010428698945784
-0.14934984312982594
-0.03254815904218117
0.09963321114844743
0.06488311534177865
0.07261115916881986
0.11980270842023782
-0.00861009714750905
-0.13471946545416968
-0.07985144851951109
-0.05716265748325791
-0.06758086886294733
0.09949738176380941
0.061398762506563204
0.03547466848244683
0.03318523104647046
0.05694801754937517
-0.09959708211572196
-0.04858663080559941
-0.003716318951956014
0.02361200841683932
0.02683424118688806
0.005310359756551772
-0.03579759587811904
-0.086684164516192
0.06491770658947682
0.030722015533319526
0.01873498595634424
0.03102681793794194
0.06333328891394835
-0.09328134736999101
-0.04931786271936708
-0.013535825084832264
0.009270925077533396
0.01875448951364687
0.017951584959474704
0.011452904316036096
0.0036405779189030876
-0.002456780504208516
-0.005530403613522515
-0.005725847698292849
-0.004043429983510308
-0.00170378805148493
0.0003167345975167621
0.001501494870882505
0.0017856225217796782
0.0014099195626846922
0.0007331396794959585
7.653325311417015e-05
-0.0003627237634059952
-0.000527546389245992
-0.00046734543719399024
-0.00028353565619188074
-7.882580032268699e-05
7.527859707247076e-05
0.0001493113005558574
0.00014959472771982073
0.00010312600017432518
4.156709572063016e-05
-1.0340219233004302e-05
-3.994785120621489e-05
-4.620525050223041e-05
-3.57306878289877e-05
-1.7935035425590904e-05
-1.0651148092433068e-06
