0
9.290050411262463e-05
9.289249102751405e-05
9.285688163958505e-05
9.279520716331327e-05
9.272273293440155e-05
9.266890708008639e-05
9.267108007001272e-05
9.276068447950094e-05
9.29443095066674e-05
9.318603382776178e-05
9.340045386437743e-05
9.346605120975564e-05
9.326411697798758e-05
9.273888446817907e-05
9.196154561952991e-05
9.116885703864553e-05
9.07425608359353e-05
9.110540914359977e-05
9.253662754464128e-05
9.495100028971512e-05
9.772933314456578e-05
9.971366607698488e-05
9.946522097361565e-05
9.581046254560434e-05
8.857339335613676e-05
7.924129052835587e-05
7.11971643079796e-05
6.915289059906835e-05
7.759842672361346e-05
9.846026987812106e-05
0.0001286641333721354
0.00015874740409470812
0.00017381451351633986
0.00015772429709845446
0.0001003216787446795
5.916788689964265e-06
-0.00010044311291405563
-0.0001732809736040883
-0.00015724393800486903
-8.650344136061085e-06
0.0002762082122593558
0.000636036465697335
0.0009370108618630956
0.000996629631410799
0.0006453946020534387
-0.00018211369005379288
-0.001354587388038854
-0.002494507158802167
-0.003021245840024008
-0.002319222953861692
-2.0756742235789895e-05
0.0036693247081495254
0.007743239615496352
0.010422476747254324
0.009589603334531372
0.003639039954206898
-0.007429522368750298
-0.021074753966628553
-0.031992131493287876
-0.03314386684475057
-0.01828632714727989
0.0143276951347415
0.058116008613275545
0.09584915928766924
0.10060959971782672
0.04110231077884439
-0.10915428796752566
-0.1612050270358955
-0.10253629782476614
-0.09540348531019899
-0.0837579436544835
0.1920898167763762
0.1770185349034645
0.08474202670167058
0.08931632959478913
0.12801021783891628
-0.0844495258117553
-0.03376361274995456
-0.18228208236246704
-0.3510644091846767
-0.31459303373619696
-0.011812705028228183
0.22833014813881314
0.45512917107828565
0.6710332844190454
0.42593701723172933
-0.3627653637284608
-0.568837510531217
-0.609847916071119
-0.6140765439008513
-0.21785620397472286
0.6022644552826104
0.6725153897263966
0.5605902366360701
0.33232877154528345
-0.059153715759826635
-0.5509600652205711
-0.5264432991846367
-0.36849296788081415
-0.22722090583709856
0.18936361727220555
0.6044093055313922
0.5527848735458718
0.16786220756595224
-0.015246827772519855
-0.43947525081275673
-0.4980945163801243
-0.5143746977887829
-0.14172982113122182
0.21062426167770995
0.5324769229372607
0.5629902068768005
0.3547860940043352
0.06538594557287686
-0.22058014317211577
-0.4465219523899389
-0.5327437569516628
-0.3372413615363911
-0.041771809003140724
0.2331359562513472
0.3911722593027517
0.3156400247800406
0.23336190827795836
0.0991737102765517
0.005496048532441793
-0.1866648701231098
-0.2052437537469047
-0.32626927207752215
-0.3472718061634454
-0.18367164213639312
0.10971277187273179
0.29770495727331914
0.5167546194179511
0.4352732453344898
0.035307292931132876
-0.17891106601261597
-0.3496428381426463
-0.42337980869276537
-0.11201348132431296
0.13144051925639166
0.11829642163244633
0.11340490957278956
0.014558092358264083
-0.07120288184154398
-0.049522225483961964
0.14402773139765312
0.13339622635366266
0.09988804152333136
-0.010739365596898916
-0.07297825960071078
-0.16161791926295002
-0.1324131175339622
-0.00864709680778283
0.02294263869882911
0.00617257937314256
0.0011572519825418831
-0.13493937285701968
0.03170352859079268
0.09426519278560445
0.39589790056605917
0.2332278597509361
0.27606960302239075
-0.19770382546000698
-0.45959352290804384
-0.6934806485796181
-0.37926061579414505
-0.1075757113310368
0.3742211502473037
0.6969077187443837
0.6056397629704956
0.31900683429851123
-0.07540093286909919
-0.38823521997171234
-0.4705332725621318
-0.3502359155845253
-0.18225085010473566
-0.024451137573647343
0.15774167700292455
0.26441115364190987
0.223444556793481
0.15464393618480357
0.14527063003147683
0.04131835592063632
-0.34705017784650705
-0.4321935539858109
-0.23611633137115404
0.21563007200545864
0.8924778564059184
-0.4450586988199696
0.15544925482130964
0.24784538620025767
-0.19614056314562628
-0.9695726119777159
0.5800460711650604
-0.052084626134655636
-0.14580647238288424
-0.18515781661897435
0.10769865939293227
0.3418789136164604
0.639712558297113
0.24015979773467258
0.12864346328468845
-0.3100693170897069
-0.6291437438144
-0.86721244619577
-0.5263612820684795
0.007447978327817508
0.6041783702656381
0.9081661951696968
0.8635718356703839
0.47418857112352036
-0.1873362386949953
-0.724686238542591
-0.938964061629804
-0.7562160740874412
-0.1884935629503571
0.25875491279063106
0.7390150208899068
0.7981534166657575
0.51605548895884
-0.12216743328235191
-0.41789660683759955
-0.521527648228834
-0.38364488535942126
-0.11364855676050298
0.24221694857413548
0.30152969137783603
0.13125759324539896
0.027469539019916975
-0.10354361579088323
-0.15982053408622365
-0.05461905564402895
0.07458710387658259
0.05838209679701133
0.09023048303496417
0.12620588944359773
0.09151604978387445
-0.10609188187263008
-0.1584061318106656
-0.1387511759924246
-0.08897461133938157
-0.015052130377777707
0.10799705331009864
0.1243143816558051
0.08293793887875386
0.02561917963324104
-0.020271300194306997
-0.04305255976303318
-0.04355249476927661
-0.029730127683109186
-0.011336226406072143
0.0039010650947766926
0.012035698525147857
0.012861310696783779
0.008742218533177928
0.003055509331944151
-0.0011953088979896553
-0.0022958263269662786
-0.00018781265738314335
0.003664163757006124
0.006818145806352546
0.006715062930007441
0.00172120740182231
-0.007870083246142572
-0.01922176709382502
-0.027142960306014836
-0.025441138647350005
-0.009509074644963521
0.020276680140345015
0.055349518809606604
0.07736093682177908
0.059584606230914876
-0.028001378645244025
-0.010545790627950132
-0.09906784137514581
-0.08303637769956826
-0.12768638135791255
0.022126134326238247
0.031691947543549225
0.1622312357276584
0.05670008345796738
0.12986016966283162
-0.03448724865021371
-0.07857202273220104
-0.059932365602029726
-0.03834228414597526
-0.0639946121422025
0.030462951847240845
0.03295091437917983
-0.049690341216464054
0.0030886755459254745
0.018206514943847365
0.021001498548247597
0.028252253514051997
0.043698755749351254
0.05725911261794494
0.048454075623978944
-0.006448281999543371
-0.1252652903757336
-0.11150403873837518
-0.1499209882051921
-0.00833532954451846
0.15419792617425726
0.17545717366500477
0.07882369701037162
0.06707120796438754
-0.07668873130109724
-0.18185603722905372
-0.08035845106755582
0.002147343729204641
0.05114373402049942
0.0637204222510363
0.046069253027509596
0.010051243753994372
-0.029715327372923348
-0.05792758887672945
-0.06042577555234161
-0.026576344456224303
0.047584271620418415
0.1563108755060402
0.08295403074979878
0.0022729904213512433
-0.11339649026600856
-0.08576223579949369
-0.12308464871001865
-0.01664567099160393
0.05730882049342211
0.13090845382687347
0.0358685534396005
-0.004314457215992463
0.02104610255828798
-0.09090870247496602
0.04583121442099875
0.010409335013559017
-0.020031010047379297
-0.0658425501083873
0.05852209332544302
-0.05374059086823412
-0.0018812451337889917
0.02068629212350962
0.023637155783704584
0.01677026010633358
0.0076539327026059764
0.00045324163872076135
-0.003927182998697542
-0.006671840485046384
-0.009406074414980875
-0.012699496212610269
-0.015268430203534328
-0.014221123371354758
-0.0063896656721598695
0.00957414681116867
0.03103346281280885
0.05008726446033075
0.05412651289670037
0.028757467090942262
-0.037231821254791714
-0.1462808890605186
-0.08810822180940744
-0.03964029300676864
0.03019049944040299
0.15186366655469377
0.1458715397429763
0.016088177273022145
-0.05160958137796429
-0.08527762754992393
-0.11941483111816253
0.013001493545042864
0.0866670957458072
0.08757369104094695
0.014686921610669392
-0.11957769128647897
-0.09020273424565145
-0.06272899569756323
0.0004585375443993683
0.13128216071112173
0.1468801611690184
0.04354768654900047
-0.0036161891124630147
-0.034665662177527735
-0.09403995653498916
-0.018345281648652522
-0.026282844903297502
-0.11354473611345471
-0.054147986473022124
-0.008109066604546338
0.06633807672211642
0.19942625629804314
0.19987503921930244
0.05219321116693819
-0.07712746448413473
-0.22648214459308166
-0.22422168874344398
-0.07809864200974505
0.0265699235987459
0.1195772322907149
0.2329167694227938
0.18810909736121012
-0.010910582934935183
-0.17696108847520226
-0.13237666168303763
-0.09974802015467009
-0.09537053167507918
0.0719437218455858
0.19717005398050227
0.07357386752636845
0.08938766240836833
0.029459346574520325
-0.11793329577677017
-0.1516469140271359
-0.04983007534982808
-0.16780591418090365
-0.04399643294501828
0.18668752438668876
0.17554069031748795
0.14430639114570756
0.07626176682668243
-0.08301211452655716
-0.2159885913495027
-0.21855336568124212
0.01485612353904137
0.20326553813523468
0.28852731595971176
0.24470131328183622
0.08966705268318961
-0.5025855561888337
-0.5957085443452957
-0.6005485029779482
-0.30773984248216024
0.4584892162057632
1.9797608662195656
0.00028153939405809304
1.1241062068460275
-0.9376997762745916
-1.0821406418346045
-1.7220065627461878
0.47824061155790915
-0.5856940444772818
1.3000344826072212
0.9918732602464998
0.3110853096939992
-0.008873279410832071
-0.33737803865744037
-0.7292250519795183
-0.6915022010297863
-0.15262438627583128
0.7568906009956137
2.1149449183811204
-0.7786217956143813
-0.5765870969271922
-0.6517352331739771
-1.0759853810630906
-1.832921797682179
1.7268381427525004
1.8001167084478824
2.2492540089632356
-0.8364859478237683
-0.913660742711481
-0.7009060786905301
-0.8743904842982703
-1.5844156909322944
1.17817530309158
0.9603285721532385
0.38652799881359395
0.08802419794758345
-0.15385658649754141
-0.03863800660152134
-0.35261657308201805
0.043238949309607734
0.23613901717722682
1.0903351016550846
-1.3210527101733143
-0.28601732450690226
-0.2339744034057928
-0.13540121069769673
-0.523717376995225
1.6677390562415884
0.6693193248509273
0.05708480819188653
-0.43610072732210875
-0.6842026145262952
-0.5237345935827347
-0.3233689640265019
-0.18283748056141141
0.2363131045806167
0.45883454776704646
0.742649530739417
1.2466382892772727
-0.7644740470833828
0.7246158326838892
-1.8496366891456106
-0.960271741859744
-0.9513810996159547
1.3506138265971621
-0.22180250123468323
1.9399494222562854
0.3472964563136936
-0.22111965941957132
-0.5067989164345972
-0.5198381962662743
-0.27097311024823506
0.08871204498657273
-0.29632792819657144
-0.18122235750948193
-0.04491347069618825
0.06459901195885956
0.27689020206357223
1.053859234474887
1.1688606692722125
-0.8794932769931942
-0.8214729408977534
-0.7563338328341804
-0.7051009480549721
-0.5980629432330922
1.4972352345537847
1.1211318842509668
0.3665258030089394
-0.15149887242577006
-0.4901029499752338
-0.7449103603608552
-0.4077068140383136
0.06454339590251737
0.25877226449966834
0.3946033734791106
0.3032575041273086
0.00885810478912261
-0.07984960939573049
-0.16634794940242584
-0.25662591880878
-0.15016340322919805
-0.037535241758054665
0.09340695700443888
0.24549223489862873
0.2004621049942387
0.11433665804132254
0.12449053138474198
-0.03136764045844667
-0.18900937129761827
-0.3328467614420532
-0.3825657931371524
-0.3996743293766077
-0.017067996347240804
0.31349577100284703
0.8698636284476438
1.223241394553991
-0.16519743372831877
-0.5081568924201018
-0.6264147452869638
-0.8773278069817328
-0.9053114915478936
0.5666926855115689
0.7025856350957658
0.4904762426148081
0.27697992995391435
0.12161251776054177
0.1839723515056297
-0.25620932843262695
-0.3559690192054698
-0.2582406839253638
-0.24916553130232288
-0.33567704907646456
0.1516069455916972
0.3332804412611497
0.3437987032302093
0.2951930591382231
0.05353595317180782
-0.16611232984005816
-0.1880630863008162
-0.2552524614167729
-0.20894892073554386
0.12357829580316165
0.13055799085127517
0.008423038161722966
0.15083082704671374
0.1394778645051723
-0.059514383736195324
-0.09249811932788013
-0.00992633706737511
-0.0558335050943684
-0.05855313466974975
-0.025145780031925465
0.059381079764394405
0.028333161021710563
-0.07367486929481
0.0006736279541985883
0.09281804854348047
0.0313097154052273
0.027820178587714014
0.07718273151727402
-0.038493393324255776
-0.14285033394161223
-0.05768964328368429
0.0027583770554956044
0.0340722781571916
0.04031800638925212
0.030472926720395015
0.014396360928731856
-0.00021818664002879894
-0.00925382506919064
-0.01203409908012505
-0.010191574496780646
-0.00622138362133423
-0.0022747241471797355
0.000502070802692684
0.0020336222504814022
0.0029282109216484825
0.0038791679518888635
0.005115871223875784
0.0061226969413003
0.005757325574524924
0.0027784091361996058
-0.0033531446059355133
-0.011682480530599925
-0.01936727382787323
-0.022073124416939805
-0.015390095707788234
0.002835544618920516
0.02982170892096134
0.055824201469764675
0.06394781022075682
0.03269242130086164
-0.0587023950426481
-0.023229990109915003
-0.05956095721785247
-0.14849723502593223
-0.054446576273767484
0.06747774330304337
0.06012121985094344
0.15201475102979356
0.1483608836924346
0.028752500530735373
-0.04714440207573196
-0.12768089254572382
-0.25531679144383973
-0.055785720888417815
0.06595647275321082
0.1223541996246374
0.13504839922278453
0.12616677051551187
-0.08716903377263353
-0.09373249635176983
-0.08572636595785711
-0.0557038822633805
0.004669604574087415
0.10317014938819852
0.04386418336422481
0.024276000237235258
0.03475010645536659
0.06081703155519263
-0.1120115050338273
-0.0927924794309244
-0.08147582763588426
-0.069149363167913
-0.04294420065169874
0.20582386684955375
0.2737752644674836
0.14223868850902183
-0.01821304258645545
-0.23585766091155
-0.32317591367793636
-0.2665908235506242
-0.02666928357234768
0.24969765842422148
0.40960971848525
0.2757072478956608
0.037705521213076444
-0.1418704928611429
-0.3103025082116435
-0.3036737206869438
-0.13179736996582686
0.0242857130335162
0.20135932851560004
0.23457980340328102
0.137823075992068
0.09186029331686937
0.045064898753571524
-0.07331322084311138
-0.1315130920060084
-0.1721541725308658
-0.1951433901908209
-0.15251915590183618
0.04226029559434836
0.09252508180703248
0.29024739720120624
0.2901748661201962
0.09448693694437764
-0.1472361085147755
-0.1232634014907733
-0.1356050356978013
-0.07431403863996511
0.002751511982562145
-0.11968353356855328
-0.01511305062834473
-0.026009399740888808
0.1186949553733557
0.08414052209507247
0.3135187002024337
0.020249288166342656
-0.009259585895326602
-0.20353730386548505
-0.18950718972211072
-0.17809706597132727
0.04237308128527307
0.10273108467048758
0.041149257059480616
0.0876074966701756
0.05001755800405799
0.10639725174862852
0.0055771010646209285
0.07676643764886955
0.04617241093160462
-0.1430971217994213
-0.31318123379921037
-0.24161477723498337
-0.06416016456521063
0.10870584174653729
0.36591292871852193
0.3691718956474725
0.1353042866241155
-0.16604190004772482
-0.199141335351777
-0.23942939868220803
-0.15026345597605223
0.032966003175484045
0.1076966340479654
0.09902902956923264
0.048643858904119965
0.002580806127471098
0.0014203837221345686
0.07450868643584792
0.03826581526563778
-0.1024891004024151
-0.15210237553804845
-0.12291357150729496
-0.03721332748302159
0.0676833725111386
0.33397008420654833
0.28230510675562653
0.019900420586961374
-0.14059007639231016
-0.0547045796442576
-0.3201648307683545
-0.4608747335031932
0.07113231134247311
0.072671805945801
-0.05131865859497239
0.06301855766354778
0.4933388849032469
0.4030097489304525
0.44060233495709356
0.1717548054038554
-0.26090147201831626
-0.8644676548373302
-0.9315867991759963
-0.40842572230328916
-0.10916215266892007
0.6248719580750033
1.0405103808674911
0.8923762289241651
0.19569763398581394
-0.17152921420918996
-0.6200061726039865
-0.7742669008556267
-0.39948117740872474
-0.15459271200358354
0.015364931526353143
0.24954035594305993
0.5177657415413588
0.36285147576640947
0.25748913053965344
0.18819169226207402
-0.13097617170605338
-0.4220065024385284
-0.5981948421681467
-0.32754341025043254
-0.01698242594643162
0.37882736734299804
0.5306201676127179
0.30291049688401667
-0.06885747948058449
-0.18493308090844685
-0.2726287689370707
-0.16957863709104581
0.0926382426278958
0.09887775040515852
0.05346734174561311
-0.022437759015767954
-0.09683770874639072
-0.13466794453512632
0.09351223348467844
0.20324554649705687
0.1907314976846868
0.03293358050059455
-0.10565530336682434
-0.26163484981259355
-0.26157040915289387
-0.1164546836057954
0.175543751474387
0.4200286991371268
0.4171439159915025
-0.0409628741513002
-0.3629199830202257
-0.34462534762578684
-0.35799776740839595
-0.15059568609008503
0.3405901657634255
0.5656696175090725
0.33923405645836474
0.02979789857213991
-0.23288122098338082
-0.3353386555918887
-0.35242330199878297
-0.1251816066562512
0.14771687956284454
0.3040647924061297
0.20293375168556269
0.10808029659694574
-0.12393723736888435
-0.24928402863140853
-0.23863537026894688
-0.0794048703519569
0.21932373207091296
0.4209825993203579
0.26009467232540445
0.050583927622788495
-0.29493803469705115
-0.43994490709761314
-0.40254439794984404
0.05253779223591943
0.20412787133671004
0.3502817169903933
0.17888583996704358
0.14392633521478673
-0.14527691417454563
-0.12035032201728957
-0.039213540343949964
0.03349743115510521
-0.15484945271523595
-0.031146741543248518
0.009931653075305925
0.004586256138091664
0.011724156557643892
0.10014642819649638
-0.0662507122637372
-0.042809261764284914
-0.016062509383974757
-0.011737249163492783
0.10295381432269753
0.4249613987218134
0.43104021386447916
-0.5966992632974454
-0.33993219215146026
-0.21746306948958474
-0.3737309154620365
-0.28929248788498213
0.7880777831026398
0.6016337170069438
0.24834176438336045
-0.040433515050519724
-0.29493173012397805
-0.384927952388351
-0.39184505269091435
-0.1877087335509434
0.1718882923173575
0.4420206094018559
0.5783906405645013
0.3341917586884153
-0.12875638658668512
-0.61615858480763
-0.675883956069302
-0.5871263348753302
-0.17654845690714818
0.5374439549834652
1.0853921556659674
0.8957411150861962
0.2755290694140164
-0.36527070590126665
-0.8524498394424282
-0.9726364979890311
-0.6144314149481758
0.05161788306858115
0.5481881364840402
0.8342028834919826
0.6406441551275285
0.22481540596789626
-0.2414205921684431
-0.44936076371783706
-0.510536597558741
-0.3126166240699933
-0.09097160473848737
0.17603763208488457
0.3503676657736343
0.3061955165533194
0.10287822945336092
-0.03141514548165077
-0.10180522959902139
-0.13701199287184876
-0.17402039788609608
-0.043761466188432345
0.03753014013539024
0.06980934667699436
0.06503033763992831
0.040340488490896644
0.011708139181895245
-0.010092296452146172
-0.02063675483807728
-0.02074651430648342
-0.014234137121269884
-0.005586532349192041
0.0016915865428404572
0.005812002461790953
0.006630996501906701
0.0050922651453684095
0.0025368933306405884
0.00014294346942046786
-0.0013807030816090859
-0.0018468197811616818
-0.0014669488510094886
-0.0006548751404030815
0.00015965738354953025
0.0006603120642779335
0.0007060925781379727
0.00033780551010853695
-0.0002531089762743095
-0.0007812130362024937
-0.0009450872443709802
-0.0005244289923457288
0.0005149153962735795
0.0019363277655178326
0.003213143526422803
0.003622718408184463
0.0024794932668468148
-0.0005192461702451147
-0.004933525710762259
-0.009372825567798922
-0.011631722603971537
-0.009306722770091912
-0.0008801131192801486
0.012973557588019033
0.028340821469181626
0.03789540063692822
0.03210528314406004
0.0019092119407868036
-0.05773897419415713
-0.1447811528036095
-0.04905756967797792
0.0455117594979468
0.15593210857724765
0.09432740252833213
0.06399472046912158
-0.14095695913148862
-0.13273079439907393
-0.12587688460095495
0.06538216116214463
0.22771759609318137
0.14854106976194606
0.017558710949752383
-0.16873325988233068
-0.20112395115484763
-0.2541093105290062
0.11165277686183561
0.13991793299167413
0.26542145456139093
0.10201829546048757
0.037642186161234305
-0.16177513243591612
-0.14133516094198476
-0.14390247308873125
0.0003685443233073972
0.07859716918298289
0.09371928283397843
0.05927268479299513
-0.006594619671434261
-0.08577546848770243
0.0370955118112015
-0.02660913485652371
-0.07006438303814366
0.10877163874239981
0.10740061691972498
-0.08004872054236839
-0.06057228395580215
-0.03959710875718057
-0.019091386482561066
0.002497481526220848
0.02840176010887927
0.06072933407481019
0.0981695022755886
-0.06449507102475356
-0.034617580376791406
-0.01833423144633804
-0.01708872715886648
-0.02552765789389852
-0.03169677540344661
-0.019704079613898386
0.025739978568523076
0.11419414756387627
0.04552537363853504
0.008750897885350627
-0.015586370217629396
-0.0501703459502442
-0.1146491709443346
-0.020625307076844086
0.03040098941904563
0.04572532277549369
0.03773684719560436
0.01954521453550326
0.00152569242935274
-0.010373604609908674
-0.014561878403598587
-0.012547436340135026
-0.007255912514874496
-0.0015659984267541375
0.0025823253063879813
0.004450370057890617
0.004288509124625712
0.002891897908477606
0.0011489211947832635
-0.0002733498843007475
-0.001057942497282445
-0.0012079794092319028
-0.0009247792494453329
-0.0004659483504255332
-3.661425302748148e-05
0.0002613732954495046
0.0004237108643430496
0.0005004034930725079
0.0005412489983348651
0.0005546023699881525
0.0004961568623579043
0.00029309340300826285
-0.00010387636144552578
-0.0006601632275490249
-0.0012167625510699
-0.001498800493608728
-0.0011925043733499235
-8.722892809995343e-05
0.0017534071690124805
0.0038604106787617724
0.005356121421947738
0.005153453486588301
0.002375584116221879
-0.0030842983844984804
-0.01005971709477466
-0.015948728050195222
-0.01717927867218221
-0.0104551943272133
0.005342381389789661
0.027089814947602344
0.04600636379537081
0.04780057606368228
0.014996415034571855
-0.06864923071999685
-0.012632505948529032
-0.014769016023838864
-0.058621849451434525
-0.11458034635033162
0.05501990211780791
0.08752333948207187
0.010357731556218528
0.033023168300229895
0.1433217319483865
0.109457593472389
-0.1119520186071304
-0.16386181520837065
-0.07648885613178254
-0.05906762507359484
-0.09886968377438128
0.031823435477633895
0.16287920511021506
0.1118077081651163
0.07260099023380004
0.012049486437048375
0.07539250071036771
0.0004302909451577337
-0.06310538796935328
-0.1337336796203015
-0.1835194882695115
-0.13359041139914132
-0.06301061560943054
-0.030811799840238848
0.09292501604793652
0.39441642063506693
0.29115407531113663
0.12276447837339655
-0.03808701534467126
-0.15686791796308
-0.398619616007495
-0.2911687278639416
-0.10076632291001669
0.17391846036027908
0.19023823913078136
0.23898194525411734
0.01964575946097522
0.020885283120556156
-0.09043835574608598
-0.07218344196740326
-0.10478701181255513
0.012603604210101375
0.06554981594774721
0.02686873392168682
0.05924334079463271
0.11916869275408143
-0.037207097339886246
-0.24716472701137027
-0.13559980338611513
0.08714231850800952
0.02259669923194652
0.07803012553801923
0.2602801668976839
0.17341014367685118
-0.17766809138380263
-0.1786371493922582
-0.19665442620424683
-0.1765869390231257
-0.04705392538631525
0.06321149098411785
0.20284338224519374
0.3768706527786715
0.33595766907959873
-0.017916826728747264
-0.2087008596298756
-0.35264882829975236
-0.32511927435272164
-0.3397254168796165
0.052516242217180056
0.3439453745798882
0.43860117292456313
0.22045555990733726
0.13310519810620428
-0.22323594844350275
-0.27935014916276596
-0.2771511875400169
-0.05201255416632632
-0.024224903679757815
0.1988377047425045
0.21345835850575096
0.20963918471849877
-0.033585935788455736
-0.14488762245456716
-0.1509708909874373
-0.06511367320374256
-0.07902180420603985
0.03877260053138394
0.13762030288619928
0.07462208571507511
-0.09728979204912039
-0.14049225330935053
-0.04161167758294532
0.18269128960507455
0.2847750692492369
0.19243870675228766
0.024375316624411256
-0.28703803032160696
-0.3718493121633917
-0.4067540368913773
-0.11565162372265075
0.2106885938078017
0.4809606389863081
0.36738847458077833
0.28113518417863426
-0.03143976559999802
-0.2704308355334805
-0.34933916478229105
-0.3600368137025636
-0.14844035846478898
0.09139752454055061
0.20468085296955185
0.2516308462338082
0.28215074839673143
0.11921113475197925
-0.04356827785956297
-0.23070450331934475
-0.2659698522756277
-0.15450563869751707
-0.07360513691346826
0.024203775378812794
0.19734683012628607
0.296455565763418
0.1481864472654153
-0.052300022783350615
-0.1380546555471995
-0.15873553630056397
-0.16619761642158137
-0.0029143340430331194
0.10353541702063933
0.14006914718457208
0.10451978276580919
0.0021688440560573047
-0.15575406149767254
-0.1520545325319616
0.03596784742687955
0.033832265005523776
0.06492561992436119
0.1450817522068914
0.07914443447461034
-0.13890813370694327
-0.12258250699763548
-0.08831748215981401
-0.05231601182989208
0.16996008823185046
0.16256921804827085
0.10868732646901684
-0.006660165344637095
-0.19055895850338114
-0.23550847215935528
-0.11635956799755878
0.005656116385343937
0.17151050086705313
0.20914717258073764
0.12045371466574256
0.0761815293110558
0.02173874472512929
-0.10721306218698148
-0.16399341503125733
-0.1715939366326075
-0.11131453726582363
-0.12359651361763715
0.07839825163012801
0.18599383114680956
0.2697320349243258
0.15951396592342285
0.03639986474543947
-0.16172951555306173
-0.12327948770061614
-0.14096614744605868
-0.09176006768072545
-0.02399761868067631
0.046290749383970944
0.131038366396985
0.061224071491020195
0.07745015113980917
0.023126384614078666
-0.05860728716617937
-0.1251991668525446
-0.13463611361430292
-0.047519575507791526
0.16760970216506083
0.1268292481015211
0.024240116850005173
0.0293939687111559
-0.1095900416246104
-0.057656655355514404
0.11897777954835732
0.16601419715700824
0.053965046560101614
-0.21124529417825738
-0.3833397191252973
-0.38094789713162963
-0.10637618000285434
0.32363522807212547
0.7437355204450303
0.7163636730073105
0.13227066885040795
-0.35938315016474226
-0.69882143513863
-0.7600558001554363
-0.31392122946650325
0.174968460067454
0.5155132788129073
0.333360735716381
0.20919739323088501
0.030305896182069556
-0.03324056214051487
-0.12457085511349389
0.32890437768789915
0.4632966026722363
-0.16286194261388406
-0.7091004605019864
-0.6071557147949828
-0.5446458657544565
-0.4893088876341641
0.24711050537216683
1.321603321788461
1.878077268923815
-0.2974765490582035
0.4350752081007544
-1.5642925919312722
-1.1232530226857325
-1.1762147068182982
0.6728700008228194
0.1326569669205315
1.5649204611490135
0.513149056901481
-0.15016082038599896
-0.2398237842593841
-0.43852156264621395
-0.25620435526938096
-0.18739374474554546
-0.08152887932802455
0.06631177018148206
-0.0952849704976379
0.10128167430027776
0.31313962429073045
0.3626508945643583
0.22703101100542503
0.04658713880597499
-0.25019548380278406
-0.5135129631641828
-0.5443901254950363
-0.28492159561211994
0.16698145091619188
0.5222503251758897
0.6585404444739141
0.5897431075864167
0.26196065950330966
-0.42016653010896465
-0.946958081895624
-0.9581477857921554
-0.6213869330728192
0.1516928411351272
1.2564481270870118
2.136145943199659
-0.4559793941364409
-0.05073237815982897
-0.6121176869091555
-1.2637393583950092
-1.6259164839277187
1.2080440595499027
0.44615381389021996
0.534577560539452
0.4835683792341257
0.2094240883754178
-0.09150456719533032
-0.33486191835955437
-0.5157125431403875
-0.26595273093772204
0.18512033650878393
0.4404602043942382
0.7560636843729196
-0.5425465218608831
-0.44631796683561775
-0.45582033942006367
-0.39035308484975195
-0.2189251214225398
1.090155599763208
0.7148023086795524
0.33904362341589483
-0.0571253130313613
-0.5744631557439044
-0.5484138927475488
-0.2993552844971678
-0.09745782592238572
0.04787003621701725
0.3748431191243437
0.34189028211396144
0.19881505538780556
-0.032701653824476755
-0.1643865426195437
-0.23426333609925443
-0.09336328481925951
0.006913547239188499
0.02248327693015775
0.11865221744118999
0.06869398070803188
0.05197448421973585
-0.14609085124031812
0.06842721540276274
0.10219071162254786
-0.02086787386804424
-0.25635192582278077
0.06055559203008973
-0.18999577122565275
-0.12331182213186856
0.3349952106289324
0.43431518007919917
-0.009873357276364066
-0.014905603980334355
-0.21995386468677527
-0.4703999615325865
-0.20537476783060604
0.14544242296430096
0.35505047411937163
0.3878177611240753
0.19226340937446726
-0.09542102179218243
-0.33657593698945093
-0.3701785374850946
-0.19751631312917628
0.020500687799675083
0.15103702128676538
0.26646218671095206
0.2199151294427642
0.22891202577465772
0.07339493525686894
-0.09096268231952007
-0.30938072025960717
-0.40414804573294966
-0.3610903987949506
-0.13390302919424557
0.13307941604611276
0.6717498212879265
0.8616122051658714
0.4217946703223146
-0.16679082428826938
-0.6127329024534096
-0.9565142511297379
-0.9294322787672832
-0.3510702261179714
0.4269253382102694
1.2427498650164768
1.0405949621074637
0.6146923097492638
0.005004355972889456
-0.6524921954667471
-1.2401868590508587
-0.770858112547469
-0.32988110916580043
0.3337475008030151
0.7695870390776616
0.760948419546765
0.26033223004885936
-0.05252866669284564
-0.3807029313142261
-0.39275807703269855
-0.19112676100794843
0.12023768500702761
0.26046293311340246
0.18668845516017538
-0.09877706957033411
-0.34745622098863244
-0.2708178587653749
-0.15589103080869324
0.1092997982491001
0.4052113607113799
0.7550117195333209
0.3149723815941546
-0.21186435559400157
-0.541126147095673
-0.564462002431636
-0.7170877950782061
-0.17073601443099948
0.5435892899433066
0.892588550924363
0.6974520832435465
0.31191868888136437
-0.3662422763801166
-0.6538304175132438
-0.6284718668027176
-0.48578943185424894
-0.1258697173296509
0.4250697441410467
0.5661284856740414
0.4645768422080042
0.21035022525579558
-0.00376630616245872
-0.273017618656727
-0.3497803953065283
-0.4041058968666016
0.010935032497799677
0.18068846475107408
0.23597358882525046
0.1505165196563223
0.135482942524708
-0.16430573511527513
-0.2721082646824165
-0.08221399781987249
-0.06841469716518933
-0.10033644526896204
0.1337846051993204
0.30298220889228583
0.21536282918102134
0.21280153243739483
-0.01767379052508448
-0.21734363698799677
-0.3211349469780604
-0.2251614156251065
-0.16630863332950402
0.08048984937284806
0.18781160671160166
0.2502668987538531
0.15697929782164102
-0.029718079201590555
-0.08470917343023472
-0.019451484040017283
-0.0733554020544209
-0.10143468289039367
0.03813840464828581
0.09443086336567656
0.03151334423157978
0.03392630692868938
-0.08994395915697777
-0.10726126732633695
-0.16433611644363444
0.004444886338676297
0.06287100265397383
0.25728861208673703
0.2039823375318774
0.08444692768907594
-0.14900929615356914
-0.15894409249334254
-0.20500781506491167
-0.1292796639660513
0.05040267966760678
0.1379382646167063
0.14996986314849306
0.10534087651890563
0.017705731794125355
-0.10629072670467228
-0.0638122841918103
-0.05031023077700735
-0.05491406533744787
-0.059013738241221685
0.1613788171098877
0.03054760441826646
-0.03269256042405452
-0.019450960174129447
0.06725888040871145
0.013285727894693102
-0.0034067767791284074
-0.007631661746693846
-0.021098130191069316
-0.057248658929339565
-0.11837564591092319
0.003865875018477121
