0
2.1499714962004196e-18
2.14997150100344e-18
2.1499714995720196e-18
2.149971488992926e-18
2.1499714691701392e-18
2.1499714445073675e-18
2.1499714243496045e-18
2.1499714212458135e-18
2.1499714466242546e-18
2.1499715045099334e-18
2.1499715852439275e-18
2.1499716623009026e-18
2.1499716955715042e-18
2.149971643244396e-18
2.149971481423779e-18
2.1499712263044167e-18
2.149970949460358e-18
2.14997077471578e-18
2.1499708474497415e-18
2.1499712754618176e-18
2.1499720540341828e-18
2.149973002948055e-18
2.149973753432644e-18
2.1499738204607793e-18
2.1499727743004484e-18
2.1499704843896925e-18
2.1499673573275244e-18
2.1499644482793013e-18
2.1499633174197607e-18
2.1499655541731942e-18
2.1499720108931525e-18
2.1499819549881715e-18
2.1499925100051613e-18
2.1499988288348758e-18
2.149995338626945e-18
2.149978065950811e-18
2.1499475233285193e-18
2.149911060440321e-18
2.1498832105650576e-18
2.1498826978952372e-18
2.1499256424453697e-18
2.1500161042654992e-18
2.15013708259639e-18
2.150246669811148e-18
2.1502842475496983e-18
2.1501895002766036e-18
2.1499323156595953e-18
2.1495451553582724e-18
2.1491433772031358e-18
2.1489165002333316e-18
2.149077851678394e-18
2.1497732543716016e-18
2.1509699809209094e-18
2.1523692462871986e-18
2.1533990264644697e-18
2.153337366108287e-18
2.151581146666082e-18
2.148012290895134e-18
2.1433374865184174e-18
2.1392186366138214e-18
2.138008279685488e-18
2.141991081451733e-18
2.152218513919006e-18
2.167274886706159e-18
2.1825430078887558e-18
2.190621370719978e-18
2.1833556502180964e-18
2.1554203460681222e-18
2.108585225040197e-18
2.0549614601764277e-18
2.0170354937878272e-18
2.022609431286077e-18
2.0941850258312943e-18
2.2347979100986017e-18
2.415222840754664e-18
2.5696512257212008e-18
2.606888704141874e-18
2.4405627244893176e-18
2.034487260605881e-18
1.4496257685045095e-18
8.704358400172232e-19
5.856449192470139e-19
9.064815402178605e-19
2.0263564877900998e-18
3.857161317747096e-18
5.909287338985786e-18
7.29987063042427e-18
6.95962616094452e-18
4.051606609075609e-18
-1.4814785329067575e-18
-8.43649215863354e-18
-1.4211206478124863e-17
-1.5274653331076985e-17
-8.368180806234413e-18
7.730562127089936e-18
3.0423296311476005e-17
5.235398017166774e-17
6.227245007451423e-17
4.8318439586106616e-17
3.512415220978854e-18
-6.797185188213364e-17
-1.4639047375514605e-16
-1.971222198030287e-16
-1.7909522781565445e-16
-6.128382962184221e-17
1.561703042760218e-16
4.2393749314474874e-16
6.392603779489718e-16
6.655835650511976e-16
3.8023321914367776e-16
-2.570697185530019e-16
-1.1365347841596177e-15
-1.965303756911169e-15
-2.3055183983522517e-15
-1.705942573736431e-15
8.342519334472293e-17
2.8713435435902117e-15
5.8634645373939175e-15
7.703741236404091e-15
6.816685168452698e-15
2.0564254737335448e-15
-6.479221396223352e-15
-1.6775082768705832e-14
-2.4778851078401315e-14
-2.5215719637859653e-14
-1.3478328402309535e-14
1.171523719620274e-14
4.575950344946638e-14
7.701404823190056e-14
8.845681388087461e-14
6.294922349371233e-14
-8.385243251083728e-15
-1.1699098323270068e-13
-2.3097848435005546e-13
-2.9729634199000847e-13
-2.555929526067779e-13
-6.37216367461641e-14
2.7092199678310183e-13
6.66288863836827e-13
9.627805178533887e-13
9.568901580725595e-13
4.760087694414923e-13
-5.185759346563731e-13
-1.834883571337628e-12
-3.0109513905577876e-12
-3.385791915507506e-12
-2.3096196576100316e-12
5.294206137953969e-13
4.755420658847173e-12
9.09076405424466e-12
1.1462379782593314e-11
9.561683412144596e-12
1.84559085249445e-12
-1.1258701184397264e-11
-2.642063356650049e-11
-3.736244424991736e-11
-3.624231742844891e-11
-1.6611149898046225e-11
2.2600838225788035e-11
7.343457023838119e-11
1.1758386461448947e-10
1.2941127898224707e-10
8.432742414889444e-11
-2.8482608257619112e-11
-1.9273432361345217e-10
-3.573397905348075e-10
-4.413837234891912e-10
-3.5668730894085845e-10
-4.704837629357547e-11
4.6550089986382707e-10
1.0461422234509233e-09
1.4482475622075086e-09
1.3700241601087922e-09
5.712242653079601e-10
-9.727337130326881e-10
-2.9334716184057764e-09
-4.586613589382051e-09
-4.938922519461241e-09
-3.0617302455051514e-09
1.4139198154999282e-09
7.790570099376379e-09
1.4029089037978259e-08
1.697484357602444e-08
1.3264888959995586e-08
8.643794506671043e-10
-1.915975228633662e-08
-4.1364230975707356e-08
-5.607182041499167e-08
-5.168292203316851e-08
-1.9276272576426922e-08
4.143990377658624e-08
1.1697528092560811e-07
1.7870615354931194e-07
1.8819784533025113e-07
1.1045143556949436e-07
-6.685390730872534e-08
-3.1412592659586853e-07
-5.501152323707044e-07
-6.519731001084538e-07
-4.9164804769773e-07
4.027871045959439e-09
7.854244456813753e-07
1.6332961367417076e-06
2.1683803316376576e-06
1.9454260943022366e-06
6.343203800131553e-07
-1.7503965590750521e-06
-4.656649420130471e-06
-6.9548987408001075e-06
-7.1596206855117904e-06
-3.954776208537132e-06
3.059246482508805e-06
1.2636773274302887e-05
2.154576077048236e-05
2.5007657227699973e-05
1.8154720531156335e-05
-1.6228364915842216e-06
-3.208010704613762e-05
-6.44060079001718e-05
-8.375433689790772e-05
-7.30573013714817e-05
-2.014739996772994e-05
7.340184476208315e-05
0.00018507546954279214
0.000270357504303658
0.00027189870104177543
0.0001403297046041845
-0.00013677807226547808
-0.0005073469145498457
-0.0008430165098550838
-0.000958122955912442
-0.0006679265620013978
0.0001198354732005924
0.0013058651957155907
0.0025371785537419557
0.0032340560981728955
0.002744560762356857
0.000624600563735624
-0.003021556711992624
-0.00727311969791066
-0.010371583842389103
-0.01010171623334714
-0.00462377608632872
0.0063840205247366905
0.020641563685569107
0.03278380247289085
0.03502196954613689
0.01922063986059976
-0.019900817821630914
-0.08145945942925192
-0.15658397290018283
-0.029630227008594637
0.11701510179527587
0.0958003101843035
0.10746595997040556
0.13839222268870346
-0.03622179335753508
-0.24394575313822375
-0.10461223484588744
-0.022046344158306513
0.01858935233960487
0.04700804290744659
0.09935496998641065
0.008285927170938
-0.005330582002151611
0.06296428721124003
0.0010021020078326234
-0.016219812967891264
-0.019957586989479654
-0.0401447316474372
-0.09882759764223134
-0.006322367427687927
0.03904184715969972
0.047929497798043806
0.035170622562485175
0.014943182963865447
-0.0025691806381890592
-0.01243460504973176
-0.014373674943156277
-0.011033869106701259
-0.00597656558562318
-0.0020377081848375173
-0.00042240400368967956
-0.000604675004131834
-0.0008958284136111765
0.0005744540249025616
0.004777753841517244
0.010941447534580472
0.016255024612178003
0.016359616252626472
0.0066606453919756505
-0.015800544097832447
-0.05052975927817585
-0.09265927613998998
0.0663648337361966
0.03639558683218241
0.025288711539725898
0.03607322429140783
0.06583812503125257
-0.09317455643532643
-0.050766747264042796
-0.015519919630354517
0.007565561361030872
0.017756679248012042
0.017712386101390365
0.011768229704045721
0.004208441404631559
-0.0019061872127216716
-0.005162413209456287
-0.005588137472770379
-0.004094365400268142
-0.0018582049363126455
0.00014498842519477864
0.0013723334767643692
0.0017236761478770185
0.001409813078323796
0.0007721885914794826
0.00012817423963763132
-0.00031922542143928963
-0.0005027719980508505
-0.0004621522893494953
-0.00029236057219875395
-9.37771002610823e-05
6.110607807209427e-05
0.00014004615868247258
0.00014632152896971255
0.0001046641516864628
4.5668698066315354e-05
-5.900612657977437e-06
-3.669069088265947e-05
-4.4732379214094294e-05
-3.587335363023904e-05
-1.9083493117284856e-05
-2.5107880817140768e-06
8.757843334788524e-06
1.3158554879506082e-05
1.184385723257739e-05
7.324663708864782e-06
2.1871822227091352e-06
-1.7422815147066039e-06
-3.6880435195082114e-06
-3.7799852983401338e-06
-2.6777208958945666e-06
-1.1663234362723997e-06
1.386365912020579e-07
9.22923845556336e-07
1.1589626656623582e-06
1.0016233499691895e-06
6.603475333464826e-07
2.994477501630503e-07
-6.634183100434725e-09
-2.618969093784083e-07
-4.993778171296e-07
-7.223852176475083e-07
-8.660470907003585e-07
-8.014109182293342e-07
-3.8963875824176367e-07
4.259408616466761e-07
1.5230348518536652e-06
2.5473859360525052e-06
2.9537125780575892e-06
2.170813440049063e-06
-1.230234158502626e-07
-3.6894255773845925e-06
-7.518425884423454e-06
-9.877770934161565e-06
-8.74908870353874e-06
-2.6591344266055555e-06
8.275375969527808e-06
2.1480938697251942e-05
3.1769083600312735e-05
3.237588218358015e-05
1.7381629859498483e-05
-1.48810422679828e-05
-5.853673873727965e-05
-9.868453758947861e-05
-0.00011350282617909662
-8.098670559192096e-05
1.0313534221504932e-05
0.0001495226462286565
0.000295841050093413
0.0003812814389486282
0.00032839190695036364
8.293002155604632e-05
-0.00034593585181641137
-0.0008533386513727224
-0.0012348379510039047
-0.0012293481499297237
-0.0006148562409440042
0.0006596442815543605
0.002350074249874361
0.0038668642668914536
0.004365981121334438
0.003018779455479297
-0.0005684535551310684
-0.005905471164955471
-0.011345132311089993
-0.014227086586667954
-0.01161785891330528
-0.0016469666236493476
0.014838645123659405
0.03287065230333155
0.04294192990283324
0.03220410356929254
-0.012561573479306897
-0.10079742534131245
-0.034170580379823005
-0.004281324724932525
0.006887100600538208
0.02379086362409345
0.07241155914853944
-0.02496812402218185
-0.05406844956603446
-0.011320926404411914
0.09524516673667252
0.04710335763334622
0.01854882958387474
-0.017889412971175175
-0.08497746838713383
-0.1952150358982018
0.05165334348930206
0.06687110077714614
0.06730708209435875
0.06881746003996606
0.08109409675055598
-0.09419027966715168
-0.06181482674099435
-0.029393768531686047
-0.003673480550419888
0.011767847348437544
0.016966698829692588
0.01460564770955739
0.008447004124141634
0.0019071236041389148
-0.0028024555376278113
-0.004881552593774574
-0.004653470774999543
-0.0030436121434225505
-0.0010670830540908346
0.0005212642647746319
0.0013663328349382948
0.0014762388710399977
0.001085997724722547
0.0005006358306055025
-2.5807725526461604e-05
-0.0003508699123252898
-0.0004471624541015467
-0.0003686757423465712
-0.00020406774875474567
-3.629073364446759e-05
8.117856317979872e-05
0.00013018907694504778
0.00012060198635894177
7.692832116779618e-05
2.53057761550327e-05
-1.5248898423388282e-05
-3.615443591450707e-05
-3.8108294971968585e-05
-2.7461423916516423e-05
-1.2161550089983214e-05
1.3115651250393312e-06
9.427555799057919e-06
1.1623111099133281e-05
9.387945485250398e-06
5.046271071074614e-06
7.255704176774403e-07
-2.2345555740901744e-06
-3.4107509704972675e-06
-3.0914167716504956e-06
-1.925379498916173e-06
-5.872003402202093e-07
4.426214711258749e-07
9.562090720160952e-07
9.830056255931233e-07
6.934347567783944e-07
2.939814893722944e-07
-5.043897386132028e-08
-2.5263901111631925e-07
-3.017995678786413e-07
-2.3879660014051006e-07
-1.2446934251629723e-07
-1.3317353966131027e-08
6.116551001515852e-08
8.922075093458098e-08
7.915109856813575e-08
4.8098320454314235e-08
1.3451748047463103e-08
-1.266507864388266e-08
-2.524091725271966e-08
-2.532738396544443e-08
-1.7484379265174075e-08
-7.069737539848437e-09
1.7245324859396737e-09
6.751259762197555e-09
7.826662382738965e-09
6.066576058430296e-09
3.061205593434184e-09
2.0503829140687872e-10
-1.6661138977290033e-09
-2.330558803663169e-09
-2.0243030735752946e-09
-1.1993529273682017e-09
-3.034275397894964e-10
3.580824204746648e-10
6.65065635669238e-10
6.520764489282223e-10
4.4072174449681174e-10
1.6972972359239785e-10
-5.462465116872707e-11
-1.7973430010647374e-10
-2.0329847204270264e-10
-1.5545756666307643e-10
-7.734468651263016e-11
-4.108344256817112e-12
4.387310632603671e-11
6.179026743880552e-11
5.587386351271304e-11
3.6956040226288546e-11
1.497262482106667e-11
-4.006493515898994e-12
-1.7989281616430104e-11
-2.732321455132861e-11
-3.234097199762248e-11
-3.172929059762978e-11
-2.2534629814392683e-11
-2.0041135870429214e-12
2.937324110277442e-11
6.500077296408102e-11
9.125406876472266e-11
9.006444980368353e-11
4.557169580354419e-11
-4.631223383613325e-11
-1.6864788194456565e-10
-2.7936743636535687e-10
-3.173570264443112e-10
-2.2158935212526748e-10
3.861823780617541e-11
4.3073881975064896e-10
8.382877680086781e-10
1.0694619244682363e-09
9.079567971347624e-10
2.0537975739235025e-10
-1.0061605468340881e-09
-2.425078292754863e-09
-3.4725092751896264e-09
-3.4166442892924134e-09
-1.6446131060739733e-09
1.96643373981513e-09
6.704348806055159e-09
1.0888282994116252e-08
1.2134773129578605e-08
8.124539597498039e-09
-2.2172722192971274e-09
-1.7469077527310194e-08
-3.2964422306806344e-08
-4.1208274523437684e-08
-3.3928920296067377e-08
-5.703607985393858e-09
4.171539261488664e-08
9.609973557474199e-08
1.346907138552811e-07
1.2930302245495125e-07
5.706523180532507e-08
-8.522441104499941e-08
-2.6810320921757573e-07
-4.250043178680267e-07
-4.635257171107702e-07
-2.959720975976022e-07
1.1469535063828732e-07
7.072029259561675e-07
1.2950975974332605e-06
1.5859765384831054e-06
1.264092093534821e-06
1.3240799057611967e-07
-1.7213937788817774e-06
-3.8028649570477717e-06
-5.218364494841187e-06
-4.883757471655336e-06
-1.9481282054017775e-06
3.651505217688847e-06
1.0701811313801273e-05
1.6570285862364645e-05
1.7678867328501218e-05
1.0718441718482968e-05
-5.56425844558427e-06
-2.8555742982831153e-05
-5.0819355014441526e-05
-6.0960682472418963e-05
-4.6945746632716555e-05
-1.6603828261122208e-06
7.072807322107069e-05
0.00015027623093792468
0.00020193590845856248
0.0001840587321693624
6.508948948321793e-05
-0.0001550255571132321
-0.0004265288808637068
-0.0006454615221555606
-0.0006734334233946938
-0.0003858299737925097
0.0002588064551431902
0.0011501395781085653
0.0019924355829961478
0.0023429376084416085
0.0017451569505246064
-5.3428292427490105e-05
-0.002857497235051834
-0.005858893800212929
-0.007678071265246873
-0.006712753516715782
-0.00180365944751259
0.006919544364141753
0.017310142016004216
0.024995379161178558
0.0240469402299996
0.008642997498772122
-0.024613881408124285
-0.07458151706023491
-0.1348576328466651
0.0045705123724096245
0.15333858050482474
0.11593007285261557
0.08873825513463166
0.061205098574714664
-0.17869545182351945
-0.23693317755304139
-0.10781418599956746
0.026217050096252328
0.18853264587230506
0.1986344130934949
0.06351831760531063
-0.02576274858953009
-0.09094590700724306
-0.158658568256406
-0.05155862045223154
0.01783307666428092
0.04874308398916951
0.04959003312151467
0.03319401110690543
0.011984149397257957
-0.005233415100309417
-0.01441203712718085
-0.015633733505748742
-0.01149401436227464
-0.005327297284336273
0.00013708481557719559
0.003434572952355001
0.004382232509032654
0.0036721530222521095
0.002310887853784693
0.0011298041204954408
0.0005006902832254791
0.0002965903067061861
6.361599117910031e-05
-0.0006784595076438182
-0.0021148166843170117
-0.003909642909408543
-0.005181016703031784
-0.0047441792626460606
-0.0016180833808325623
0.004314474999788789
0.011715998522504887
0.01757106380085542
0.01760791859420553
0.007476915677990052
-0.015512092159714148
-0.05066516610316461
-0.09302061304268172
0.06597323903797606
0.036106968635859486
0.025155255495254738
0.036079563364857806
0.06593094247793133
-0.09305596317238413
-0.05066882495345921
-0.015465611340373301
0.007575338593710327
0.01773523110123107
0.017677868475839884
0.011736205952244892
0.004187981421673823
-0.0019129504198420436
-0.005158400998507835
-0.005578558341117236
-0.004084250866951623
-0.001850905587528194
0.00014823038646036418
0.0013719972462967378
0.0017211806854247698
0.0014067294993955711
0.000769694379276526
0.0001268306580744652
-0.00031942200693743395
-0.0005021814981694587
-0.00046124780310753287
-0.0002915393052192335
-9.326442333661536e-05
6.126372314940377e-05
0.0001399299434826491
0.00014606800170969362
0.00010440233167731306
4.5482724509789554e-05
-5.981012079144977e-06
-3.66792039878443e-05
-4.466565809082681e-05
-3.579110110487352e-05
-1.90152328188353e-05
-2.4710419984439095e-06
8.767654449337484e-06
1.3144843933694273e-05
1.1815570021522242e-05
7.290094715096282e-06
2.1534156340513524e-06
-1.7682495870924795e-06
-3.6982540362599565e-06
-3.7662332577723156e-06
-2.6348392957323664e-06
-1.0973527427836312e-06
2.1765704320103816e-07
9.818437490217982e-07
1.1592105318906935e-06
9.099661270760619e-07
4.6850900334406054e-07
4.308896467954366e-08
-2.3952702977844413e-07
-3.4365853048330494e-07
-3.0238512495621845e-07
-1.819784891168995e-07
-4.9047031436737456e-08
5.035796698292867e-08
9.7552474415904e-08
9.699493443469735e-08
6.639667671799908e-08
2.6331804312561e-08
-7.229719101392539e-09
-2.6210987135670774e-08
-3.0047921204314475e-08
-2.310599432557656e-08
-1.1508532844833746e-08
-5.817166451105731e-10
6.513497851323647e-09
8.971841481913615e-09
7.729683145395656e-09
4.533410134171198e-09
1.0973719515025348e-09
-1.4189311059371125e-09
-2.5686349585105122e-09
-2.4951316597410153e-09
-1.6705779373336629e-09
-6.279222395099655e-10
2.2760854848074072e-10
6.979619491812984e-10
7.779305553288356e-10
5.859513182442694e-10
2.817641262182864e-10
1.4318895198395798e-12
-1.763916903331091e-10
-2.339041642218563e-10
-1.9735728615846144e-10
-1.126916507657919e-10
-2.3980303356312005e-11
3.9628474965735434e-11
6.751905369424282e-11
6.411235211765538e-11
4.19649431327997e-11
1.4865685390143196e-11
-6.916563300755118e-12
-1.8542276517836396e-11
-2.0116363506128363e-11
-1.4839556402835058e-11
-6.873365127383126e-12
3.1044336401217195e-13
4.759114233209108e-12
6.089949020463001e-12
5.03301992942948e-12
2.794837300842565e-12
5.071518433398038e-13
-1.0984976282997261e-12
-1.771914245698389e-12
-1.6454825916779597e-12
-1.0523805042003627e-12
-3.489422031480412e-13
2.0496019758442772e-13
4.915246166090603e-13
5.19575870088534e-13
3.753087229879288e-13
1.6699519448398764e-13
-1.6885522651103453e-14
-1.279679810514024e-13
-1.5834982932392202e-13
-1.281954401452519e-13
-6.914032846930985e-14
-1.0213490048140006e-14
3.025730228973216e-14
4.6430418964074534e-14
4.218626580951557e-14
2.6346748592409032e-14
8.109557762204521e-15
-5.957915857268518e-15
-1.3000453017574823e-14
-1.3401999062489664e-14
-9.476320319324308e-15
-4.03676447377071e-15
6.6448956037775e-16
3.432622524523882e-15
4.1144221835798665e-15
3.2635162667824e-15
1.7081416357474338e-15
1.9202519831765025e-16
-8.264917037569522e-16
-1.2125636890397487e-15
-1.078080028766416e-15
-6.561560925456173e-16
-1.8391820604015478e-16
1.7291197285059698e-16
3.454671597649204e-16
3.4763238483187777e-16
2.413152333019716e-16
9.949637862896087e-17
-2.0598484203575758e-17
-8.955238079696004e-17
-1.0470106055032444e-16
-8.111245910202739e-17
-4.034645797904881e-17
-1.327712493039045e-18
2.458314482247323e-17
3.43128841872031e-17
3.091160734134787e-17
2.025349041563348e-17
8.085046662018936e-18
-1.735918996052364e-18
-7.652136562091388e-18
-9.81873557282155e-18
-9.102325345144914e-18
-6.235469647926449e-18
-1.4934873706909613e-18
5.027832285699963e-18
1.2740170584061093e-17
1.990850181978295e-17
2.349213553262074e-17
1.9841624887149188e-17
6.3066109336977054e-18
-1.6635572865904065e-17
-4.3582260771258236e-17
-6.387539027905979e-17
-6.376448305275997e-17
-3.1421183798485096e-17
3.604753114667121e-17
1.259179039852924e-16
2.070070280379088e-16
2.3430605108571747e-16
1.6314051005059306e-16
-2.860101465525062e-17
-3.164523251018891e-16
-6.143751745409762e-16
-7.814135970124746e-16
-6.592829156771926e-16
-1.4032167522079605e-16
7.500611776021482e-16
1.7886645415697856e-15
2.5496847498203898e-15
2.4969617823562876e-15
1.1841555154589975e-15
-1.4731535692448856e-15
-4.9457891637502925e-15
-7.995615735068251e-15
-8.874212191759224e-15
-5.888340668592444e-15
1.7335640444107317e-15
1.2926184987689195e-14
2.4246147133133837e-14
3.018867736597155e-14
2.4703958981592037e-14
3.862233008488531e-15
-3.097899661389475e-14
-7.077507463152254e-14
-9.878970664545674e-14
-9.437844828290659e-14
-4.0894257278374234e-14
6.378832054328426e-14
1.9779690832822892e-13
3.12111324457279e-13
3.389642059719175e-13
2.14356571402121e-13
-8.821501385166327e-14
-5.229334779113141e-13
-9.522636780140958e-13
-1.1614962476130154e-12
-9.197660258005105e-13
-8.444934825134123e-14
1.277330277470287e-12
2.8000381163465696e-12
3.826663348071257e-12
3.563324378269343e-12
1.3910643094227956e-12
-2.7275839537700483e-12
-7.892618523446013e-12
-1.2165970024797852e-11
-1.2924091430449475e-11
-7.753018009275155e-12
4.240338214120563e-12
2.1105294203702353e-11
3.735811569822127e-11
4.463381028657852e-11
3.4136178611540845e-11
7.224579776245805e-13
-5.244166134333167e-11
-1.106196631171157e-10
-1.4805056646393448e-10
-1.3424547198658197e-10
-4.6268823989629254e-11
1.1557432931749303e-10
3.1439910236314147e-10
4.736862535885494e-10
4.919872721054553e-10
2.78450356733729e-10
-1.9625547983670214e-10
-8.497769716310276e-10
-1.4638368074411662e-09
-1.7129101919501315e-09
-1.2623997124950036e-09
7.173490519899275e-11
2.1448903215065835e-09
4.364327839283996e-09
5.721174328613784e-09
5.046076213460042e-09
1.492330683643839e-09
-4.8595670189901076e-09
-1.2503418654402588e-08
-1.8422083082576343e-08
-1.8697381044766513e-08
-9.918055808360223e-09
8.844862972610998e-09
3.413944955824894e-08
5.7291247000901424e-08
6.564688073693843e-08
4.650038813372811e-08
-6.675572226215679e-09
-8.742666289310192e-08
-1.719627154570304e-07
-2.2081971126514699e-07
-1.8921079011175516e-07
-4.6008499815862864e-08
2.029866767192819e-07
4.964707885010722e-07
7.156322024074681e-07
7.093249289538446e-07
3.497882945077122e-07
-3.9081667726585883e-07
-1.3686900537152043e-06
-2.2396357131912287e-06
-2.5123713914080665e-06
-1.7052682989743608e-06
4.1069013874072433e-07
3.552420721861369e-06
6.767010518281551e-06
8.512540010716444e-06
7.0760918276667284e-06
1.3186556075717493e-06
-8.43043321206828e-06
-1.9683522472469813e-05
-2.7767850067725104e-05
-2.6860061375980687e-05
-1.218822544459669e-05
1.700619216273157e-05
5.4765012781170844e-05
8.745106115055143e-05
9.601169563084999e-05
6.222500351683295e-05
-2.1837921480551414e-05
-0.00014393110322566695
-0.00026595865906698323
-0.0003277452271439531
-0.0002638762456967806
-3.28952117792604e-05
0.0003483583661256179
0.00077920846823627
0.001076092175831665
0.001014906767778525
0.00041791374353144476
-0.0007317630833092834
-0.0021884473767272605
-0.0034125567983138458
-0.0036658206530432672
-0.0022595256722809944
0.001077880044618507
0.005825963597263362
0.010471185956788727
0.012679945646284455
0.009978218465581315
0.0008970151048396401
-0.013711857745610822
-0.02974461990436394
-0.03999515140630779
-0.0359710502025295
-0.011514127074001358
0.03238684375430226
0.08305135336499966
0.11386936821730947
0.08629219967944848
-0.04311348377772392
-0.11161632766885657
-0.13833037342541826
-0.11536146752122066
-0.0055019885704202035
0.052323532482973556
0.13144206864278146
0.10332383661609301
0.025181728077561572
-0.06767647452816054
0.03620237281703974
-0.07283080198651243
-0.02009573130089316
-0.04055164542417648
0.026316943124714113
-0.05997788889872695
0.06118882919471001
0.15311637197973663
-0.016119213656411318
-0.07035057444478146
-0.021221575517338664
-0.06491963972652212
-0.18178183869759731
0.059865926580754535
0.0958600615925192
0.15645963720425543
0.058100357009259626
-0.00024262106460627147
-0.03480430628607851
-0.07002018980052135
-0.12964105754238742
-0.029286946756363282
0.0271437225244378
0.046539445144911915
0.04223129745069107
0.02839341103839178
0.015334462764967487
0.007063608388519202
0.0015160281166601325
-0.007034527782310613
-0.024420573780901626
-0.05319729567583258
-0.09069583087753907
0.07066483863644929
0.040842973213205416
0.028447309307120795
0.037433519262591
0.0656371748471218
-0.09430050251955163
-0.0521268951559905
-0.016604208146413352
0.006993849641747934
0.017687510233043536
0.017982725747720498
0.012169068169404372
0.004566847436189231
-0.001686396295574631
-0.005098868817329775
-0.005643272305807054
-0.004207401149612902
-0.001972629484363233
6.536566721078006e-05
0.0013395596302378855
0.001730765186948127
0.0014399143774116293
0.0008074642714160992
0.00015572407173610302
-0.0003051547764572143
-0.0005016177014096462
-0.0004695305047580252
-0.00030283677244449217
-0.00010294661268213884
5.562273498003793e-05
0.00013860498318787808
0.000147887115844829
0.00010764357770110283
4.861310580200592e-05
-3.896911502005814e-06
-3.590700123489924e-05
-4.4964336391987296e-05
-3.667423192470537e-05
-1.9992786833280657e-05
-3.2035150969634225e-06
8.418657242787873e-06
1.3147312980451778e-05
1.2039655489792839e-05
7.584529958170229e-06
2.400551532472576e-06
-1.62810505989357e-06
-3.6695077180598205e-06
-3.816936738937484e-06
-2.7200031156670933e-06
-1.1777647168861787e-06
1.653262392339138e-07
9.635990626434094e-07
1.1682226103452823e-06
9.334144233819188e-07
4.937798812215118e-07
6.163295997664548e-08
-2.310218820928048e-07
-3.441574718738148e-07
-3.0842572022006594e-07
-1.8964189295791282e-07
-5.534760554057201e-08
4.6884386923054606e-08
9.69507935147339e-08
9.839803490534926e-08
6.863075782158091e-08
2.8395035949725152e-08
-5.917958501658979e-09
-2.5783751637004886e-08
-3.03135819144337e-08
-2.372723759931764e-08
-1.216104759188666e-08
-1.0505474191854934e-09
6.30708437845671e-09
8.995834571357225e-09
7.891981751145657e-09
4.7326111838574994e-09
1.2578066695772715e-09
-1.3330529637824583e-09
-2.5567106369761063e-09
-2.533719095274972e-09
-1.7290935800049954e-09
-6.808005704472572e-10
1.9478596805513043e-10
6.88064333150008e-10
7.856247812978767e-10
6.023773302865896e-10
2.9859303088791604e-10
1.3268040692326373e-11
-1.714054601064116e-10
-2.348069777515069e-10
-2.017048059699107e-10
-1.1786310293242266e-10
-2.806049954240201e-11
3.7511067424581136e-11
6.73038400440681e-11
6.516783940805693e-11
4.3495324495614893e-11
1.6219338932129236e-11
-6.096835812893737e-12
-1.8315996577568675e-11
-2.0336140674484282e-11
-1.5273039111472254e-11
-7.306896717686216e-12
1.206699059984445e-14
4.639297129419187e-12
6.120475303760517e-12
5.149155433461931e-12
2.928927079832445e-12
6.107893904858444e-13
-1.0464452070413722e-12
-1.7687329969273445e-12
-1.674216014725973e-12
-1.0923477540972619e-12
-3.835547137232802e-13
1.8452890649003606e-13
4.8643732386869e-13
5.257836436338949e-13
3.8672753907128016e-13
1.7815051076478954e-13
-9.375484538131057e-15
-1.2510627561102354e-13
-1.5932159881591272e-13
-1.3128964949520098e-13
-7.26124630773788e-14
-1.2841893537425871e-14
2.898242441147545e-14
4.640938452579003e-14
4.296479008021108e-14
2.7387874338439366e-14
8.991613120878276e-15
-5.451902642863892e-15
-1.288996879171825e-14
-1.3575280513257205e-14
-9.773437551627965e-15
-4.31758665890767e-15
4.83069421819486e-16
3.3706868409060487e-15
4.14502997980868e-15
3.3381559324294397e-15
1.7807206823664866e-15
2.3466264636048783e-16
-8.181279106734332e-16
-1.2232466224522965e-15
-1.0833153999405602e-15
-6.350283068265792e-16
-1.3065685740304851e-16
2.4227227993926104e-16
3.9438601560734974e-16
3.300174512289487e-16
1.2126714324532823e-16
-1.2475077508689837e-16
-2.9718447491495065e-16
-3.0920402637626645e-16
-1.2286059296921913e-16
2.303149008548366e-16
6.393254832253653e-16
9.250863198445148e-16
8.834947399974731e-16
3.6223785815736976e-16
-6.427267928483331e-16
-1.904676983837976e-15
-2.9457898711876842e-15
-3.125833758769128e-15
-1.860857276788232e-15
1.059086479327687e-15
5.151368698212537e-15
9.077529882144211e-15
1.0806069394722537e-14
8.210679218858568e-15
6.226958712099768e-17
-1.2845214160972813e-14
-2.6912196664375027e-14
-3.5878992343509676e-14
-3.2366527348315884e-14
-1.08629131350474e-14
2.847664246450634e-14
7.661710535349085e-14
1.149421640911678e-13
1.1886739120722025e-13
6.649175574089788e-14
-4.905168805739176e-14
-2.0748544398793368e-13
-3.556252445766037e-13
-4.1449012707223355e-13
-3.0325249111140726e-13
2.2000434404516432e-14
5.251990728512337e-13
1.0616430287250096e-12
1.3862594215640669e-12
1.2161200216587003e-12
3.4790108217291196e-13
-1.1957100600662494e-12
-3.04601188844306e-12
-4.469154269190879e-12
-4.515849773448986e-12
-2.3641535675757525e-12
2.2015534063559985e-12
8.332373104908936e-12
1.3915364296085458e-11
1.5881149172882905e-11
1.1161413986147145e-11
-1.798351664995667e-12
-2.139410501688436e-11
-4.1820429881724546e-11
-5.349294559806216e-11
-4.5578238708152815e-11
-1.0607791824186798e-11
4.988830310645979e-11
1.209123305997087e-10
1.735730766622188e-10
1.712597354244975e-10
8.32036999799756e-11
-9.69671065636809e-11
-3.3392745172731894e-10
-5.438613098188428e-10
-6.076223878921932e-10
-4.089448370379823e-10
1.065868911677758e-10
8.688212260456137e-10
1.6453088504659639e-09
2.0616553745708077e-09
1.7036404853267059e-09
2.9823716607433353e-10
-2.069882582111027e-09
-4.792456069440798e-09
-6.733484739456879e-09
-6.4827609822237165e-09
-2.891685053389857e-09
4.208838446626214e-09
1.3356532555579316e-08
2.1231485957441812e-08
2.3214038032234683e-08
1.490701814017206e-08
-5.568107402911805e-09
-3.518356428053581e-08
-6.464964003880522e-08
-7.935820295524788e-08
-6.349488373539451e-08
-7.132551074225349e-09
8.54592793067939e-08
1.8967836689526993e-07
2.6091244116758053e-07
2.449105107396964e-07
9.892414144660735e-08
-1.8054888512979276e-07
-5.332588937085652e-07
-8.278928928792092e-07
-8.855406910498057e-07
-5.402382527399318e-07
2.71727809272895e-07
1.4210716541191444e-06
2.537199928011626e-06
3.0507846519671037e-06
2.3589868264293035e-06
1.0309578764647012e-07
-3.512991897561604e-06
-7.496701740926878e-06
-1.0098167233519647e-05
-9.23304055482048e-06
-3.3155542248585484e-06
7.670592153127979e-06
2.1253231839300163e-05
3.2245677617206263e-05
3.372722623781626e-05
1.9447333412821483e-05
-1.2705020423762155e-05
-5.7258272745887744e-05
-9.945360575775858e-05
-0.00011712777105543238
-8.733783037863421e-05
2.7846013932502634e-06
0.00014384380485838862
0.00029588721116076855
0.0003903580183757438
0.0003472775152029859
0.00010802911203506323
-0.0003233565630451514
-0.0008458264107433634
-0.0012547885592369226
-0.0012828312273799436
-0.0006950154782999775
0.0005765647739665388
0.0023025143278201476
0.003896909971840942
0.004499627240751846
0.0032419211443952076
-0.00032916455080602
-0.005784577153384927
-0.011511203002512882
-0.014819678853357351
-0.0126506826029386
-0.0028874035924668826
0.014004037794776965
0.0335934016144768
0.047142616613908145
0.042988151728996365
0.009854931744535863
-0.058537824424594764
-0.15916175136425342
-0.07776766045573988
0.008963930855685687
0.1271439763373536
0.09728147146597413
0.12714397633735347
0.008963930855685491
-0.07776766045573993
-0.15916175136425326
-0.05853782442459442
0.009854931744536272
0.042988151728996754
0.04714261661390843
0.03359340161447697
0.01400403779477702
-0.0028874035924669104
-0.012650682602938659
-0.014819678853357391
-0.011511203002512882
-0.005784577153384899
-0.00032916455080597663
0.0032419211443952523
0.004499627240751879
0.0038969099718409593
0.0023025143278201476
0.0005765647739665301
-0.0006950154782999862
-0.0012828312273799498
-0.0012547885592369247
-0.0008458264107433625
-0.00032335656304514904
0.0001080291120350655
0.0003472775152029875
0.00039035801837574466
0.000295887211160769
0.00014384380485838878
2.7846013932500465e-06
-8.733783037863457e-05
-0.00011712777105543278
-9.945360575775893e-05
-5.7258272745887825e-05
-1.2705020423762006e-05
1.9447333412821754e-05
3.372722623781653e-05
3.224567761720643e-05
2.125323183930021e-05
7.670592153127938e-06
-3.3155542248586195e-06
-9.233040554820554e-06
-1.0098167233519701e-05
-7.496701740926895e-06
-3.512991897561587e-06
1.0309578764650485e-07
2.3589868264293373e-06
3.0507846519671253e-06
2.537199928011632e-06
1.421071654119138e-06
2.7172780927288316e-07
-5.402382527399427e-07
-8.855406910498123e-07
-8.2789289287921e-07
-5.332588937085618e-07
-1.8054888512978746e-07
9.892414144661275e-08
2.4491051073970046e-07
2.609124411675827e-07
1.896783668952701e-07
8.545927930679278e-08
-7.132551074226699e-09
-6.349488373539551e-08
-7.935820295524837e-08
-6.464964003880528e-08
-3.518356428053564e-08
-5.568107402911545e-09
1.490701814017229e-08
2.3214038032234812e-08
2.1231485957441825e-08
1.3356532555579225e-08
4.2088384466260896e-09
-2.8916850533899616e-09
-6.482760982223775e-09
-6.733484739456888e-09
-4.792456069440774e-09
-2.0698825821109986e-09
2.982371660743502e-10
1.7036404853267081e-09
2.0616553745708044e-09
1.6453088504659674e-09
8.688212260456335e-10
1.0658689116780942e-10
-4.0894483703794836e-10
-6.076223878921812e-10
-5.438613098188771e-10
-3.339274517274158e-10
-9.696710656383182e-11
8.320369997981348e-11
1.7125973542439863e-10
1.7357307666226961e-10
1.2091233059997195e-10
4.9888303106929183e-11
-1.0607791823622943e-11
-4.5578238707717667e-11
-5.3492945598045077e-11
-4.182042988237674e-11
-2.139410501827305e-11
-1.7983516668640816e-12
1.1161413984441299e-11
1.5881149172274724e-11
1.3915364297511895e-11
8.332373108848119e-12
2.2015534123251765e-12
-2.3641535613400014e-12
-4.5158497698650456e-12
-4.469154271564212e-12
-3.0460118990618642e-12
-1.1957100784833272e-12
3.479010605074695e-13
1.2161200055365804e-12
1.386259422148081e-12
1.0616430554241206e-12
5.251991276656488e-13
2.2000506639679108e-14
-3.032524269427767e-13
-4.144901072756898e-13
-3.556253046631891e-13
-2.074856007125178e-13
-4.9051920274897337e-14
6.649151865311364e-14
1.1886726326353528e-13
1.149422716952118e-13
7.66175321952073e-14
2.847736348385542e-14
-1.0862082519899947e-14
-3.236593286705564e-14
-3.5879064026907325e-14
-2.6913285848143718e-14
-1.2847374663990006e-14
5.948067374324271e-17
8.208271574285445e-15
1.0805450850893835e-14
9.08004371840671e-15
5.157594180125475e-15
1.0681099286148698e-15
-1.8518587555866947e-15
-3.1213092721126756e-15
-2.9505660379779303e-15
-1.92179840841214e-15
-6.709212912497804e-16
3.304379001560931e-16
8.616682084536008e-16
9.29778618420364e-16
6.836165114808838e-16
3.1536155220065517e-16
-1.531505203164641e-17
-2.191009716184981e-16
-2.7905251528530714e-16
-2.292999294954439e-16
-1.2564729226555816e-16
-2.0211493503671476e-17
5.347490999030588e-17
8.409466460556091e-17
7.791604909857524e-17
5.037991181022736e-17
1.7916297969243514e-17
-7.541926450409672e-18
-2.062826444412773e-17
-2.1804482095809025e-17
-1.507646486406614e-17
-5.444086725886451e-18
3.0221689349454446e-18
8.108554216869248e-18
9.466389822108132e-18
