0
-2.7251206564691213e-10
-2.2847111106324586e-10
-4.631754823165181e-11
2.643448218371243e-10
6.250063409480975e-10
8.869474078911775e-10
8.637782172748755e-10
4.014301436324084e-10
-5.271561801052152e-10
-1.7349753965829991e-09
-2.7888673166103828e-09
-3.0801103657019925e-09
-2.0225095478384023e-09
6.456407107460429e-10
4.544239503616688e-09
8.466175816354798e-09
1.04921928266253e-08
8.523381609720764e-09
1.2112865691585163e-09
-1.0941964371150169e-08
-2.475698164668586e-08
-3.439001030636072e-08
-3.266636011806884e-08
-1.3843709322306354e-08
2.2726582102244862e-08
6.932327989823213e-08
1.0880230790605162e-07
1.1757635589805212e-07
7.349928889002835e-08
-3.238332578021998e-08
-1.8376443576893028e-07
-3.324493713902689e-07
-4.035985073970703e-07
-3.17144054313489e-07
-2.4214355150278165e-08
4.506740572934822e-07
9.79101880534807e-07
1.3317260582375925e-06
1.2327249988411561e-06
4.6875096707684015e-07
-9.696664496554387e-07
-2.7651164300082383e-06
-4.240000833720484e-06
-4.481403195493722e-06
-2.654404770275953e-06
1.5411797932133414e-06
7.41248972719843e-06
1.3038677972522936e-05
1.550477876872074e-05
1.1761239298667615e-05
4.8677139991725565e-08
-1.848620865868429e-05
-3.866897215677683e-05
-5.1509653587586536e-05
-4.641855438285318e-05
-1.54964968563614e-05
4.1010655918318814e-05
0.00011010553606553806
0.0001650432517428369
0.00017053228368361692
9.516607978521209e-05
-7.084425684880064e-05
-0.0002982982805782102
-0.0005107661792138937
-0.0005948416279841505
-0.0004345687130120658
3.2891661162583816e-05
0.0007554608406907391
0.0015251023347341505
0.001989817387222237
0.0017435475573140886
0.0004948988223534693
-0.001722708979425044
-0.0043789769488261476
-0.00641962056028394
-0.006481658897502735
-0.0033855768388328894
0.0031776975520846425
0.011990846628055045
0.0200270920761009
0.022896708085866815
0.01622737018820182
-0.002159589214758457
-0.029889263877620385
-0.058553107439669995
-0.07436817787106667
-0.06193710115808933
-0.011147974210955543
0.0741868506230686
0.16888720714017655
0.22400430673292668
0.17281098229340808
-0.053858734532445586
-0.305905408099626
-0.3929041244875833
-0.2725550853093825
-0.05542900411251855
0.17311350284161617
0.5203339324587387
0.4547740001232187
0.18864036042177115
-0.11872109738669911
-0.33777479177181347
-0.5362668308869224
-0.35151792475526983
-0.17965118499681543
0.21382743119263403
0.6676350606759951
0.9958188162385279
-0.628819812631336
-0.27042820648632865
-0.007101577407802741
-0.0998365735668219
-0.5659948344280408
0.4336456796325638
-0.009535141948665178
-0.37274238934728926
-0.3343521942596569
0.1883589004329704
1.0056200818367391
1.2378785029189143
-0.6737935067975586
-0.526833560516467
-0.49730673517233065
-0.6833831988326521
-0.8747668725423727
0.8398755419430837
0.831272558230041
0.27153492552098546
0.2832723586338059
0.3140115738091914
-0.2583545812105835
-0.6961878289938268
-0.46440180624134547
-0.4018887008020217
-0.11395214881751203
0.813461034638799
0.988631410462815
0.595212356875228
-0.8066400204485987
-0.6578424266925608
-0.5693680516891978
-0.3015577343491366
0.03281507660143637
1.1413126459032075
0.31245107462178345
-0.21869771700229287
-0.28701267130959035
0.007383582203866278
0.12046532522741038
0.09529989957543458
0.1969240528216468
-0.05379257676377729
-0.4533500964881386
-0.7039652143071338
-0.22522779331503054
0.007238443845719637
0.40156192988609574
0.6836193328509997
1.0472100714099148
0.1405578214812379
-0.10124060890899764
-0.5842513507336718
-0.765844584885888
-0.9762269962453011
0.022574513606627787
0.22706081437524814
0.3359748428578704
0.2660350766528278
0.46512264811925225
0.4466740236634298
0.161584338200849
0.0136333110877341
-0.08651885341539364
-0.243180755775006
-0.4936667379650707
-0.5441495695482087
-0.7413215107586864
-0.08932858956705016
0.4912006055741019
0.8791768862402382
0.6714254960897159
0.9318057745631139
0.9894972840244819
-2.3136807767238587
-1.5479646604734922
-0.22698141218172582
0.4229456667591321
-0.35540849135184177
2.0970992018362815
0.7989023149440092
-0.1036644938112212
-0.7264413407915907
-0.6017972286961563
-0.4196476672645262
-0.18158454038966657
-0.18649788433840525
-0.05273368925163794
0.23047000022075745
0.4380501336790634
0.4505771100143861
0.6212203446252217
0.5812765273718047
-0.5135141290797728
-0.7070751129775191
-0.5605036066789247
-0.6906954007929319
-0.5524147229809735
0.32769659444661725
0.6739172802888992
0.5645648557032408
0.5460186515915507
1.1849312790588615
-0.9264392911685957
-0.3139076698354675
-0.13214851735237496
-0.2697679299437564
-1.4754693744198026
0.6755554415045616
-0.03246830271724025
-0.11208534333297246
0.14582330871629326
0.7876782321761842
0.7330255269508082
0.7493034685636074
0.4746122430401235
-1.917917614341516
-1.4375868257279678
-0.4084848311142476
0.35620501996351683
1.1317710051553098
1.028934340011421
0.13993587470007954
-0.09151050226862387
0.13154175976944663
-2.817133770754004
0.638805855603174
1.289639641797686
0.7338956673401006
-0.8329896362904168
0.9785747793119871
-0.6366716847432607
-0.8606008485675342
-0.6390003701377129
0.31417499367472324
0.6927516943146804
0.763446160343899
0.13661298656583862
-0.24325086178848807
-0.4836661571958186
-0.31480940875338215
-0.05788912521910398
0.19775382559627244
0.20458342288678358
-0.044160378380296746
-0.12188801106719085
0.021222308922133053
0.047246425033073074
0.0195999038573871
-0.006752333243941769
0.007295795047226092
0.08097749991457066
0.013538378305115839
-0.012066214966473136
-0.02247871562523617
-0.045849805400469144
-0.10443124998620792
-0.009787072864339115
0.03827909026543292
0.04927250573003655
0.037420659270133855
0.016858260485902922
-0.001851813758920909
-0.013164098554256843
-0.016139467168695243
-0.012893042046161665
-0.0067404182099692345
-0.0006922142885347061
0.0033833986282787065
0.004925788668627334
0.004375536772709
0.0026677336348032246
0.0007573675364791576
-0.0006867770087015535
-0.0013861862426119147
-0.0013965015248346585
-0.0009676447191766934
-0.0003946331481683718
9.093131876455893e-05
0.00036977381169910056
0.0004308806852933809
0.0003351733473005038
0.00017009367515557764
1.2598856929673634e-05
-9.098410805313744e-05
-0.00012815433321031262
-0.00011171167550237996
-6.647318449896404e-05
-1.7120938244679736e-05
1.9444947339607665e-05
3.651821741750606e-05
3.593385864105915e-05
2.43590393774195e-05
9.439444120177418e-06
-2.9442170194929335e-06
-9.86175724953159e-06
-1.1163607535218183e-05
-8.50624331794892e-06
-4.1723635781403964e-06
-1.2910000835995058e-07
2.469488535279199e-06
3.34367017213865e-06
2.854160454959911e-06
1.6544301115099247e-06
3.7941865186774314e-07
-5.456493449992294e-07
-9.608383113332134e-07
-9.239411746551367e-07
-6.124928819197847e-07
-2.2443319042440222e-07
9.11082750113801e-08
2.6238391199729024e-07
2.889746877108239e-07
2.1571749414599345e-07
1.0209899823397909e-07
-1.6715030002372263e-09
-6.689944940920201e-08
-8.743035013273059e-08
-7.326621160429775e-08
-4.1494559181829754e-08
-8.358259334107995e-09
1.54692596550541e-08
2.6104899002203403e-08
2.5090988152976886e-08
1.6848623187676322e-08
6.218514278112096e-09
-3.1355373220219493e-09
-9.260118728321292e-09
-1.1630130489511179e-08
-1.0518184664736044e-08
-6.469154345976923e-09
-1.487717492207741e-10
7.427907271200144e-09
1.4525608379253284e-08
1.855087523653148e-08
1.6495304473779955e-08
6.096362160800535e-09
-1.2508499769689481e-08
-3.526510302187779e-08
-5.3741413685455596e-08
-5.661778916014657e-08
-3.354293733611882e-08
1.9185584930903536e-08
9.28854842539511e-08
1.6352211601358948e-07
1.9459864623216045e-07
1.4788801737947948e-07
1.2676277277783578e-09
-2.3101754765891877e-07
-4.842488512277861e-07
-6.458173201794655e-07
-5.829140755890258e-07
-1.9625456769052121e-07
5.115306407547456e-07
1.3780325417716015e-06
2.068356706424673e-06
2.1400464397860756e-06
1.1987000367234305e-06
-8.797676490704612e-07
-3.7310722587659e-06
-6.398619682809502e-06
-7.461137238235111e-06
-5.463388683587302e-06
3.863720728708946e-07
9.441103477591955e-06
1.9098733312279368e-05
2.4949747729413686e-05
2.1901186557142072e-05
6.289855594008515e-06
-2.1482502458397116e-05
-5.478777970203308e-05
-8.042398711909547e-05
-8.130577051630408e-05
-4.2630402276062765e-05
3.950217033436743e-05
0.0001498388933160214
0.0002503732394329487
0.0002858682078485514
0.00020107627563139166
-3.204072618001608e-05
-0.0003847017589484878
-0.0007525109770046874
-0.0009630140020448979
-0.0008211729277862751
-0.00019234882209488312
0.0008963508414685423
0.002175676928291989
0.0031266261463747448
0.003091677860465688
0.0015191253993250959
-0.0017026054783313579
-0.005933268896603313
-0.009658978910653024
-0.0107319463178365
-0.007066939692166551
0.0022763182414739258
0.015919902202496335
0.029403094256933958
0.03539694965204313
0.02529420831282264
-0.007898905128105751
-0.06612659931927695
-0.14369478466174038
-0.02707477085546827
0.10206798968452345
0.061275406535057496
0.06125610636372914
0.10200329031574991
-0.027198278735548743
-0.1438792471055132
-0.06634265031324385
-0.00807468999039719
0.025263731339466744
0.03561488759124623
0.029914306349551424
0.016650954647275354
0.0030003231333513296
-0.006708524644820085
-0.011128585324163796
-0.011055860341847476
-0.008225362246447248
-0.004281960478907807
-0.00024329757254966695
0.0034917555687179825
0.006755400820727474
0.009136768306176001
0.009728930869934144
0.0073111013413165536
0.00099833532679565
-0.008839759195791587
-0.019807989564180048
-0.02740219924324156
-0.026095951955167413
-0.01178549276859982
0.014731870569809177
0.04417815171957014
0.05652094875171194
0.0214978289283844
0.10296734144572467
0.06712021522402009
-0.10681194682936401
-0.21627688801507197
-0.22961644720314817
-0.08854333420488256
0.07980921914672605
0.34402262940403805
0.34921700138960887
0.10517354008849028
-0.21337224403068675
-0.25492927164405965
-0.2738974174900214
-0.11556889396713602
0.19098298820505702
0.23162949616491868
0.20166227411206666
0.10180367903426916
-0.0604946049661425
-0.26501180497081733
-0.27260520814588235
-0.22520002109247322
-0.0562926836190221
0.2885034575656182
0.4270621455868156
0.32243749186067916
0.08003853380514513
-0.03552048580892741
-0.36740734616237347
-0.4276191134046733
-0.26503325943141354
0.14905200632769983
0.11392727823370177
0.17453915139838103
0.08708815339241663
-0.015449245817290215
-0.05061177995397639
-0.002308665397519206
0.27677846916882276
0.27710478573385544
0.25814329836531397
-0.31489052461102107
-0.33128060127815484
-0.8043746854515218
-0.6637294826147714
0.022368559917968822
0.7978584130008101
1.1608930958867207
1.5229461017471408
-0.19236898443298353
-1.1051593141175344
-1.3078157740491658
-1.4016777081878116
-1.077190346279603
1.2463414884816317
2.135365585904089
1.4510113295137406
0.699448723870617
-0.34679503975462894
-1.3609838804587502
-2.144811909510586
-1.133848982215571
-0.1692066087484053
1.0501711226464239
1.655863286707722
1.4857122270940737
0.39730969356328927
-0.3491581703633788
-1.0380584259800045
-1.202953665065377
-0.7294880749560818
0.008191734777000213
0.5614095423414904
0.7779630239078982
0.5525637124342664
-0.017776517485765454
-0.05628868619386924
-0.10333381372179953
-0.295676348808548
-0.34205335000729137
-0.3089749552319066
-0.226403637746129
-0.11583134040345917
0.5651571145069775
0.47530756174344635
0.5564933154239662
0.23013876429733224
1.029952785772085
-2.335148680454124
-0.7067947327811425
0.3830890392782551
0.5384251888747204
-0.9141882645877919
1.4315221238363522
-0.19514060489434235
-0.5970012221548663
-0.25233826205526755
0.659313232319268
1.6530796549740323
-0.6391050880364908
-0.2195749528179883
-0.659539968837597
-0.8390353269979163
-1.7170613401713206
1.2522747193850678
0.6600476098962725
1.0615456389802358
0.5075906115142546
0.517495907351649
-0.2941785907333099
-0.5462546270677493
-1.0011618571036343
-1.0904354484766425
-0.48467628888476544
0.47837493023760463
0.9156326965215924
0.6975997325576516
0.7602687910533464
0.4602825240609064
-0.2126836685408534
-0.7724160862472782
-0.744300929851649
-0.3756073392302163
-0.1748630806379634
0.10512735851071486
0.24119277265888198
0.2830646247758407
0.08409153306725395
0.037178326577116914
0.2296472909552647
0.4254392853404979
0.277935574186269
-0.028814401138467845
-0.5193666331193242
-0.5623572378287408
-0.6214575255246084
-0.23826805331685627
0.14598074976469347
0.5362683857732287
0.5151810852686852
0.5832878029919443
0.3289476545126706
0.03789412410448167
-0.26067002411916357
-0.7274407363647667
-0.8496067842261097
-0.6043955038258357
-0.06445605689402058
0.555649383244414
1.4295516836661797
0.8544226881409434
0.21897105008328058
-0.5829163793533293
-1.101245401044942
-1.2674674308496483
-0.3504603226393972
0.850513320229364
1.3781834207083252
0.6757107378332189
-0.44316789407255697
-0.39747185967974596
-0.6189439090379217
-0.5245795979889295
0.1013377892507907
0.7074090756673609
0.760555290338149
-0.8734309957618722
-0.3456527533581904
0.1660751197105647
0.45139748101608373
-0.3351558593789868
0.729011885198763
-0.05353086278435187
-0.3798594655354908
-0.5228654750152998
-0.1124956280134243
0.07008785722498007
0.28291166093482434
0.2025714407100303
0.101212613960426
0.029335870169283608
0.008870336049364453
-0.16363394781651588
-0.10723062453448207
-0.045089110208882933
0.004521250281538332
0.032618055919288375
0.039365682272023285
0.031016873527675702
0.015957098165364197
0.0014435341761767158
-0.008167965328302832
-0.011676948050364873
-0.010235690546570423
-0.0061182385526401435
-0.001596740451283055
0.0017668277323668507
0.0033466241506564126
0.0033038560702032993
0.0022470889228530517
0.0008779231962220634
-0.0002621133321480244
-0.000901732977118609
-0.0010252839620367169
-0.0007837706888413933
-0.0003865715454114255
-1.4715269986234233e-05
0.00022515541045831745
0.00030671855594022364
0.0002626824903443526
0.00015290735486769394
3.576767069458126e-05
-4.950451871819966e-05
-8.802279083337707e-05
-8.494704264407771e-05
-5.6512235585540236e-05
-2.0898465608132625e-05
8.152430976804753e-06
2.3991932376832877e-05
2.6532910301422728e-05
1.986705331313455e-05
9.454256914649963e-06
-8.239996717143708e-08
-6.090918185631437e-06
-7.993437962674007e-06
-6.704679373237988e-06
-3.798542790437573e-06
-7.752355010123447e-07
1.3794663535301422e-06
2.312677171961511e-06
2.182004428766836e-06
1.4189183630406083e-06
4.936294456064361e-07
-2.4576295547323024e-07
-6.369701154332634e-07
-6.858786521489574e-07
-5.029506501041052e-07
-2.3037226861929804e-07
1.3934531323186984e-08
1.6417174737657354e-07
2.0803971478431299e-07
1.7092459048381527e-07
9.41417650817039e-08
1.620248531548446e-08
-3.8165078765696367e-08
-6.06647183926558e-08
-5.598433538516977e-08
-3.5565576114904605e-08
-1.1555644573392161e-08
7.239635407624703e-09
1.687455102589424e-08
1.770895456384387e-08
1.2714790855621505e-08
5.5900435224420235e-09
-6.610567423207872e-10
-4.410073229925475e-09
-5.40691407018267e-09
-4.35163135657589e-09
-2.3271706868320524e-09
-3.2100572742412236e-10
1.0478212810276389e-09
1.5865529560423163e-09
1.4323756019313028e-09
8.884883992729679e-10
2.684619025422416e-10
-2.0564986340320564e-10
-4.3936707885661913e-10
-4.488081718498377e-10
-3.152400913249103e-10
-1.3556017252111618e-10
1.4490274197996108e-11
9.751297676572272e-11
1.1351406167399792e-10
8.714205788498256e-11
5.0649992317393256e-11
2.887123443658456e-11
3.0139058883733786e-11
4.470454337304897e-11
5.030797239297805e-11
2.3106555077436187e-11
-4.908428033346379e-11
-1.5540389711015716e-10
-2.5727643104352643e-10
-2.948889267070901e-10
-2.069140597722593e-10
3.8996378836910484e-11
4.1355896913553487e-10
8.053891769813639e-10
1.0293221464618065e-09
8.757190656572528e-10
2.0005056424654e-10
-9.680132238705213e-10
-2.338319568305877e-09
-3.352350736859953e-09
-3.3029932419805503e-09
-1.5969476000883814e-09
1.886765496121826e-09
6.463075399278139e-09
1.0510709334585163e-08
1.1727876529393492e-08
7.871704452238913e-09
-2.1022064023523656e-09
-1.6829456640687705e-08
-3.181113102865319e-08
-3.981160496778239e-08
-3.283594532138525e-08
-5.629246620305969e-09
4.014325614541873e-08
9.270018770678305e-08
1.3007839874890444e-07
1.250470016468801e-07
5.5469700695240736e-08
-8.182897222741957e-08
-2.584932774624618e-07
-4.103088117645262e-07
-4.4803507465985296e-07
-2.8685891422511086e-07
1.0923821439276348e-07
6.814077427393433e-07
1.2498718380231786e-06
1.5323301466263186e-06
1.2235753734552077e-06
1.3260917468752266e-07
-1.6569399161180162e-06
-3.6686282226333206e-06
-5.039995084983647e-06
-4.723543180233808e-06
-1.8955635361940654e-06
3.508031775341528e-06
1.0319218318211937e-05
1.5998327089018653e-05
1.7089495272880855e-05
1.039199197437741e-05
-5.314315980659809e-06
-2.7518059461722553e-05
-4.9048136225300885e-05
-5.890310834125238e-05
-4.544966707893566e-05
-1.7889823858885315e-06
6.809539242817336e-05
0.0001449842236388766
0.00019505093910329597
0.00017805344719345475
6.344242376505868e-05
-0.00014895744655504342
-0.0004112311248279404
-0.0006230737046711545
-0.000650814304649062
-0.00037392593304859216
0.0002479454476536663
0.0011085551840399293
0.0019223227037538251
0.0022609693993144806
0.001681743397158231
-6.279740737510446e-05
-0.0027894797174470476
-0.005724809138530308
-0.007543392599363917
-0.0067004358200225345
-0.002064925987474849
0.006284396950525815
0.016398665634970958
0.024339111974594714
0.024971694410650207
0.013815885793809785
-0.010352776388047998
-0.04299761904787051
-0.07272231272599024
-0.08297940747185156
-0.05746393285121303
0.01115019880734943
0.11117615351149598
0.20423837668661235
0.22428971647841128
0.08660771919948274
-0.0929720730519212
-0.1725964726062863
-0.36054390231247757
-0.4022981045787576
-0.18577517076938968
0.23372840125202302
0.3950076968025505
0.5916842338949405
0.4472542325600576
0.11527508624579134
-0.49418020163743137
-0.6720799867191881
-0.6702020411022848
-0.28142928572765813
0.14968042264437212
0.6900739031911396
0.7718626594439331
0.7588154397024799
0.1434949114518277
-0.6205379587231877
-1.0637274490764352
-1.0471448510210886
-0.3359553076480235
0.5872521604067288
1.4761570556121328
1.0654301109610502
0.23469118264145708
-0.9921706662728446
-1.2178588639392802
-1.0362117408850449
0.1830916938172187
0.476764340765933
1.0455854287007305
1.012491571295582
0.808808393158353
-0.7956354531950335
-0.623623209541989
-1.007908960670016
-0.9292246300340931
-0.8037996170265597
0.4687350384547434
1.0097955799051115
1.6520889762956505
1.2581992663556725
0.10185790675154413
-0.677844278294343
-1.3694162723881398
-1.7722918641420722
-1.1187828826682187
0.33288052237939986
1.4324891929515482
1.6288776716245583
1.2665416348677032
0.13195329759210808
-0.9310236679356937
-1.349350442736904
-0.9291339105392383
-0.7854231414381516
0.2794877650178792
1.1472853495151996
1.3260289597473998
0.8968790317908804
-0.3073935851566376
-1.0846741933230641
-1.2226319746763263
-1.0647300581949364
-0.10962246403792233
1.148723087907661
1.557481109176525
2.052002735392868
-1.3541223866313612
-0.9242125316115555
-0.5156101644036307
-0.694728907950593
-1.6859146182391127
1.226151315606873
0.6435671424948519
0.7755660326340253
0.9665472941194312
0.6621114821950999
0.026501291956624116
-1.3977537697483484
-1.8173220771209722
-1.3413379272500894
-0.1907545448127306
1.4318461908636482
2.440540329274398
3.1835830034718
-1.5714190345320385
-1.3670651656529689
-1.7268993031833773
-1.4254848751655123
-2.017158745498275
2.34502113332885
1.4095723585295084
0.8902616932592401
0.7501118218524321
1.3493670411884748
-1.9287831817796022
-1.1922928778976143
-0.5328563475755635
-0.33931300681304066
-0.8598522880854607
1.9827208004366357
0.9398655189114979
-0.02175569613254822
-0.5632206722483759
-0.5913457833938562
-0.25875292646604603
0.04085910557336516
0.27395850673426836
0.36595506169631903
0.4050974877276446
0.2595360330585603
0.010269952912862704
-0.6058558761824462
-0.7571157896647229
-0.6995901616379351
-0.1954686319776794
0.030872734522903643
1.4126577132025384
1.0631287041908304
0.5309170342403692
-0.19099288156847424
-0.20212035971338568
-1.3981337704901486
-0.9756420306388763
-0.3723430540731984
0.13674044668847837
0.5876492904375771
1.0416500377115412
0.6973164036830005
0.03047653796123092
-0.22132465756426992
-0.03106247969642948
-1.4270606506812529
-0.032572978066934134
0.9809886343901498
-0.28173084885581906
-0.6368304532662402
0.9677745257974392
0.03368051420827952
-0.7093248884505663
0.2758353705081219
0.11408065174387583
-0.09956223927447726
-0.11469093924115184
0.06522890428174284
0.3819756507560923
0.3328700144785528
0.1940602989939324
-0.34494068690160345
-0.5430742385662004
-0.5787080284587035
-0.34303620307291527
-0.06293789023868002
0.6509447810072996
0.9467646387603831
1.4867834150203105
-1.3660385308487588
-0.5253786621645332
-0.33517399333758013
-0.3218576782238339
-0.764700952371238
1.5081511645544525
0.3034501296794947
-0.1601571814679051
-0.2690863012487137
-0.22045121174308077
0.18103769781531887
0.1296086136417194
0.024857827731315348
-0.12332711741277669
-0.2925640319601163
-0.2504602266407101
0.23684806021706498
0.3916517600435336
0.21233855884233233
0.06836583081913518
-0.09357279312040125
-0.3337535420578116
-0.3004583150511386
-0.015822980662498216
0.1280665922030698
0.16244898883318173
0.12880323037872582
0.06555837422864527
-0.0005095392632149249
-0.056324452925186896
-0.09916096173917846
-0.13090067139730155
0.04688777014462362
0.035038279469594244
0.035922866967048474
0.05103565546147369
0.07890258502035385
-0.0853712335233949
-0.04871994528278663
-0.017751813284928322
0.003322667089545862
0.013564170697813299
0.014858761001993778
0.010651321415467034
0.004538505748298578
-0.0007636121665846748
-0.0038620855514816237
-0.004593506435277529
-0.0036033302641912406
-0.0018389400229544659
-0.00014026451802182053
0.0009833484364502884
0.0013903511504530623
0.0012156457594288625
0.0007266182570009173
0.00019083713742515339
-0.00020761891353855745
-0.0003949985875762866
-0.0003904105636878511
-0.0002657882050967564
-0.00010407090696711862
3.069557875561258e-05
0.0001063897541423499
0.00012110596625678822
9.265182253423573e-05
4.575576707207264e-05
1.8146562581828326e-06
-2.655456573282465e-05
-3.622450927078766e-05
-3.104732567235745e-05
-1.8090158497628418e-05
-4.250669751713455e-06
5.831589647422579e-06
1.0392595763282628e-05
1.0037850294263631e-05
6.683334896926302e-06
2.4767707686769843e-06
-9.572045711053828e-07
-2.8315324440829193e-06
-3.13454794826295e-06
-2.348845550445731e-06
-1.119271717478365e-06
7.743497170780217e-09
7.184329598185381e-07
9.440854216539749e-07
7.924724460558751e-07
4.494275705251173e-07
9.222946095441106e-08
-1.6253697886611072e-07
-2.730457393386173e-07
-2.5781790465390974e-07
-1.677846663900745e-07
-5.850295719370987e-08
2.8869328217734796e-08
7.512347886246892e-08
8.093463425724097e-08
5.935442909263771e-08
2.7198270705562206e-08
-1.5842365813185486e-09
-1.9218577428762598e-08
-2.4280646699885716e-08
-1.982914338354447e-08
-1.0818524667847283e-08
-1.8526503153328811e-09
4.153589391024872e-09
6.320540111746291e-09
5.401077499956788e-09
3.0022983344924403e-09
7.762613441482837e-10
-1.8853434224974824e-10
3.311142688315414e-10
1.7093585930261544e-09
2.7616155442554507e-09
2.2334183307262598e-09
-6.193027968459765e-10
-5.508952796264082e-09
-1.0847989774727156e-08
-1.3936506171641616e-08
-1.1738686579827086e-08
-2.2037912559754943e-09
1.4183138372599816e-08
3.322291032047983e-08
4.696766159514768e-08
4.549590831302066e-08
2.066864462465405e-08
-2.8830477422806264e-08
-9.29012747755218e-08
-1.4839433617922185e-07
-1.6295732733876735e-07
-1.0564275512324144e-07
3.7025336473704834e-08
2.4427296890925506e-07
4.514392221472838e-07
5.563730634105271e-07
4.4801711023049774e-07
5.596965990895393e-08
-5.912231144331877e-07
-1.3227042603892034e-06
-1.8269072519811252e-06
-1.7234303846586545e-06
-7.105519768449004e-07
1.2404074489871791e-06
3.712469623215618e-06
5.78981996549521e-06
6.219598166454451e-06
3.833699237721032e-06
-1.8263681460213633e-06
-9.871646903800389e-06
-1.7721725106167897e-05
-2.1394637443914834e-05
-1.6655745383329043e-05
-9.579841975719394e-07
2.4323379217670202e-05
5.2291864845160925e-05
7.072381501211833e-05
6.500038586597991e-05
2.392174533128278e-05
-5.278895631300235e-05
-0.0001480091683456472
-0.00022555624910824114
-0.00023695621993305164
-0.0001381990824464845
8.597983849535445e-05
0.0003978900776407946
0.0006947198165883297
0.0008213991490227843
0.0006166818710008591
-1.0980468247154373e-05
-0.0009978641280937101
-0.0020662214891633917
-0.002736833795405071
-0.0024479888113356973
-0.0007838743871784237
0.0022369084070530836
0.005920384428454217
0.008850663122817591
0.0091741373093844
0.005266493222380624
-0.0033252426032375068
-0.014975214438234083
-0.025586475930402666
-0.029236908811256384
-0.020210697419545086
0.0036614026968709553
0.03702707570670663
0.06364693728395183
0.05514177321225095
-0.026936886158069582
-0.025351828023889307
0.021552727525753226
0.0900463242089309
-0.0192395564461423
-0.07420629070461893
-0.209461619235331
-0.3325910259909784
-0.14025894576188805
0.25729730010704266
0.7095880523618564
0.40715386905793716
0.08062295673143241
-0.3789166537642329
-0.4844822902622485
-0.7168147033084455
-0.10235822142242443
0.38558600019022365
0.6046826309143841
0.21204417572846243
0.037983119257386504
-0.12494038004712035
-0.11583043233227644
-0.18747425522603078
0.015562121722401977
0.07566016038013752
0.013227643507856962
-0.31187877934116237
-0.20914136364707098
0.02428076478097553
0.27866710567953296
0.40671603899021525
0.40707329277454735
0.023637376205725556
-0.4379000105260016
-0.48255264350725263
-0.3993002950446848
-0.04643855763440514
0.3461922214078917
0.5625396062999383
0.38446435235799536
0.18641137227619978
-0.2537894028682649
-0.7320695741216791
-0.3952959029641986
-0.13242002672649972
0.012015259913872818
0.4038121183024855
0.7758566803649813
0.19141529711798652
-0.3729586342410587
-0.22016968582751886
0.09451615912111735
0.0007074902027091258
-0.04942086327153159
-0.15023436905915585
-0.12374537201105137
-0.31644388884335156
-0.013423889549250341
0.1321632747367329
0.46063676549605737
0.06795554418919023
-0.021493409305820894
-0.0647353844942825
0.20916776473397317
0.22549018839968063
0.0024729897830866256
-0.40471464867405255
-0.2641731165365564
-0.3425999600903902
-0.30485659587934866
0.05895963876127296
0.3838632544169051
0.27036811783761594
0.4318219872030268
0.464610241518373
0.25096076458779665
-0.20564295585315195
-0.9232111802499113
-1.0812824860892496
0.021114636890063786
1.7768366684566708
-1.347479625495089
0.35338360750104203
0.9858920068986284
0.02951952227264306
-1.6764055458796094
1.6699540522986323
0.24795307867645353
-0.5631771575833786
-0.7606890396124295
-0.5024013042328789
-0.10852490751365765
0.5148564001720779
0.838214717290958
0.6736927963010715
-0.03986632334724447
-0.6239521365566277
-0.6252086929539401
-0.37396708016067576
0.24669293072929568
0.41234985888339315
0.3505462666513038
-0.6762638696279736
0.00945576506884404
1.0817678806297613
-1.6045013560730481
0.17434105227918015
1.6045433771826414
0.03733775364462751
-1.5963461638572805
1.4407356300521026
-0.0765106807342256
-1.5108856112222884
-0.5565488386411458
-0.05934335962430449
0.7361933663094783
0.9265883777078617
1.3005719354915732
0.1260932392931953
-0.6158501642390465
-1.1605940713919558
-0.8800854548558812
-0.4265839826752359
0.27815161661059695
0.4059407398121211
0.5543798284751352
0.6755044895662073
0.827569839212654
-0.23335790669319903
-0.42067807015873926
-0.6578914491203561
-0.8175064534122097
-0.8836681191581479
0.4459430830534053
1.1201267902099217
1.273879398772317
-1.0264316592398357
-0.21203717366058855
0.791465925399292
-0.8063564960730674
0.18448026247277274
0.7851958665928876
-0.3045627377413462
-1.4727602925166463
0.014798491870185913
-1.0096212406221532
0.7250455270499886
1.2475404241909547
1.0681336016166552
0.5377720698558613
-0.13789678768469255
-0.6313455253607757
-1.1965223479419564
-1.1789842777620025
-0.3668658146667942
0.39936071231000025
0.9639472222564205
0.9662956354674139
0.7603010118092036
-0.02820535896459895
-0.494571593082649
-0.8082438202032146
-0.5489818013479071
-0.25244929294278595
0.21727141802299732
0.4648061407752776
0.3393685414867949
0.1043471743505602
0.013675672400323101
-0.09869236623789167
-0.21715185098816206
-0.13619473470367244
-0.05200578455120481
0.041663221694510304
0.1523591254482029
0.08461771208262718
0.03590664118199906
-0.004439183748787901
-0.05252407165862497
-0.12471277614200799
-0.032363697324129685
0.021295345443220804
0.04113174550815759
0.037420768064308954
0.022014371417487924
0.004962033711211494
-0.007424253044634593
-0.012868041235295325
-0.012203111996013417
-0.007898820476546154
-0.0026588232475527776
0.0015186697695827975
0.0037069941907168944
0.003945494771969691
0.0028708569916737286
0.0012977747542896674
-0.0001014735021001895
-0.0009549897822355661
-0.0011972737902997146
-0.0009773174942471633
-0.0005334694681139176
-8.633923212566621e-05
0.00022346183841098167
0.0003497811784073434
0.00032062518358559416
0.00020219162050708877
6.420265718925077e-05
-4.312956631555338e-05
-9.759434992986949e-05
-0.00010162400652909869
-7.248473314588864e-05
-3.1444532721450475e-05
4.328459081184698e-06
2.5613738753580953e-05
3.1094774601993486e-05
2.486671477490833e-05
1.3171915633355038e-05
1.6648292329997126e-06
-6.135284905230789e-06
-9.15758159362443e-06
-8.214339583767838e-06
-5.05607438578235e-06
-1.4811053377384711e-06
1.2427623805077443e-06
2.578734247584766e-06
2.6199406739257576e-06
1.829049581887685e-06
7.582780199966004e-07
-1.5569103749346675e-07
-6.854463325162825e-07
-8.069035371102591e-07
-6.321412633221682e-07
-3.2444474334761863e-07
-2.8583147545143423e-08
1.6753288341552042e-07
2.393820737150658e-07
2.1019841346574382e-07
1.2618755472919742e-07
3.3682117038242695e-08
-3.535262869131206e-08
-6.800977254228042e-08
-6.746607078906512e-08
-4.608444606249682e-08
-1.8185191979891542e-08
5.138324028071906e-09
1.829372922623851e-08
2.0913187275642474e-08
1.6049329389573338e-08
7.967161458086382e-09
3.688688548540364e-10
-4.553916715179517e-09
-6.248755801918353e-09
-5.3726541154509514e-09
-3.143009193153438e-09
-7.521847928718442e-10
9.95104431493871e-10
1.7903548904498603e-09
1.7352342279035505e-09
1.1592387889891845e-09
4.3327565911904704e-10
-1.6120413068003443e-10
-4.871154349031099e-10
-5.414656293150871e-10
-4.070408058597427e-10
-1.9508777471673545e-10
-1.7196970400041836e-13
1.2318402994249941e-10
1.6279583546969732e-10
1.370674750980974e-10
7.80186123170033e-11
1.629950807928626e-11
-2.7863579489100648e-11
-4.7147123491303653e-11
-4.4675317039503037e-11
-2.920882834442944e-11
-1.0342943530048287e-11
4.791009718465419e-12
1.284447464165628e-11
1.3906565313285438e-11
1.0213755472144703e-11
4.663847386018409e-12
-3.3051670352091114e-13
-3.415997164755848e-12
-4.331521841287299e-12
-3.5885475002514014e-12
-2.0278547357376687e-12
-4.364233894005665e-13
6.78208794319945e-13
1.1435810671788171e-12
1.0530265302906529e-12
6.389527361224303e-13
1.4929446841616186e-13
-2.355011612213875e-13
-4.3395709529545746e-13
-4.5262508183527416e-13
-3.5171310781507863e-13
-2.0660516673246655e-13
-7.878105906710816e-14
-1.7519019481780267e-15
1.9117674668967617e-14
-2.0547571744969253e-15
-4.3226697476533055e-14
-8.421464742733032e-14
-1.123050972114693e-13
-1.2347548363400128e-13
-1.2045667979840632e-13
-1.0940116444538813e-13
-9.67079000256225e-14
-8.693645001215132e-14
-8.206073125859149e-14
-8.180310436008365e-14
-8.454785793013408e-14
-8.833645031905637e-14
-9.160414082832832e-14
-9.352328773203586e-14
-9.399072009929967e-14
-9.339383908964609e-14
-9.230964835053554e-14
-9.125519601073375e-14
-9.054836529940582e-14
-9.02818960354201e-14
-9.037715243769421e-14
-9.067158335877265e-14
-9.100022870355629e-14
-9.124804287305189e-14
-9.136743723608896e-14
-9.13683451488607e-14
-9.129399890718318e-14
-9.119521944381968e-14
-9.11117820980657e-14
-9.106407030087371e-14
-9.105384139657892e-14
-9.107051924851413e-14
-9.10990216587385e-14
-9.112611815608368e-14
-9.114387541700266e-14
-9.115018561234327e-14
-9.114728431662642e-14
-9.11394585150887e-14
-9.113095681478843e-14
-9.112467912069356e-14
-9.112176790232148e-14
-9.112189716907427e-14
