0
0.0023007474830917564
0.0038950959529842604
0.0044977138394920995
0.003239874826640294
-0.00033133127967123824
-0.005786785188643843
-0.011513306968066028
-0.014821500279784391
-0.01265207867213568
-0.0028883582141753447
0.01400333249662375
0.03359251913000377
0.04714097019437444
0.04298519053980482
0.009850433172378131
-0.05854345455397142
-0.15916731401893738
-0.07777129390121906
0.00896421821263853
0.12714939982904702
0.09729142066018057
0.1271552561400839
0.008970835895999438
-0.07777199115435843
-0.15918262391535934
-0.058575472636602524
0.009808405712906053
0.04294960501259322
0.04713475834257733
0.033636998014618745
0.014106550281838617
-0.0027432184574956962
-0.012512615395582002
-0.014760246869468632
-0.011606266270709653
-0.006077895621108491
-0.0007922024146154311
0.0027378957277049447
0.004178266104885305
0.0040216878571115115
0.0030700691633963936
0.001981153191953592
0.0010241580509913798
8.744087710720967e-05
-0.0011079062376065088
-0.0026977385766532537
-0.004408497061136951
-0.005471714415462546
-0.004813110501551442
-0.001525786229297331
0.0044794226941349356
0.011874897175347975
0.017676004173420256
0.017645412652027126
0.007459460714522533
-0.015559454018191272
-0.05071726395947096
-0.0930600434745048
0.0659535378294925
0.036105312850938084
0.025164952705204056
0.03609283885653952
0.06594176108823281
-0.09305065400830581
-0.05066923872727983
-0.01547009857966708
0.007569091783836884
0.017729237490507997
0.01767332266781447
0.011733412357315922
0.004186586267626139
-0.0019136070477449793
-0.005158966945100184
-0.005579471799688212
-0.0040856807363444676
-0.0018527977066009659
0.00014605442873738206
0.001369738845593181
0.0017189929804059228
0.0014046873421282783
0.0007677997460869986
0.0001250387977121115
-0.00032117145749888137
-0.0005039399574099492
-0.00046304499635959056
-0.0002933819626070209
-9.514262640055911e-05
5.936733424651221e-05
0.00013803202378909763
0.00014417956686047276
0.00010252739407796132
4.361961418136643e-05
-7.837039839061003e-06
-3.853335986075199e-05
-4.652182278002384e-05
-3.765110368480804e-05
-2.0879033868242315e-05
-4.33743211886957e-06
6.900247827202715e-06
1.127773280862814e-05
9.94949241025789e-06
5.425195326280251e-06
2.8941864505996963e-07
-3.6318000813349756e-06
-5.5617857351238086e-06
-5.6300226640274154e-06
-4.498981041865481e-06
-2.961796886122549e-06
-1.6469636418594852e-06
-8.828188018932398e-07
-7.053955683370679e-07
-9.545388056951487e-07
-1.3958978575102205e-06
-1.8212522116397307e-06
-2.1038434259908045e-06
-2.207983849614219e-06
-2.1667382176631793e-06
-2.0463631162998705e-06
-1.913456283991472e-06
-1.8140642166120441e-06
-1.7668710915130862e-06
-1.7674214683108015e-06
-1.7980078893426298e-06
-1.8380598029983616e-06
-1.8716101948545924e-06
-1.89058475260517e-06
-1.894421812862381e-06
-1.887488687623284e-06
-1.8759088588925822e-06
-1.8650055342477136e-06
-1.8579326181992122e-06
-1.8554848093897975e-06
-1.8567144753048732e-06
-1.859868315155844e-06
-1.8632354249680445e-06
-1.865674591901103e-06
-1.8667718571536458e-06
-1.8667105270240543e-06
-1.865994131624323e-06
-1.8651580246929542e-06
-1.8645628265986642e-06
-1.8643096140622447e-06
-1.8642716019535237e-06
-1.8642080454100105e-06
-1.8639124756197383e-06
-1.863344587707495e-06
-1.862699501206411e-06
-1.8623796211269245e-06
-1.862855758408421e-06
-1.864437814496616e-06
-1.867018313097151e-06
-1.8698928498387014e-06
-1.8717801754455006e-06
-1.8711382818862063e-06
-1.866786428547657e-06
-1.8587021615567878e-06
-1.8487033583141727e-06
-1.8406153361632058e-06
-1.839544825541355e-06
-1.8501023845197657e-06
-1.873839882284364e-06
-1.9067101939004228e-06
-1.9378131501103633e-06
-1.9507914153379843e-06
-1.9287257332419354e-06
-1.8621478148347037e-06
-1.758031491751965e-06
-1.6458991240960857e-06
-1.5763597894276673e-06
-1.6084070777587245e-06
-1.7852122532734027e-06
-2.1036647597696197e-06
-2.4890417996754867e-06
-2.790267282558282e-06
-2.8100472507152607e-06
-2.37527382086945e-06
-1.4363743511287716e-06
-1.6344543927987977e-07
1.0100710204572949e-06
1.4481422806617343e-06
5.080034525819566e-07
-2.1469836075148506e-06
-6.203743345604226e-06
-1.0476661954545747e-05
-1.2985431493992785e-05
-1.1469717060298063e-05
-4.340555123846523e-06
8.14689138051971e-06
2.2948694325185414e-05
3.411357932314406e-05
3.40283107916009e-05
1.6204982533752603e-05
-2.0868445134396073e-05
-7.009483763757039e-05
-0.00011426845891364948
-0.00012868694764905591
-8.897386687182406e-05
1.671886614245278e-05
0.00017459999093319027
0.0003371532708192629
0.0004269787471269585
0.0003575904804439849
7.076330954502698e-05
-0.00041837076618975795
-0.0009862019281181016
-0.0013985936104637655
-0.001362105598315702
-0.0006341552274957843
0.0008279841935186995
0.0027302715719295253
0.0043916213051337655
0.004855413477014921
0.0032018536008349852
-0.0009760832512529777
-0.0070727761426873665
-0.013179086940907069
-0.01626669204704698
-0.01303642449304078
-0.001406315528309315
0.017706033369558546
0.03898350534115184
0.05255108721357997
0.04577492390224074
0.007153223612344257
-0.06853231638440453
-0.17567607298042592
-0.09633209196894274
-0.00355520479748035
0.1304411799040712
0.1238163771695461
0.1765399318713027
0.0678097493438921
-0.03860415940634368
-0.18240251751804484
-0.19246543073464695
-0.07578007069531355
-0.014014620081039769
0.030874803593336164
0.10413725214142677
0.24347164888809336
0.0673518243970915
-0.029567474308899524
-0.07282495853586607
-0.09837572946379614
-0.1408273114254145
-0.02402728032507856
0.04320145777520319
0.0657615001909895
0.05712930685679268
0.0330791213503414
0.006708665454677444
-0.013961287830098151
-0.025840936935795464
-0.029029183588736695
-0.024764203465077832
-0.014154207658349668
0.0017846430850446725
0.020943261803345922
0.03853449552958504
0.04614911454208401
0.032365694762068485
-0.014748906362944979
-0.10378775103973896
-0.036148479629831316
-0.003779819086506847
0.010416493286042244
0.029567224324648204
0.07823210236723938
-0.02232363816233804
-0.057825545716023385
-0.023165897262882443
0.07688576127487581
0.02832256746678721
0.00999549170447886
-0.002774696204623648
-0.03352577715269672
-0.10003441181952881
-0.011144629194587218
0.03392986858497865
0.043737747145056176
0.0310760101526538
0.009240160586467393
-0.010807346910088732
-0.021905208299863213
-0.02102414993360871
-0.008994482676887097
0.00994285564751093
0.028696199669427228
0.03828283528622115
0.029576789608236675
-0.004056321080919185
-0.06375954334106028
-0.14300822988430353
-0.02768195961111624
0.1008128881561696
0.059989131451315965
0.0603543936425836
0.10165241491304165
-0.027041589088902425
-0.1433886240596598
-0.0657437873323467
-0.007587557292712002
0.025462664057170577
0.03542187887502374
0.029328852497882314
0.015805479790427596
0.0021715703434845024
-0.0071334844149428065
-0.010754149369976047
-0.009646783096612562
-0.005903691872091617
-0.0016718348928564403
0.0015404747977947166
0.0030998274668557393
0.0031233011163838047
0.002165546915225308
0.00088449248130446
-0.00020218440288496928
-0.0008272430000762655
-0.0009653900546212048
-0.0007523901326360238
-0.00038362007943770196
-3.1269750180751816e-05
0.0002008288815194145
0.0002844722291421315
0.0002481044421907829
0.00014714393239919648
3.679655028189552e-05
-4.508045178575297e-05
-8.341148897311283e-05
-8.223658345009679e-05
-5.6431058739503986e-05
-2.3087597857777812e-05
4.6280636981176216e-06
2.01403430729469e-05
2.309393966808924e-05
1.7180159133935424e-05
7.499708764584383e-06
-1.545451542454588e-06
-7.368129719012145e-06
-9.336160161390059e-06
-8.251523842063927e-06
-5.573564028135893e-06
-2.722502437443205e-06
-6.509459485098977e-07
2.814235786444099e-07
2.022488647534599e-07
-4.922804418137435e-07
-1.3595966144588361e-06
-2.065790558470779e-06
-2.449827034571972e-06
-2.5102696695002012e-06
-2.347114381177122e-06
-2.093355969541355e-06
-1.8613977555750808e-06
-1.7155638264142794e-06
-1.669698791026081e-06
-1.7013898340825803e-06
-1.7722715456255749e-06
-1.8458479980774112e-06
-1.8981865137162777e-06
-1.920766486265117e-06
-1.917476066066451e-06
-1.8988424812594434e-06
-1.8763111053283166e-06
-1.8583393002040283e-06
-1.8488565770480112e-06
-1.8477021789507978e-06
-1.8521774058026744e-06
-1.858819225515816e-06
-1.8647608447438374e-06
-1.868406672395088e-06
-1.8694630021279537e-06
-1.8685514656723491e-06
-1.8666790241253964e-06
-1.8647824554141922e-06
-1.863462018735258e-06
-1.862917868788458e-06
-1.8630345853256609e-06
-1.8635330625477376e-06
-1.8641176567244768e-06
-1.8645744491483327e-06
-1.864807936982383e-06
-1.864827323911443e-06
-1.8647051955561506e-06
-1.8645316077092697e-06
-1.8643795885390024e-06
-1.8642886201399492e-06
-1.8642646471861504e-06
-1.8642905402245085e-06
-1.864339911304489e-06
-1.8643887426972944e-06
-1.8644220057423466e-06
-1.8644350458287672e-06
-1.8644312238350853e-06
-1.8644179243437574e-06
-1.864402775190708e-06
-1.8643911795750684e-06
-1.8643854482274451e-06
-1.8643852146092355e-06
-1.8643885324657813e-06
-1.8643930628863583e-06
-1.8643969478431998e-06
-1.8643992129620227e-06
-1.8643997468249964e-06
-1.8643990187832183e-06
-1.8643977193072421e-06
-1.864396463472248e-06
-1.8643956268517978e-06
-1.864395316364127e-06
-1.8643954355990064e-06
-1.8643957895555538e-06
-1.8643961816569777e-06
-1.864396475626976e-06
-1.8643966158381137e-06
-1.8643966150386666e-06
-1.8643965252656402e-06
-1.864396407189085e-06
-1.864396308023054e-06
-1.8643962517449284e-06
-1.8643962401525915e-06
-1.8643962604494711e-06
-1.8643962945948132e-06
-1.8643963268552313e-06
-1.864396347863368e-06
-1.8643963552008801e-06
-1.8643963516004353e-06
-1.8643963422018308e-06
-1.864396332065229e-06
-1.8643963246225172e-06
-1.8643963212051605e-06
-1.8643963214004206e-06
-1.8643963238206364e-06
-1.8643963268939832e-06
-1.864396329422244e-06
-1.864396330817232e-06
-1.8643963310601612e-06
-1.8643963304983871e-06
-1.8643963296026212e-06
-1.8643963287748483e-06
-1.8643963282482178e-06
-1.864396328076349e-06
-1.8643963281825444e-06
-1.8643963284315676e-06
-1.8643963286933116e-06
-1.8643963288814857e-06
-1.8643963289644314e-06
-1.8643963289549302e-06
-1.864396328889897e-06
-1.8643963288100059e-06
-1.8643963287456263e-06
-1.8643963287111383e-06
-1.864396328706319e-06
-1.8643963287217757e-06
-1.8643963287452413e-06
-1.8643963287664548e-06
-1.8643963287796245e-06
-1.8643963287835935e-06
-1.8643963287805005e-06
-1.8643963287739045e-06
-1.8643963287671551e-06
-1.8643963287624253e-06
-1.864396328760463e-06
-1.8643963287608756e-06
-1.8643963287626641e-06
-1.86439632876475e-06
-1.8643963287663388e-06
-1.864396328767069e-06
-1.8643963287669823e-06
-1.8643963287663862e-06
-1.864396328765686e-06
-1.8643963287652355e-06
-1.8643963287652374e-06
-1.8643963287656904e-06
-1.864396328766391e-06
-1.8643963287669842e-06
-1.8643963287670653e-06
-1.8643963287663284e-06
-1.864396328764735e-06
-1.8643963287626493e-06
-1.8643963287608689e-06
-1.8643963287604724e-06
-1.8643963287624558e-06
-1.8643963287672036e-06
-1.8643963287739574e-06
-1.8643963287805342e-06
-1.8643963287835801e-06
-1.8643963287795434e-06
-1.8643963287663066e-06
-1.86439632874506e-06
-1.8643963287216317e-06
-1.864396328706305e-06
-1.8643963287113363e-06
-1.864396328746062e-06
-1.8643963288106026e-06
-1.864396328890454e-06
-1.8643963289551503e-06
-1.86439632896401e-06
-1.8643963288802584e-06
-1.8643963286914155e-06
-1.8643963284295492e-06
-1.8643963281813272e-06
-1.864396328076998e-06
-1.8643963282514965e-06
-1.864396328780667e-06
-1.8643963296095868e-06
-1.8643963305037325e-06
-1.864396331060312e-06
-1.8643963308090979e-06
-1.8643963294050255e-06
-1.864396326870893e-06
-1.864396323799645e-06
-1.8643963213930919e-06
-1.864396321223036e-06
-1.8643963246714173e-06
-1.864396332139062e-06
-1.8643963422786823e-06
-1.8643963516441837e-06
-1.8643963551707514e-06
-1.8643963477313294e-06
-1.8643963266272022e-06
-1.8643962943274549e-06
-1.8643962602517148e-06
-1.864396240162294e-06
-1.8643962520777238e-06
-1.8643963087024678e-06
-1.8643964080814776e-06
-1.8643965260548433e-06
-1.8643966152758522e-06
-1.864396615085984e-06
-1.8643964736819656e-06
-1.864396178785238e-06
-1.8643957866344294e-06
-1.8643954340394167e-06
-1.8643953177249437e-06
-1.8643956321574794e-06
-1.8643964723977783e-06
-1.8643977295550277e-06
-1.864399026070439e-06
-1.8643997458419714e-06
-1.8643991993928986e-06
-1.8643969210697286e-06
-1.8643930284387893e-06
-1.8643885028662283e-06
-1.8643852072588434e-06
-1.8643854796627258e-06
-1.8643912568165414e-06
-1.8644028867596827e-06
-1.8644180351817286e-06
-1.864431278894757e-06
-1.8644349856002624e-06
-1.864421792990554e-06
-1.8643883937409825e-06
-1.8643395190584478e-06
-1.8642902728681304e-06
-1.8642647089674272e-06
-1.8642891716536234e-06
-1.8643806422448128e-06
-1.8645329358094154e-06
-1.8647063028053307e-06
-1.8648275364480678e-06
-1.8648066307455802e-06
-1.8645713863325497e-06
-1.8641133271690079e-06
-1.8635288646824965e-06
-1.8630326643732515e-06
-1.8629204930204826e-06
-1.8634705330476358e-06
-1.864796082581748e-06
-1.8666940160879203e-06
-1.868561226283151e-06
-1.8694596847390938e-06
-1.8683843210007034e-06
-1.864719426597084e-06
-1.8587680853102439e-06
-1.8521361033917341e-06
-1.8476967790862682e-06
-1.8489105798335884e-06
-1.8584605712090038e-06
-1.8764789245214148e-06
-1.8990011622542964e-06
-1.9175421038448974e-06
-1.9206535631961274e-06
-1.8978464059508861e-06
-1.845316451963875e-06
-1.7716994001539383e-06
-1.7010354879813895e-06
-1.6698632901030862e-06
-1.716467256309509e-06
-1.8630237877023603e-06
-2.095322685972575e-06
-2.348650291464685e-06
-2.510367795451783e-06
-2.4476044833138235e-06
-2.060995651325413e-06
-1.3530992951290816e-06
-4.862945764547363e-07
2.044764674133402e-07
2.766137027189067e-07
-6.645076780370349e-07
-2.743212396907289e-06
-5.5953650212720304e-06
-8.264305206610452e-06
-9.32838773286542e-06
-7.331703835165691e-06
-1.481692197949332e-06
7.575244975083178e-06
1.7237082228993276e-05
2.309339326612926e-05
2.00492393735995e-05
4.438738024608484e-06
-2.3338853395449477e-05
-5.665636678511036e-05
-8.230984730938874e-05
-8.320835170499474e-05
-4.454059140598602e-05
3.7602525139294825e-05
0.00014797328353203016
0.00024856201836153513
0.00028411673865665277
0.0001993635875742488
-3.3766887979146975e-05
-0.00038651733959148954
-0.0007544919352041857
-0.0009651988841709266
-0.0008235221562280749
-0.00019471885426723806
0.000894197117175569
0.002174007649892073
0.0031256263436071916
0.003091310030107289
0.0015190188224463415
-0.001703165447950697
-0.005935188267672892
-0.009663019629260583
-0.01073826714792319
-0.007074667868098666
0.002269255631629871
0.015916453249792434
0.029406137338845173
0.0354078344507613
0.02531120336431233
-0.00788154753052675
-0.06611814170282954
-0.1437054797444769
-0.027111383561672177
0.10200754051710893
0.06120615704861586
0.06120615704861576
0.10200754051710868
-0.02711138356167244
-0.1437054797444771
-0.06611814170282967
-0.007881547530526924
0.025311203364312147
0.03540783445076114
0.029406137338845027
0.015916453249792316
0.0022692556316297983
-0.007074667868098691
-0.01073826714792317
-0.009663019629260526
-0.005935188267672829
-0.0017031654479506553
0.0015190188224463554
0.0030913100301072803
0.0031256263436071677
0.002174007649892045
0.0008941971171755486
-0.00019471885426724652
-0.0008235221562280727
-0.000965198884170918
-0.0007544919352041751
-0.0003865173395914802
-3.376688797914134e-05
0.00019936358757425022
0.0002841167386566511
0.000248562018361532
0.000147973283532027
3.7602525139292684e-05
-4.4540591405986944e-05
-8.320835170499471e-05
-8.230984730938814e-05
-5.66563667851096e-05
-2.33388533954488e-05
4.438738024608884e-06
2.0049239373599563e-05
2.3093393266129047e-05
1.7237082228992944e-05
7.57524497508288e-06
-1.4816921979495082e-06
-7.331703835165726e-06
-9.328387732865364e-06
-8.26430520661036e-06
-5.595365021271944e-06
-2.7432123969072357e-06
-6.645076780370196e-07
2.766137027188923e-07
2.0447646741331183e-07
-4.862945764547647e-07
-1.353099295129102e-06
-2.0609956513254227e-06
-2.4476044833138244e-06
-2.5103677954517793e-06
-2.34865029146468e-06
-2.095322685972571e-06
-1.863023787702358e-06
-1.7164672563095086e-06
-1.669863290103087e-06
-1.701035487981391e-06
-1.7716994001539398e-06
-1.845316451963876e-06
-1.8978464059508865e-06
-1.9206535631961274e-06
-1.9175421038448974e-06
-1.8990011622542962e-06
-1.8764789245214144e-06
-1.8584605712090036e-06
-1.8489105798335884e-06
-1.8476967790862684e-06
-1.8521361033917343e-06
-1.858768085310244e-06
-1.864719426597084e-06
-1.8683843210007034e-06
-1.8694596847390938e-06
-1.868561226283151e-06
-1.8666940160879203e-06
-1.864796082581748e-06
-1.8634705330476358e-06
-1.8629204930204826e-06
-1.8630326643732515e-06
-1.8635288646824965e-06
-1.8641133271690079e-06
-1.8645713863325497e-06
-1.8648066307455802e-06
-1.8648275364480678e-06
-1.8647063028053307e-06
-1.8645329358094154e-06
-1.8643806422448128e-06
-1.8642891716536234e-06
-1.8642647089674272e-06
-1.8642902728681304e-06
-1.8643395190584478e-06
-1.8643883937409825e-06
-1.864421792990554e-06
-1.8644349856002624e-06
-1.864431278894757e-06
-1.8644180351817286e-06
-1.8644028867596827e-06
-1.8643912568165414e-06
-1.8643854796627258e-06
-1.8643852072588436e-06
-1.8643885028662283e-06
-1.8643930284387893e-06
-1.8643969210697286e-06
-1.8643991993928986e-06
-1.8643997458419714e-06
-1.864399026070439e-06
-1.8643977295550277e-06
-1.8643964723977783e-06
-1.8643956321574794e-06
-1.8643953177249437e-06
-1.8643954340394167e-06
-1.8643957866344296e-06
-1.8643961787852383e-06
-1.8643964736819656e-06
-1.8643966150859842e-06
-1.864396615275852e-06
-1.864396526054843e-06
-1.8643964080814771e-06
-1.8643963087024671e-06
-1.8643962520777236e-06
-1.864396240162294e-06
-1.8643962602517154e-06
-1.8643962943274564e-06
-1.8643963266272039e-06
-1.8643963477313309e-06
-1.8643963551707518e-06
-1.8643963516441822e-06
-1.8643963422786787e-06
-1.8643963321390565e-06
-1.8643963246714116e-06
-1.864396321223033e-06
-1.8643963213930944e-06
-1.8643963237996554e-06
-1.86439632687091e-06
-1.8643963294050452e-06
-1.8643963308091118e-06
-1.8643963310603098e-06
-1.8643963305037065e-06
-1.8643963296095355e-06
-1.8643963287806011e-06
-1.86439632825144e-06
-1.8643963280769842e-06
-1.8643963281813878e-06
-1.8643963284296976e-06
-1.8643963286916294e-06
-1.8643963288804703e-06
-1.8643963289641146e-06
-1.8643963289550334e-06
-1.864396328890045e-06
-1.864396328809933e-06
-1.864396328745311e-06
-1.8643963287108264e-06
-1.8643963287064273e-06
-1.8643963287226933e-06
-1.8643963287470828e-06
-1.8643963287688513e-06
-1.864396328781659e-06
-1.8643963287839753e-06
-1.8643963287780151e-06
-1.8643963287680741e-06
-1.8643963287589029e-06
-1.8643963287544253e-06
-1.8643963287568264e-06
-1.864396328765949e-06
-1.864396328779017e-06
-1.8643963287908756e-06
-1.864396328795032e-06
-1.8643963287856736e-06
-1.8643963287604671e-06
-1.8643963287233768e-06
-1.8643963286861932e-06
-1.864396328667259e-06
-1.8643963286863348e-06
-1.8643963287558195e-06
-1.8643963288704861e-06
-1.8643963289998958e-06
-1.8643963290887794e-06
-1.864396329069842e-06
-1.8643963288899056e-06
-1.864396328544275e-06
-1.8643963281071636e-06
-1.8643963277409146e-06
-1.8643963276671503e-06
-1.864396328091971e-06
-1.8643963290953884e-06
-1.8643963305187161e-06
-1.8643963319042312e-06
-1.8643963325471766e-06
-1.8643963316996916e-06
-1.864396328914347e-06
-1.8643963244390245e-06
-1.8643963194983338e-06
-1.8643963162570259e-06
-1.8643963172988508e-06
-1.8643963245964386e-06
-1.8643963381844405e-06
-1.864396355017588e-06
-1.8643963686837774e-06
-1.8643963706098576e-06
-1.8643963530322987e-06
-1.8643963132931295e-06
-1.8643962581132617e-06
-1.8643962057240933e-06
-1.8643961835637827e-06
-1.8643962200991055e-06
-1.8643963313935453e-06
-1.864396505991655e-06
-1.8643966945916737e-06
-1.8643968123751714e-06
-1.864396760192162e-06
-1.8643964651055664e-06
-1.8643959315507392e-06
-1.8643952840589992e-06
-1.8643947755937173e-06
-1.8643947374312403e-06
-1.8643954613570661e-06
-1.8643970329468513e-06
-1.8643991697025615e-06
-1.8644011466313432e-06
-1.8644018966976815e-06
-1.8644003381460444e-06
-1.8643958990660319e-06
-1.8643890951703013e-06
-1.864381906931977e-06
-1.8643776537632983e-06
-1.8643801353097292e-06
-1.8643920376567526e-06
-1.864412963232614e-06
-1.8644378368887838e-06
-1.8644566920163352e-06
-1.864456743119655e-06
-1.8644270505755891e-06
-1.8643649832833459e-06
-1.8642823378434568e-06
-1.8642078992602192e-06
-1.8641831157560977e-06
-1.864249022446584e-06
-1.864425778697383e-06
-1.8646906162844876e-06
-1.8649641434918273e-06
-1.8651166047852548e-06
-1.8650025940149616e-06
-1.864523629148932e-06
-1.8637039222493903e-06
-1.8627496627766036e-06
-1.8620530289373233e-06
-1.8621068686552315e-06
-1.8633202468365748e-06
-1.8657682203699005e-06
-1.8689609800992432e-06
-1.8717573720613584e-06
-1.8725492185181985e-06
-1.8697827825705219e-06
-1.8627560775452914e-06
-1.852459201223162e-06
-1.8420685356308562e-06
-1.8366503544596664e-06
-1.841761021529616e-06
-1.8609931755893475e-06
-1.8930654046976447e-06
-1.929624699600657e-06
-1.955258396684768e-06
-1.9509921810301276e-06
-1.9015736863943461e-06
-1.8051494773391682e-06
-1.6819556111796082e-06
-1.5771663614913686e-06
-1.553106415525243e-06
-1.6684907490397913e-06
-1.947393613516428e-06
-2.347277750401387e-06
-2.7412941526586963e-06
-2.9318584460128436e-06
-2.7069671180115315e-06
-1.936307449677246e-06
-6.828938990145021e-07
7.157735010498895e-07
1.6547154550297843e-06
1.4043651181419095e-06
-6.022023654227755e-07
-4.395476370543439e-06
-9.14312127475208e-06
-1.305935642537175e-05
-1.3731612713010423e-05
-8.94568360204905e-06
2.1079374686831208e-06
1.7619786359809474e-05
3.253303456997787e-05
3.915071793135818e-05
2.9396527619503254e-05
-1.4252176930842402e-06
-5.035323243173579e-05
-0.00010378430437607175
-0.00013800032216133834
-0.00012498604238660803
-4.374143023693366e-05
0.00010529708845480943
0.0002880289398295939
0.0004339544185174454
0.0004497900022645455
0.00025221424700626766
-0.00018528935568847707
-0.0007863944268545657
-0.0013498518274336455
-0.0015761496951034871
-0.0011580533421093908
7.253935727626495e-05
0.0019811531919536
0.00402168785711152
0.005267182076328118
0.004646509562382291
0.0013900089784853551
-0.0044143050488977785
-0.011364320680882493
-0.016671591019267268
-0.016735823101030393
-0.008467147119964411
0.008843649778022725
0.03167725736680402
0.051326152096882655
0.05471920509948627
0.027528151316563068
-0.04080507394218902
-0.1515851628786757
-0.0932276608681738
-0.041696074831039806
0.034096637883272246
0.1632155619620536
0.1632155619620537
0.034096637883272496
-0.04169607483103949
-0.09322766086817336
-0.15158516287867524
-0.04080507394218867
0.02752815131656325
0.05471920509948627
0.0513261520968825
0.031677257366803775
0.008843649778022475
-0.008467147119964623
-0.016735823101030528
-0.01667159101926733
-0.011364320680882518
-0.0044143050488977854
0.0013900089784853586
0.004646509562382298
0.005267182076328119
0.004021687857111515
0.001981153191953593
7.253935727625757e-05
-0.0011580533421093968
-0.0015761496951034908
-0.0013498518274336479
-0.0007863944268545666
-0.00018528935568847641
0.00025221424700626923
0.0004497900022645472
0.00043395441851744646
0.000288028939829594
0.000105297088454809
-4.374143023693442e-05
-0.0001249860423866088
-0.00013800032216133894
-0.0001037843043760722
-5.035323243173617e-05
-1.4252176930845248e-06
2.9396527619503105e-05
3.9150717931358165e-05
3.253303456997793e-05
1.761978635980959e-05
2.107937468683229e-06
-8.945683602048977e-06
-1.3731612713010402e-05
-1.3059356425371766e-05
-9.143121274752099e-06
-4.395476370543447e-06
-6.022023654227721e-07
1.4043651181419226e-06
1.6547154550297995e-06
7.157735010498997e-07
-6.828938990145e-07
-1.9363074496772492e-06
-2.706967118011536e-06
-2.931858446012847e-06
-2.7412941526586997e-06
-2.3472777504013906e-06
-1.9473936135164315e-06
-1.6684907490397949e-06
-1.553106415525246e-06
-1.577166361491371e-06
-1.6819556111796097e-06
-1.8051494773391684e-06
-1.9015736863943457e-06
-1.9509921810301272e-06
-1.9552583966847673e-06
-1.929624699600656e-06
-1.8930654046976445e-06
-1.8609931755893475e-06
-1.8417610215296163e-06
-1.8366503544596668e-06
-1.8420685356308564e-06
-1.8524592012231622e-06
-1.8627560775452914e-06
-1.8697827825705219e-06
-1.8725492185181983e-06
-1.8717573720613584e-06
-1.8689609800992432e-06
-1.8657682203699005e-06
-1.8633202468365748e-06
-1.8621068686552315e-06
-1.8620530289373233e-06
-1.8627496627766036e-06
-1.8637039222493903e-06
-1.864523629148932e-06
-1.8650025940149616e-06
-1.8651166047852548e-06
-1.8649641434918273e-06
-1.8646906162844876e-06
-1.864425778697383e-06
-1.864249022446584e-06
-1.8641831157560977e-06
-1.8642078992602192e-06
-1.8642823378434568e-06
-1.8643649832833459e-06
-1.8644270505755891e-06
-1.864456743119655e-06
-1.8644566920163352e-06
-1.8644378368887838e-06
-1.864412963232614e-06
-1.8643920376567526e-06
-1.8643801353097292e-06
-1.8643776537632983e-06
-1.864381906931977e-06
-1.8643890951703013e-06
-1.8643958990660319e-06
-1.8644003381460444e-06
-1.8644018966976815e-06
-1.8644011466313434e-06
-1.8643991697025615e-06
-1.8643970329468513e-06
-1.8643954613570661e-06
-1.8643947374312403e-06
-1.8643947755937173e-06
-1.8643952840589992e-06
-1.8643959315507392e-06
-1.8643964651055664e-06
-1.8643967601921617e-06
-1.8643968123751714e-06
-1.8643966945916739e-06
-1.8643965059916552e-06
-1.8643963313935455e-06
-1.8643962200991058e-06
-1.8643961835637827e-06
-1.864396205724093e-06
-1.864396258113261e-06
-1.8643963132931284e-06
-1.8643963530322977e-06
-1.8643963706098572e-06
-1.8643963686837778e-06
-1.8643963550175898e-06
-1.8643963381844437e-06
-1.8643963245964422e-06
-1.864396317298853e-06
-1.8643963162570252e-06
-1.8643963194983287e-06
-1.8643963244390147e-06
-1.864396328914335e-06
-1.8643963316996816e-06
-1.864396332547175e-06
-1.8643963319042433e-06
-1.8643963305187443e-06
-1.864396329095428e-06
-1.864396328092009e-06
-1.8643963276671672e-06
-1.86439632774089e-06
-1.8643963281070852e-06
-1.8643963285441502e-06
-1.8643963288897693e-06
-1.864396329069754e-06
-1.864396329088812e-06
-1.8643963290001023e-06
-1.864396328870866e-06
-1.864396328756286e-06
-1.8643963286867084e-06
-1.864396328667302e-06
-1.864396328685692e-06
-1.8643963287222628e-06
-1.8643963287589336e-06
-1.8643963287842328e-06
-1.864396328794448e-06
-1.8643963287919334e-06
-1.8643963287821482e-06
-1.864396328770814e-06
-1.8643963287620342e-06
-1.864396328757608e-06
-1.864396328757317e-06
-1.8643963287597332e-06
-1.8643963287631088e-06
-1.864396328766039e-06
-1.8643963287677734e-06
-1.8643963287682107e-06
-1.8643963287676906e-06
-1.8643963287667271e-06
-1.8643963287657833e-06
-1.8643963287651466e-06
-1.8643963287649024e-06
-1.8643963287649829e-06
-1.8643963287652436e-06
-1.8643963287655373e-06
-1.8643963287657598e-06
-1.8643963287658685e-06
-1.8643963287658708e-06
-1.8643963287658054e-06
-1.8643963287657173e-06
-1.8643963287656423e-06
-1.8643963287655993e-06
-1.8643963287655896e-06
-1.8643963287656042e-06
-1.8643963287656294e-06
-1.8643963287656537e-06
-1.8643963287656698e-06
-1.8643963287656756e-06
-1.864396328765673e-06
-1.8643963287656662e-06
-1.8643963287656586e-06
-1.8643963287656529e-06
-1.8643963287656504e-06
-1.8643963287656504e-06
-1.864396328765652e-06
-1.8643963287656544e-06
-1.8643963287656563e-06
-1.8643963287656573e-06
-1.8643963287656576e-06
-1.8643963287656571e-06
-1.8643963287656565e-06
-1.8643963287656559e-06
-1.8643963287656554e-06
-1.8643963287656554e-06
-1.8643963287656554e-06
-1.8643963287656556e-06
-1.8643963287656559e-06
-1.8643963287656559e-06
-1.864396328765656e-06
-1.864396328765656e-06
-1.8643963287656559e-06
-1.8643963287656559e-06
-1.8643963287656559e-06
-1.8643963287656559e-06
-1.8643963287656559e-06
-1.8643963287656559e-06
-1.8643963287656559e-06
-1.8643963287656559e-06
-1.8643963287656559e-06
-1.8643963287656559e-06
-1.8643963287656559e-06
-1.8643963287656559e-06
-1.8643963287656559e-06
-1.8643963287656559e-06
-1.8643963287656559e-06
-1.8643963287656559e-06
-1.8643963287656559e-06
-1.8643963287656559e-06
-1.8643963287656559e-06
-1.8643963287656559e-06
-1.8643963287656559e-06
-1.8643963287656559e-06
-1.8643963287656559e-06
-1.8643963287656559e-06
-1.8643963287656559e-06
-1.8643963287656559e-06
-1.8643963287656559e-06
-1.8643963287656559e-06
-1.8643963287656559e-06
-1.8643963287656559e-06
-1.8643963287656559e-06
-1.8643963287656559e-06
-1.8643963287656559e-06
-1.8643963287656559e-06
-1.8643963287656559e-06
-1.8643963287656559e-06
-1.8643963287656559e-06
-1.8643963287656559e-06
-1.8643963287656559e-06
-1.8643963287656559e-06
-1.8643963287656559e-06
-1.8643963287656559e-06
-1.8643963287656559e-06
-1.8643963287656559e-06
-1.8643963287656559e-06
-1.8643963287656559e-06
-1.8643963287656559e-06
-1.8643963287656559e-06
-1.8643963287656559e-06
-1.8643963287656559e-06
-1.8643963287656559e-06
-1.8643963287656559e-06
-1.8643963287656559e-06
-1.8643963287656559e-06
-1.8643963287656559e-06
-1.8643963287656559e-06
-1.8643963287656559e-06
-1.8643963287656559e-06
-1.8643963287656559e-06
-1.8643963287656559e-06
-1.8643963287656559e-06
-1.8643963287656559e-06
-1.8643963287656559e-06
-1.8643963287656559e-06
-1.8643963287656559e-06
-1.8643963287656559e-06
-1.8643963287656559e-06
-1.8643963287656559e-06
-1.8643963287656559e-06
-1.8643963287656559e-06
-1.8643963287656559e-06
-1.8643963287656559e-06
-1.8643963287656559e-06
-1.8643963287656559e-06
-1.8643963287656559e-06
-1.8643963287656559e-06
-1.8643963287656559e-06
-1.8643963287656559e-06
-1.8643963287656559e-06
-1.8643963287656559e-06
-1.8643963287656559e-06
-1.8643963287656559e-06
-1.8643963287656559e-06
-1.8643963287656559e-06
-1.8643963287656559e-06
-1.8643963287656559e-06
-1.8643963287656559e-06
-1.8643963287656559e-06
-1.8643963287656559e-06
-1.8643963287656559e-06
-1.8643963287656559e-06
-1.8643963287656559e-06
-1.8643963287656559e-06
-1.8643963287656559e-06
-1.8643963287656559e-06
-1.8643963287656559e-06
-1.8643963287656559e-06
-1.8643963287656559e-06
-1.8643963287656559e-06
-1.8643963287656559e-06
-1.8643963287656559e-06
-1.8643963287656559e-06
-1.8643963287656559e-06
-1.8643963287656559e-06
-1.8643963287656559e-06
-1.8643963287656559e-06
-1.8643963287656559e-06
-1.8643963287656559e-06
-1.8643963287656559e-06
-1.8643963287656559e-06
-1.8643963287656559e-06
-1.8643963287656559e-06
-1.8643963287656559e-06
-1.8643963287656559e-06
-1.8643963287656559e-06
-1.8643963287656559e-06
-1.8643963287656559e-06
-1.8643963287656559e-06
-1.8643963287656559e-06
-1.8643963287656559e-06
-1.8643963287656559e-06
-1.8643963287656559e-06
-1.8643963287656559e-06
-1.8643963287656559e-06
-1.8643963287656559e-06
-1.8643963287656559e-06
-1.8643963287656559e-06
-1.8643963287656559e-06
-1.8643963287656559e-06
-1.8643963287656559e-06
-1.8643963287656559e-06
-1.8643963287656559e-06
-1.8643963287656559e-06
-1.8643963287656559e-06
-1.8643963287656559e-06
-1.8643963287656559e-06
-1.8643963287656559e-06
-1.8643963287656559e-06
-1.8643963287656559e-06
-1.8643963287656559e-06
-1.8643963287656559e-06
-1.8643963287656559e-06
-1.8643963287656559e-06
-1.8643963287656559e-06
-1.8643963287656559e-06
-1.8643963287656559e-06
-1.8643963287656559e-06
-1.8643963287656559e-06
-1.8643963287656559e-06
-1.8643963287656559e-06
-1.8643963287656559e-06
-1.8643963287656559e-06
-1.8643963287656559e-06
-1.8643963287656559e-06
-1.8643963287656559e-06
-1.8643963287656559e-06
-1.8643963287656559e-06
-1.8643963287656559e-06
-1.8643963287656559e-06
-1.8643963287656559e-06
-1.8643963287656559e-06
-1.8643963287656559e-06
-1.8643963287656559e-06
-1.8643963287656559e-06
-1.8643963287656559e-06
-1.8643963287656559e-06
-1.8643963287656559e-06
-1.8643963287656559e-06
-1.8643963287656559e-06
-1.8643963287656559e-06
-1.8643963287656559e-06
-1.8643963287656559e-06
-1.8643963287656559e-06
-1.8643963287656559e-06
-1.8643963287656559e-06
-1.8643963287656559e-06
-1.8643963287656559e-06
-1.8643963287656559e-06
-1.8643963287656559e-06
-1.8643963287656559e-06
-1.8643963287656559e-06
-1.8643963287656559e-06
-1.8643963287656559e-06
-1.8643963287656559e-06
-1.8643963287656559e-06
-1.8643963287656559e-06
-1.8643963287656559e-06
-1.8643963287656559e-06
-1.8643963287656559e-06
-1.8643963287656559e-06
-1.8643963287656559e-06
-1.8643963287656559e-06
-1.8643963287656559e-06
-1.8643963287656559e-06
-1.8643963287656559e-06
-1.8643963287656559e-06
-1.8643963287656559e-06
-1.8643963287656559e-06
-1.8643963287656559e-06
-1.8643963287656559e-06
-1.8643963287656559e-06
-1.8643963287656559e-06
-1.8643963287656559e-06
-1.8643963287656559e-06
-1.8643963287656559e-06
-1.8643963287656559e-06
-1.8643963287656559e-06
-1.8643963287656559e-06
-1.8643963287656559e-06
-1.8643963287656559e-06
-1.8643963287656559e-06
-1.8643963287656559e-06
-1.8643963287656559e-06
-1.8643963287656559e-06
-1.8643963287656559e-06
-1.8643963287656559e-06
-1.8643963287656559e-06
-1.8643963287656559e-06
-1.8643963287656559e-06
-1.8643963287656559e-06
-1.8643963287656559e-06
-1.8643963287656559e-06
-1.8643963287656559e-06
-1.8643963287656559e-06
-1.8643963287656559e-06
-1.8643963287656559e-06
-1.8643963287656559e-06
-1.8643963287656559e-06
-1.8643963287656559e-06
-1.8643963287656559e-06
-1.8643963287656559e-06
-1.8643963287656559e-06
-1.8643963287656559e-06
-1.8643963287656559e-06
-1.8643963287656559e-06
-1.8643963287656559e-06
-1.8643963287656559e-06
-1.8643963287656559e-06
-1.8643963287656559e-06
-1.8643963287656559e-06
-1.8643963287656559e-06
-1.8643963287656559e-06
-1.8643963287656559e-06
-1.8643963287656559e-06
-1.8643963287656559e-06
-1.8643963287656559e-06
-1.8643963287656559e-06
-1.8643963287656559e-06
-1.8643963287656559e-06
-1.8643963287656559e-06
-1.8643963287656559e-06
-1.8643963287656559e-06
-1.8643963287656559e-06
-1.8643963287656559e-06
-1.8643963287656559e-06
-1.8643963287656559e-06
-1.8643963287656559e-06
-1.8643963287656559e-06
-1.8643963287656559e-06
-1.8643963287656559e-06
-1.8643963287656559e-06
-1.8643963287656559e-06
-1.8643963287656559e-06
-1.8643963287656559e-06
-1.8643963287656559e-06
-1.8643963287656559e-06
-1.8643963287656559e-06
-1.8643963287656559e-06
-1.8643963287656559e-06
-1.8643963287656559e-06
-1.8643963287656559e-06
-1.8643963287656559e-06
-1.8643963287656559e-06
-1.8643963287656559e-06
-1.8643963287656559e-06
-1.8643963287656559e-06
-1.8643963287656559e-06
-1.8643963287656559e-06
-1.8643963287656559e-06
-1.8643963287656559e-06
-1.8643963287656559e-06
-1.8643963287656559e-06
-1.8643963287656559e-06
-1.8643963287656559e-06
-1.8643963287656559e-06
-1.8643963287656559e-06
-1.8643963287656559e-06
-1.8643963287656559e-06
-1.8643963287656559e-06
-1.8643963287656559e-06
-1.8643963287656559e-06
-1.8643963287656559e-06
-1.8643963287656559e-06
-1.8643963287656559e-06
-1.8643963287656559e-06
-1.8643963287656559e-06
-1.8643963287656559e-06
-1.8643963287656559e-06
-1.8643963287656559e-06
-1.8643963287656559e-06
-1.8643963287656559e-06
-1.8643963287656559e-06
-1.8643963287656559e-06
-1.8643963287656559e-06
-1.8643963287656559e-06
-1.8643963287656559e-06
-1.8643963287656559e-06
-1.8643963287656559e-06
-1.8643963287656559e-06
-1.8643963287656559e-06
-1.8643963287656559e-06
-1.8643963287656559e-06
-1.8643963287656559e-06
-1.8643963287656559e-06
-1.8643963287656559e-06
-1.8643963287656559e-06
-1.8643963287656559e-06
-1.8643963287656559e-06
