0
5.352706729989923e-11
1.50982978015988e-10
2.305368617758277e-10
2.42592204204491e-10
1.4202966442004026e-10
-8.695859028544786e-11
-4.060651847068474e-10
-7.103359736857874e-10
-8.412095320609548e-10
-6.335438263075877e-10
6.818330685772603e-12
1.0154450739545133e-09
2.109018698101579e-09
2.7979117284614945e-09
2.507735798028171e-09
8.132129930004252e-10
-2.265691008877255e-09
-6.015173212170276e-09
-8.97664391720882e-09
-9.233249372410652e-09
-5.0885420424249295e-09
3.969548118374518e-09
1.6328906686099086e-08
2.7814772021567042e-08
3.22596950294234e-08
2.3386354405166083e-08
-2.1626367369197645e-09
-4.1475328164826707e-08
-8.316657779759085e-08
-1.0807075679902139e-07
-9.417088973497188e-08
-2.5794016716034125e-08
9.498261927949068e-08
2.390525081967536e-07
3.489354741957091e-07
3.5063601274355973e-07
1.8052363307277657e-07
-1.7729268565063573e-07
-6.554236378044777e-07
-1.0880718029659432e-06
-1.2356205567378969e-06
-8.59874614709444e-07
1.5772794204263273e-07
1.6882472491618118e-06
3.2751278970372183e-06
4.16903964841994e-06
3.527225630125916e-06
7.746007674652928e-07
-3.957470655944392e-06
-9.48586861356971e-06
-1.354830903290833e-05
-1.3291858746509494e-05
-6.336082276725212e-06
7.77958391372598e-06
2.62545051153759e-05
4.2514154111894056e-05
4.725967803653968e-05
3.1469264990784984e-05
-8.994934598046905e-06
-6.851279765988199e-05
-0.00012881211344148045
-0.00016062984817309092
-0.00013175420742540613
-2.1187898154396666e-05
0.00016399428124133604
0.00037583721180071077
0.0005254088620105085
0.0005028409264540841
0.00021931850941530332
-0.00033693395018577623
-0.0010501352892874926
-0.0016599627083400629
-0.0018059192776584073
-0.0011467711160376177
0.0004602879464831858
0.002774467652912001
0.005068133485328418
0.006204139161213204
0.004960724421680396
0.000587785015740022
-0.006545472749757946
-0.01447890308377412
-0.019704452298988855
-0.018011352171076557
-0.006204265674697922
0.015602470157297392
0.041831170348347005
0.06043466595674872
0.053986855667080585
0.003255341725278403
-0.10738691447622968
-0.08448604593907934
-0.1223430448133355
-0.004030632949362334
0.0932027981869293
0.19009431782880928
0.09856266852610206
0.019285971841255828
-0.05492982293989144
-0.13141960889207066
-0.20926374032809647
-0.07447766601116995
0.09846842156213703
0.13899087853002945
0.06970820757727351
0.09720722770069745
0.00795628556083741
-0.029175636668002748
-0.05481871970529863
-0.1082340343469197
-0.01712513448478016
0.008969970394818826
-0.019841280190898876
-0.07748065903003098
0.07044057897592874
0.056950930586959485
0.10452097289265491
0.01883908994883509
-0.012727284435336224
-0.017747725770740706
-0.0317208253559509
-0.08969725264958701
-0.018912979233618732
-0.03418967233951199
0.0632684864769707
0.08430213721644607
0.0489147351500933
-0.01645762534231103
-0.08094702464246613
-0.11116076051169688
-0.07431000570073222
0.05659209214612403
0.09613523345946841
0.24091461180323662
0.06806164679962719
-0.060039882075105806
-0.18547561739185964
-0.1425191376904699
-0.14833233296644274
-0.000591211315998866
0.1170551490282152
0.22431539241356285
0.1333344434526085
0.04247006238645347
-0.062674184936331
-0.20198674327217098
-0.19134486405849588
-0.03571876385895352
0.07191403808034781
0.14589146841414918
0.20053069693015138
0.04442569672313404
-0.12057309335274176
-0.09549593130042842
-0.07804129137057095
-0.057647421101031576
-0.01459874145326066
0.07612782039675862
0.03763623316665794
0.08314385461321334
0.010077300596690488
-0.0017953304529633924
0.012424791720513176
0.009528839890046681
-0.05265479754651502
-0.005778562753561394
-0.06329031876823629
-0.01641016816529036
-0.03500528667412943
-0.0736859745923585
-0.08236406002501175
0.18069866423146763
0.13657781506974903
0.17812700699096184
0.07064590184001332
-0.03809040797957765
-0.20080952199211172
-0.2522608400175849
-0.19606850836306444
-0.0021795323095147785
0.18381925665176055
0.22303355088149523
0.16408254490020532
0.02949124709016726
0.011958100299992556
-0.11942362094198203
-0.20660579872119594
-0.08910949838997247
0.005457253680872521
0.06437396711098028
0.08682272631302614
0.07774620764547345
0.04192709741611984
-0.019313982714781
-0.10816655862231409
-0.028100729803718583
0.01892781310933439
0.03446462666796815
0.024295098676532827
-0.0017681265455923045
-0.030649368529388644
-0.047276522873618075
-0.0366058662721251
0.013462674273161852
0.10873455052412868
0.04608476604772943
0.012921314643608371
-0.01046354901602945
-0.04607611867351162
-0.11251550111687324
-0.020429294825204933
0.029278989759507008
0.04408885530265408
0.036254899986289585
0.018592925228599545
0.0011754678709449107
-0.010263085675939853
-0.014222643760456786
-0.01219628562841329
-0.007032604544715305
-0.0015188228702244081
0.002476526128494276
0.00425098848262677
0.004058035664353669
0.00267533288456847
0.0009683088405372748
-0.00041294713990676514
-0.001157950678111919
-0.0012682849774659209
-0.0009426955792243415
-0.00044280538922847795
1.1513438932637778e-05
0.000295349963387486
0.00038282390914450265
0.00031878531348825936
0.0001788538629473357
3.45396398385016e-05
-6.754514860622252e-05
-0.00011107628288603391
-0.00010398378855067387
-6.707125955124798e-05
-2.280067724674348e-05
1.2320929168297673e-05
3.0701797240797586e-05
3.275851359052591e-05
2.384495801238427e-05
1.0769551229604495e-05
-8.619810222649932e-07
-7.952913354599383e-06
-9.95970055854287e-06
-8.123785274447524e-06
-4.428928206095435e-06
-7.099967603111385e-07
1.8645103300290294e-06
2.912099143813152e-06
2.6668827852364937e-06
1.6801231347548553e-06
5.318569705445876e-07
-3.6054211271589733e-07
-8.127714979413096e-07
-8.454718465007258e-07
-6.025231000812798e-07
-2.609180585546243e-07
3.6589532404964204e-08
2.134245434881916e-07
2.5876369069453315e-07
2.0676240772681682e-07
1.0938537735554086e-07
1.3661979084908384e-08
-5.116611870846609e-08
-7.623051634424326e-08
-6.831916351775176e-08
-4.20097346417577e-08
-1.2263076520697372e-08
1.03826874942846e-08
2.1473916885079438e-08
2.1795617504046492e-08
1.520270520189932e-08
6.290486375326411e-09
-1.3101919089328367e-09
-5.710923652016946e-09
-6.714665759750413e-09
-5.256008961819596e-09
-2.694143296787399e-09
-2.3308908620272664e-10
1.3967594877981075e-09
1.9924452666609013e-09
1.7480278022826778e-09
1.0482611719728945e-09
2.785823669791789e-10
-2.9532923724981335e-10
-5.664152554101288e-10
-5.61365659772661e-10
-3.8317367224348685e-10
-1.5099393517292406e-10
4.295101629249513e-11
1.5223816409757382e-10
1.7389785725945307e-10
1.3337576701574226e-10
6.615391636096307e-11
2.9911477158982136e-12
-3.793973048984828e-11
-5.2094257360049916e-11
-4.495426718226793e-11
-2.6610353936039597e-11
-6.890772722344239e-12
7.632748373208372e-12
1.450164179026881e-11
1.459280201434432e-11
1.054435975356721e-11
5.18128721474159e-12
4.666378450820322e-13
-2.8353877847941513e-12
-4.886931068112123e-12
-6.1731397715617216e-12
-6.899948304804313e-12
-6.674616930861609e-12
-4.626336062003487e-12
4.4085058933035205e-14
7.276751697278072e-12
1.547039079538244e-11
2.131799469121744e-11
2.0503686770843792e-11
9.356829881498271e-12
-1.2851749694150994e-11
-4.1765500663398847e-11
-6.710606807875687e-11
-7.430940203862664e-11
-4.924584660025557e-11
1.4529495594585584e-11
1.0811317463434925e-10
2.0271898573871248e-10
2.52322949636287e-10
2.0634691468155128e-10
3.195141594158432e-11
-2.5947534488818215e-10
-5.92253393896209e-10
-8.263892138159809e-10
-7.892391755055846e-10
-3.416433396165391e-10
5.340560828042915e-10
1.6547870787058878e-09
2.6104585590619022e-09
2.834292165488815e-09
1.7911957692629944e-09
-7.401406730381816e-10
-4.376049911471625e-09
-7.965817804773525e-09
-9.71355870385065e-09
-7.6887837270589e-09
-6.996537147519377e-10
1.0690924999901042e-08
2.34242024227481e-08
3.200432833387026e-08
2.9792240305378085e-08
1.1613960549738054e-08
-2.2839191667351205e-08
-6.603450720195104e-08
-1.0175875945935739e-07
-1.0806994049976006e-07
-6.478552552352101e-08
3.554994762046178e-08
1.7660350735320392e-07
3.1249539411955186e-07
3.7325958162715877e-07
2.853439109175118e-07
5.776450047957751e-09
-4.3890743271242465e-07
-9.253979970659524e-07
-1.2382096030371594e-06
-1.122374264981108e-06
-3.86177806947244e-07
9.676453781703065e-07
2.630395909962468e-06
3.961950611609909e-06
4.1138583865727545e-06
2.3265526054560504e-06
-1.6447291258230795e-06
-7.110513179840932e-06
-1.2244615637832703e-05
-1.4324337422710968e-05
-1.0551895210623075e-05
6.103610499122143e-07
1.7950746345287136e-05
3.650958360826589e-05
4.78479756568673e-05
4.218720510079158e-05
1.245019574706171e-05
-4.068265915450944e-05
-0.00010460614521404711
-0.00015408081551118358
-0.00015633825850937637
-8.28601532815854e-05
7.410005356921688e-05
0.0002856421241753536
0.00047918930588299817
0.0005489021797854434
0.00038852871378552484
-5.647534802212425e-05
-0.0007320544404206998
-0.0014391517871916353
-0.0018476189205515752
-0.0015827578748694355
-0.0003839568451927318
0.0017009978087222668
0.004161121234298504
0.0060063591533211355
0.005979342515670967
0.0030227069185250863
-0.00308016622001202
-0.01110731386872618
-0.01816650186374384
-0.020165420705256405
-0.013178898102675017
0.0044016202864591856
0.029471364810720754
0.05248696476173839
0.05746831605077158
0.02447855109595469
-0.06546690598736037
-0.02418921792316396
-0.05084229133127735
-0.12934444171946788
-0.030353082560406867
0.08195061059989185
0.03972573883100555
0.06094674554913579
0.14203810035417896
0.056582622453467284
-0.03862710601419178
0.008882437852086174
-0.03690513062797515
-0.18581497127647423
-0.21279351153709833
-0.05909236778416652
-0.04478480736988226
0.10951389164923296
0.25754422667002974
0.4070406231157034
0.11188602465971553
-0.11894551732248064
-0.19722521700944026
-0.22345292993103175
-0.2573916986978387
-0.10056948230651144
0.10408947814587781
0.05593826338917586
0.06887687136036165
0.04016981564201762
0.22400361497372828
0.2165305104862421
0.1566332982593438
-0.05692785784883399
-0.13583886632917833
-0.36824482864930114
-0.39108519603698755
-0.1783220323563529
0.15023754864415442
0.3021403261505527
0.37696580330648444
0.2351377152294007
0.0815413619202344
-0.13150287195375263
-0.284789397377593
-0.2648193904511453
-0.1387426813034362
0.06042149118770468
0.1354310013408536
0.11571794600564005
0.04306775385623783
0.1578649023578761
-0.1102250044101532
-0.14597584875096564
0.05216704069779034
0.07523131959391466
-0.09252438286931863
-0.07009579002540665
0.12331734487638844
0.07101284900413042
-0.03849390478168377
-0.00847237229536176
-0.031134198860176345
-0.08618826819440463
-0.14227263414268942
0.037891140483531205
0.08919909444241421
0.2350643346782466
0.08099848059807754
0.013830371595083038
-0.19284430499244248
-0.1694319698490792
-0.1416874869684491
0.07347116673579597
0.06643346072171903
0.22969828493138078
0.1531217536841521
0.02343510268231272
-0.17067929224688608
-0.23016749582166388
-0.1385922258406662
-0.06129254449241835
0.047212442010347744
0.22953183625382295
0.3107322785022614
0.08901520806315873
-0.06394133610856755
-0.19298837492315024
-0.34441826095389555
-0.15263876123124412
0.16582945427114312
0.20968242339921844
0.18482666012016152
0.09674253575212338
-0.05225092045875067
-0.2599158137500844
-0.11795228349201073
-0.0071615493592494936
0.10283809743763789
0.04891015890967784
0.06681311499654809
-0.016295715279713935
0.01298329309558218
-0.047657312956960116
-0.015246466344776518
0.08159977333860682
0.007184363920028154
-0.07603690431655287
-0.0022279993030278945
0.0020821164247886935
-0.07967145008929152
-0.05419658191749098
0.07935302142689649
0.12601244265164716
0.09243579832137881
-0.013070263834832249
0.022672126585407404
-0.17728055450549887
-0.1762761808474586
-0.12510947933353697
0.030110875400444194
0.1341422031848303
0.20700176598987152
0.23274093046480554
0.15825661667091076
-0.09534145565389655
-0.21102950062705375
-0.25052946307158
-0.23420192333412942
-0.13375911369552954
0.1189813855798822
0.2098239155610912
0.21379469402517384
0.1701004043524851
0.06853619695471486
0.05135729725239378
-0.17039375503891868
-0.09138482185826637
-0.18499445274750076
-0.08254859226701568
-0.16445546810588468
0.034544923714748155
0.007688831977335568
0.25119697441069366
0.23933902401018262
0.20704559198740563
-0.05485010448151772
-0.191149892622901
-0.2649126368331128
-0.13848974580417683
-0.05995354691442398
0.14152325012569184
0.2523673877839943
0.06782098999119539
-0.013214724329594958
0.011379094436602585
-0.048931709198742256
-0.171416668273115
-0.1162494306660019
-0.02809314022523002
-0.04450891608921684
0.09014168595794535
0.20922790144966186
0.31218816725984944
-0.03844785228556681
-0.10920648761961718
-0.1789959598316404
-0.11921639681587658
-0.1773858403079389
0.03073031101895144
0.11901368847789254
0.121093385095398
0.07718471942627798
0.022442896447694885
-0.020013531861709767
-0.040641290018866266
-0.04078207152240924
-0.027903092929248717
-0.010860337810173313
0.0034376263392179008
0.011489493224081122
0.01304432092237954
0.009982684051519435
0.004943122574465885
0.00021747660840800868
-0.002838861421750565
-0.003887167310436559
-0.0033384758063602494
-0.0019505013161854362
-0.0004642603785795707
0.0006207669382319779
0.0011136441114429677
0.0010781912901873432
0.000719523003589549
0.00026819988697933823
-0.00010100778710006333
-0.00030312561259909245
-0.0003364919452600748
-0.00025267746290255465
-0.00012085338147490753
2.421717541924141e-07
7.678866460822792e-05
0.00010127805105690559
8.519243449326535e-05
4.844931496116561e-05
1.0092811397380069e-05
-1.7324021923521943e-05
-2.9269642637770242e-05
-2.7701081948017868e-05
-1.807069253093623e-05
-6.342271415199937e-06
3.0564364773366682e-06
8.05028895664968e-06
8.69980872557622e-06
6.397963965945909e-06
2.946449985195814e-06
-1.5623469440737922e-07
-2.0707057612910972e-06
-2.636367348184154e-06
-2.172197229519203e-06
-1.201152662118232e-06
-2.1218529284322396e-07
4.79737429182465e-07
7.679494469945359e-07
7.108462538801355e-07
4.530549840312914e-07
1.4866645294392427e-07
-9.028992561700008e-08
-2.1333224062029834e-07
-2.2466360919272497e-07
-1.6177782374090724e-07
-7.154141826609184e-08
7.862803922851489e-09
5.5652981257401023e-08
6.85378169413517e-08
5.531922145397012e-08
2.970615580580853e-08
4.237482115860516e-09
-1.3198403597097286e-08
-2.0115497832588125e-08
-1.8221166102650614e-08
-1.1343307875556049e-08
-3.4573616096117194e-09
2.6081207483514647e-09
5.632629451909587e-09
5.79349411567221e-09
4.096211627254722e-09
1.755000236265392e-09
-2.6455202507631724e-10
-1.45682592434369e-09
-1.7648804253158907e-09
-1.4309111717956385e-09
-8.056583005390616e-10
-1.9227491135310678e-10
2.368954518501815e-10
4.4799488575942094e-10
4.997251738919321e-10
4.761868594587789e-10
4.29186393254183e-10
3.5121117321619476e-10
1.8709577013103325e-10
-1.2136644385678136e-10
-5.757754307518872e-10
-1.072775745298934e-09
-1.3953580706999887e-09
-1.2648389193148193e-09
-4.5612239188532103e-10
1.0491041329084855e-09
2.9272604232177817e-09
4.472949578723005e-09
4.727559516711227e-09
2.8087259861773645e-09
-1.6068986312320508e-09
-7.797520123618538e-09
-1.3744561395260175e-08
-1.6375265204296652e-08
-1.2466248867450946e-08
-1.4578251509589156e-10
1.9398419849858554e-08
4.0728375668665923e-08
5.436883733379738e-08
4.9133810549909765e-08
1.6646604870850395e-08
-4.290108752250204e-08
-1.1587015676445544e-07
-1.7409036451985833e-07
-1.8030891125053524e-07
-1.0127760883253862e-07
7.353730382901655e-08
3.1357971375728594e-07
5.384123975620557e-07
6.284054425090547e-07
4.609434547026773e-07
-3.0880146288817935e-08
-7.929551862342172e-07
-1.606579345700205e-06
-2.100704321624245e-06
-1.8463689612122315e-06
-5.344848375455108e-07
1.8022614104017326e-06
4.607139808316745e-06
6.769572860121609e-06
6.8509783782198815e-06
3.603345269255419e-06
-3.3051101562307075e-06
-1.2594628199719022e-05
-2.1069205087172726e-05
-2.4079394835432765e-05
-1.69700184817591e-05
2.62900664008658e-06
3.230830784590652e-05
6.329229976956445e-05
8.106881222870345e-05
6.92112687051499e-05
1.6362827100609312e-05
-7.522413895667445e-05
-0.00018289888475549787
-0.0002629352707602146
-0.00025984826796713234
-0.00012691333454710398
0.00014572095578827836
0.0005047737907262739
0.0008234429523462473
0.0009212167480439579
0.0006216533589494481
-0.00015830758271104156
-0.0013132071374894955
-0.002491592054815199
-0.00312635642151209
-0.002588856552525587
-0.0004625775847601776
0.0031293143901834734
0.007272972792747728
0.01025794489440011
0.009961888288910255
0.0046631706930283295
-0.0058717642961568
-0.01940655620593719
-0.030914127944424972
-0.03348236010374345
-0.020760415201701594
0.009273317781015464
0.05014875302114037
0.08390508001157419
0.08102174837291169
0.00453761967795189
0.01835287552583998
-0.10196266483760144
-0.15897479402779377
-0.12746883261728345
0.04434354188565478
0.025804570635268795
0.0889969233680363
0.09220764825250807
0.06630498556311777
0.007737933482124056
0.08001752676759068
0.023429267887165484
-0.02918439442377764
-0.1342660240368099
-0.12169996356117854
-0.18602482967154627
-0.08809296241567702
0.03221774616293631
0.235234082481941
0.15885884269308323
0.2016775389734637
0.11810801468740743
0.028209756343601677
-0.16007149047279767
-0.32286689618552505
-0.2957008374033991
-0.060723161172400245
0.04947322558755361
0.13266329214739364
0.28905724888555356
0.19399897570056865
0.07990062084192578
-0.06769073887446166
-0.10005772589234914
-0.08588309003217758
-0.08927286030096036
-0.15192251012301755
-0.084212663056792
-0.06720454051465476
0.13567348173769622
0.1614702262583505
0.23131284308331157
0.1410357636407531
0.0627754324405695
-0.24267478955606162
-0.20741707972024648
-0.2394569105020821
-0.11456110576679258
0.01895915026794453
0.2235879478268596
0.1498940710626299
0.21612876005585555
0.19787548792954268
0.03208634323984828
-0.16514474967503506
-0.2727163501643806
-0.33951145113383424
-0.16932532956874635
0.07872019004878497
0.2747492003164849
0.2941260071470646
0.19442959615636454
0.0018046432627325261
-0.08960413901290963
-0.30719148299712734
-0.08459680602015295
-0.0486593224200248
-0.01346194945314305
0.017524585507547395
0.243682028854346
0.058306108286345415
0.04295954077462245
-0.03211714265584288
-0.0014287957651980807
-0.09379253040438534
-0.12166371297379464
-0.07383699682896218
0.08599825921610998
0.014272100818753243
-0.022513346810183493
0.03966602635022989
0.05007790358195731
0.033632993104612104
-0.014227409477850951
0.07287998410918475
0.038331798322997615
0.013352889929238458
-0.06912765906245169
-0.060365264642904995
-0.18477906988295897
-0.03511492203314026
0.024513399902344524
0.048299635568975416
0.09408056895978575
0.20868486624049018
0.017518067345740282
-0.07905862111697509
-0.10260095203634992
-0.08914188988969231
-0.08085256049922251
0.0806174230171874
0.1585052825968857
0.12422072655540756
-0.03870771718165854
-0.1294822351369365
-0.1252795311509093
-0.17999261951140394
-0.029204273793812602
0.19817179772886973
0.16426399507327488
0.10755938852923594
0.03410734675369256
-0.08274011235100222
-0.09468545965359787
-0.06613759778771526
-0.06118717233849559
0.06692764207257507
0.08244695393459125
-0.030022367812094858
-0.0654993808246281
-0.0008725801672264411
0.0007813489372466438
-0.01603723206970372
-0.006789591340884234
0.06539726849196235
0.02331355020106441
0.07198264825606791
-0.0012743370866775566
-0.02288485772103202
-0.026129793216429165
-0.04314185328576471
-0.09796219729608716
-0.0024642698822992235
0.04400041130760808
0.05164853939637365
0.03549151851328877
0.010589778930507563
-0.011287975326628416
-0.02313704034180445
-0.022671908050585624
-0.011494877840765241
0.005886173230133297
0.022945318091022973
0.03210099588673728
0.026115058628117034
0.00012497952401201894
-0.045977893692237856
-0.1056794395749084
0.03438655518705343
-0.007765818556431817
-0.014007916994240274
0.02815210083372846
0.12036349093951024
0.05065151557801257
-0.005557980060984427
-0.08036577612536837
-0.005478845373527801
-0.0036795581796400926
-0.08207875043092841
-0.028972588930043418
-0.015220636970778861
-2.675216529952772e-05
0.060081553789531214
0.001176938308532481
0.04326927543029671
0.1853668028637363
0.005798279266376144
-0.13201144624754646
-0.06988137499997543
-0.044381639656745284
-0.07884371414173184
0.019926939179710883
0.05990827667234386
0.05847644936530415
0.035723597767662874
0.008782990410493305
-0.011405075603336092
-0.02062905770230597
-0.019920361209034863
-0.01314044544399061
-0.004660647588546128
0.0022195199552146306
0.00591775987067091
0.0064330917411493365
0.0047638274706821955
0.0022272154912327843
-7.013302746068527e-05
-0.001501117395843
-0.0019383066249008636
-0.001610575882974539
-0.0009010965266396223
-0.0001712923345181016
0.0003438277523459034
0.0005625063663253891
0.0005254436263660944
0.00033813219916241306
0.00011416791566617864
-6.314657214672759e-05
-0.0001556508851261103
-0.000165646449255721
-0.0001203183024643879
-5.4119049537410145e-05
4.6435703249151465e-06
4.037705017472717e-05
5.0396470729938336e-05
4.1021279599699485e-05
2.229777433709874e-05
3.4976836673531485e-06
-9.488525151937146e-06
-1.4746638585913553e-05
-1.347527435128053e-05
-8.468900441628331e-06
-2.6603555759943496e-06
1.8445023134112581e-06
4.119737940774121e-06
4.274728916160166e-06
3.039828752717076e-06
1.3105637534379301e-06
-1.922763610493149e-07
-1.0832249989177396e-06
-1.3091857784573802e-06
-1.0439226408801217e-06
-5.505588494126659e-07
-6.671026903998734e-08
2.6024140966305176e-07
3.8596650839923923e-07
3.4516347282636005e-07
2.1171505227370318e-07
6.125890841076752e-08
-5.3042639429444726e-08
-1.0882565444902352e-07
-1.1018717476608726e-07
-7.668956189245722e-08
-3.1580642397111666e-08
6.809089416359908e-09
2.89764466742276e-08
3.396696162109526e-08
2.653289764535545e-08
1.3555499961344093e-08
1.1173348133968046e-09
-7.101111074692685e-09
-1.0086929010005542e-08
-8.8309418530496e-09
-5.282817529815281e-09
-1.3909027515045171e-09
1.5049215260244715e-09
2.867661530724404e-09
2.8358176867444778e-09
1.9320484593752035e-09
7.589249887869673e-10
-2.185889006215936e-10
-7.678729810750123e-10
-8.760216654367674e-10
-6.730670313701044e-10
-3.38448657957158e-10
-2.6068480419926786e-11
1.7531630081855972e-10
2.465863083824973e-10
2.186211400556749e-10
1.4308259124460596e-10
6.615554367905355e-11
1.2839064606843642e-11
-1.6018259517199282e-11
-3.6026920768996466e-11
-6.55886887782623e-11
-1.1193764473345872e-10
-1.6231855579077119e-10
-1.8440866732060753e-10
-1.3769357251174864e-10
5.964227965140952e-12
2.385038628755474e-10
4.983575186720069e-10
6.711310706208456e-10
6.173326700569639e-10
2.2832787050239864e-10
-5.011385396498775e-10
-1.4100545658010683e-09
-2.1542759140296123e-09
-2.2704022850400307e-09
-1.3354996737265735e-09
8.005906678653547e-10
3.782767662395478e-09
6.632443431124958e-09
7.868071650529801e-09
5.9435246731457196e-09
-2.7295166530849065e-11
-9.45060030551366e-09
-1.968637231150278e-08
-2.6161753885258138e-08
-2.3502810416752023e-08
-7.717979571183759e-09
2.1032414597013427e-08
5.610528216424051e-08
8.388581472439368e-08
8.645052795138564e-08
4.789941128580231e-08
-3.663375649262117e-08
-1.5217888653421927e-07
-2.59793508297533e-07
-3.0184002897527273e-07
-2.195393799107793e-07
1.8724117151380637e-08
3.860554841444576e-07
7.763420293309004e-07
1.010567224953032e-06
8.827177118846199e-07
2.4564068954659754e-07
-8.822719733554507e-07
-2.2300603297359095e-06
-3.2611320631787806e-06
-3.283523789153168e-06
-1.7007311126430882e-06
1.6389158245818652e-06
6.10931124376523e-06
1.0163685761752748e-05
1.156250222886174e-05
8.075038573185244e-06
-1.4161528642274538e-06
-1.5718366224732073e-05
-3.0575646281483256e-05
-3.898820612804874e-05
-3.3069474520011796e-05
-7.418094808477101e-06
3.6777544734247785e-05
8.849978981813333e-05
0.0001266256856411861
0.00012447043669589497
5.970852155857036e-05
-7.209549355938215e-05
-0.0002449191019543474
-0.00039742815253555495
-0.0004427031457813647
-0.0002962066762811343
8.121988590447857e-05
0.0006378281309558002
0.0012039255751548263
0.0015074755446396943
0.0012495211625637452
0.00023713895922720425
-0.0014580992708208185
-0.0033795724000086303
-0.004685201033917512
-0.004339600922662616
-0.0015218716993792498
0.0038139095401826147
0.010387754342011406
0.015283256236793179
0.014092035220004386
0.0015856253175456235
-0.02727289895914646
-0.07644858553585052
0.05132825270648731
-0.046344167661565995
0.026690707194284565
0.06332148849092188
0.052431514486650066
-0.019721332041924815
0.03440412080518285
0.009533644439115932
-0.08599573136389227
-0.025369082571470872
-0.16220478359865062
-0.03492293223915966
0.02309699755538793
0.0692095304415788
0.13663704204748037
0.22367314795054216
0.0910365568005355
-0.13082311573321834
-0.12608815834610976
-0.17441095413831936
-0.1343901697446211
-0.0346439963736589
0.12571067135699282
0.1690042651616981
0.12777604524610747
0.03513198932488526
-0.08036078585938829
-0.19527829786792295
-0.08991047299204262
0.05215206071748216
0.04180621034982311
0.08037022047024352
0.1561951265155543
0.044681491157286105
-0.08691649793745164
-0.07072182405860437
-0.12834827655023773
-0.06356148913212323
-0.06032625409745693
0.11297987878419165
0.09478123889653424
0.12023138404988855
0.013395123969565175
-0.016067045785184173
-0.17163127086003543
-0.06586713045154664
0.08394984358304464
0.05899107739494264
0.040743353769194565
0.012505889288303875
-0.03879093061877114
-0.12072087372989647
-0.03452465907755182
0.023674857062486537
0.0595487083372912
0.07639010791874727
0.07215680501825522
0.039523933569666554
-0.030511745513867053
-0.14263827160989845
-0.091408596561621
-0.05852437228735326
-0.015127068026325206
0.07107951670078953
0.22625730543272518
0.06208631201408073
-0.028022450338584082
-0.06677181036979449
-0.08609652004592275
-0.1185813765370081
0.009630454814908389
0.08256626004030342
0.09483551021075544
0.05019809120223469
-0.0400760563336429
-0.15847444537034722
-0.08290127930915861
0.010039885420609936
0.13985796567468659
0.11656463582178424
0.13733888352471812
-0.012277473396059677
-0.15248925868143015
-0.3011414979811106
-0.06744400517769579
0.14918849224055708
0.15485867782925422
0.1544977672203675
0.14725038886391545
-0.07296135865240268
-0.3118966054999483
-0.16795409789200827
-0.02837809484833531
0.12820688270450833
0.12351022338373867
0.16944224287645235
0.06109474564084401
-0.023724738338768793
-0.11797945250349795
-0.054433048786435956
-0.0543719941039319
-0.12003811606554525
-0.03330271339153673
0.039005192561866756
0.13487709109491647
0.08545326442952561
0.10588864114661693
-0.008225164206799312
-0.07801023446571827
-0.13353669160212786
-0.004209750590174532
0.0895207713688959
-0.05891371220746675
-0.04128335464816267
-0.03743550963705197
-0.02136025049011568
0.030638580734289007
0.1315173048727805
0.07729274696075887
0.04543455256236574
-0.0009530215858335004
-0.10388437058481274
-0.09877035170924323
-0.0037615721821472174
-0.013337593147205359
-0.0979380838240712
-0.009730738347295985
0.10689552297342066
0.10270877478395116
0.01214131016203432
0.045893130714617425
-0.010709507185794302
0.006320142889740519
-0.15217956831928103
0.06156079230611243
0.0019812860290031333
0.0380368381375657
-0.041607509749117
-0.026379171538101615
-0.08495147516549871
0.029952617254130058
-0.026692267856476562
-0.002823966490008807
0.13973050652275057
0.016415681662376287
0.015615884436995053
0.10033772709549892
0.016021554584142922
-0.09694712506244924
-0.08883144103689175
0.012088372823607378
-0.19322751547774075
-0.0751521240503164
0.015696829640919736
0.13309580222270687
0.117613818974786
0.18232383185834908
0.10690845207933669
0.04286289760416891
-0.07108052205559352
-0.28784131366365245
-0.23220538465852159
-0.08952406363532676
-0.007404100262616758
0.08974725548151084
0.2781957327467513
0.2121425788944286
0.10852010103509703
-0.05586094037936757
-0.13467412872093384
-0.19428879370788532
-0.09458193112562309
-0.07468130416656223
0.052714691576571805
0.09833440218145624
0.08745362933175124
0.04926795129194331
0.00820660639173633
-0.020751340789894792
-0.03258637685409778
-0.029772061483396277
-0.018564259423816287
-0.005575397495357056
0.004452959788264839
0.009452342916221015
0.00969173477306735
0.00683317740459263
0.0028994064936643123
-0.0004913497772666599
-0.0024827692444298398
-0.002968469913383636
-0.0023502277331430635
-0.0012263121564601662
-0.00013288534522393121
0.0006003250679222637
0.0008770086776225758
0.0007785743897796008
0.00047349629422169915
0.00013280561675097538
-0.0001241782688010415
-0.00024806139427456796
-0.00024909563055092236
-0.00017207571753380635
-6.968455785396993e-05
1.6831824368968178e-05
6.632559263418553e-05
7.69602759707398e-05
5.969112196097266e-05
3.015107229346061e-05
2.0580781234642e-06
-1.6359205169129425e-05
-2.291131761254337e-05
-1.991276269506927e-05
-1.1806156103642293e-05
-2.995332815501189e-06
3.5136374796153375e-06
6.536474079802075e-06
6.4109015612352125e-06
4.332365176714987e-06
1.6662531709279352e-06
-5.402793715834819e-07
-1.7679653437373521e-06
-1.9934734921887626e-06
-1.514545692355933e-06
-7.392357746814455e-07
-1.8154688975061877e-08
4.437623405375985e-07
5.97658773019897e-07
5.086698139579372e-07
2.937468597982888e-07
6.615900957622206e-08
-9.847474790770108e-08
-1.7193802771743456e-07
-1.6480649571608062e-07
-1.0890329232734038e-07
-3.957239709644547e-08
1.6635588153649366e-08
4.701312383154987e-08
5.157424596597204e-08
3.8378048197275426e-08
1.80610144153359e-08
-4.2628213478144916e-10
-1.199102501716554e-08
-1.556941951163759e-08
-1.297870740872225e-08
-7.2924119836923525e-09
-1.4205520338736785e-09
2.7377269345107275e-09
4.515099896304282e-09
4.231751298177012e-09
2.732859506954684e-09
9.322388585288942e-10
-4.978181571438675e-10
-1.2474771404543424e-09
-1.3328592101896925e-09
-9.713032126788101e-10
-4.396944918349812e-10
3.3744102042898576e-11
3.2274603905044245e-10
4.0492961478094356e-10
3.306242669924678e-10
1.8047259861424777e-10
2.915111925811329e-11
-7.572466979552418e-11
-1.18509537938844e-10
-1.0866566473650386e-10
-6.859111458948931e-11
-2.1884703513615555e-11
1.4453699696436823e-11
3.2900626386974875e-11
3.4274702227340945e-11
2.441765133323072e-11
1.0527909330363811e-11
-1.5822989476917798e-12
-8.790257123814069e-12
-1.0648747319992522e-11
-8.542897225643679e-12
-4.585312709406859e-12
-6.901392150022718e-13
1.9509305195834395e-12
2.9749276288001234e-12
2.656431887697105e-12
1.5878038908115608e-12
3.7776342794040964e-13
-5.444328825082781e-13
-9.969348330126387e-13
-1.0111413566292765e-12
-7.435914065393847e-13
-3.811920654462911e-13
-7.178314093270684e-14
1.0761514144701654e-13
1.4880971270367243e-13
8.971192251479881e-14
-1.441654556779589e-14
-1.14567773162452e-13
-1.8097275360571228e-13
-2.0531841729229483e-13
-1.9545992427087562e-13
-1.6703326257820422e-13
-1.3572195432903516e-13
-1.123490783313597e-13
-1.0128741189439118e-13
-1.0146483347558143e-13
-1.0869833749371992e-13
-1.181409085860512e-13
-1.2603680896261112e-13
-1.304919287837262e-13
-1.3138071391834e-13
-1.2973579500199241e-13
-1.2700063067957003e-13
-1.244285194001081e-13
-1.2276162763721714e-13
-1.221872825060255e-13
-1.2248332939023078e-13
-1.2323779214073953e-13
-1.2404705177278997e-13
-1.246386358397516e-13
-1.2490801721654562e-13
-1.24889528506746e-13
-1.2469465847447472e-13
-1.24448950555504e-13
-1.2424769349426574e-13
-1.2413731927108075e-13
-1.2411886762724697e-13
-1.2416433265582995e-13
-1.2423606309356394e-13
-1.2430204530486123e-13
-1.2434381546337405e-13
-1.2435724072203296e-13
-1.2434854472683168e-13
-1.2432856338801796e-13
-1.2430767206271979e-13
-1.2429271939874701e-13
-1.242861869760298e-13
-1.2428701934167937e-13
-1.2429225214190999e-13
-1.24298637547979e-13
-1.2430376112091552e-13
-1.2430648862309293e-13
-1.2430684953399657e-13
-1.2430560046962115e-13
-1.2430372220138224e-13
-1.243020315031239e-13
-1.2430098669026518e-13
-1.2430067635330254e-13
-1.2430092751866754e-13
-1.2430145564860662e-13
-1.2430199434046653e-13
-1.243023717374792e-13
-1.2430252939502484e-13
-1.2430249885326407e-13
-1.2430235875419697e-13
-1.2430219302041445e-13
-1.2430206274654974e-13
-1.243019955322457e-13
-1.2430198917729663e-13
-1.2430202331205664e-13
-1.243020724221424e-13
-1.2430211569392745e-13
-1.243021417783531e-13
-1.2430214885388425e-13
-1.2430214169542034e-13
-1.2430212776274621e-13
-1.2430211388832763e-13
-1.243021043771652e-13
-1.2430210059262587e-13
-1.2430210161165847e-13
-1.2430210535233717e-13
-1.2430210964866846e-13
-1.2430211295687763e-13
-1.2430211460828006e-13
-1.2430211469640744e-13
-1.2430211376790967e-13
-1.2430211248568289e-13
-1.2430211137946887e-13
-1.2430211072957055e-13
-1.243021105710557e-13
-1.2430211077288724e-13
-1.2430211113978776e-13
-1.2430211149672493e-13
-1.243021117360558e-13
-1.2430211182634305e-13
-1.2430211179417062e-13
-1.2430211169454524e-13
-1.243021115833054e-13
-1.2430211149940418e-13
-1.2430211145896399e-13
-1.2430211145863405e-13
-1.2430211148378683e-13
-1.2430211151722054e-13
-1.2430211154546828e-13
-1.2430211156162546e-13
-1.2430211156509276e-13
-1.243021115594477e-13
-1.2430211154979578e-13
-1.2430211154061823e-13
-1.243021115346047e-13
-1.2430211153247275e-13
