0
-4.5909561242382626e-11
1.1568358584077865e-10
3.139500244824927e-10
4.724667073968596e-10
4.900416956129431e-10
2.7620678228911217e-10
-1.9797371774866337e-10
-8.49927545216187e-10
-1.461544963477393e-09
-1.7079971118050136e-09
-1.2558745792565353e-09
7.748269776437893e-11
2.1464675892702304e-09
4.35842720051763e-09
5.706253945156011e-09
5.024144413244952e-09
1.47001684604598e-09
-4.8715973422523125e-09
-1.2493377200587306e-08
-1.8382216695217424e-08
-1.8630134673109285e-08
-9.840786887866055e-09
8.89978291579341e-09
3.4131873549588255e-08
5.718852467669869e-08
6.544430031180871e-08
4.623971487226451e-08
-6.8997019827621995e-09
-8.748269225185304e-08
-1.7172557080733253e-07
-2.2023620396178117e-07
-1.8836755308391754e-07
-4.5170450036056106e-08
2.0340341262562208e-07
4.960161823697519e-07
7.140244292182406e-07
7.066868857182626e-07
3.46821947558545e-07
-3.9284012446699583e-07
-1.3682262302370652e-06
-2.2354696202409516e-06
-2.5044073538579864e-06
-1.6952268057152166e-06
4.1906616616392255e-07
3.554036628577541e-06
6.757146070085759e-06
8.489392941164158e-06
7.043359711900534e-06
1.2869059135753262e-06
-8.444983462610552e-06
-1.9663719576811397e-05
-2.7703513646737362e-05
-2.6757049060533727e-05
-1.2074855274381956e-05
1.7080060255228167e-05
5.474004443820586e-05
8.728218782814472e-05
9.569860279775583e-05
6.183825793184462e-05
-2.215051283396713e-05
-0.000143972509671661
-0.0002655511601193752
-0.00032682919643470476
-0.0002626080371162559
-3.169533792081602e-05
0.00034885945192822415
0.0007783598676620478
0.0010735327266201589
0.0010109135069184879
0.00041363966758451793
-0.0007343429190860822
-0.002187024252355641
-0.003405424681465265
-0.0036530656547627623
-0.002244046031937145
0.0010900875820758372
0.005826743706638741
0.010452501227814744
0.012636904528006632
0.009911419318513874
0.000812118310388835
-0.013809344509960372
-0.029859926272320786
-0.04015734261188034
-0.0362396986825689
-0.011961128295522759
0.03175286264902727
0.08247147585135983
0.11421583863337607
0.08977184917756464
-0.03175636465678938
-0.0831877327025935
-0.07641848666990489
-0.1928895132298285
-0.18153975590871252
0.03346847820347351
0.136139852080683
0.19754485379859127
0.2569583503595367
0.11179464653149834
-0.08005734400442749
-0.18654578623521165
-0.281833211941077
-0.2282301884147762
0.13412346637233222
0.18774691083923373
0.13119515080910646
0.1709658172219326
0.11722726600502686
-0.21440631888411135
-0.19683831110802763
-0.18598534336314468
-0.1210913745950272
0.06628271344716098
0.23596589373088706
0.22089657018835157
0.21387339978702846
-0.03512706699446784
-0.20963252830755372
-0.2087043273659973
-0.12673295442346363
-0.037297116308036476
0.2155936524983802
0.21947806086101748
-0.008167091179267642
-0.022044957583541525
-0.15098202013397613
-0.3018199094404111
-0.16853227878878158
0.15168092594514657
0.3373124221812525
0.22248475114118238
0.18555124492823452
-0.048236382338302755
-0.18979607691144373
-0.3603148459943457
-0.06477770241697695
0.02731097492482107
0.09002191464857104
0.13857774581169197
0.020190160950603248
0.0024679039501816786
-0.037691813014329285
-0.023741631142136718
-0.0879886272017578
0.02039123308506846
-0.07226345569057992
0.029621690241893525
0.2879564492278391
0.23414350593075103
-0.019643657683425915
-0.16151345779027487
-0.2575265069512886
-0.33334774332645445
-0.16735329583070463
0.10087664225300286
0.3486679905520398
0.24263418842582404
0.2156474928315042
0.05695043736896918
-0.08131507148729746
-0.26414675779778823
-0.14796262130412696
-0.15834398255718213
-0.07866594859817846
-0.052955396892100715
0.19841021764068045
0.15546362549389817
0.07525573982361289
0.17541932392178416
0.029367958943964396
-0.025799808379953493
-0.07127286564669622
-0.1837593860612583
-0.21464096940385194
0.022949319240795532
-0.04435555083958098
0.04006084787996818
0.1451716206573953
0.1323067626850684
0.03849576951968105
0.0674678295102489
-0.00987826621154384
-0.04646776115859387
-0.10461059970991125
-0.040357212125758005
-0.09080586444837702
-0.06736787606893276
0.04385654357698028
0.07549388229290889
0.06872056717411475
0.06293391887668341
0.08832938634139038
-0.03696950770940893
-0.10547434977835513
-0.11652369462509046
-0.0728156473291188
0.02062606237387253
0.15477994300778838
0.11402278378362771
0.07540001080075762
0.011868645469836256
-0.10055085829921832
-0.27426259038366474
-0.10421766916798202
0.03190641452107582
0.16666225499564086
0.13150353298119566
0.14594159030975756
0.011695278261495226
-0.08610524879766504
-0.1718254009865407
-0.0698930538391724
0.002946941974269023
0.041101829325509834
0.04905490003677471
0.03733162953444591
0.01774179242249114
-0.0003106841749744242
-0.01160997636236879
-0.01507459750745451
-0.012506219987128466
-0.0069376315354304965
-0.0012227450253726457
0.0027910816042377162
0.004469451161309818
0.004142275162651817
0.0026456912262685433
0.0008746071068516312
-0.0005184751039572322
-0.0012382226214094785
-0.0013075696431230298
-0.0009437716684407842
-0.00041933720076066757
4.3220812870748614e-05
0.0003224021087665098
0.0003985065471071604
0.0003223903902898943
0.000173696347013298
2.544765125199328e-05
-7.629075666432926e-05
-0.00011687532978672384
-0.00010611006301040435
-6.621060527140429e-05
-2.03184778326637e-05
1.5055103274857305e-05
3.274280018047672e-05
3.372447028114182e-05
2.3829473369101226e-05
1.013789460512725e-05
-1.6865493220041992e-06
-8.642424154678622e-06
-1.0348748768600232e-05
-8.201404236010173e-06
-4.2852903003299865e-06
-4.711510086800952e-07
2.0891196103891433e-06
3.057661577317293e-06
2.7170391384396066e-06
1.6542723159600164e-06
4.659743814783295e-07
-4.3121052109172106e-07
-8.644319068109922e-07
-8.689961607945833e-07
-6.009091682098804e-07
-2.439014783788014e-07
5.8045734007221635e-08
2.3099924754931859e-07
2.684021518031695e-07
2.0837375296125088e-07
1.0541516614866183e-07
7.398082555406798e-09
-5.6928107738791e-08
-7.987822531114652e-08
-6.949166778584216e-08
-4.12504945985042e-08
-1.0518327271963921e-08
1.2206919702355085e-08
2.277956929882631e-08
2.2365978675226227e-08
1.5129935269581e-08
5.833442451253468e-09
-1.8678952100377853e-09
-6.1584444512363015e-09
-6.952953310265305e-09
-5.287632600840675e-09
-2.585169318860845e-09
-6.915953918848857e-11
1.544320457330761e-09
2.083611197607417e-09
1.7750533479362239e-09
1.0262384992751837e-09
2.3234642375458273e-10
-3.425206556187588e-10
-5.995476614660435e-10
-5.753114957977658e-10
-3.8064856455797633e-10
-1.3882237214700007e-10
5.746914724467648e-11
1.637598231214803e-10
1.7995106929938934e-10
1.3403615647479564e-10
6.30547570904783e-11
-1.7591633833312073e-12
-4.254348056821257e-11
-5.541272522306145e-11
-4.64887769522588e-11
-2.630227207919824e-11
-4.935378174051683e-12
1.0839419587089151e-11
1.8281546567311116e-11
1.7879152244133106e-11
1.191672627564763e-11
3.185719432165116e-12
-5.750261415807355e-12
-1.2730037606348506e-11
-1.5899918124922166e-11
-1.3737504500955007e-11
-5.465023993587147e-12
8.158332790953755e-12
2.4014194081696093e-11
3.637589674402511e-11
3.7859036386889057e-11
2.1889487267186187e-11
-1.363609194687186e-11
-6.265209311328488e-11
-1.0905227549294174e-10
-1.2868373854803116e-10
-9.650226662887625e-11
1.6314992333854653e-12
1.556435646428552e-10
3.221245486728285e-10
4.2633766397299477e-10
3.8083990472746704e-10
1.2118754168336957e-10
-3.4895529419467855e-10
-9.200822153778648e-10
-1.3693663637283569e-09
-1.404689755851658e-09
-7.683805109538691e-10
6.158091825895861e-10
2.499820726382036e-09
4.245296339863894e-09
4.911628851184153e-09
3.5440734302200407e-09
-3.639431421106125e-10
-6.361040814340265e-09
-1.2704308056407866e-08
-1.646859501462461e-08
-1.4301872926743823e-08
-3.829401733336402e-09
1.4608705495022397e-08
3.654931143435787e-08
5.321263964997721e-08
5.332359919480697e-08
2.721999963390015e-08
-2.7449565648917848e-08
-1.0032349726901477e-07
-1.660545545628373e-07
-1.8810331312543364e-07
-1.3024917754438887e-07
2.5374382075407785e-08
2.588216057172009e-07
5.002166572561892e-07
6.352087631387556e-07
5.355117531286445e-07
1.1403731790302535e-07
-6.082737484837662e-07
-1.4500681187903131e-06
-2.06584579536929e-06
-2.020953074748021e-06
-9.540403463660463e-07
1.202310176933782e-06
4.017752585022997e-06
6.487342200606356e-06
7.193275936724091e-06
4.763976021868236e-06
-1.4231405314620081e-06
-1.050010171309937e-05
-1.9670968741953995e-05
-2.447067445509466e-05
-1.999667659102862e-05
-3.0710962323428057e-06
2.5192118162906806e-05
5.744505787420394e-05
8.010865879928665e-05
7.64479637564555e-05
3.298764417034467e-05
-5.195512094577039e-05
-0.0001605966004677717
-0.00025315173028341476
-0.0002746708185561966
-0.0001733180709848609
7.227472344020879e-05
0.00042479201324413366
0.0007725603346316909
0.0009414201507700977
0.000744281442693128
6.581465341670909e-05
-0.0010390637577957409
-0.0022734320137820733
-0.0031041890347706796
-0.002887590223509965
-0.001122038594714
0.002222712564418503
0.006418038511767752
0.00989679940230968
0.010541869344283862
0.0064146770202412285
-0.0031800128009526387
-0.016624234755559943
-0.02944132869098849
-0.03486092785904196
-0.025888899363022654
0.0012076033392089004
0.042790901176538304
0.08460129172882533
0.10117829361835032
0.05939193583540023
-0.07372108300428767
-0.12045124264095805
-0.08251689986935656
-0.1355752784385102
-0.030897096526973696
0.09534890592757932
0.1074380904829183
0.05430282754565588
0.15737749541795742
0.005697833881332942
-0.04039399917868741
-0.03816077481297851
-0.04728628375794523
-0.11486136553015394
-0.06455605729677384
-0.09276001780763583
0.02743093114517183
0.13573184323624243
0.07101295576779229
0.058761105767368454
0.10343694090006054
-0.012263099375700099
-0.12152928314400871
-0.06327592617912411
-0.07113772751939001
0.035157841714852735
0.054186083451548094
0.002779149873907401
-0.08761484920062355
0.022907941983257026
-0.02502134376930512
0.0017196622805574126
0.12150046883303568
0.13355824942693018
0.01813957806420944
-0.05833444357511591
-0.13448836096580224
-0.24475634048932715
-0.013238019109484632
0.14738301099095807
0.23282501297300207
0.24361514984628768
-0.015299326132329176
-0.3305608698008812
-0.2748802897526445
-0.2054843505960005
-0.07108005551979071
0.37265182322487506
0.5447321468559857
0.22688846564451082
-0.034323804697224465
-0.3097207272352567
-0.46038397859612523
-0.3127740516716968
-0.04705032234919951
0.1962824161718081
0.2943734246001045
0.31396272763678706
0.08833232653489206
0.007325007356052677
-0.17738633042481067
-0.13541784910497473
-0.13626928695734955
-0.030723552731786757
-0.04009387939891815
0.04498737218901723
0.05757125561369818
0.042440606744276244
0.04309095333027037
0.09107525486678575
-1.85354827044477e-05
-0.03518262807318974
-0.03392707075616762
-0.023412763849175372
-0.031095374623427756
-0.07889636790592258
0.01987357373432835
0.06062761554884153
0.04544126936952637
-0.019764660727945256
0.07256481134063175
-0.06929290932910838
-0.03610233334096602
-0.017029578945436667
0.0005699748820200395
0.03052330081178148
0.08659079608433655
-0.018806245188874145
-0.07547134802587413
-0.07613951715894987
-0.017687277600914507
0.09672342795225389
0.05508074805918269
0.03494131220161453
0.004289185625882328
-0.07458249719443198
-0.03876943078984222
0.08262565659040375
0.0756100189510357
-0.05284719234465347
-0.07120537515348106
-0.12341659134972674
-0.13436384324514233
-0.021619208006389837
0.08751553088505123
0.2372835362141359
0.22856017212576413
0.013216560977065061
-0.0992351118336833
-0.023691610911696026
-0.07479939550556705
-0.14193135430045398
-0.06984077770839314
-0.04935048557395523
-0.020034320066706926
-0.08422640085411287
0.07068510138154432
0.1465527495519735
0.2113052250518475
0.08418389740435063
0.13348510526061297
-0.11241590340462347
-0.14392039254209166
-0.2452375761645325
-0.07298910684547052
-0.044323480665549926
0.06297820833832074
0.09989227656805588
0.12943571109431606
0.009228004798536528
-0.0221584824946014
0.04748432856895658
0.003538405895962384
0.010074919718081278
0.01968461222911818
-0.014548183414040598
-0.12751681263631032
-0.1337972972204942
-0.02499268610066502
0.026196778548740043
0.05620704312883186
0.09827154982565021
0.17174176139159886
0.07692511952134556
-0.0024937502230496173
-0.09012661899094263
-0.20413507891970523
-0.1462615834570225
-0.09755685109328155
-0.023343090956709507
0.11372634506381865
0.337253564856678
0.24413872861527158
0.0012858218454861337
-0.04532866969384988
-0.15169091565072856
-0.3538413890117438
-0.25174253210343167
-0.005918288928819062
0.05082078465625389
0.19020906513961894
0.46239735206069055
0.27702839021764175
-0.0006809054125529023
-0.23689086535581075
-0.3042997530937578
-0.4558386509884881
-0.10777762294886903
0.16128720302829855
0.39639610396838953
0.24460367069098765
0.13587952511053294
-0.1258239247355756
-0.15942511976045787
-0.19518356744313922
-0.06125927888756208
0.0258956575662892
0.06460424430320395
0.06512370115784434
0.043607970908059096
0.015917710670516096
-0.0066129127675145245
-0.01871380862040659
-0.02042379007739564
-0.01504796278023988
-0.006893612248554162
0.0004526267526128342
0.004980677497996768
0.006303632321310161
0.005180400092987095
0.0028566285263117953
0.0004963787719944098
-0.001151612015221894
-0.0018352878324106423
-0.0016956816138212578
-0.0010786814144566554
-0.00035198814511329114
0.0002175343725664138
0.0005100350033162736
0.0005360556125404535
0.00038535699513619215
0.00016983672894620234
-1.9492073678902927e-05
-0.00013321008213526968
-0.0001636256651202408
-0.00013184809093714857
-7.062752354671222e-05
-9.867371782496667e-06
3.165487914881336e-05
4.8056854413123466e-05
4.344969183158884e-05
2.6985854671652583e-05
8.15367680905837e-06
-6.304693936561334e-06
-1.348710180261409e-05
-1.3826069327155087e-05
-9.729228220387329e-06
-4.103177944803287e-06
7.361171191575665e-07
3.5685867098225948e-06
4.248024125080821e-06
3.353288753421162e-06
1.74151439305547e-06
1.7863380311515245e-07
-8.6596395471165e-07
-1.2568919444403288e-06
-1.112316430132793e-06
-6.739894037641499e-07
-1.8647595278664883e-07
1.8014048155255823e-07
3.5594024538249783e-07
3.5618397631086e-07
2.452706031145871e-07
9.860959613131071e-08
-2.4937353193543167e-08
-9.533361435711523e-08
-1.1014763800410133e-07
-8.517312870590322e-08
-4.281095883489726e-08
-2.657549235812956e-09
2.3575970697339997e-08
3.282008521556554e-08
2.8431039600686313e-08
1.678513464880216e-08
4.1817893792491765e-09
-5.09273718120918e-09
-9.363759327059271e-09
-9.133450721961784e-09
-6.127479657790345e-09
-2.3097133385303125e-09
8.174211076538837e-10
2.5148945365068574e-09
2.763635281938413e-09
2.014953213101334e-09
8.853768517023921e-10
-9.295480248478184e-11
-6.134529527770225e-10
-6.260748693785477e-10
-2.8693619819210906e-10
1.3596704273228142e-10
3.6915459334784953e-10
2.3042949093814167e-10
-2.991918557252526e-10
-1.04293302109725e-09
-1.651427571215629e-09
-1.6950670833578318e-09
-8.245940123533415e-10
1.0290277653828219e-09
3.480011410078103e-09
5.631077849922381e-09
6.227522322449019e-09
4.06877819936966e-09
-1.3731366063396971e-09
-9.309590614901404e-09
-1.7265516838225047e-08
-2.1323729600375884e-08
-1.7219224767128378e-08
-2.2381800429805997e-09
2.2546136797802432e-08
5.0605991404246815e-08
7.001148058439442e-08
6.617470999010196e-08
2.7496049441431104e-08
-4.7185377744544905e-08
-1.4196118904085815e-07
-2.2178659687687806e-07
-2.386439793761515e-07
-1.4767702361888717e-07
6.886845922584413e-08
3.7716420008430144e-07
6.785307567241775e-07
8.204270193360649e-07
6.403623248931754e-07
4.0199799784271394e-08
-9.281270917842167e-07
-2.001102890121456e-06
-2.7106867087883003e-06
-2.4962585424398497e-06
-9.271673655159212e-07
2.009598075902294e-06
5.660586020572134e-06
8.641079002742334e-06
9.093058912199467e-06
5.326154270229606e-06
-3.252006168662838e-06
-1.52065484929869e-05
-2.6605809901326268e-05
-3.150972070131015e-05
-2.3731437989641297e-05
2.569001133304442e-07
3.8042226331893324e-05
7.901145259785574e-05
0.00010482225465689395
9.395622540442057e-05
3.0480048685787464e-05
-8.48605185780148e-05
-0.00022532716221094942
-0.0003362793812861636
-0.00034590732312416377
-0.0001906559664239089
0.0001486613065089951
0.0006116523906130545
0.0010419155488691594
0.0012083852010368683
0.0008758618483674304
-8.148228258847426e-05
-0.0015546088211189767
-0.003117001956239878
-0.004050510007922899
-0.0035297881260180903
-0.0009663813852566849
0.003564667676915984
0.008978347209370472
0.013131038678261885
0.013267026154700353
0.007027689933021505
-0.0061482908775425575
-0.02370072819018945
-0.03940712834627119
-0.04437128951917659
-0.029993242105694536
0.007294501664867087
0.06065793990517601
0.10885049603234923
0.11589710700010039
0.03623213253289977
0.025425321300855723
-0.14566793734667882
-0.2776366306827886
-0.13536754579572421
-0.0511372799315732
0.06122253771879317
0.28456432787865277
0.27595660430241964
0.05119501300069877
-0.018421417451145214
-0.196371194540928
-0.1621721544364923
0.010014092035734475
0.06953862830451041
0.000658403777322578
0.026081659082883818
-0.19717024329032035
-0.18920910828004311
-0.06529706708845334
0.24190418224502988
0.3609094343686659
0.2680065170216948
0.08839686084626673
-0.0859148904732159
-0.3656998387466819
-0.431263295164799
-0.10790273562189925
0.04137216998522021
0.10377535895694051
0.1902057530459353
0.20352570562012565
0.21160098774590347
0.0324604784824302
-0.165588818391473
-0.05095150750567548
-0.10850982740279552
-0.2190374352882714
-0.04392520430171186
0.18190101995713534
0.04929584127986755
0.16946817654075558
-0.032408092427794966
-0.12205350500691715
-0.059166951967353505
-0.000158272176710746
-0.10212980789071005
0.07142331176469274
0.14429358303780218
0.12287370995522676
-0.00454715625428073
-0.06340691082956731
-0.08447142744091173
-0.09434196954783626
-0.10833142549059607
0.07184614524226762
0.055134441216456574
0.054564063532392335
0.07987360434275445
-0.06795103090989757
0.0014189921306622267
0.06962750645481816
0.11486247896282212
-0.08085161099652788
-0.12415862424178056
-0.2053673814548671
-0.09885441233434777
0.02955428138843713
0.20953986934150248
0.25205646867599346
0.13996067111237714
0.028360867747400487
-0.14417247259587235
-0.2369225466003601
-0.087420910343905
-0.09785688875338294
-0.03209093753123565
-0.024083671614740093
0.20510281773597033
0.12708506133834988
0.18889504310012367
0.0036813988195868886
-0.048552368473139845
-0.2117564171965812
-0.14061456715657075
-0.08848440940400833
0.0999393374801624
0.19080086004238336
0.16055728025622948
-0.003776718783090117
-0.10155841625267478
-0.11343481303791239
-0.1975116256529426
-0.09056399502962498
0.08362524663790055
0.19981776636370868
0.11475038984153109
0.053692246658278216
0.004248529666703542
-0.0812420843045432
-0.07623161381049956
-0.06661879669773837
0.06312292343188051
0.04205069270472005
0.022141074010404688
-0.01521154057215538
-0.05584845992860234
-0.05343988109823277
-0.13506443022946868
-0.012334071857240765
0.0026948942653078085
0.17942044872436017
0.1526308095137693
0.11318700337281778
0.008860898225870545
-0.04411644276780652
-0.14155374319093392
-0.16902126535961623
0.017420323361517318
0.0030088893252578873
0.016598209680425177
-0.07603920125937992
0.014087783754799093
-0.018778506230621564
0.10580161541526698
0.03790219828118724
0.18678212967992153
0.11941629471569903
-0.030918434879822362
-0.14759875220470675
-0.10955024565708774
-0.1721944334864715
-0.15622342735847572
-0.047563078384870824
0.19182432522500925
0.2064714141959601
0.2299625862981586
0.07414395398581368
-0.07129609313648197
-0.22970423654906913
-0.22367432510948407
-0.06309336121509254
0.05998597989285021
0.16832994247790473
0.09078944886853231
0.052136852708447104
-0.13482591012670855
-0.07326798179459876
0.017279029701071452
0.10329756034114203
0.14223557596138692
0.09049057842837009
-0.08564363607614726
-0.19796784785441165
-0.2272389187996774
-0.12145336792040509
-0.004299946224281889
0.20730196485764707
0.38181120394476287
0.15536350978989724
-0.07573247138907259
-0.14999681858886346
-0.126223568129745
-0.26581727006903544
-0.018675380601718555
0.183413026144193
0.12580064272989977
0.005529328525083007
0.02536039310859628
-0.010058028391713025
-0.09536218438444571
-0.024011468898488722
0.012323773874163878
0.023519661084530723
0.019783878482603268
0.010043802202917037
0.0006688751363575114
-0.005024839172668278
-0.0064492132849790825
-0.004855213719693521
-0.0022450641790807083
-0.00040426130168190385
-0.00025400138408020716
-0.0016044510089644158
-0.0033029528764858674
-0.0037171115447297053
-0.0014477234751903447
0.003890305471787636
0.01104801460582949
0.016957011866649118
0.01721934271315449
0.007352070277382395
-0.01543120771868789
-0.05047937535707614
-0.09282640408643543
0.066112201541556
0.03616763580798772
0.02514746161735826
0.036030880705953686
0.06587156807190958
-0.09310358820838824
-0.05069416491143699
-0.015468948918983682
0.007586963595078515
0.01775269858940589
0.017693585957534987
0.01174591504485103
0.00419086124097901
-0.0019152897432181213
-0.005163313213847614
-0.005583566771133788
-0.00408775842017058
-0.0018523697338466514
0.00014851574074948917
0.0013733005966321435
0.0017227217435317563
0.0014079404233227873
0.0007703188176186437
0.00012688928844220568
-0.00031973966773578933
-0.0005026381983654724
-0.00046165006829150735
-0.0002917816908427616
-9.33300650438052e-05
6.133038285661684e-05
0.00014005952917409327
0.0001461969949419401
0.00010449072660960351
4.551786747099528e-05
-5.990522247279943e-06
-3.6714002491182534e-05
-4.470560653108981e-05
-3.5821851252821096e-05
-1.9030574244979678e-05
-2.4718499383641732e-06
8.77629430755178e-06
1.3156767626617057e-05
1.18258533851473e-05
7.296133512713741e-06
2.154885582161688e-06
-1.770129049551431e-06
-3.7016669402676688e-06
-3.769552413674011e-06
-2.6370642955745152e-06
-1.0981916441240534e-06
2.179569298732245e-07
9.827710206501396e-07
1.1602460558050364e-06
9.10747563497355e-07
4.6888595347849494e-07
4.3091807684380626e-08
-2.397630665530804e-07
-3.439738259609769e-07
-3.0265383761332176e-07
-1.8213457058696645e-07
-4.908203255005879e-08
5.041385018351734e-08
9.765360548166254e-08
9.709860742474047e-08
6.647280040510972e-08
2.6364734487443175e-08
-7.243658769725852e-09
-2.626642523942868e-08
-3.0131507595744324e-08
-2.3195811131959707e-08
-1.1574247430222095e-08
-5.887542376708062e-10
6.593568550944907e-09
9.14553930977618e-09
7.965419918220597e-09
4.753447416547675e-09
1.1875407700229002e-09
-1.5755502385436028e-09
-3.0364478466793504e-09
-3.2239019904874666e-09
-2.4532845117610093e-09
-1.111248203852241e-09
4.5454494997943793e-10
1.9348216707602856e-09
3.0010039036917363e-09
3.2720752040284927e-09
2.37609833459208e-09
1.2855006616543453e-10
-3.220850402843624e-09
-6.790455717386584e-09
-9.073448477018701e-09
-8.280531595854935e-09
-3.0474160569426578e-09
6.6363873978331045e-09
1.8617174025526075e-08
2.83627635263152e-08
2.980204006049731e-08
1.7418222800686e-08
-1.0709279786626268e-08
-4.98658278769378e-08
-8.71676912994582e-08
-1.0316512564495055e-07
-7.761409085754275e-08
1.0083030631347907e-09
1.2476179399635123e-07
2.588572641492995e-07
3.432159932059061e-07
3.0739776883618824e-07
9.930075972008583e-08
-2.7851729918060053e-07
-7.383729872482709e-07
-1.101259119244125e-06
-1.1320553102454365e-06
-6.228296742404234e-07
4.889074103779687e-07
2.004987921497421e-06
3.4129531191187393e-06
3.9561784811480365e-06
2.8650307984193273e-06
-2.713929933496854e-07
-5.094547006160955e-06
-1.0206522224273631e-05
-1.325568296378103e-05
-1.1542023226726383e-05
-3.1455734996447468e-06
1.1674647280964568e-05
2.934353140223811e-05
4.2807004520456226e-05
4.298910754514171e-05
2.2091233233159313e-05
-2.1823171263459768e-05
-8.047175488152774e-05
-0.00013350368978657802
-0.0001515242449702103
-0.00010533215923328431
1.9576252755823602e-05
0.00020732692039716698
0.0004018563141458403
0.0005112096548498676
0.00043202094183779615
9.382652317518017e-05
-0.0004871090880682822
-0.0011654477377111487
-0.0016634178895975709
-0.0016306724947959376
-0.0007744637768524916
0.0009633632621369834
0.0032428538892883716
0.005264636355665671
0.005900694107613588
0.00406432748925156
-0.0007250620956977796
-0.007750952518339418
-0.014767322805463062
-0.01825889100796093
-0.014550832068859772
-0.0017921273214334221
0.017520621720542643
0.03418656199563247
0.031045188588552087
-0.016317439771454622
0.0635527351876467
0.043344078671652936
-0.09628369897501879
-0.16015338276587035
0.06582451802872169
0.015296831521364533
-0.062030542489709475
0.09296169588900677
0.1408342185924704
-0.06385568954299198
-0.07830621614137523
-0.07551102148839492
-0.04744918724184524
-0.008119646089788038
0.20410903609691455
0.12677435730175526
0.07862890656849889
-0.02879575955741922
-0.07473496344716937
-0.31198237037180604
-0.15453509057635312
0.025115701950721575
0.0873541532576965
0.10790118294645903
0.15698770690446562
0.0817298154609876
0.09672870227396531
-0.01499350056567046
-0.09191487287126786
-0.1787599768471166
-0.1114976906908744
-0.1076278989723044
0.035406005594947554
0.1340797506809469
0.2083290330613244
0.07166959799305155
-0.0739041190700792
-0.036567868666382015
-0.0281383940049707
-0.05552506941229754
-0.11361791716267819
0.01779115771882895
-0.02811662411078533
-0.01205793798308717
0.10168435516499069
0.13572536101983848
0.09326278230238325
-0.042838391679780284
-0.10530058961663988
-0.13396564202378358
0.03315797565528503
-0.03358354304565267
0.04727022983205149
0.06772914697118959
0.027939965921268496
-0.06654382937459001
-0.006927709593824058
0.017329405289651684
0.01741686973444973
0.0042712574690633425
-0.012157543993655684
-0.023531393968210728
-0.023844746552472325
-0.010457927352042911
0.014594799988426534
0.043497242066294975
0.06259613143719607
0.05428004343072599
0.0011528546445110721
-0.10816651732055597
-0.07343567068474643
-0.0798100028310961
-0.0994829731098594
0.10161626336607205
0.15373592977005784
0.07324343282139614
0.056475542795258085
0.08015872278048919
-0.09132217943412177
-0.09404897127280434
-0.15208259672785412
-0.06874475291941991
-0.024847525743235496
0.015379021360472459
0.09265693183267275
0.23938497179266788
0.06942693156669018
-0.025429238455234322
-0.07134603256820188
-0.10270663622922663
-0.150900343014287
-0.03592316765592399
0.03648326018139013
0.07194009724150338
0.08090550463553028
0.07183328526637767
0.04704390326469455
0.0028843573203070558
-0.06618105668254032
-0.1616280001332007
-0.07604230101259585
0.008037556093373399
0.11472332818995534
0.06812169350610038
0.08519097827219888
-0.0291491709404652
-0.0832653460623459
-0.09674458581119272
0.10361874534581297
0.08852803898481465
0.031095432909390923
-0.08814728224633477
-0.07679072626252956
-0.12818110015763318
-0.022812256259554835
0.06600136840600516
0.16360607248038977
0.08574899390221633
0.03400478152171583
-0.0030353166479251577
-0.0431080738144247
-0.1006981572422613
-0.17830556108708
-0.062177053756327594
0.07542719421306512
0.06787555450677553
0.14264396663350384
0.11081877022418768
-0.038761313733336036
-0.13913964548947821
-0.03945207856254439
0.004020203515175848
0.13776615973077744
0.12079187536982905
-0.06623873944711202
-0.21344530563410372
-0.07806386432534401
-0.18764291558542295
-0.051867510485401655
0.21820317353821694
0.28818937405396783
0.1827007494002354
0.07840479171857292
-0.08913140208118644
-0.20688784177440558
-0.1604761943545437
-0.2128515161336494
0.007848102634836584
0.10859769648793469
0.12155560376152522
0.08874744876624285
0.04711871997464305
0.018433927392755144
0.006091657296135327
-0.0014493650105243724
-0.022642083284416123
-0.0731664774159897
-0.15780142233497074
-0.06664060780282374
0.022842781169779117
0.13845802329522489
0.10345517380373621
0.12814463257044603
0.006381045132508813
-0.0818121787968446
-0.16286999023997584
-0.06087715876772959
0.009111036624470716
0.04348558366813637
0.04827028566686715
0.03476815919207376
0.0148422429792821
-0.0025235359342264067
-0.012700416417027809
-0.015115608785724908
-0.01187063318739096
-0.006072107086979693
-0.00048154115022537586
0.0032225763638839317
0.004570489188843939
0.0040027527624494266
0.002397486449016657
0.0006350439196247974
-0.0006778621163174925
-0.0012971751362270102
-0.0012845892147045955
-0.0008761145477742774
-0.0003445085389329121
9.92536621721361e-05
0.00034906958109681474
0.00039827774962470036
0.00030521458074821774
0.00015115333129003358
6.5380643445644225e-06
-8.70048517777387e-05
-0.00011906289684752419
-0.00010222042795972065
-5.9688576266967726e-05
-1.4164565315551581e-05
1.9057148209287227e-05
3.413533596583023e-05
3.303164048380015e-05
2.203319382014955e-05
8.20354514457445e-06
-3.1050817318749423e-06
-9.292244713668417e-06
-1.0309544982437326e-05
-7.738452749642293e-06
-3.698577219396129e-06
1.0918815702400135e-08
2.354655989486665e-06
3.1033878680379562e-06
2.6094244419584224e-06
1.48318981998255e-06
3.0808120788356805e-07
-5.315232027485365e-07
-8.970311392247964e-07
-8.485851996158567e-07
-5.533212564883512e-07
-1.9395677359768735e-07
9.390764749348489e-08
2.4676777846105006e-07
2.665397921691013e-07
1.9593637587238205e-07
9.016485493034814e-08
-4.876647284037096e-09
-6.349249956483437e-08
-8.078252071806056e-08
-6.653261826331923e-08
-3.67696636099676e-08
-6.4718431456215416e-09
1.4716778830158138e-08
2.353450783083903e-08
2.1775101405309928e-08
1.3871758623686218e-08
4.545371692961164e-09
-2.7732264934436193e-09
-6.539294324104822e-09
-6.883182920921926e-09
-4.954492774065488e-09
-2.1892683995560668e-09
2.4299654059127396e-10
1.7061432345591815e-09
2.09984497167446e-09
1.6941012110116398e-09
9.090384661817735e-10
1.287683598425563e-10
-4.0516124978497126e-10
-6.167288770446069e-10
-5.583534207370318e-10
-3.473774513842811e-10
-1.0563287564426746e-10
8.019810110239993e-11
1.7270356310906565e-10
1.7731280239044836e-10
1.2486941409769467e-10
5.267979364509627e-11
-9.49347937332689e-12
-4.594181743734165e-11
-5.4747474997741876e-11
-4.331670890717197e-11
-2.264597531825413e-11
-2.5744148336634435e-12
1.0859203968831839e-11
1.5903796517212503e-11
1.4067294822208304e-11
8.449525667894173e-12
2.1909648063462602e-12
-2.52147181986431e-12
-4.78615840657638e-12
-4.795871873144114e-12
-3.3757474644535762e-12
-1.4937399724689495e-12
9.366119649456239e-14
9.996615719975233e-13
1.1919993368521792e-12
8.72799289753133e-13
3.2946409526142017e-13
-1.8626440808919646e-13
-5.237078597266535e-13
-6.431200164700361e-13
-5.873395758593588e-13
-4.3810173876605437e-13
-2.762659240216752e-13
-1.5692339163344736e-13
-1.0168203580079847e-13
-1.042256368279768e-13
-1.4253886239431909e-13
-1.915378815793964e-13
-2.3201908002155503e-13
-2.544876584877405e-13
-2.585526809183042e-13
-2.4970548242687573e-13
-2.35447001728656e-13
-2.2221074876518088e-13
-2.1374869831737272e-13
-2.109461529510248e-13
-2.1259850072181554e-13
-2.1655438825674675e-13
-2.2073426869853176e-13
-2.2375248540966272e-13
-2.250945158953794e-13
-2.2495747919006453e-13
-2.2392731081595125e-13
-2.2265325601408152e-13
-2.2162216740819683e-13
-2.210663325177236e-13
-2.2098453250542472e-13
-2.2122818006817948e-13
-2.2160177544724867e-13
-2.2194109733640632e-13
-2.2215292388798596e-13
-2.2221802630242648e-13
-2.221699900794922e-13
-2.2206534556432545e-13
-2.219575136004943e-13
-2.218812895554068e-13
-2.218488336571283e-13
-2.218541921354604e-13
-2.2188180632735678e-13
-2.219148917672024e-13
-2.2194112219861198e-13
-2.2195483588648715e-13
-2.2195635346948052e-13
-2.219496808829267e-13
-2.2193990674009818e-13
-2.2193121794792267e-13
-2.2192592528497527e-13
-2.21924431871276e-13
-2.2192580807422739e-13
-2.2192857085997073e-13
-2.2193134948377136e-13
-2.2193327168355259e-13
-2.2193405259999081e-13
-2.2193386787263317e-13
-2.2193312974766094e-13
-2.219322716326368e-13
-2.2193160517728015e-13
-2.2193126781011302e-13
-2.2193124386944874e-13
-2.2193142571119785e-13
-2.2193168105659353e-13
-2.2193190328742735e-13
-2.2193203526818306e-13
-2.2193206898926636e-13
-2.2193203002255415e-13
-2.2193195721426307e-13
-2.2193188569656395e-13
-2.2193183729650488e-13
-2.219318186162394e-13
-2.219318245658208e-13
-2.2193184424443138e-13
-2.2193186647364145e-13
-2.219318833850833e-13
-2.2193189165835043e-13
-2.2193189188609478e-13
-2.219318869521083e-13
-2.219318802906366e-13
-2.2193187461333382e-13
-2.219318713290799e-13
-2.2193187058311447e-13
-2.219318716758336e-13
-2.2193187359122222e-13
-2.21931875429879e-13
-2.2193187664664474e-13
-2.219318770904975e-13
-2.2193187690689367e-13
-2.2193187638352603e-13
-2.2193187580837598e-13
-2.2193187537980754e-13
-2.219318751776255e-13
-2.2193187518173242e-13
-2.219318753150857e-13
-2.2193187548863525e-13
-2.219318756335014e-13
-2.2193187571504545e-13
-2.2193187573109568e-13
-2.219318757007005e-13
-2.219318756503955e-13
-2.2193187560317922e-13
-2.219318755726405e-13
-2.2193187556217716e-13
-2.219318755676791e-13
-2.2193187558156723e-13
-2.21931875596431e-13
-2.2193187560727703e-13
-2.2193187561219866e-13
-2.219318756118368e-13
-2.2193187560824454e-13
-2.2193187560372844e-13
-2.2193187560003632e-13
-2.2193187559801737e-13
-2.2193187559768739e-13
-2.2193187559852956e-13
