0
1.4926186358959948e-17
1.485420681850369e-17
1.4814322096716105e-17
1.4844816948587848e-17
1.4971513433926234e-17
1.5187811594854963e-17
1.5439123292955234e-17
1.562192042459076e-17
1.56063492095516e-17
1.5284944293333978e-17
1.4638584594635622e-17
1.3797194281729741e-17
1.3062224225508293e-17
1.2857650858010326e-17
1.359215039041009e-17
1.5448814906613387e-17
1.8163985183664062e-17
2.0897878520322948e-17
2.23140492369685e-17
2.0949735200251735e-17
1.5863416030654512e-17
7.401356602587612e-18
-2.2255682040172705e-18
-8.949156032521973e-18
-7.770711864054209e-18
5.3155895469071526e-18
3.077226662461998e-17
6.323394824739768e-17
9.076883999214539e-17
9.694757716296301e-17
6.632938992969803e-17
-7.354589049973063e-18
-1.127882545488017e-16
-2.1644045127786468e-16
-2.6619544282970427e-16
-2.0624944210329078e-16
-2.4710891951133587e-18
3.2819863564692657e-16
6.964512707327675e-16
9.426194028734093e-16
8.745252009910416e-16
3.4331914606383625e-16
-6.580150817846781e-16
-1.9088784463778452e-15
-2.9376568267807074e-15
-3.108444230102167e-15
-1.839068913507034e-15
1.0808126055918131e-15
5.170233749797077e-15
9.092689307234084e-15
1.0818208740659338e-14
8.221254387358624e-15
7.275555039863625e-17
-1.2833845551482749e-14
-2.6899687577953266e-14
-3.586572318452384e-14
-3.235323873195577e-14
-1.0850331610566373e-14
2.848816738083484e-14
7.662784980133673e-14
1.1495307080231682e-13
1.1887983610697865e-13
6.650703339123795e-14
-4.903306726890119e-14
-2.0746442815851443e-13
-3.55604565693824e-13
-4.1447393934856677e-13
-3.032451163299772e-13
2.1996550829108308e-14
5.251856503026972e-13
1.06162750655388e-12
1.386254596929774e-12
1.2161408410226853e-12
3.479585176096416e-13
-1.1956167246093052e-12
-3.0459014845743597e-12
-4.469064973497131e-12
-4.515831517824112e-12
-2.364250252827952e-12
2.2013290466281486e-12
8.332063869188475e-12
1.3915079654181914e-11
1.5881050013991853e-11
1.1161663174264746e-11
-1.7976684074874275e-12
-2.139306613000347e-11
-4.181933459575098e-11
-5.3492294620429514e-11
-4.55786044088682e-11
-1.0609577756371108e-11
4.9885159071539373e-11
1.2090859595053045e-10
1.73570255427044e-10
1.7125975446888602e-10
8.320820483967419e-11
-9.695772592569356e-11
-3.3391498187511623e-10
-5.43850096715507e-10
-6.076186806834312e-10
-4.0895481302388063e-10
1.0656021252174226e-10
8.687813040620088e-10
1.6452676789267247e-09
2.0616325246247495e-09
1.7036578586045493e-09
2.9830955384455194e-10
-2.0697589154270997e-09
-4.7923122988631315e-09
-6.733380042523406e-09
-6.482769628736155e-09
-2.8918685639015356e-09
4.2084690193340714e-09
1.335605136657147e-08
2.1231065281918466e-08
2.321392031709924e-08
1.4907437251551285e-08
-5.567046413762628e-09
-3.5182011716575484e-08
-6.46480757006334e-08
-7.935739093715258e-08
-6.349566087844465e-08
-7.135456780024303e-09
8.545444154626473e-08
1.8967285979962478e-07
2.609085902387418e-07
2.4491117508339396e-07
9.893161447246434e-08
-1.8053433429042903e-07
-5.332403277893749e-07
-8.278771310249154e-07
-8.855371285531236e-07
-5.402557261439558e-07
2.7168570130191197e-07
1.4210113645070453e-06
2.5371406154109277e-06
3.0507561138168036e-06
2.3590209893080875e-06
1.0321220908380843e-07
-3.512802846776695e-06
-7.496491072181639e-06
-1.009802622052164e-05
-9.233079121727576e-06
-3.3158575989233743e-06
7.670019777971342e-06
2.1252516403534042e-05
3.224508866398274e-05
3.3727127428554556e-05
1.9448057937304247e-05
-1.2703351736149201e-05
-5.725593423366495e-05
-9.945136109596415e-05
-0.00011712678092854244
-8.733931091040156e-05
2.7799457893655496e-06
0.00014383642563969514
0.000295879164072065
0.0003903528815185025
0.0003472795093038686
0.0001080413933934548
-0.0003233340758663511
-0.0008457988760666427
-0.0012547666169352124
-0.0012828289370125266
-0.000695045375193984
0.0005764987410684177
0.0023024237266927312
0.0038968251922312006
0.004499593442606405
0.0032419845752863544
-0.0003289787160463727
-0.005784289450558976
-0.011510896089503201
-0.014819492832376819
-0.01265077931804238
-0.0028878994894524002
0.01400315540556528
0.03359234325867022
0.047141801732326634
0.042988123230316824
0.009856160114440004
-0.05853521502400609
-0.15915824530078035
-0.07776446513130715
0.008965060363573089
0.1271412843223309
0.09727406647233282
0.12713277212377863
0.008952243880583745
-0.07777435084457048
-0.15915724784488008
-0.058517849120260396
0.009889514944982214
0.04302877847421156
0.04717277317780697
0.03359214910768999
0.01395376273980939
-0.002990378841360881
-0.012786198675919394
-0.014939838593423405
-0.011547876358812477
-0.005671233493410112
-3.458928003771565e-05
0.003677743526783269
0.004943889619310045
0.004135551315934997
0.0020985448682392387
-0.00022645659299888918
-0.0020491364443885516
-0.002840696640353756
-0.0023670054976352487
-0.00070557673737605
0.0017276266593347638
0.004169401220565108
0.00558785960774045
0.004919532330589752
0.0014838935950712692
-0.004505823639032727
-0.011532741678276627
-0.01674349162393469
-0.016549283008950456
-0.007956187916898434
0.009581705717499627
0.03236128737760327
0.051544829346284175
0.05407048082210125
0.025825835294136776
-0.04331723876305947
-0.15410880675227154
-0.09448437329735025
-0.04027902261973675
0.03910405236978828
0.1714955658324853
0.17262191674924426
0.040554234557688654
-0.04352880607066312
-0.10853324408242931
-0.1836443947095395
-0.08988083119758333
-0.03655656944503006
0.1763170315412971
0.15165809936764557
0.08889237052924584
-0.018739735090918523
0.01851240178776444
-0.20619899403723577
-0.08853725051164735
-0.008087620703643541
0.07109565813301977
-0.005853462605359141
0.00485519257015274
-0.06652983540611777
-0.014601773767059376
0.13325923576522972
0.11489039014626451
0.23988383644231598
0.20622082548746393
-0.07409367393305173
-0.4455588512412981
-0.4850311474498605
-0.29347384525177556
-0.11083777485622001
0.24658665054999804
0.7364366687283855
0.64487957760565
0.16247269074711798
-0.2091134846289053
-0.42207603944675987
-0.6330782951791334
-0.35847545653155716
-0.04999320201890052
0.3028053722726908
0.34817959218264605
0.33899638009821825
0.30552286770852793
0.044841214140135296
-0.2704569087284222
-0.2699467529975614
-0.36064737475768904
-0.3119889890727048
-0.058514127332727366
0.2789887669885003
0.36114466995414535
0.3991217827135504
0.33850919245456557
0.06643269017763312
-0.35809929394299284
-0.459657128950901
-0.3026647216392246
-0.26378432875748054
-0.030159071140129348
0.17564155201587728
0.3518165761196076
0.26807403549050823
0.2252334670492967
0.03435683290297029
0.01951284333161267
-0.15873310811597627
-0.2673450829271257
-0.26305526086196096
-0.06271044878370836
0.07207432294233947
0.1350145761731152
0.16377375519955412
0.02318927359388724
-0.011323312346884535
-0.06698162788346675
-0.08282107434877975
-0.015688868631470447
0.15609090083767693
0.03139236693659298
-0.011967059864122482
-0.011909604336950297
-0.01376128991050758
-0.06051840647662584
0.016220136282492158
0.002805200225454704
-0.09370782710897933
-0.04723649493363401
-0.018718706110469968
0.03445111194127954
0.14772018693985808
0.14042345966561395
0.011509107359317964
-0.0585573851374627
-0.10055824291735058
-0.14690741825903303
-0.023320169375000824
0.05558165562781268
0.08619948210772378
0.07291985670517494
0.024474419121386856
-0.0485103485947273
-0.1344060623956291
-0.02080155241289918
0.10480871821286437
0.0535257271608097
0.0334559783557146
0.0490467319175333
-0.09841673948920102
-0.21017701300420458
-0.09102780307395776
0.04676438592134679
0.17744154616791308
0.25700380354495395
0.2244101076412545
0.012109194833474233
-0.2346018649192125
-0.3347380583113819
-0.25394793351071643
-0.10031972815794088
0.06220606179103752
0.18497236770201422
0.19803027248246324
0.17633364540985058
0.11842109116743306
0.14377779820079634
0.11018079162021398
-0.15268705491422346
-0.40138753529755894
-0.33937695793588163
0.4092845777614049
-0.693821888137395
0.0833667573425347
0.5110413437090144
0.3565000516195028
-0.4548795768180813
0.5326381283091649
-0.10634217568643399
-0.27353358696506225
-0.12912730087306687
0.134374785276179
0.32251874825556237
0.27106229379505004
-0.12183098446474203
-0.4674276958631288
-0.6702712967441911
-0.33374434321016283
0.006796950608321487
0.4268551442539348
0.9460811562703719
0.6732335175671816
-0.017833558406295066
-0.2725398242417816
-0.5067855055259942
-0.7436915256558301
-0.3583721471193555
0.1523698209621439
0.3703360151470924
0.5335277278247504
0.30576671845113185
-0.04737266155902274
-0.26896066676695274
-0.3090330941512114
-0.31858404816423536
-0.0476680249332848
0.34824184378702977
0.2958447217179896
0.19242467269667682
0.0022931631887961267
-0.1354910953346026
-0.290527737820185
-0.12210500818262073
-0.0649991669423568
0.0754691644573236
0.11885263553884949
0.09878693892698982
0.050827542937222456
0.00305308131504234
-0.028463409076936733
-0.03941380809487267
-0.033831592054155535
-0.019552759840238382
-0.004279527480885641
0.006808793297416442
0.011754028443549894
0.011246171103069134
0.007432157502134923
0.002707823181108617
-0.0011232203773037274
-0.003196219187161464
-0.003511150463466354
-0.0026157147325504477
-0.001233681930311614
2.5325206075160753e-05
0.0008139478504247291
0.0010590674303067728
0.0008838844683630336
0.0004974031965910202
9.774957087265122e-05
-0.0001856115004745344
-0.00030702811794644535
-0.0002881143250049791
-0.00018630542627981283
-6.379206668334144e-05
3.361902755585695e-05
8.477165425796964e-05
9.070402743774823e-05
6.617389740841421e-05
3.0018056841009502e-05
-2.2195254343287426e-06
-2.192538438800885e-05
-2.75571525568175e-05
-2.252757091461216e-05
-1.2320491427061644e-05
-2.020234679542607e-06
5.127097606486989e-06
8.05073282124968e-06
7.39020747736896e-06
4.667813294313366e-06
1.4897062849300494e-06
-9.85733525265324e-07
-2.244663616933693e-06
-2.3412944818285377e-06
-1.672361580449625e-06
-7.276170289383445e-07
9.704894167875528e-08
5.885847712061702e-07
7.160628993788347e-07
5.734366835537219e-07
3.043794425127427e-07
3.922325877305589e-08
-1.4078215169658443e-07
-2.107791123905074e-07
-1.893426317596839e-07
-1.167371041722715e-07
-3.439518050899697e-08
2.8431038495255473e-08
5.931810560366714e-08
6.036466141170717e-08
4.22036254759216e-08
1.7552272730032413e-08
-3.5188382473735933e-09
-1.575408456340876e-08
-1.8583276428721184e-08
-1.457867897587259e-08
-7.498812964016937e-09
-6.807870093126657e-10
3.845529182786413e-09
5.510371528469486e-09
4.845508298486982e-09
2.9138711777375955e-09
7.830304904243318e-10
-8.094038892079038e-10
-1.5646063164418358e-09
-1.5545683465159333e-09
-1.0634631516209447e-09
-4.211070342109802e-10
1.1664859987766673e-10
4.2053372404742195e-10
4.816808747492025e-10
3.7017099705182473e-10
1.8418570058568201e-10
9.071476651480275e-12
-1.045595622144134e-10
-1.4385505284787897e-10
-1.2386216425831923e-10
-7.258892016060199e-11
-1.7510553101524596e-11
2.2802053906773434e-11
4.120248835693213e-11
4.0000754505167944e-11
2.6769310390370362e-11
1.0048829877349712e-11
-3.6700645896611645e-12
-1.1216345308046376e-11
-1.2505932143952161e-11
-9.431761910958486e-12
-4.545990321963401e-12
-2.287601048053886e-14
2.87642438209086e-12
3.854715733187572e-12
3.309002589067727e-12
1.9453340240419407e-12
4.4505547910127486e-13
-7.286299353069587e-13
-1.374081304635747e-12
-1.4901211696385341e-12
-1.1775433229857669e-12
-5.616636687271194e-13
2.337660136756583e-13
1.0651097774708965e-12
1.7315681407295512e-12
1.9661904303362338e-12
1.4913523215005242e-12
1.4690823835276782e-13
-1.9421167573639612e-12
-4.232870889985774e-12
-5.7647310450210234e-12
-5.375458664850132e-12
-2.153227684978725e-12
3.9642332484296075e-12
1.1657638030938122e-11
1.806637619307331e-11
1.9298218857767337e-11
1.1746619161624799e-11
-5.96541021980831e-12
-3.101036559149671e-11
-5.530678132539768e-11
-6.645046613158605e-11
-5.131754990067345e-11
-2.1144254120129777e-12
7.668701017609548e-11
1.6343316004978708e-10
2.1998659174538913e-10
2.0095277160748043e-10
7.183900076502391e-11
-1.6761905897281617e-10
-4.6345969708822977e-10
-7.026137958298793e-10
-7.343194720117276e-10
-4.225422185160428e-10
2.784365317991155e-10
1.2490662219570442e-09
2.16751650628166e-09
2.550871680980514e-09
1.899621503837175e-09
-6.580291769698178e-11
-3.139591621890274e-09
-6.450253791748557e-09
-8.50372270623271e-09
-7.55829705110569e-09
-2.3392486959073946e-09
7.06192202952202e-09
1.843957803709865e-08
2.7333813662098016e-08
2.7919931180526252e-08
1.5086791799477445e-08
-1.2630149036154916e-08
-5.021049071749903e-08
-8.485897042895985e-08
-9.779843394889488e-08
-7.005148883043574e-08
8.323310613773423e-09
1.2808739171832157e-07
2.5424242555002803e-07
3.2832638876835735e-07
2.8360567286830677e-07
7.316155442521991e-08
-2.954862180950241e-07
-7.324875188829978e-07
-1.06215454331556e-06
-1.0597211533966015e-06
-5.336251958285696e-07
5.608135087674103e-07
2.014119097142183e-06
3.3183731912327156e-06
3.744301167312834e-06
2.5721901312105605e-06
-5.478733507557582e-07
-5.208916372235833e-06
-1.000832313321482e-05
-1.266116785017681e-05
-1.0614148181623014e-05
-2.1481254359908124e-06
1.2290478180629995e-05
2.905272682337347e-05
4.122659706137794e-05
4.0149355197067246e-05
1.8660547673210247e-05
-2.449722471317176e-05
-8.063232570694596e-05
-0.00012961277034286982
-0.00014314735011478102
-9.399229767186852e-05
3.0014306036994918e-05
0.00021120454494666423
0.0003934728819988791
0.00048761447579086047
0.00039607343440904377
5.6170867832278004e-05
-0.0005087638208263405
-0.0011509672558794209
-0.0015988280770661628
-0.0015188275014467935
-0.0006438977798193717
0.0010565503037060786
0.0032246090889944744
0.005065345286691266
0.005485892954193776
0.003462673947212553
-0.0014117759512312668
-0.008367987388952511
-0.015154463179566332
-0.018290996382262538
-0.014088563677254286
-0.00039640007127553803
0.021327910380329884
0.04439672571194428
0.05667878398525248
0.04257031980254023
-0.012732968648589678
-0.11757881248390696
-0.0687320569166686
-0.04906316004864478
-0.029655405164180183
0.023641703130284103
0.14099940539632505
0.13981125799532507
0.019543963794700095
-0.03775550673653791
-0.06151501164494082
-0.0836494712500835
-0.13000207010067502
-0.015273286372587081
0.05711870386040326
0.09094199660794904
0.0912823495863493
0.05994716391461769
-0.0056692751046389855
-0.10989032030697099
-0.05373745520672584
-0.030141634316225865
-0.021739026812073164
-0.002419654822117543
0.05766367445799368
-0.014960707067607415
-0.004246193537725775
0.09003089280872219
0.05033098456148195
0.04381469900676123
0.02930985221675629
-0.03240405404142832
-0.16757521170700354
-0.1812444346080985
-0.055145732037492956
0.046616838956558465
0.16539205966743206
0.13344067289792852
0.16246668365279257
0.03965492337822808
-0.06724523991277094
-0.1978226637340463
-0.18470452590987566
-0.04262922084195361
0.03517971423742383
0.07267165966171742
0.10123798840985603
0.14896015841910135
0.033033048951202695
-0.04221046897180228
-0.08178972363130836
-0.09346930258681399
-0.08151417158267078
-0.04377601576031165
0.02662333991910559
0.13589880991117922
0.08313453752775729
0.05598919229650026
0.030986825563811302
-0.021117278472417404
-0.12657416557413023
-0.09972344682677842
-0.13754458411880063
-0.0202611830289423
0.08167370390759598
0.1965883831171744
0.14096772288849135
0.11376315971814045
-0.101726432971481
-0.12908427702106184
-0.18692321657206332
-0.07913892822128495
0.008566581937482306
0.10455064118367369
0.041302572918548136
0.04359596070105408
0.11893117577435992
0.05342336455075684
0.014504841239843228
-0.04024052702553767
-0.15074283696663307
-0.14253446831607733
-0.019195714648419487
0.03840608856821802
0.0661321303861612
0.10621862401780811
-0.003950801400373335
-0.040822223081454015
0.00042677369628301684
0.10556087957845141
0.045238294486851904
-0.01752913616912163
-0.11785482453922078
-0.07975820100004032
-0.11007348510657981
0.0023689668548633968
0.08195381550402082
0.15772225270433296
0.054350450356731014
-0.014057613048009556
-0.045604481526831525
-0.04801072243505721
-0.03368886424383687
-0.01473167617441063
0.00053743547836855
0.008798143441671428
0.010980547205537648
0.010285665936297544
0.009896107019478536
0.011180993388857549
0.012940805796683975
0.011920585676809592
0.004480136539983618
-0.011038558508064044
-0.03202636572514942
-0.05038250875896808
-0.05326295147997866
-0.026250709169319947
0.04148579343649795
0.151575346385557
0.09270821541777809
0.04101688394700321
-0.0345440859528857
-0.16312560298183573
-0.16248062974286162
-0.03288495298750212
0.04292680054421022
0.09381439872875509
0.15086202853383282
0.038405917399035636
-0.03134423856555857
-0.058856729087534206
-0.05392274738242661
-0.03058353617716563
-0.0025187399984575574
0.01984127760274801
0.030344879395917165
0.02694325886887931
0.011174963783980441
-0.012125548131419831
-0.03489767120567029
-0.04620832310059876
-0.03354885218102894
0.014601876851143029
0.1053542208678695
0.03827576954239798
0.003940750260703614
-0.01501381933055132
-0.04061064955789464
-0.0953192286359794
0.0014696478956056716
0.035130648536574896
-0.004482861410689576
0.07558361596154779
0.07029345179387073
-0.02305261111707673
-0.0027895450283219113
-0.06002152649777172
-0.17667953797828873
-0.12639868194282902
0.12089744252353737
0.191884978858654
0.3035885086559259
0.06210278280161241
-0.13153359521450866
-0.27018421097218565
-0.3299650399593978
-0.26709118642793483
0.17350869185474435
0.43925949969777706
0.3480192804561272
0.07309309640762056
-0.05744688494859733
-0.14609943291180047
-0.3013999060788331
-0.2124730136106236
0.0689575781775466
0.134498987446931
0.013178523349407433
-0.04254176260938333
0.026076783040026794
0.06805012001944544
0.11124488586022277
0.15815824312228421
0.19037796324722428
-0.2189444802980122
-0.2882748866005912
-0.21285486143471366
-0.15861788036060268
-0.06882051229935185
0.31791161121362277
0.4448041659305836
0.3190498999381227
-0.09285948448710263
-0.2538315180002992
-0.23341868460187262
-0.2832194852512868
-0.2204226772333954
0.1745857140394561
0.3468995684571713
0.1479861353259002
0.01712022925911054
-0.029993803466878813
-0.0029780732349053277
-0.1305295196975518
-0.049951251465253185
0.003527049337363282
0.004696096651079546
-0.057799784248203576
0.01827041956930338
0.04529307933625091
0.04067685990814318
0.021676361508412983
0.0015821799377108887
-0.011996370703980727
-0.01684740321992281
-0.01455371341245506
-0.008449142620864743
-0.0018637286186924576
0.00294264873246325
0.005101339878146715
0.004896022075872794
0.003249480958465841
0.0011991637047844355
-0.0004700486614515181
-0.0013789363144224894
-0.001523889993325337
-0.0011404772534892992
-0.0005423508452990476
5.134097366518816e-06
0.000349882710988386
0.0004588747672808626
0.00038472537106865366
0.0002178280426207699
4.429482684278011e-05
-7.932157992799424e-05
-0.00013280517527189268
-0.0001252346597808645
-8.139318680574227e-05
-2.8272449717013808e-05
1.4155256969023423e-05
3.658701517826176e-05
3.937174709966342e-05
2.8856674741637674e-05
1.3205153850800489e-05
-8.158639124739207e-07
-9.433094577973966e-06
-1.1944070777945006e-05
-9.808397974896192e-06
-5.398567544081506e-06
-9.248865302145955e-07
2.1941879659583424e-06
3.4835438409647942e-06
3.2131119363640034e-06
2.040069370732705e-06
6.616945009549489e-07
-4.167897974239543e-07
-9.69222927027994e-07
-1.0165404472554552e-06
-7.294970101156667e-07
-3.2039797453246883e-07
3.8362792165097446e-08
2.534018146868179e-07
3.104479617458855e-07
2.4973769429761997e-07
1.3344977390076318e-07
1.8257686289009898e-08
-6.032090615908893e-08
-9.122999184873265e-08
-8.233912246224446e-08
-5.1038876321229455e-08
-1.5321071958148316e-08
1.2052913481619105e-08
2.5611294796172187e-08
2.6201647040014116e-08
1.8406025722710958e-08
7.740078542830115e-09
-1.4113382176559248e-09
-6.748617091058912e-09
-8.011229161001693e-09
-6.311622912133332e-09
-3.2832100694330243e-09
-3.754290597352401e-10
1.538174006256445e-09
2.2297768878005658e-09
1.9579624633229263e-09
1.2084927752638467e-09
4.487640104367267e-10
-3.347273358878408e-11
-1.8355872899424052e-10
-1.3814992597722147e-10
-1.2132429585822698e-10
-3.1902364825910315e-10
-7.716595275488052e-10
-1.3198297220814356e-09
-1.6290424866315114e-09
-1.303320605670344e-09
-7.189389235444315e-11
2.000592519418079e-09
4.36307669059322e-09
5.985532889297349e-09
5.605154341609217e-09
2.2239424644250307e-09
-4.242548853727046e-09
-1.2395663592909505e-08
-1.9187185289733924e-08
-2.046936192552853e-08
-1.2404518045049078e-08
6.462096143222919e-09
3.3102506879894514e-08
5.889768992637539e-08
7.064157991376046e-08
5.438808437313531e-08
1.895113116704789e-09
-8.200271112172379e-08
-1.741868385724794e-07
-2.3403595923365568e-07
-2.1328621447025184e-07
-7.53808048397239e-08
1.7971893031648272e-07
4.94318267137613e-07
7.479120113894364e-07
7.801146754127897e-07
4.465537439385145e-07
-3.00686420395226e-07
-1.3334643133603988e-06
-2.3085428030795346e-06
-2.7118946003380967e-06
-2.0128925317375954e-06
8.382265946114533e-08
3.356227022768045e-06
6.874025659241843e-06
9.046016824622429e-06
8.020654723327182e-06
2.447413720095538e-06
-7.566840038814945e-06
-1.9664598823171147e-05
-2.9093194400597725e-05
-2.965677502485121e-05
-1.5932066562334616e-05
1.3610510973659326e-05
5.359301929853068e-05
9.037101448018087e-05
0.00010395964905147793
7.420241206538991e-05
-9.395005964370728e-06
-0.000136884688531114
-0.0002709137402927946
-0.00034922587613970066
-0.00030088798587592127
-7.621144172780225e-05
0.00031642857933430264
0.0007810168941731599
0.0011303447023498277
0.0011253338524210056
0.0005627470092054948
-0.0006038553734315655
-0.002150218941169644
-0.0035347768328212155
-0.0039813070594509675
-0.002725114454066767
0.0006037679199682243
0.005569843154731365
0.010680580936839294
0.013510747949859958
0.011359972104812134
0.002429228824557295
-0.012762913043804084
-0.03028589967923955
-0.042758897819520685
-0.04101957231319971
-0.017708714297010496
0.027805507436611095
0.08467177479033301
0.12817471540163736
0.12192453880728392
0.025724005101367593
-0.19191999589599487
-0.14018010927554517
-0.196346801932116
-0.10505507263795683
0.011655643485850612
0.23542160393784203
0.22948536194901242
0.22098637816855085
-0.00605806242875307
-0.10464769461330166
-0.14807481300759576
-0.20884167760214598
-0.14053117053804606
0.03187628735117905
0.11143122360270558
0.12051039175433993
0.08865475623711604
0.04192543524773486
-0.002911136922460428
-0.038580824447871906
-0.06334057131066452
-0.07560513030304386
-0.07004429142100846
-0.03714848959201407
0.03331832700388917
0.1463548338174897
0.09600296131191792
0.06292545869241391
0.017211436346182704
-0.07384995333218294
-0.23560570841906286
-0.07743475049090327
0.010684966145724917
0.05490715179478217
0.08887891790970415
0.14323966412792152
0.03726166137720796
-0.024552757281868957
-0.050283682861775494
-0.05435501776370928
-0.050063564349484925
-0.04373965065649309
-0.03247830708409113
-0.005993538414480164
0.04827710967552521
0.1388427552963106
0.06517801782934889
0.016265476623954916
-0.02658415694677793
-0.08383784690274318
-0.17158233820716393
-0.09837861814039915
-0.06737128485016107
0.116468297565708
0.23700317351376077
0.2606951747891051
0.1387141364486468
0.01991676553466023
-0.3275728784496778
-0.49333836628149197
-0.20979275173214507
0.6467892649918099
-0.7628819880135815
0.12568497858203964
0.6418870883297393
0.44590855812069513
-0.49030439079135424
0.7199749610754819
-0.09625230136128551
-0.5303440116707643
-0.5465599599075033
-0.24626363183964448
0.1472962800280371
0.2803899843569133
0.24217610634122647
0.13135399455679522
0.02736176095039368
-0.026779724441773768
-0.02811166908910087
-0.005992332880869657
-0.0070835551993159015
-0.07764702584718366
-0.04740416111907954
-0.11853494721240872
-0.06233624734031999
-0.024476425405749187
0.062261332379836304
0.06094233775223443
0.21382187466475364
0.1309780147621982
-0.012178001153026035
-0.06765138949436096
-0.10026793012363323
-0.17058339000474784
-0.12076248810535258
0.03251256083211904
0.09683442916034514
0.09632531227834186
0.061103133726977524
0.01789576676401476
-0.015624948705903545
-0.03216854771538853
-0.03277945865137582
-0.023147483940421786
-0.009950903317925244
0.0016638580909570735
0.009092709013886171
0.012008653852241005
0.011393905475391026
0.008496856687770999
0.004180329531534452
-0.0011460087663384567
-0.007102464916197542
-0.012739390966456656
-0.016175333911660632
-0.014837935926266541
-0.006466489661672486
0.009293318279500529
0.0292393916138509
0.04571583908028264
0.047287720190259105
0.02142878736505699
-0.04111526564409549
-0.14159558061179578
-0.07016445859250282
-0.006274236311087598
0.07679096097144515
0.004435420143325292
0.1929679855363269
0.04448458549120694
-0.05358625897463711
-0.1241704227338974
0.006675353111295191
-0.08297131158527092
-0.0060651738007341865
0.03468362539787391
0.04488819275754346
0.03475037700362794
0.015201287761613948
-0.004804666156871032
-0.01938005240722862
-0.025502201214060476
-0.022276533379697858
-0.01041026626273499
0.0077319063479359225
0.0276524917467317
0.04244275234961799
0.04347415858357333
0.022557182036173573
-0.024633689704589852
-0.09498966529230499
-0.1761038693227903
-0.04795776514108786
0.11116617593716145
0.11600695540501356
0.16640509153079758
0.24428426775641504
-0.08186283921122497
-0.2457058830353109
-0.2694548009129749
-0.15439265629065738
-0.0809570517646317
0.1803823665547216
0.2514216188457399
0.32943428724868734
0.1795271337717641
-0.05886707339860599
-0.2521650403517502
-0.24618670459595415
-0.24313234221689636
-0.19130733411555553
0.007447803239322892
0.27386029265234374
0.11785732371652548
0.20604613321361667
0.14021093000065957
0.2537926153292699
0.02840485784160819
-0.072985045845236
-0.36466423768494266
-0.5005942922294372
-0.253080709279351
-0.11619614225352287
0.2652939520410661
0.24970859311181923
0.7497016687252686
0.19715565001111338
-0.06671912532263355
-0.3736048511507156
-0.08993076831376633
-0.3718245790091834
-0.12700658301851037
0.00682300846137985
0.06389083890670118
0.1353182268286314
0.14387839464732263
0.016464590853984953
0.06094426613959364
0.1514644331500722
-0.07659990574942606
-0.2233883985718356
-0.11616135306467988
0.0005257199800290529
0.2736636100534745
0.6495710874317826
-0.9182736479591594
-0.2618223840135363
0.20522431519243248
0.08373393850901525
-0.42193548572689765
1.082262116141507
0.1705424291016048
-0.40229649563857584
-0.48979759341834195
-0.13759329048154842
0.029514204026526616
0.21142085921608653
0.22787461062728634
0.10977092188387123
-0.10813016593407966
-0.19065013837776879
-0.1029285544349249
-0.011345662844875778
0.11332502236479765
0.09089739832020648
0.12728854102941436
0.013310378727525224
-0.07194688922594221
-0.1540782764777928
-0.05540470199788919
0.010840334951235224
0.042343740394417836
0.04568732086295554
0.03208840754873498
0.012941189593137609
-0.0033373980141223254
-0.01257210441146565
-0.014431149134232329
-0.011047843396934222
-0.005418500383173773
-0.0001389047288933686
0.0032615337070517245
0.004405104857196145
0.003759619884701616
0.002180961283543626
0.000502866445493292
-0.0007154558392598572
-0.0012632002942392874
-0.0012159245791488436
-0.0008069116424758006
-0.00029654414259653927
0.00011882322916830481
0.0003445704328799821
0.00037995239238112637
0.0002838551863455605
0.00013453460128637948
-1.8989135843244018e-06
-8.763405024288783e-05
-0.00011455560874155932
-9.586857174953611e-05
-5.415026001087869e-05
-1.0867994843443818e-05
1.990732483795326e-05
3.317247765307767e-05
3.122184828218365e-05
2.025185283320906e-05
6.995673691639765e-06
-3.573451752578818e-06
-9.146653775542778e-06
-9.82087600841128e-06
-7.18508430470606e-06
-3.2768251560339223e-06
2.178791680432466e-07
2.361173876375089e-06
2.9810456581525398e-06
2.4436969231575002e-06
1.341688845995299e-06
2.260329702976933e-07
-5.503685970554939e-07
-8.700091016498043e-07
-8.009671459977779e-07
-5.075197521412403e-07
-1.6358667191059395e-07
1.0504360334313068e-07
2.4226113983516957e-07
2.5354083062697916e-07
1.8161746727739334e-07
7.947583269609392e-08
-9.935722167126995e-09
-6.34116712911542e-08
-7.747461142246694e-08
-6.221423042249496e-08
-3.315842043753924e-08
-4.434045838154168e-09
1.5123628225807894e-08
2.2782596462067937e-08
2.0524531392691065e-08
1.269569659833709e-08
3.783248937069974e-09
-3.0357154026896296e-09
-6.403725608509878e-09
-6.537952259445399e-09
-4.5841833333828915e-09
-1.9184933091427163e-09
3.6642705442421447e-10
1.697923562868638e-09
2.0109574312797565e-09
1.5819585788812844e-09
8.17219560911356e-10
7.850973701898946e-11
-4.133819477361336e-10
-5.957179183754233e-10
-5.253290000720978e-10
-3.169802905425159e-10
-8.630748103074249e-11
8.656102021125677e-11
1.689497102255033e-10
1.6839743060919023e-10
1.1553739677942071e-10
4.606331687787004e-11
-1.225933436058687e-11
-4.533956224873944e-11
-5.2132675618277336e-11
-4.017464684285939e-11
-2.0080859673910354e-11
-1.1050150190639044e-12
1.1246314408891322e-11
1.5554598297866542e-11
1.3430303077824064e-11
7.898274643327178e-12
1.9350679777869264e-12
-2.4414828036265438e-12
-4.449375324179477e-12
-4.332414063787043e-12
-2.9074468743510686e-12
-1.0991945020631258e-12
3.8771832345826103e-13
1.2076500218737115e-12
1.349881388319226e-12
1.0189541174371393e-12
4.918325375894138e-13
4.941085004547513e-15
-3.046701019293524e-13
-4.0556456710757746e-13
-3.429344125725039e-13
-1.9636555816715345e-13
-4.238931822204953e-14
6.826016513749361e-14
1.16991813624466e-13
1.1134988208258215e-13
7.306297449418747e-14
2.6059152989487588e-14
-1.180321444511856e-14
-3.2074982832231015e-14
-3.4895245294876995e-14
-2.579383360131047e-14
-1.19871671896272e-14
4.914276598694626e-16
8.238557755225567e-15
1.0576154906511872e-14
8.762008634630363e-15
4.886590058874138e-15
9.153783342982619e-16
-1.8781208977724107e-15
-3.0553518394983183e-15
-2.842816669573927e-15
-1.8171964240844605e-15
-5.969201137607322e-16
3.6600953776695096e-16
8.658400878234033e-16
9.167900291857648e-16
6.678283121408674e-16
3.067334319412004e-16
-1.2713908797037412e-17
-2.0619745300313496e-16
-2.5964574041838886e-16
-2.0782175691536313e-16
-1.0554795620673915e-16
-3.2441639939794897e-18
6.71776879594505e-17
9.546728003562587e-17
8.827674456368979e-17
6.087874734252987e-17
2.9238095570257977e-17
4.779309373574398e-18
-7.508362006675069e-18
-8.26328931281342e-18
-1.485596574273886e-18
7.94482058643243e-18
1.6113076150308587e-17
2.0935643860328197e-17
2.213746615406374e-17
2.0673543691871904e-17
1.797938926248362e-17
1.5346925023607893e-17
1.357436367582277e-17
1.2898625829401902e-17
1.3127602959864243e-17
1.3857627476093676e-17
1.4677043951281513e-17
1.529750734761617e-17
1.5598609189785796e-17
1.5603747396725837e-17
1.5420015707133322e-17
1.517407090782659e-17
1.4965453286669676e-17
1.4845506284407665e-17
1.481906713991867e-17
1.486003844028525e-17
1.4930887053586495e-17
1.4998547807314145e-17
1.504309313959454e-17
1.505912208364469e-17
1.505210937134661e-17
1.5032704050776092e-17
1.5011508517319472e-17
1.4995789551616583e-17
1.498843739495495e-17
1.498867183185936e-17
1.499363349744626e-17
1.500003909083533e-17
1.500536088688116e-17
1.5008337451325467e-17
1.500890192847163e-17
1.5007764166121953e-17
1.500590411396511e-17
1.5004167052464835e-17
1.5003049471755386e-17
1.5002672350583104e-17
1.5002881342830636e-17
1.5003396022692663e-17
1.500394363273256e-17
1.5004341320274486e-17
1.5004520136974276e-17
1.5004504706019455e-17
1.500437117880121e-17
1.5004204564668978e-17
1.5004068969674834e-17
1.500399528365083e-17
1.500398374700497e-17
1.500401513210039e-17
1.5004063888777833e-17
1.5004108433560518e-17
1.500413642312101e-17
1.500414520969536e-17
1.5004139105918714e-17
1.5004125483751713e-17
1.500411135214463e-17
1.5004101304788542e-17
1.5004096974716948e-17
1.5004097612419186e-17
1.5004101194572912e-17
1.5004105522788933e-17
1.500410897341998e-17
1.50041107927747e-17
1.500411101263666e-17
1.5004110151878965e-17
1.5004108875777373e-17
1.5004107734792428e-17
1.5004107035089072e-17
1.5004106832786944e-17
1.5004107008292808e-17
1.500410736812526e-17
1.5004107732383413e-17
1.5004107985856948e-17
1.5004108090193282e-17
1.5004108067630005e-17
1.5004107971808226e-17
1.500410785951261e-17
1.5004107771809982e-17
1.500410772701619e-17
1.500410772334033e-17
1.5004107746827604e-17
1.500410778017812e-17
1.500410780936995e-17
1.5004107826827674e-17
1.5004107831417005e-17
1.500410782643294e-17
1.500410781694557e-17
1.5004107807567188e-17
1.5004107801182185e-17
1.5004107798682217e-17
1.5004107799420012e-17
1.5004107801976402e-17
1.500410780488634e-17
1.5004107807112592e-17
1.5004107808212045e-17
1.500410780825569e-17
1.5004107807617675e-17
1.50041078067473e-17
1.5004107806001303e-17
1.5004107805566628e-17
1.5004107805464483e-17
1.5004107805604595e-17
1.5004107805854297e-17
1.5004107806095482e-17
1.5004107806256065e-17
1.500410780631557e-17
1.5004107806292565e-17
1.5004107806224522e-17
1.5004107806149205e-17
1.5004107806092776e-17
1.500410780606591e-17
1.5004107806066128e-17
1.5004107806083424e-17
1.500410780610613e-17
