0
1.6302565706165197e-13
2.6951798284303848e-14
-2.0127227398664217e-13
-4.626603623753297e-13
-6.476450126828524e-13
-6.20715449498736e-13
-2.721414810878694e-13
4.1298558587611846e-13
1.2923683302508124e-12
2.045382711965481e-12
2.2275812231500182e-12
1.41785384911085e-12
-5.604953353084178e-13
-3.4108036375494928e-12
-6.234498587309006e-12
-7.624563952864565e-12
-6.063826805427944e-12
-6.087099951500957e-13
8.312822835494169e-12
1.8316090851280626e-11
2.5099171471205e-11
2.34501407268761e-11
9.287412633219679e-12
-1.7672696662178667e-11
-5.157174412406542e-11
-7.973122792581741e-11
-8.49422137763205e-11
-5.131661211691654e-11
2.711621871283758e-11
1.3771063585250857e-10
2.4463124970516636e-10
2.9305321793956476e-10
2.251588733092394e-10
6.894209460317252e-12
-3.414555105179969e-10
-7.237225101272231e-10
-9.71205192910903e-10
-8.837065273516361e-10
-3.099139143775708e-10
7.496571297273814e-10
2.0547912852070408e-09
3.1048267790949305e-09
3.234219558792608e-09
1.8448329063235603e-09
-1.2601644348171723e-09
-5.546366053238211e-09
-9.587060211049797e-09
-1.1248418067226014e-08
-8.330651252630273e-09
3.861767522071662e-10
1.3972206987413885e-08
2.8558228752045574e-08
3.753640723545343e-08
3.322716422351205e-08
1.0041742973051206e-08
-3.154997166949543e-08
-8.173439783168691e-08
-1.2076719962963177e-07
-1.2293954308247925e-07
-6.578590470323273e-08
5.6961985715399537e-08
2.2288463795035882e-07
3.7527227482830694e-07
4.3116931231831986e-07
3.0702252351169043e-07
-4.048927862460758e-08
-5.697538373616381e-07
-1.125434737617059e-06
-1.4490150337675643e-06
-1.2463099969583071e-06
-3.117440961142195e-07
1.3189060578110275e-06
3.2460548204726695e-06
4.6920646569687305e-06
4.6650472420250725e-06
2.3233265437847414e-06
-2.5225798069681743e-06
-8.93802666389413e-06
-1.4672373231972771e-05
-1.6504295592098802e-05
-1.126589971816752e-05
2.5650701035190528e-06
2.315985716971547e-05
4.429490777081131e-05
5.586807965327378e-05
4.662591459768491e-05
9.041293761898335e-06
-5.481417764450278e-05
-0.00012871971295873102
-0.00018208666964009612
-0.00017669376246931103
-8.109324581916594e-05
0.00010995898638284952
0.0003577086833271913
0.0005729624596910609
0.0006307650264407577
0.0004112186962077492
-0.00013849708095609877
-0.0009391630949338676
-0.001741915077240474
-0.0021523933964841886
-0.0017405620631991004
-0.0002317465457727515
0.0022682114589119735
0.005104997973724957
0.007081272952827232
0.006733770760458266
0.002903408129698035
-0.0045126230485602135
-0.013893066467236021
-0.021691202768151917
-0.02307986541476254
-0.013638218077850173
0.00810261421349034
0.03793044216101613
0.0641398900862617
0.06784620443140373
0.026204276495767627
-0.08169904421829162
-0.06781814952839775
-0.1295152798453314
-0.0478711798616523
0.008702023080621553
0.07622845674790722
0.18505112201140944
0.15166661786085583
-0.024187184985079574
-0.15608087181366842
-0.06288504091574716
-0.16008860393805374
-0.05442361991732154
0.056069552463948305
0.17717127926510398
0.11181160648173444
0.05544436203936414
-0.003834668823983549
-0.08025794491708696
-0.18287293056836468
-0.1093976067357715
-0.0449125252560911
0.033234593611472796
0.14589470519211076
0.3020505855518687
0.09313163071943262
-0.10492474260756574
-0.12201810244101728
-0.18062749749044163
-0.2850192851093522
-0.018160739386090315
0.25180352766788067
0.15808575085459795
0.12070373507195857
0.13721274120348803
-0.01744185134553667
-0.18214799005836635
-0.19578365003402343
-0.08403473534882928
-0.05197512595908907
0.11527018920225765
0.044982112259454636
0.16624964235408232
0.10090699355287645
0.05946517997217883
-0.15695391040741347
-0.15050449742071637
-0.12015028694511264
-0.05878386612099429
0.04407548822396825
0.19505830250736692
0.18885282751443738
0.0037473797099436632
0.0039047125374020147
-0.05151848049431155
-0.1953371324715144
-0.04002883738585645
0.029366982470552676
-0.1456579873193815
-0.10644515499575978
0.00684948860047801
0.23659702766475327
0.39213575395324224
0.24369532357941928
-0.06988952347859091
-0.22044255370342297
-0.463585102770781
-0.4165469363037288
-0.05056646683874801
0.29802555309750417
0.5021767538248949
0.21451871813785467
-0.15444843190630259
-0.2430069930015367
0.2711373709772037
0.6923410091781945
-1.0652438919219247
-0.2508641654648501
0.1402488650827589
-0.23232062091818098
-0.6718753925359904
1.3245820954444505
0.6338859593633362
0.08636716465381263
-0.3326986438252119
-0.46065885307421417
-0.5259669257835253
-0.32407227782778253
-0.01299623876527054
0.469092756675765
0.3725497086443203
0.5058391721483405
0.22031366051298415
-0.1823679377592458
-0.6228310956470818
-0.4080321389441283
-0.20153661853154287
0.1889883776989382
0.4047566686275167
0.3155455436750227
-0.003820600977933566
-0.2921383061277155
-0.3131006307688911
-0.06124064964056824
0.23481724601923049
0.5122961341703272
0.28136286117356524
-0.15663493603765474
-0.28039590151520427
-0.31658331734662265
-0.41595819982725546
-0.04838237037474133
0.17833929792540007
0.07858828816345971
-0.16258189919541577
0.16012211874924154
0.635972357421696
1.3276918620799982
-1.0059504814237594
-0.2557507155086822
-0.08886506183353025
-0.47810788689295597
-1.2551910526590042
0.8980256267740654
0.21762796441789733
-0.20564227085508407
-0.10364545169757032
0.297317551868272
1.0275553581321109
1.5623220645133018
-0.9444025263563711
-0.7855535076251101
-0.8080756405234518
-1.1348988187427356
-1.1321896368203668
1.5651336803912472
1.1808629378516469
0.7093157819597142
0.44857617566807806
-0.21975608294831525
-0.6014141444918384
-0.6282596396912655
-0.3924369303344514
-0.3015463222437426
-0.07010594052219277
0.051147677691746
0.01889625911223492
0.53297697363914
1.1870561200425322
2.0552148604443543
-1.874151593927029
-1.0239735717438496
-0.9413192832909023
-1.0353588613671862
-1.1695483811499634
3.2873488005687
1.174281556075615
0.05409797779353732
-0.633004603494877
-1.1680398933977467
-0.9178423374472587
1.1106922547878588
0.9111767089331669
0.311929095378503
-0.19046134165218934
-0.9981547031954883
-1.3911838927737243
-0.3358335890405485
0.6679332777226281
1.3081054574515494
0.9772856390716556
0.3163745365784646
-0.19314069938008732
-0.987642428726025
-1.1497511225014605
0.06541676285642763
1.883392196020897
-1.765994989694281
-0.051489975122475266
0.7371722127034398
0.35415520749935375
-1.442528813571488
1.6728757436413022
0.3696475284427219
-0.3464232413235173
-0.9221911111937977
-0.4346762084273609
0.6325239336270368
0.8066152116775538
-0.36280865999029255
-0.0935760625384719
-0.16094627368594186
-0.4924941042010309
-0.5748856404203628
0.5237359470590136
0.7192837118133393
0.07614987088197246
-0.015607129474486064
0.3595948666817348
1.2669166418750817
-2.4380765618831908
-0.6669922450837577
0.12648610924004688
0.3409303215061182
-0.6076266812411024
2.468259467267832
0.6959285540492967
-0.25285497156183545
-0.9156043495417281
-0.7667429419748529
-1.1504798808581107
-0.25069749156402277
0.2848530748633534
0.6701787927645777
0.27936531978559853
0.9495456197785959
0.5179736622103401
0.011199117747349671
-0.7116812022212243
-0.2754036689494537
0.7115415203398319
-1.6524166262850832
-0.5020530811299062
0.410263612162906
0.28337215904474566
-0.6002920333408542
1.6419804143046108
0.41826976673732075
-0.18427063443400404
-0.2070639931546373
-0.39251607728937404
-0.3354526705313031
-0.031177790395713716
0.1662360821782637
-0.031029810283741306
-0.03648844838267614
0.004638192305454656
-0.0010668918858935587
-0.11871998366904549
-0.012087546408706218
0.23015167918484336
0.2736881614812702
0.1283208103884697
-0.048671768092004714
-0.13614253351810246
-0.2246653306153951
-0.1918321275930002
-0.0847069580304566
0.08619380603236747
0.14145961199387153
0.11981807408932023
0.06335255400770641
0.005898672958466614
-0.032758746242300144
-0.046907439019834705
-0.04099427071593018
-0.0242479939858333
-0.0059290056244909305
0.007614974157673355
0.013871395857985741
0.013537950616937989
0.009122324645189835
0.003491597370588918
-0.0011567750881872846
-0.0037362435710238057
-0.004203183190607622
-0.003188137315677039
-0.001551946544931858
-3.290119462545493e-05
0.0009383987126996612
0.0012602881579477213
0.001070928637753188
0.0006171488089559184
0.00013757131696217484
-0.00020877893780843216
-0.0003628274077888951
-0.0003471615405517739
-0.00022899533459413702
-8.282026505305026e-05
3.549600432195417e-05
9.929087348981365e-05
0.00010869503456332618
8.075159432997975e-05
3.78903285497477e-05
-1.044808106737368e-06
-2.5354775071481952e-05
-3.283036948643805e-05
-2.7323125258434927e-05
-1.531843459316238e-05
-2.945924802051832e-06
5.801256017010834e-06
9.52695775522522e-06
8.913606628379591e-06
5.7460269024062684e-06
1.9500193763036574e-06
-1.059927360084197e-06
-2.6339252010085188e-06
-2.8085300195051023e-06
-2.043238372985731e-06
-9.218751154026946e-07
7.511896018569022e-08
6.825317912538128e-07
8.54034730048504e-07
6.9624160390159e-07
3.792939819045621e-07
6.047544335495405e-08
-1.6011119051668655e-07
-2.497581808387776e-07
-2.2860037431130235e-07
-1.4392961549564998e-07
-4.547423827566813e-08
3.1002318091033805e-08
6.972469250253614e-08
7.248391403972604e-08
5.162745981467133e-08
2.2332024110851184e-08
-3.1680222362973e-09
-1.8315018410827157e-08
-2.2188023566203883e-08
-1.7719840588285244e-08
-9.36716184825578e-09
-1.1611917641250556e-09
4.393122287672342e-09
6.537662842876898e-09
5.855999397089616e-09
3.598663580134771e-09
1.0482456281709413e-09
-8.923322094174507e-10
-1.841939606617096e-09
-1.868451860684046e-09
-1.3026741162014743e-09
-5.386044837936359e-10
1.1266068333140602e-10
4.895151071570961e-10
5.75346437799778e-10
4.504495654426678e-10
2.3134429356907363e-10
2.105021404633664e-11
-1.181760777089749e-10
-1.693475582930784e-10
-1.4939879641969694e-10
-9.130590499051575e-11
-2.7647618334162732e-11
1.9736857295094647e-11
4.2882588511895913e-11
4.5128237543526164e-11
3.558444936235169e-11
2.340004539341448e-11
1.3817358527262011e-11
6.9439468282381e-12
-8.384211839099101e-13
-1.3677416700302769e-11
-3.260096863027371e-11
-5.293625956419141e-11
-6.416553135603005e-11
-5.302207483802215e-11
-9.61150468973401e-12
6.502351678613127e-11
1.5284894191145367e-10
2.1803659887616753e-10
2.146592026785478e-10
1.0383754982927874e-10
-1.2274442642415549e-10
-4.2089058971682384e-10
-6.852138686315431e-10
-7.656528698507196e-10
-5.156098671864936e-10
1.3370177536893616e-10
1.094147161441962e-09
2.073017504750314e-09
2.5985649688447324e-09
2.148603033502136e-09
3.786036546985757e-10
-2.6053762066873487e-09
-6.037422883961178e-09
-8.486226033031828e-09
-8.174247617904254e-09
-3.6527738630696216e-09
5.293265403171343e-09
1.6823258545955858e-08
2.6754818777306044e-08
2.9265705312074864e-08
1.8811312050468257e-08
-6.9816980560353924e-09
-4.430506466835262e-08
-8.145772029097222e-08
-1.0003106315017412e-07
-8.008779619961297e-08
-9.100093943430518e-09
1.0757576640780376e-07
2.38958589623472e-07
3.288368710776454e-07
3.0882641096718795e-07
1.2500590150579563e-07
-2.2711494588624778e-07
-6.716912078102163e-07
-1.0432914809785944e-06
-1.1164267636076852e-06
-6.818163087858734e-07
3.410671838432021e-07
1.7895797343329853e-06
3.196915888524474e-06
3.845614316442797e-06
2.9756475644044948e-06
1.3427092699960083e-07
-4.422500148180299e-06
-9.444672779556546e-06
-1.2727360774824937e-05
-1.1643143293285928e-05
-4.191653577989286e-06
9.650642765555136e-06
2.677143650860029e-05
4.0636239977790415e-05
4.2522368106249926e-05
2.4547544173984866e-05
-1.595776993659261e-05
-7.210915245375957e-05
-0.00012531561688978183
-0.0001476468414623374
-0.00011017713212772994
3.336752690561935e-06
0.0001810884961552514
0.0003727582892808096
0.0004919545903153201
0.00043784897834286057
0.00013648274182238789
-0.00040719144059526356
-0.0010659434911290345
-0.0015819703176740254
-0.001618088677565649
-0.0008776664367178401
0.0007260040540330473
0.0029058114584993057
0.004926582303975245
0.005709399402608349
0.004166974985582951
-0.0002611295084199249
-0.007022231933984572
-0.014075992927594419
-0.0180479953550183
-0.015162023086094583
-0.002983386639486189
0.01734076775720763
0.03903102911255494
0.04873100037026989
0.02748493148754668
-0.046065875934755925
0.009206210022144197
-0.017817242305463284
-0.12657809819217664
-0.1038517509256491
0.07347214342470951
0.032382867192964356
0.19670561393792899
0.18221236114422257
-0.003472955646013914
-0.15581742116706845
-0.26595273290250737
-0.31591780570716255
-0.08123860220392826
0.2580300678010996
0.5020406963125272
0.6201188262552776
-0.24773221648942279
-0.3741311024992211
-0.41832578699414613
-0.40298320805580523
-0.3054924069577897
0.5313261057013094
0.5739019449521522
0.4703177788309223
0.03391744332801006
-0.3546460391708183
-0.5298310135142654
-0.319017613678265
-0.1280393950943086
0.25869875087319877
0.46541877925827335
0.5084526823014562
-0.013418743815571168
-0.3158333146032116
-0.4151263954665424
-0.3129754140554908
-0.18966881064711028
0.18845980947084062
0.4497758688968867
0.39543587290275617
0.18629125147873596
-0.05339387918692926
-0.21492784431055734
-0.37424204122271676
-0.3629326659533465
-0.15272007916278116
0.14039137505094468
0.23355866355443447
0.24430458497132407
0.2589463807319091
0.1124700649459831
-0.014707294308349097
-0.18384088760646547
-0.2749791985399599
-0.16309829466639778
-0.10166184235236267
-0.11840130070712339
0.17705040892161578
0.37890576792019864
0.27254111200937003
0.23132874269763748
0.02694160242357989
-0.34958792036686576
-0.6655377382334237
-0.6359948011342149
-0.33605265141214186
0.36228333972733834
1.13942767255697
1.9857473595648905
-0.609116187416594
-0.6235939821143439
-0.8381792538354502
-1.1646915944822673
-1.4036603649749886
1.350012595200128
1.2560682411409307
0.8577414017882798
0.42485879980051766
-0.26352884590514203
-0.6929602388593314
-0.7604106067274031
-0.5208943236315722
-0.1576055283603549
0.2132254345687906
0.5072996713363744
0.6237933646471354
0.6046468198673175
0.01836223836318599
-0.4260687502203173
-0.6427273868577488
-0.5269352347421283
-0.32644463596356543
0.36330444827357433
0.5809964681003132
0.5702573800446148
0.1554398224918817
-0.26617105290700194
-0.5142983919024368
-0.2058215834360962
0.06298532559684612
-0.07689078525674613
0.02576217506258082
0.024937819803864718
0.15616225685349405
0.21908453263729047
0.5709062788915447
0.13505210668889955
-0.5756427212507653
-0.6288361799251208
-0.44860004961250216
-0.20968489489820413
0.3454864258732059
1.0744942216537203
0.8038257854852648
0.11629951389284622
-1.0352452152717104
-0.8955969240064885
-0.4754255127405646
0.06071778643811377
0.3795750601218739
1.3466564881486047
0.5957357189551642
-0.08091140158321124
-0.9150989446124096
-0.9285443143706453
-0.7034074582356948
0.22269719943907146
0.7311259133353328
0.6772481116255039
0.6482061566821758
-0.05548077901160039
-0.40462622871881926
-0.5973323770328569
-0.0017632329736311152
0.09643967778661576
0.32918456018212294
-0.14267387963850903
-0.6436829471007091
-0.825391717836464
-0.5354731378843762
0.2918962863807844
1.5431358197998526
2.0613079609960834
2.0456204798393394
-1.666126100364894
-1.8449112078139938
-1.8958591931522975
-1.527405998578571
-1.1174735709961943
2.2077576252801454
1.8118073979240112
1.3643292913791807
0.9036111106831026
-0.009509696082762203
-0.638986384326595
-1.3511264748189307
-1.6732125668569173
-0.9861080480627402
0.11330837482477936
1.3739817289344585
1.2019157053075142
1.1645698839811935
0.5303403000764013
-0.7352786336507597
-1.5234950117492978
-0.7154134625694551
-0.5311347845434211
-0.3203307114555115
0.8023912282944486
1.4965487314559989
1.941756012571682
-0.9789314830348335
-0.8459240239591599
-0.8339045709273938
-0.8392012856676385
-1.2375765493757434
1.5093040713855153
1.0034030649551628
0.43960291513732475
-0.05543802441496792
-0.2541475454300781
-0.22446885614915574
-0.10091978776700032
-0.04410247416084972
-0.0006456496544321648
-0.07134551872889362
-0.09155623243774992
-0.02540842133587274
0.02632062154528473
-0.19350883438661584
0.07346520283673263
0.16948413058485443
0.19172924347045092
-0.027365573878567397
0.27481997396790303
0.20314474506054048
0.032489638447814696
-0.1544804144251352
-0.6296670600944987
-0.5948765896485152
-0.381765121888533
0.11894453943959844
0.20583328607124357
1.5114850024134125
2.168739233360771
-1.3806158126485173
-1.1309887243558319
-0.6318657821582903
-0.9162045000487016
-1.4715163475306865
2.1323327388207445
0.9696494025418673
0.2700347509809272
0.14853792533970944
-0.2228766310493254
-0.3995484397315756
0.18415480606722212
0.07805798555890349
-0.5223426261916094
-0.32970250899562054
-0.34409762703599467
-0.26309424142251614
0.27952525527831873
0.8575459296297291
0.5967125810419365
0.13863013654864104
-0.1640979380655095
-0.42228455270513016
-0.566644642351031
-0.3042421252239937
0.10990864101355259
0.2793818400241715
0.25396348078126413
0.10750295844591508
-0.0842146547749043
-0.05935290418005201
0.021997681781966746
-0.023561713388904636
0.00033823850727741374
0.07558999946171192
-0.023269822250333118
-0.12178434987968527
-0.03952119079369221
0.013416844226044269
0.03663275483059524
0.03689362389252864
0.024207893559265843
0.008110758193616162
-0.004752036382952778
-0.011410093142640876
-0.012022133703803282
-0.008615376979369363
-0.0037385660574335827
0.0005359905535464603
0.0030873963837115327
0.003746758635017698
0.00299961516253564
0.0015934075933100491
0.00020758723348849483
-0.000733721448904793
-0.0011004714706115046
-0.0009893953635847367
-0.0006106351697342611
-0.00018060340570094673
0.00014778531286017244
0.0003094700220548799
0.00031526408501193585
0.0002206177353251766
9.193454110689008e-05
-1.815700658152403e-05
-8.215485974223899e-05
-9.703096652634343e-05
-7.618695697147569e-05
-3.924108642905231e-05
-3.627588915860899e-06
2.0037674750072088e-05
2.876339340946349e-05
2.5315369550834626e-05
1.5239705040827824e-05
4.1122908495363105e-06
-4.210830352303634e-06
-8.164229048254947e-06
-8.119959610924226e-06
-5.559968704415058e-06
-2.2063657031967327e-06
6.037578799971772e-07
2.1938240097629203e-06
2.516105490402844e-06
1.9356046530448555e-06
9.646378960107985e-07
4.902131552514175e-08
-5.464062763084937e-07
-7.537228129486736e-07
-6.505957899480743e-07
-3.824849408823432e-07
-9.245445001993063e-08
1.2224432103973142e-07
2.231245476011191e-07
2.2023443165544864e-07
1.5071135423791222e-07
5.726021222581057e-08
-2.6421579086422065e-08
-8.121428730116445e-08
-1.0102503154444103e-07
-8.797138722007622e-08
-4.808451274434859e-08
1.0252127536977495e-08
7.513181738163311e-08
1.2920231838326145e-07
1.4995899270761132e-07
1.1474652002667697e-07
1.0969184809064907e-08
-1.5104786816552013e-07
-3.2821788373814433e-07
-4.4527949905336033e-07
-4.1208558595439353e-07
-1.5893369351725908e-07
3.171057423002053e-07
9.115539495904999e-07
1.4011657493326432e-06
1.4846224638957801e-06
8.855138301102401e-07
-4.969975728940859e-07
-2.4364665931365723e-06
-4.300646800466913e-06
-5.127403114787566e-06
-3.907314737474292e-06
-5.3670430801408684e-08
6.063013037529941e-06
1.2741941489820578e-05
1.701805083708912e-05
1.538939652428728e-05
5.231343550990853e-06
-1.3400746666999858e-05
-3.624324538354653e-05
-5.448285698814643e-05
-5.645925748113212e-05
-3.175913360101738e-05
2.2927906474494383e-05
9.805474383777323e-05
0.0001684581879379103
0.00019669486335172873
0.00014436507048977458
-9.519011114953357e-06
-0.00024808276845138326
-0.0005029226045927109
-0.0006578890204660936
-0.0005785694232679591
-0.0001678330319134019
0.0005648497699521789
0.0014465427680582228
0.002131768304661667
0.002173508858551886
0.001185773184785096
-0.0009295062115503176
-0.0037666568616319504
-0.00632673267321852
-0.0071770713538890675
-0.004936820830454301
0.0009411238910263152
0.009269348214069615
0.016424002750442104
0.016221034882546233
0.0006699213665710143
-0.038324385845154525
0.09346593672010003
-0.004729859844557536
-0.1264488829339194
-0.05715251331003771
0.024241642470736745
-0.058946920977934414
0.11255955230250016
0.14775976793815632
0.04167752985093897
-0.023959150634446695
-0.07555069193671517
-0.139851040947846
-0.03661922048017969
0.025613834080973445
0.04956080538801232
0.04574950953174817
0.027597285715164954
0.006999464921543389
-0.008310464557671818
-0.015355466752899982
-0.014945016482974234
-0.009958381661498957
-0.0036537898441511684
0.0014997939276365378
0.004306812254075678
0.004750410756466667
0.0035628581632364924
0.001718601400383046
3.689190392015236e-05
-0.0010213711089644437
-0.0013688788029511542
-0.0011814471579334647
-0.0007408547723350653
-0.0002970695758060875
1.1869323243862291e-05
0.0001733009763316369
0.0002599631638882997
0.0003621692863273708
0.0005210766614181419
0.0006886365042794789
0.000731588518272174
0.00048452011807399844
-0.00015891524619750423
-0.0011451534009354583
-0.002193545379893588
-0.002810793891485095
-0.002421532404175465
-0.0006134942844986883
0.002559569855639845
0.006333499926564417
0.009201458319516987
0.009231537656276257
0.004779662095122293
-0.0045250994200899935
-0.01685200963176108
-0.027792224396975037
-0.03105256169155827
-0.020526231166657208
0.006424750092579261
0.04528488489461246
0.08169887144244503
0.09139796724638045
0.0438825460568844
-0.09024707255530269
-0.13012559449914587
-0.07681457018563913
-0.11021903507751574
0.0072588672853599445
0.12071838340870912
0.0692449321691814
0.07319668925762106
0.12655072628303138
-0.002919609174536283
0.03483671317725833
-0.013028206443677628
-0.18509417426362818
-0.2913308634740355
-0.10651632516415944
0.025798235289992734
0.3798822068474772
0.4301349518739137
0.03594051783389036
-0.5664912270429752
-0.5661397303424263
-0.17791344253027203
1.1543225793771166
-0.24489255247196517
1.523350805370103
-0.6461232331252731
-0.8276049967327028
-1.8302003321089235
0.41552657400559967
-0.36379749577300063
2.5636429950826347
-0.32544145735859376
0.35067289450795425
0.2784133325591911
-0.3111466026838174
-1.5782385682690956
0.18890617974569957
-0.18697080232005892
-0.17102296819441357
0.047598352987999644
0.29492133580809726
0.9458160744824711
0.4727290886786191
0.025697004426692434
-0.550473071970475
-0.26901504089488193
-0.14088718081146911
-0.3203633570970186
-0.27086739508656354
0.24243956435832306
0.13464902821458463
-0.034840244052461604
0.0945621074310782
0.24524115462892737
0.27464380413915573
0.1671825903820953
0.046659968766004596
-0.19425052441467863
-0.4564107421735937
-0.40090910281292813
-0.23184699399595887
0.09823646150681531
0.26218092799486215
0.5213579481296726
0.2926858883830176
0.13271816143498244
-0.05445559696922921
0.01238017321712063
-0.5671077164148652
-0.4360160021138003
-0.1579147497929234
-0.019931935125459925
-0.061616263212250326
0.47891913289396304
0.5162557704404263
0.4825556610331457
-0.0815713615023019
-0.10649515321470963
-0.35005495036949386
-0.3459395054394553
-0.5613255769459421
-0.17768180288527977
0.09940312144272444
0.4057177229740744
0.6726250571725998
0.5875048398827374
-0.02504613463750304
-0.5963662178865363
-0.5884496700217181
-0.6658116572541004
-0.07983047720645291
0.9280712417635694
0.7106288569903383
0.20104964925491026
-0.08498220185421514
-0.42807556051487944
-0.6733603029815229
-0.20383964078183692
0.06693741119057699
-0.12317748671143608
-0.024276030460111113
0.27702051231490704
0.815959980555818
0.9315855017448088
0.4841019639026322
-0.4915938661201311
-1.3118331737702822
-1.9799678557740095
-1.166164587643565
0.3486212708561024
2.173643160846928
3.3952576547393907
0.30614889936139056
-0.38053870014774
-1.4288497649379617
-1.9297389410344488
-2.5673432118649457
0.6400050487264554
0.6978295622646138
1.1085520840036815
1.1083912789115868
1.3274823100490403
1.3200354828870655
-1.8159911382317893
-1.1422042107732906
-0.544118374754627
0.5967395588815971
-2.313480019530055
1.542421998690504
0.7594213354663666
-0.1617670645312621
-1.3014429686901938
1.7992953847260096
0.48141642775732685
0.1444304865193563
-0.33830130989879176
-0.7705965296797564
-0.36711805278451615
0.3098336749955746
-0.005119323299775774
0.3392468445317224
-0.09361285228433307
-0.6537147771843932
-0.8501672752711011
-0.01505589182180273
0.4217373701119763
1.4645992103712735
1.7178515239394567
1.6101706442507877
-2.114534715581807
-2.4619158091501996
-1.6574422039573036
-0.878355913548219
-0.08007359419363795
3.293095064993389
2.5629230643270247
0.7040471911599824
-0.8884658076382026
-1.9440125852058572
-1.6105639728160515
-0.7553311910807909
0.08119153497621646
0.8623107886733512
1.1814164516106924
1.1759802934383219
0.4686459735939126
-0.6415032244279455
-1.139048199212321
-0.826483707781216
-0.263341947433281
1.266931439327479
-1.043571530240525
0.6477486887979712
1.00030849796973
-0.137258284507898
-1.539374776913791
1.6011978290115814
1.090521935482863
-2.2442665252010587
-0.9372122947120441
0.11743323413501817
0.6405674713691197
0.12249291912192163
1.9757505073026318
0.31134396599480496
-0.6458166980963549
-1.1051924841215544
-1.2444810188532225
-0.1588738310561334
0.5529740547512998
0.7645484534747973
0.5754925861672199
0.26824898382850737
-0.11422900354777162
-0.36459798519061365
-0.48895908903793994
-0.281229331669956
-0.108045844086559
0.0886421948712263
0.3731842902123785
0.39115160647045133
0.14933300300109775
0.009948910297911265
-0.09815608814041395
-0.25568870015243256
-0.32562272509712087
-0.13258305729496178
-0.05614585152484923
0.16013411209891049
0.1880161749890091
0.29024845631482454
0.10142666874898722
0.020233140716427615
-0.18549832617949943
-0.1643339350528099
-0.1638690025424697
-0.016966834343585417
0.06439024202777112
0.08727165898833567
0.07060441435935655
0.036441867932337856
0.0029486720215159638
-0.01922802931844185
-0.02718010035600268
-0.023628760594873156
-0.01392587625862257
-0.0033838398685242747
0.004378820764377081
0.00794624423835586
0.0077367933392149205
0.0051971683210252795
0.001972035478366139
-0.0006826584903237263
-0.002149278193787913
-0.0024070839621691893
-0.0018197072185992546
-0.0008807086799677802
-1.2006778289111022e-05
0.0005413553832252874
0.0007226550053766694
0.0006120139617592945
0.00035115835189905364
7.660140308988663e-05
-0.00012100911161247827
-0.00020831172297472496
-0.00019859467866609139
-0.0001305194165453521
-4.6746211550555234e-05
2.0837068961408148e-05
5.710215453107951e-05
6.224261157065426e-05
4.608637087854103e-05
2.1492800773686635e-05
-7.705008154341475e-07
-1.4617091599549959e-05
-1.8820386040940052e-05
-1.5611299564146164e-05
-8.712786915610402e-06
-1.6309624787530512e-06
3.3585579637958086e-06
5.468337499640013e-06
5.098110500440856e-06
3.274133341974552e-06
1.099074409836444e-06
-6.19889035214903e-07
-1.5142467704713223e-06
-1.6079610580107142e-06
-1.1658546844580948e-06
-5.225737722573511e-07
4.74067714576101e-08
3.9327293911465294e-07
4.894834040344392e-07
3.977261578937937e-07
2.1564668564100774e-07
3.3193834416837076e-08
-9.260184178078125e-08
-1.4332204317112505e-07
-1.307232340961848e-07
-8.198865897523194e-08
-2.5586259399060917e-08
1.8080171497533067e-08
4.007176032106643e-08
4.149130058800202e-08
2.945145902636487e-08
1.2649672407721105e-08
-1.925958382356178e-09
-1.05479626722301e-08
-1.2714316907647573e-08
-1.0120406726493857e-08
-5.323339565987278e-09
-6.280967220066672e-10
2.5386221270378975e-09
3.750721296966494e-09
3.348093508058776e-09
2.0493148884315732e-09
5.884989872404101e-10
-5.193247405894723e-10
-1.0583490917131016e-09
-1.0693905483742893e-09
-7.429137395081319e-10
-3.0467977986626385e-10
6.761480131884921e-11
2.8209608720242724e-10
3.29842074488668e-10
2.5719976043633945e-10
1.3103481379820405e-10
1.0345451391138099e-11
-6.924529232913929e-11
-9.801293319462e-11
-8.565234528041349e-11
-5.1122676336332465e-11
-1.3332996342534584e-11
1.4735638461235132e-11
2.7900878655503562e-11
2.753090714440157e-11
1.8712048617800225e-11
7.297195272852722e-12
-2.200803922574755e-12
-7.524218099282471e-12
-8.546234837370114e-12
-6.527899813033928e-12
-3.2151843343288752e-12
-1.1645283296052337e-13
1.880619632531977e-12
2.557891844869293e-12
2.1888845853462916e-12
1.2729215380834344e-12
2.9649885477612616e-13
-4.137056289086222e-13
-7.34003760054313e-13
-7.077159356426194e-13
-4.70326942445656e-13
-1.7338995928892041e-13
6.863286487011557e-14
2.0044051558104555e-13
2.214097820807948e-13
1.657085540308674e-13
7.886398541384142e-14
-6.058438675690848e-16
-5.0628681194931555e-14
-6.642087501802123e-14
-5.562960623383201e-14
-3.138294070458206e-14
-6.183248938617754e-15
1.1761556489083548e-14
1.9520268442898235e-14
1.841448074366641e-14
1.204459288411491e-14
4.330197231619025e-15
-1.8293764413505638e-15
-5.084442641098161e-15
-5.486702092028408e-15
-3.95844534544626e-15
-1.685225323737198e-15
3.505142050947596e-16
1.6011953978800707e-15
1.9651456110014747e-15
1.6545378274558357e-15
1.0139664159325707e-15
3.643606290739691e-16
-8.839799784153164e-17
-2.7542216762537603e-16
-2.359869583177994e-16
-6.555901326684553e-17
1.3460936160346096e-16
2.911780841694872e-16
3.7133751676394667e-16
3.7815408336481554e-16
3.364381951217913e-16
2.770220119403625e-16
2.2493363833901404e-16
1.9372433008352058e-16
1.8545787027813007e-16
1.942859325282263e-16
2.1117754832118587e-16
2.2790405303870574e-16
2.393103371840231e-16
2.437935427031621e-16
2.42498270625102e-16
2.379506302921904e-16
2.327631599890411e-16
2.287884292483571e-16
2.268204677268397e-16
2.2673592725263596e-16
2.278694622023819e-16
2.2942025577940226e-16
2.307514883079214e-16
2.315286839784479e-16
2.3171296971487626e-16
2.3146463336882835e-16
2.3101999781955937e-16
2.3058980479053815e-16
2.303028952013774e-16
2.3019611228951464e-16
2.302366001341659e-16
2.303576467627035e-16
2.304919206501431e-16
2.305926939338466e-16
2.306408464203039e-16
2.3064068852050696e-16
2.306100120023891e-16
2.305695908869233e-16
2.3053560831565974e-16
2.305162962886707e-16
2.305122888639651e-16
2.305192148714936e-16
2.305308991809308e-16
2.3054195078855314e-16
2.305491558896446e-16
2.305516804235804e-16
2.3055045616739545e-16
2.3054724166040294e-16
2.305437702093236e-16
2.3054121866624276e-16
2.3054004482048335e-16
2.3054010873214307e-16
2.3054093589166163e-16
2.3054198805839266e-16
2.3054285450364386e-16
2.3054333325610596e-16
2.3054341741314077e-16
2.305432256520435e-16
2.3054291910281386e-16
2.305426355125045e-16
2.3054245487984554e-16
2.305423957183303e-16
2.305424318643808e-16
2.305425170439701e-16
2.305426066878253e-16
2.305426712031671e-16
2.3054269970120385e-16
2.3054269652328385e-16
2.305426742937133e-16
2.3054264694116823e-16
2.305426248763357e-16
2.3054261303761844e-16
2.305426113609733e-16
2.305426166370859e-16
2.305426246672523e-16
2.3054263193600583e-16
2.305426364564022e-16
2.3054263782823217e-16
2.305426367800706e-16
2.305426345275299e-16
2.3054263221533117e-16
2.305426305863866e-16
2.3054262989770975e-16
2.3054263001872363e-16
2.305426306143251e-16
2.3054263132449284e-16
2.3054263188570284e-16
2.3054263217766193e-16
2.3054263220821535e-16
2.305426320638399e-16
2.3054263185380007e-16
2.3054263166770763e-16
2.305426315547959e-16
2.3054263152339726e-16
2.30542631553366e-16
2.305426316128192e-16
2.3054263167238937e-16
2.3054263171345806e-16
2.3054263173001394e-16
2.3054263172589697e-16
2.3054263170998333e-16
2.3054263169156777e-16
2.305426316773115e-16
2.3054263167013254e-16
2.305426316696702e-16
2.305426316736019e-16
2.305426316790879e-16
2.3054263168384664e-16
2.305426316866614e-16
2.305426316873683e-16
2.305426316865212e-16
2.3054263168495484e-16
2.3054263168342184e-16
2.30542631682388e-16
2.3054263168199237e-16
2.305426316821239e-16
2.3054263168254803e-16
2.30542631683025e-16
2.3054263168338664e-16
2.305426316835626e-16
2.305426316835662e-16
2.3054263168345956e-16
2.305426316833165e-16
2.3054263168319494e-16
2.3054263168312493e-16
2.3054263168310935e-16
2.3054263168313307e-16
2.3054263168317424e-16
2.305426316832137e-16
2.3054263168323966e-16
2.3054263168324903e-16
2.30542631683245e-16
2.3054263168323375e-16
2.3054263168322137e-16
2.305426316832122e-16
2.305426316832079e-16
2.3054263168320806e-16
2.305426316832109e-16
2.3054263168321467e-16
2.3054263168321777e-16
2.305426316832195e-16
2.3054263168321984e-16
2.3054263168321915e-16
2.3054263168321807e-16
2.305426316832171e-16
2.3054263168321644e-16
2.305426316832162e-16
2.3054263168321634e-16
2.3054263168321664e-16
2.3054263168321693e-16
2.305426316832172e-16
2.305426316832173e-16
2.305426316832173e-16
2.305426316832172e-16
2.305426316832171e-16
2.3054263168321703e-16
