0
3.54489127872792e-13
3.544891284662972e-13
3.544891290913621e-13
3.5448912945826135e-13
3.5448912923633284e-13
3.5448912819317317e-13
3.544891263662027e-13
3.544891242008381e-13
3.544891225677966e-13
3.544891225808481e-13
3.5448912518900384e-13
3.5448913061319557e-13
3.54489137814796e-13
3.5448914427638646e-13
3.544891463840512e-13
3.5448914057194063e-13
3.5448912510748717e-13
3.5448910200933997e-13
3.544890782298602e-13
3.54489065092548e-13
3.544890752487574e-13
3.544891172136027e-13
3.5448918876875145e-13
3.544892718256341e-13
3.544893321282479e-13
3.544893267510683e-13
3.5448922022148084e-13
3.544890063272408e-13
3.544887281616076e-13
3.544884855046335e-13
3.544884185524829e-13
3.544886622849376e-13
3.5448927691711736e-13
3.5449017482862996e-13
3.5449107793620507e-13
3.544915441877074e-13
3.544910902409814e-13
3.544894056977835e-13
3.544866064557757e-13
3.5448342502737464e-13
3.5448120744641983e-13
3.5448160602469066e-13
3.5448594283535697e-13
3.5449436649018127e-13
3.545050977875256e-13
3.545141875731253e-13
3.5451620344847833e-13
3.545060460362204e-13
3.544816553432513e-13
3.5444679011620964e-13
3.544125528386121e-13
3.54396180754447e-13
3.5441611184113736e-13
3.5448359517667075e-13
3.545929745261753e-13
3.547146634713567e-13
3.5479583632363833e-13
3.547729728062639e-13
3.54596954549268e-13
3.542656308423639e-13
3.538521400301289e-13
3.535125656861603e-13
3.5345715972738396e-13
3.538781673720374e-13
3.5484463349985016e-13
3.561968667651836e-13
3.5749237284634095e-13
3.5805977620616733e-13
3.571968366035852e-13
3.5449861122202157e-13
3.502295786074953e-13
3.455818516645016e-13
3.4262611013531964e-13
3.4380107880710975e-13
3.50925303651909e-13
3.639409677813816e-13
3.798532855151249e-13
3.9250168035116926e-13
3.9375830771847365e-13
3.763917435175822e-13
3.3815107368743824e-13
2.857660286198969e-13
2.3684309213848384e-13
2.175019059436589e-13
2.5444432852233533e-13
3.6213320284485504e-13
5.285608963067576e-13
7.058025993485683e-13
8.127871138883733e-13
7.560110456269806e-13
4.684029714869864e-13
-4.228058911591493e-14
-6.538452731690789e-13
-1.1234552413248282e-12
-1.1372831118913713e-12
-4.2396419849482244e-13
1.0870232966292657e-12
3.1140284006858564e-12
4.957618179407223e-12
5.602777604067144e-12
4.0359540730684754e-12
-2.545963104484776e-13
-6.73534656996324e-12
-1.3483723189312989e-11
-1.732934018098889e-11
-1.469215481473588e-11
-3.1090013176990726e-12
1.690424554121748e-11
4.037777559851511e-11
5.775185537064726e-11
5.692390749697374e-11
2.7736938962496235e-11
-3.188562771528588e-11
-1.1022645512701566e-10
-1.795423954882551e-10
-2.0043494914539533e-10
-1.3450144530383236e-10
3.616140267808988e-11
2.8823594906767887e-10
5.447490753953523e-10
6.818626652900141e-10
5.627014178119913e-10
9.724033745275623e-11
-6.861359161699324e-10
-1.585892878817869e-09
-2.226164674016168e-09
-2.1408003031209615e-09
-9.506871826760567e-10
1.3988953793725106e-09
4.4230217078037985e-09
7.02287261021127e-09
7.670930942176274e-09
4.9149406862150754e-09
-1.8627105728714292e-09
-1.1656167827673254e-08
-2.138950175976089e-08
-2.6231048219678048e-08
-2.095545863235444e-08
-2.2903416297446264e-09
2.833748515617503e-08
6.27775906163216e-08
8.627001947058007e-08
8.088289811440907e-08
3.250851337417729e-08
-5.996448466653548e-08
-1.7655989684786847e-07
-2.7381874769222826e-07
-2.9258653986260765e-07
-1.7805551549865256e-07
9.070208624580149e-08
4.707554418073414e-07
8.394067441968325e-07
1.008359718620337e-06
7.784401200689459e-07
3.1438568358368975e-08
-1.1646391693388351e-06
-2.481001633349645e-06
-3.3387380761048986e-06
-3.0489393830487044e-06
-1.088358746355158e-06
2.5465671053011286e-06
7.03632142484961e-06
1.0664439274645118e-05
1.1142796609465744e-05
6.407431393673584e-06
-4.234187204444365e-06
-1.89658456084019e-05
-3.2901496290299434e-05
-3.8711365165890353e-05
-2.8815784392216837e-05
1.0244545765849996e-06
4.7680036679095326e-05
9.791839142588893e-05
0.00012906071054113858
0.00011467560094937732
3.542685307513428e-05
-0.00010727905405568456
-0.00027994641493487963
-0.00041487209678956133
-0.0004236560445291424
-0.00022875377448282238
0.00019200645265017222
0.0007623552297595775
0.00128802772555111
0.0014840080556918773
0.0010623089105517823
-0.0001278356002588735
-0.0019460274279255432
-0.0038608866664029146
-0.004984940972094754
-0.004305164191165426
-0.0011090105314792793
0.0044907220133374014
0.011133796302503414
0.016161322451041606
0.016176513050293207
0.008296793387988386
-0.008118579788193267
-0.029842824958595904
-0.049125166309922204
-0.05490748172798062
-0.03644122332133036
0.01100485106249704
0.07979623735809632
0.14544154179268254
0.16683765446641344
0.09329319308845901
-0.12188051198301109
-0.30456285636929864
-0.2457921651753037
-0.09689389709554246
0.022589133752780825
0.20550932245980524
0.3325309231856698
0.2510997896564189
-0.034465959624089874
-0.1586543067667047
-0.17881670735212543
-0.15444795442997278
-0.12944754920924606
0.0771686187227505
0.07056437778578055
0.07154024662746723
0.10442201070482318
-0.014225983406886763
-0.08303061623397878
0.08181118086734883
0.0489872380313171
-0.021542960636209786
0.030525142007109648
-0.0241345987421465
-0.19585284995142538
-0.07136415170357674
-0.015294286967892022
0.021838623622664772
0.09098036795345327
0.2310759279802914
0.05923099634806426
-0.032182258129519484
-0.07072452717720724
-0.09355553629400133
-0.13560790528125727
-0.020383908983531988
0.04403886004098351
0.06349944696808198
0.05246929043205167
0.02765547026779534
0.002835357117618698
-0.013836970873529668
-0.020012267217031136
-0.01759245209669188
-0.010502051864749158
-0.0026894995114899265
0.003124560108673455
0.005847470480312393
0.005756808523969496
0.0039091762407413
0.0015233020617993565
-0.0004604937333984345
-0.0015718841259355434
-0.0017849481904493817
-0.0013632386754719777
-0.0006713870680355999
-2.432614758409898e-05
0.0003926427887891365
0.0005340168752916557
0.0004569372894994749
0.000265674975824581
6.180863499024275e-05
-8.646031058256826e-05
-0.00015331576692200881
-0.0001478101599017201
-9.823555724999961e-05
-3.6235379540175094e-05
1.429370653908862e-05
4.1808320910970124e-05
4.618101648394369e-05
3.4547393889353025e-05
1.6413604369947084e-05
-1.7852158667295356e-07
-1.0621333772631824e-05
-1.391690403209601e-05
-1.1662495197318067e-05
-6.5993813540694954e-06
-1.3378982696793906e-06
2.4084368527347663e-06
4.027876788082296e-06
3.796565200423909e-06
2.466340159500102e-06
8.555878597437229e-07
-4.303914951021483e-07
-1.109873428068447e-06
-1.193721213174574e-06
-8.745422998887672e-07
-3.9988083984187947e-07
2.51489776396356e-08
2.862398528219072e-07
3.621854428584607e-07
2.97300667541018e-07
1.6353977539196283e-07
2.7908330836012658e-08
-6.661336049151706e-08
-1.0564905556764237e-07
-9.740428860490777e-08
-6.181426660891899e-08
-2.0019712447334515e-08
1.266808792312008e-08
2.9400806706954567e-08
3.082044033415982e-08
2.210821317421546e-08
9.701858038691675e-09
-1.1732989908002024e-09
-7.688457800762154e-09
-9.413284845482749e-09
-7.569238333827804e-09
-4.042047547322557e-09
-5.497336281820826e-10
1.8315202917155384e-09
2.76722808313264e-09
2.4965053413271087e-09
1.546845417242249e-09
4.6372364969528114e-10
-3.660997662342934e-10
-7.76891501807864e-10
-7.944503561427724e-10
-5.577202158580579e-10
-2.3391002588677053e-10
4.4026859796041494e-11
2.0627015628355616e-10
2.4471805625078356e-10
1.9284677639244158e-10
1.0000182869287789e-10
1.0182661620339034e-11
-4.9714082258763725e-11
-7.200042462387306e-11
-6.353976089794423e-11
-3.8262524309890216e-11
-1.02268743431408e-11
1.0811903384189106e-11
2.0863064565910725e-11
2.082772953315636e-11
1.4421298893071912e-11
5.981320567149217e-12
-1.1135598894944372e-12
-5.144981133416633e-12
-5.98093848987199e-12
-4.534339497217891e-12
-2.094578472649842e-12
2.1280311898659652e-13
1.71691910372832e-12
2.2437674185806426e-12
1.9880053525243305e-12
1.3168522955580582e-12
5.92192801935818e-13
5.966957337002671e-14
-1.8524700892863169e-13
-1.7189253621281623e-13
5.798072035033431e-16
2.1979355274052282e-13
4.001123179354072e-13
4.996042046520502e-13
5.171332491823811e-13
4.777420690375565e-13
4.1514605869476486e-13
3.578449814919524e-13
3.218854347133958e-13
3.101753492967803e-13
3.162900462805155e-13
3.3007179506789966e-13
3.4269818174943287e-13
3.497824511388035e-13
3.5202782012146234e-13
3.5372288008764825e-13
3.5985995319625695e-13
3.729217779578092e-13
3.904699295954279e-13
4.0457983132671235e-13
4.0383125350187455e-13
3.778947678697294e-13
3.237563726734977e-13
2.514859417098438e-13
1.8660078106045836e-13
1.6607884033753222e-13
2.264583319445715e-13
3.853800012106175e-13
6.218743679115874e-13
8.643426126080596e-13
9.965625506936475e-13
8.891701430536974e-13
4.558562932848622e-13
-2.7908021689055805e-13
-1.1285160583323144e-12
-1.7402418296281881e-12
-1.6747491688536272e-12
-5.711826245222673e-13
1.6291592390414588e-12
4.4785147570052335e-12
6.9493647768769545e-12
7.604313707575484e-12
5.066568029937134e-12
-1.2663742378179245e-12
-1.047637551278109e-11
-1.9694509076262825e-11
-2.438262349359026e-11
-1.9600960407138033e-11
-2.2094553767005488e-12
2.6540181584175693e-11
5.907221007119849e-11
8.154966158445086e-11
7.705924313328423e-11
3.2160926913764315e-11
-5.4472564720975114e-11
-1.6437103670469802e-10
-2.568782078918603e-10
-2.763103854539867e-10
-1.7067604172853719e-10
8.055875358767662e-11
4.380918688213489e-10
7.874232216689926e-10
9.516353130251761e-10
7.423524344492679e-10
4.592499626246598e-11
-1.0771885003862667e-09
-2.3211587970027966e-09
-3.1430833913490628e-09
-2.8929342577240165e-09
-1.0717246880903546e-09
2.3349117810015902e-09
6.568352699165771e-09
1.0022183131026656e-08
1.0541781566814709e-08
6.167961104846068e-09
-3.78407075854837e-09
-1.764753572856275e-08
-3.086057925805804e-08
-3.653404472353213e-08
-2.7495738773022738e-08
3.3926262942034776e-10
4.4163541400733326e-08
9.166035582154187e-08
1.2155405213178158e-07
1.0889506937636523e-07
3.522309418452656e-08
-9.85687954580084e-08
-2.6144094733138934e-07
-3.90006042733203e-07
-4.009919494798726e-07
-2.2073800437571752e-07
1.7292485715224896e-07
7.098614568156721e-07
1.2086200410089268e-06
1.4012434653296723e-06
1.0151130137009334e-06
-9.540578457475889e-08
-1.8034862064469299e-06
-3.6141979649327e-06
-4.694759277360262e-06
-4.088847628565215e-06
-1.1161862990395454e-06
4.131977165247291e-06
1.0390022825980847e-05
1.5160037087576485e-05
1.5227569207494737e-05
7.829871618565176e-06
-7.720384494844359e-06
-2.8491743393760096e-05
-4.7278185345017725e-05
-5.366929625818692e-05
-3.732078114097677e-05
6.9093006674441714e-06
7.340688779971216e-05
0.00014232551820982233
0.00018110611286361553
0.00015314390210233468
3.347969152199034e-05
-0.00017214034694937655
-0.00041227420910026674
-0.0005886125195603913
-0.00057722432541528
-0.00027476182140076034
0.0003386592667078745
0.0011412127024891113
0.0018471421277216377
0.0020524299854777616
0.0013652534380337422
-0.0003938480151858989
-0.002980267951729853
-0.005599705482310287
-0.006980441453088663
-0.005722676243127133
-0.000913413925484786
0.007142292382425331
0.01636701837499108
0.022910064829938164
0.02202231684440531
0.009884335076482372
-0.013961194489590828
-0.04442601598338194
-0.07017734985550225
-0.075664117352369
-0.04652366514576071
0.022194869860857332
0.11716129074938125
0.20083828660262404
0.21252070391560818
0.07909669518203663
-0.06484708166966918
-0.25219485172627937
-0.46204996782254776
-0.4115116427391654
0.03289692789865909
0.22424411040869904
0.49310111836157144
0.7089386783102569
0.2600292332656451
-0.3394945468999441
-0.41771707086748916
-0.5009523724075429
-0.47525480369966266
0.03228530276050672
0.4475483216059215
0.4245744414180348
0.21496095567686857
0.04490925916276769
-0.09228492788114209
-0.22841925671901442
-0.2034632453712781
-0.047907291242463186
0.02884366541154895
0.04101166377302801
0.020699824358471116
0.006984323626320269
0.03362974064469775
0.11883673014037796
0.05964716275292487
0.032551156830744735
0.00031650591336501905
-0.07677521517423072
-0.22869628060131794
-0.06649984623935201
0.020572102564249645
0.06075078924019451
0.09002498650709291
0.14087048797847257
0.033523082052679155
-0.027456024100821257
-0.05081887556089876
-0.052125540061931507
-0.045969255035995936
-0.03980222437884588
-0.03130125924840625
-0.009870409550880414
0.038475296370377964
0.12470036219826217
0.05124057125844418
0.009563629839829385
-0.0181983635390361
-0.05418823485023048
-0.1183463208889732
-0.02300263529260765
0.029567652768141422
0.046098006393938774
0.03872620965333857
0.020586207401075935
0.002244886590801196
-0.010111584861377568
-0.014699110137053663
-0.012921471308273045
-0.007689008239198729
-0.0019270094509195779
0.002352685038821924
0.0043456830842123866
0.004261478926545981
0.002884147010795244
0.0011154076779808701
-0.0003507672557427872
-0.001168891699387052
-0.0013220808310923766
-0.0010068324903340425
-0.0004934860040452254
-1.4849370593407993e-05
0.00029259455722477183
0.00039586502490348045
0.00033775494955019553
0.00019565948990466007
4.4735593724771575e-05
-6.471074802556492e-05
-0.00011378366037209565
-0.00010935343479215688
-7.245103441585027e-05
-2.6509310452043836e-05
1.0826138181573591e-05
3.1073904007891737e-05
3.419584681588785e-05
2.5508104539182266e-05
1.2056967474353444e-05
-2.1375278981960027e-07
-7.911258027530797e-06
-1.0314836477675964e-05
-8.619245871962047e-06
-4.858680341782011e-06
-9.641648386139665e-07
1.800697298560971e-06
2.9886298058255692e-06
2.8083502943501507e-06
1.8185656981606776e-06
6.252157802906865e-07
-3.2482103819285455e-07
-8.246586421240307e-07
-8.83775695175926e-07
-6.45597561679995e-07
-2.93579213123493e-07
2.0702006810922455e-08
2.1310462636309118e-07
2.683939109205826e-07
2.1968566821581292e-07
1.2036262105253429e-07
1.9985068748198256e-08
-4.975944328142685e-08
-7.837313467314516e-08
-7.203928558826219e-08
-4.5567826713961906e-08
-1.4608993179296212e-08
9.53542690420504e-09
2.1839260712080377e-08
2.2814448822375446e-08
1.6317474946201406e-08
7.1184955493047344e-09
-9.216724750732875e-10
-5.721487284529572e-09
-6.974300924881023e-09
-5.59213026827293e-09
-2.9736987053438355e-09
-3.895302903013699e-10
1.3671492449760966e-09
2.052467240060751e-09
1.8461937181168152e-09
1.140097007989408e-09
3.3792167963329884e-10
-2.749076789552838e-10
-5.7683476886348e-10
-5.878934676231906e-10
-4.1146017934906383e-10
-1.7140994850936415e-10
3.4039328152856004e-11
1.5353092753431528e-10
1.8137340103405268e-10
1.4254425062112068e-10
7.363774010137801e-11
7.187341573732317e-12
-3.6987878139333866e-11
-5.329406921554559e-11
-4.6882664136423496e-11
-2.8097612954464312e-11
-7.34246710797272e-12
8.186290444404007e-12
1.556626639187323e-11
1.5491321482667445e-11
1.0727064667642224e-11
4.4865842283806965e-12
-7.378714817873609e-13
-3.689999039765677e-12
-4.289651481727585e-12
-3.2265799767899402e-12
-1.4603133476365228e-12
1.8401261702047362e-13
1.232273545879456e-12
1.5890997507922821e-12
1.4331952086141869e-12
1.0568041384366327e-12
7.168144972460603e-13
5.406566785163771e-13
5.031790714791529e-13
4.685953387857094e-13
2.765578176662679e-13
-1.5768640371258738e-13
-7.636552999490322e-13
-1.2905884556265712e-12
-1.362644103501996e-12
-6.202242181967949e-13
1.0784056154158118e-12
3.4591938633701146e-12
5.733363364089829e-12
6.698088964469748e-12
5.098458249261086e-12
2.2146709527479538e-13
-7.436436372366986e-12
-1.5713524649201135e-11
-2.0884581281165477e-11
-1.8592302251029026e-11
-5.629874873728916e-12
1.7810013668527357e-11
4.6257166840768646e-11
6.859727305418418e-11
7.027416464173e-11
3.846633539930942e-11
-3.058716478136658e-11
-1.244742115632607e-10
-2.1133937646788126e-10
-2.442976538766796e-10
-1.7581686850355873e-10
1.9233083942645885e-11
3.181927643436326e-10
6.34041690936049e-10
8.209265755972672e-10
7.118922117316227e-10
1.8891192867283874e-10
-7.305470262412042e-10
-1.823486806692853e-09
-2.651980115740905e-09
-2.6542371745374895e-09
-1.3495724949345048e-09
1.3776289818501747e-09
5.009036456401241e-09
8.279854441378944e-09
9.368866100722947e-09
6.472998348440996e-09
-1.2935592383581773e-09
-1.293040300359432e-08
-2.4949115495223015e-08
-3.1648301686001317e-08
-2.6638860958061546e-08
-5.593488237495866e-09
3.04240201123818e-08
7.235386241321886e-08
1.0296393992787276e-07
1.0059869883474995e-07
4.728387663377445e-08
-6.027871377384238e-08
-2.005673275270916e-07
-3.2344034331643723e-07
-3.582351169777055e-07
-2.3668079976381835e-07
7.206825442915116e-08
5.245084374263517e-07
9.810716566435774e-07
1.2191482642860996e-06
9.945933102457127e-07
1.4954592521365752e-07
-1.2596919729015009e-06
-2.8660955844313427e-06
-3.992440636259131e-06
-3.8050026220931833e-06
-1.6335940516020569e-06
2.6032328217088436e-06
8.016324246565567e-06
1.2620749162772966e-05
1.3677986762739673e-05
8.608113268507664e-06
-3.6467093401115735e-06
-2.1217445401330717e-05
-3.853043248887536e-05
-4.690390459622885e-05
-3.702248628736177e-05
-3.1602136333854072e-06
5.1914202095515695e-05
0.0001133712782420701
0.00015462856488846134
0.00014362918915111428
5.546255685911194e-05
-0.00011121132730687002
-0.00031982041288185496
-0.0004918987701908471
-0.0005214398235830023
-0.0003111535211679742
0.0001745267542611345
0.000856087808516779
0.001511322360117628
0.001802006564150533
0.0013732345663895079
1.862989910052943e-05
-0.0021317430689143275
-0.004480183109832661
-0.0059844123703806425
-0.005412992142067362
-0.0018419504844691419
0.004712360971307282
0.012757389985599806
0.01920645455934681
0.01998021032978529
0.011449299039330342
-0.007504779044664641
-0.033470378133485836
-0.05755712844345374
-0.06663170792001823
-0.04745101013019456
0.006553945239880643
0.08744679921627874
0.1668127202822352
0.19511950448979082
0.10905927841165375
-0.1529789256384813
-0.23073771888835337
-0.323772013824709
-0.18229523864257854
0.48806355966237763
-0.39222682177836166
0.09613418584498531
0.44278029047720185
0.2858113264442974
-0.3970216163816618
0.5190136690443095
-0.0725335840920028
-0.4790764130357984
-0.379463718426829
-0.20485113360616256
0.06323828205283574
0.27735026444373523
0.498005100315433
0.16822017706897896
-0.10133945742193351
-0.13220624214255144
-0.16546965742684047
-0.24373865493813962
0.004636764459039039
0.17414132879312752
0.08250231614042608
-0.034941257554288514
-0.1338510082371993
0.0297330117854102
0.09045086435749536
0.06619889426995051
-0.046330308128696686
0.12816316689125282
-0.05194756056824504
-0.03694995500323755
-0.07563000128572946
-0.005668985162446813
-0.046877986419962256
0.0013180311854369983
-0.042085160359712576
0.05474678207179583
0.12897242940008904
0.01569900384441623
-0.05748652361071084
-0.07333791561297505
-0.02556464504719361
0.08180347731271445
0.0357531255573363
0.016480618702904928
0.0007872126691839157
-0.033503573860158696
-0.10306901243039157
-0.015939591496811237
0.029210000882302724
0.04114331153449032
0.03240009170539273
0.015360822507808266
-0.0006566958776857023
-0.010638971703586792
-0.013560179813516707
-0.011083462732678637
-0.005981814193491209
-0.0008349096126390279
0.0027150744423625715
0.004133376503666588
0.0037517576066736424
0.002345193135065873
0.0007260219395172353
-0.0005240923469202718
-0.0011514583557885154
-0.001189382808020736
-0.0008425804293769073
-0.00036048638515282785
5.6902953512002176e-05
0.0003032191235836692
0.0003644986556374938
0.00028960009907582734
0.00015189780895460297
1.7399637169266876e-05
-7.312947050387779e-05
-0.00010760754558606739
-9.586847034790521e-05
-5.8546431521580314e-05
-1.6674993975244587e-05
1.5018437231140957e-05
3.038901460772452e-05
3.06385369898772e-05
2.1242562322482246e-05
8.673403408102233e-06
-1.9841739681435492e-06
-8.108918892894615e-06
-9.455715207896933e-06
-7.359353349522246e-06
-3.7380707421794403e-06
-2.8111944141417656e-07
1.993887972286567e-06
2.8116286413472313e-06
2.452307845212866e-06
1.4602599482869258e-06
3.772067724121242e-07
-4.257055200138137e-07
-8.009933888581702e-07
-7.886824190479254e-07
-5.349614998479788e-07
-2.0760775786576863e-07
6.425912851478369e-08
2.1624233860727378e-07
2.4497827655737945e-07
1.8677029003598134e-07
9.170023615500886e-08
2.9513762335370274e-09
-5.412367368002696e-08
-7.336002718172668e-08
-6.26559866971083e-08
-3.634528876324221e-08
-8.36399614400333e-09
1.1949069836515986e-08
2.1076022193943523e-08
2.0279071294481184e-08
1.3451391328290907e-08
4.936878909467899e-09
-1.989916918760329e-09
-5.752152244949386e-09
-6.338886978037042e-09
-4.733400520636795e-09
-2.2414420660296125e-09
3.4365757125560866e-11
1.463752075493246e-09
1.9118557402421725e-09
1.5993336875805821e-09
9.029865213779657e-10
1.8091703139047922e-10
-3.3226834617394326e-10
-5.532603464532101e-10
-5.204592545774761e-10
-3.373015645427436e-10
-1.1612063000839574e-10
6.014915228518958e-11
1.5303628189224839e-10
1.6419908990790884e-10
1.2017060771993846e-10
5.494954219108298e-11
-3.343074873836187e-12
-3.907401088664645e-11
-4.938646508166264e-11
-4.039890126899593e-11
-2.2001386481362713e-11
-3.387021619081953e-12
9.558332339148076e-12
1.4876857497123983e-11
1.3707422281307098e-11
8.794655033886788e-12
3.0452785602099898e-12
-1.4361798160333054e-12
-3.708635895990333e-12
-3.8623949961299076e-12
-2.6165228797068684e-12
-8.699083558553578e-13
6.389488414067071e-13
1.500333463027117e-12
1.6437796189431443e-12
1.2473777080909807e-12
6.103947266884074e-13
3.718199708283245e-14
-2.4495346402295185e-13
-1.321076553586735e-13
3.381205758631327e-13
9.91526888593732e-13
1.5480772709601909e-12
1.6871297866639954e-12
1.151559024704626e-12
-1.215295531620001e-13
-1.8812962009498468e-12
-3.515892367649387e-12
-4.143924089763371e-12
-2.8845798588292723e-12
7.17903941272998e-13
6.231143106360846e-12
1.2036744081782994e-11
1.5440304099299535e-11
1.3372914628837924e-11
3.683304820213465e-12
-1.3272035076835822e-11
-3.3350674155687626e-11
-4.84687982191969e-11
-4.829702536702676e-11
-2.4046715284805142e-11
2.6305381249911962e-11
9.309379787018304e-11
1.5294345238990693e-10
1.7233180495139036e-10
1.1821927642112386e-10
-2.5388170273951332e-11
-2.3966332173304697e-10
-4.6002489227662257e-10
-5.814073090033575e-10
-4.86540581737216e-10
-9.665922188227874e-11
5.673315329596734e-10
1.3373062703620736e-09
1.895323571770677e-09
1.843355551789552e-09
8.529586616818017e-10
-1.1324743805087233e-09
-3.712035296706347e-09
-5.959319046761624e-09
-6.5739587308087116e-09
-4.3054113517618855e-09
1.4018321709129506e-09
9.73106264519717e-09
1.809936396422168e-08
2.2405360626419242e-08
1.8169090425083178e-08
2.5200690963840094e-09
-2.3453891143514186e-08
-5.294525758423729e-08
-7.346175180000004e-08
-6.968317254353546e-08
-2.9370059784864762e-08
4.88163156675598e-08
1.4832707965250002e-07
2.3249882604278853e-07
2.509469225538272e-07
1.5643176304708155e-07
-7.003521152490922e-08
-3.9343581718110986e-07
-7.106555470738278e-07
-8.617750882640501e-07
-6.759102422806561e-07
-4.9062454458019585e-08
9.658062769863655e-07
2.093769281864744e-06
2.8445889828274393e-06
2.629341902723027e-06
9.933706748365948e-07
-2.0817201986758236e-06
-5.915778795632299e-06
-9.05983862864767e-06
-9.563952287612931e-06
-5.647376681941603e-06
3.3256324409996695e-06
1.5867921163144412e-05
2.787013839964522e-05
3.310389547829653e-05
2.506127600121199e-05
-1.8928975386647537e-10
-3.960801317638023e-05
-8.268588559015007e-05
-0.00011001835748420656
-9.899635876563611e-05
-3.2789599552078923e-05
8.800497458030772e-05
0.00023554206976893763
0.0003526349460311332
0.0003639074298496524
0.00020238298542839527
-0.00015263261253730157
-0.0006384891743538074
-0.00109169182805243
-0.0012699415280906588
-0.0009258054003620715
7.432106070170509e-05
0.0016182970567787073
0.0032608554486255256
0.004249669508292605
0.0037178697820740114
0.0010447513559905775
-0.0036954564922798503
-0.009366773991614367
-0.01371487779586652
-0.013828536993306885
-0.007192076118433982
0.006847244372818877
0.0256800359441809
0.04283403889770027
0.048932697864485855
0.034646740909910594
-0.004660064424809851
-0.06390422175202912
-0.12515260452246385
-0.15908527385264323
-0.13310890073060722
-0.026205507873211856
0.15248408491948406
0.34764174190377095
0.45263182663220713
0.32263240619390315
0.008609388154906571
-0.3933661139649759
-0.6915965914298526
-0.9663686094194862
-0.3731397258956569
0.21151586118039326
0.9100615442938861
0.9544821453348358
1.0183779197444962
-0.003859212802641626
-0.5624645055733889
-0.9752581602039949
-0.7368666978721329
-0.4461413365360689
0.22637003511087633
0.526704402561147
0.574073105943768
0.3072554914241057
0.04105894630297923
-0.15572583095471693
-0.26044714980460437
-0.28248208709307493
-0.045350783729102846
0.026687611267273034
0.11421100533691637
0.20185107395435256
0.07524143880040253
-0.0804291166938705
-0.07866900336842253
-0.12786439461891808
-0.028023571272863593
0.02965262789797442
0.05982909243595808
0.07804001031699027
0.09592781506034906
-0.08129526412301197
-0.0544570453556044
-0.027881833655189838
-0.0062963598802708905
0.007398036896997801
0.012897576577030981
0.012025934679274753
0.0076330281776084904
0.0024750734678774897
-0.0015314240661991917
-0.0035591433482753225
-0.003709637492967901
-0.0026331358126708256
-0.0011219392772264809
0.0001890801951567241
0.0009622152107303865
0.0011525771853008401
0.0009141365355773088
0.0004783935026940622
5.354216189823643e-05
-0.00023198932126176433
-0.00034034301884820317
-0.0003027986741461613
-0.0001846394091621928
-5.2310824604760836e-05
4.7724289890850005e-05
9.61354322122599e-05
9.678792490807848e-05
6.701910400898157e-05
2.728466323375778e-05
-6.36499814418926e-06
-2.567168218553282e-05
-2.9882668128550464e-05
-2.3228925333988204e-05
-1.1775457843690081e-05
-8.565059309739866e-07
6.3194263269739574e-06
8.889363919428356e-06
7.743536291476112e-06
4.603896849131821e-06
1.1817139389001313e-06
-1.3521220466152643e-06
-2.53375227357703e-06
-2.4913272346143277e-06
-1.6876241592318907e-06
-6.528459390487305e-07
2.0547240119058525e-07
6.844923076363659e-07
7.741448287681869e-07
5.89473572996524e-07
2.8881220434192015e-07
8.513232572398501e-09
-1.7149733202780103e-07
-2.319196712734264e-07
-1.9783268327839883e-07
-1.1457516499722854e-07
-2.6167350516027067e-08
3.793145740259239e-08
6.66613798608976e-08
6.40533179509177e-08
4.242975748701828e-08
1.551712799107641e-08
-6.350060224091539e-09
-1.8206058131867826e-08
-2.0030586729410004e-08
-1.4938881254373756e-08
-7.058729084073847e-09
1.285501790722374e-10
4.636245917577418e-09
6.04285135629463e-09
5.0486614122984145e-09
2.8454087347763757e-09
5.641652252234358e-10
-1.0550765282577873e-09
-1.7505234463521204e-09
-1.6445915503134854e-09
-1.064628442361683e-09
-3.655746001631205e-10
1.9084985903909847e-10
4.835199252006126e-10
5.180404135214586e-10
3.7845528775491385e-10
1.72232960054836e-10
-1.1847978601928799e-11
-1.2451812540551307e-10
-1.5687051375807128e-10
-1.2831445987420135e-10
-7.012375789485685e-11
-1.13273454248342e-11
2.951820248429878e-11
4.626896722045322e-11
4.255078496874374e-11
2.704051348562634e-11
8.905281300130594e-12
-5.2361162897291706e-12
-1.2441161899909407e-11
-1.3010883517976473e-11
-9.204581148935298e-12
-3.815958511053364e-12
8.943531586089526e-13
3.707812391246745e-12
4.444854009454776e-12
3.638743712219999e-12
2.1069016413055567e-12
5.91297213556358e-13
-4.450033072171244e-13
-8.588205554217968e-13
-7.522972240135162e-13
-3.488906522144014e-13
1.2242659846224496e-13
5.006052526371008e-13
7.153469110099286e-13
7.705677680668132e-13
7.090822260601249e-13
5.787933163109995e-13
4.138079856334971e-13
2.342856489821609e-13
5.986825853387715e-14
-7.434961179370964e-14
-1.1177500036942732e-13
1.283587706517405e-14
3.4053890549517003e-13
8.447692160410596e-13
1.396694411507088e-12
1.7639288507610899e-12
1.6631675585942752e-12
8.713196373225243e-13
-6.270549383786878e-13
-2.508927066530096e-12
-4.073601685143168e-12
-4.3679672179254615e-12
-2.509787622909081e-12
1.8357140122479074e-12
7.972291032199967e-12
1.3916697473694684e-11
1.6628698547807427e-11
1.2895794061018835e-11
8.165667413165438e-13
-1.8501031063695393e-11
-3.973874775240351e-11
-5.354504129298795e-11
-4.880260363880711e-11
-1.708230120119154e-11
4.1642425411067795e-11
1.1410528874458866e-10
1.7256939680371726e-10
1.800972975391707e-10
1.034141506516234e-10
-6.856790546375381e-11
-3.0640741939831085e-10
-5.311184313962178e-10
-6.243390359301101e-10
-4.6380729423441976e-10
1.8649520304417115e-11
7.721230820066266e-10
1.5825942366926044e-09
2.0837310093382455e-09
1.849016683403642e-09
5.67012026814983e-10
-1.738367162466131e-09
-4.524985747800139e-09
-6.698872893342904e-09
-6.83304855010807e-09
-3.677476707674695e-09
3.122189970341889e-09
1.2330095766295415e-08
2.080623128770171e-08
2.3948658270836044e-08
1.711288091280882e-08
-2.123962540489038e-09
-3.147956351684878e-08
-6.236018023586342e-08
-8.043244090406376e-08
-6.935563487310095e-08
-1.7669594926135304e-08
7.272470200014016e-08
1.797467491605627e-07
2.6030536692637363e-07
2.593395861140413e-07
1.30006073561685e-07
-1.3846583756930094e-07
-4.94528470665279e-07
-8.135479545409688e-07
-9.168046041637677e-07
-6.281761991433572e-07
1.3755808459343997e-07
1.2799572910106038e-06
2.4546539902186515e-06
3.1014824215192155e-06
2.5952824850869774e-06
5.162654550816932e-07
-3.0239024733247587e-06
-7.128658439285547e-06
-1.010280730012526e-05
-9.824394176281728e-06
-4.5427384292306565e-06
6.043299503816179e-06
1.9795552390633146e-05
3.1774425216392625e-05
3.504718330005971e-05
2.2947651942925035e-05
-7.483849825157888e-06
-5.18905597347914e-05
-9.649967418759083e-05
-0.000119444476754349
-9.684269954395154e-05
-1.3396252854640038e-05
0.00012508707823098925
0.0002823053255616107
0.00039165286554421826
0.00037145573737168186
0.0001564759569989858
-0.00026039808176573276
-0.0007909086665514458
-0.001239568879538359
-0.0013377639131385859
-0.0008336856046358416
0.00037381312099475054
0.0020979162620527233
0.0037887577503119985
0.004593664183527416
0.0036015889612863936
0.00025819309814796066
-0.005153917890566956
-0.011168602329291842
-0.015171506988305402
-0.014021362343195305
-0.005290787132919488
0.011125972288383365
0.031618746912364194
0.048493038752358324
0.05140604999277974
0.03094742357058469
-0.016158053721808816
-0.08186090344146307
-0.14421023775796038
-0.1702561385539732
-0.12634713394957997
0.0046411167131976076
0.2030464050091253
0.396422730942107
0.4567769446713925
0.41829796195653296
-0.08308603130117855
-0.7561721641385833
-1.0039886939648939
-0.6974651542408173
-0.1891161876198559
0.8321018013061888
2.261811255416458
-0.693868755197495
-0.16068352894276997
0.00437723527912825
-0.15064070548392333
-1.4189294125757665
1.2173477642245205
0.02486804192892011
-0.4625717521346271
-0.6447851318172568
0.12747459014017887
0.5226636723537065
0.7946224082129091
0.35748685040411754
-0.2198678375004067
-0.7982440435806673
-0.44095500600133714
-0.3903396374518838
0.34033453727882945
0.7582393691202158
0.6746766037958336
-0.3060824221887614
-0.38514036708498794
-0.5570759764018821
-0.39819055674830406
0.13475226400718354
0.6923208673855715
0.5131444191157525
0.00901775998246756
-0.23679979281693073
-0.45755403609492235
-0.2847272962429481
0.06634774457959636
0.20046054970203717
0.1360828821735991
0.09362213457501048
0.08473143872342159
-0.09303501489865092
-0.05524854679955789
-0.025037981311382813
-0.025852014126815277
-0.07523665754314066
0.018747040502413825
0.058085330296445616
0.0530414266463716
0.019339851429675415
-0.024529907896489348
-0.05947528799998738
-0.067847170372932
-0.036089173219809596
0.04180677330974401
0.16093165888530228
0.10406654157764206
0.04420986437976137
-0.04836458329830937
-0.19620377544479817
-0.20565472918733618
-0.06293016670675998
0.06225718579895945
0.20633684998865864
0.19890064198238877
0.052549671211202874
-0.040344268595932965
-0.10316872548795544
-0.1654934411500576
-0.05278928469078794
0.020577349045031442
0.05317482914064886
0.053717746642395606
0.035832808366010084
0.012829941667923563
-0.005825613177028245
-0.015766183292866685
-0.017060812792675004
-0.01249119298875403
-0.005655968781160333
0.0004633946364583746
0.004208683167565088
0.00527567847970059
0.004310483541101973
0.0023578098270908548
0.0003879067487418446
-0.0009792306185541454
-0.0015389071696498113
-0.0014132256288241197
-0.0008930895755547753
-0.00028554405224584794
0.00018787804780566247
0.0004288239280114813
0.0004475494868447793
0.000319834306324049
0.00013928849043036982
-1.8384838265942468e-05
-0.00011241848365755185
-0.00013686239416555828
-0.00010965181393356143
-5.824234891439545e-05
-7.552090323763144e-06
2.687657548554567e-05
4.02801554176809e-05
3.620076129551008e-05
2.233126306385443e-05
6.592043484488524e-06
-5.422335671095727e-06
-1.1333476776905511e-05
-1.1539619209822073e-05
-8.071707444580357e-06
-3.360461973869034e-06
6.684031290574941e-07
3.009197391794419e-06
3.551964743476578e-06
2.7878021029423208e-06
1.434979456472252e-06
1.3153320477069753e-07
-7.342230843451538e-07
-1.0530711850286222e-06
-9.264443335182706e-07
-5.574336619751888e-07
-1.501242309367237e-07
1.5440890000129268e-07
2.989503247933772e-07
2.9718710816476736e-07
2.0340108483593443e-07
8.063352267445663e-08
-2.218974337782251e-08
-8.033057659422187e-08
-9.206931387399086e-08
-7.078720829944381e-08
-3.5247834837188895e-08
-1.769414151894938e-09
1.9965538626430277e-08
2.7492430973168995e-08
2.3682253616963345e-08
1.3886781687582042e-08
3.35866116744254e-09
-4.350092389027599e-09
-7.87112785933893e-09
-7.644473146872657e-09
-5.117180968968659e-09
-1.922265514694699e-09
6.9880573665997e-10
2.139434613277897e-09
2.383890666056362e-09
1.7952291391342994e-09
8.629868630666896e-10
4.095506883771199e-12
-5.404619039637207e-10
-7.161974823206336e-10
-6.036626775484501e-10
-3.4379832185066866e-10
-7.186552764920467e-11
