0
-2.1482711214907492e-07
-2.1482711214907577e-07
-2.1482711214907677e-07
-2.148271121490775e-07
-2.148271121490774e-07
-2.148271121490761e-07
-2.148271121490735e-07
-2.1482711214907013e-07
-2.1482711214906722e-07
-2.1482711214906647e-07
-2.148271121490695e-07
-2.1482711214907698e-07
-2.1482711214908786e-07
-2.1482711214909874e-07
-2.1482711214910422e-07
-2.148271121490985e-07
-2.1482711214907788e-07
-2.148271121490439e-07
-2.1482711214900551e-07
-2.148271121489791e-07
-2.1482711214898463e-07
-2.1482711214903791e-07
-2.1482711214914043e-07
-2.1482711214927019e-07
-2.148271121493791e-07
-2.1482711214940137e-07
-2.1482711214927572e-07
-2.1482711214897825e-07
-2.148271121485558e-07
-2.1482711214814406e-07
-2.148271121479521e-07
-2.148271121482021e-07
-2.1482711214902746e-07
-2.148271121503553e-07
-2.148271121518229e-07
-2.1482711215278815e-07
-2.1482711215248378e-07
-2.148271121503228e-07
-2.1482711214629265e-07
-2.1482711214129444e-07
-2.1482711213722953e-07
-2.148271121366429e-07
-2.1482711214184255e-07
-2.1482711215362454e-07
-2.148271121700031e-07
-2.148271121855745e-07
-2.148271121921964e-07
-2.1482711218141088e-07
-2.148271121484294e-07
-2.1482711209662261e-07
-2.1482711204059506e-07
-2.1482711200550834e-07
-2.1482711202080848e-07
-2.1482711210820145e-07
-2.1482711226646323e-07
-2.14827112458734e-07
-2.14827112609999e-07
-2.1482711262191105e-07
-2.1482711240771492e-07
-2.148271119417302e-07
-2.1482711130745684e-07
-2.1482711071979655e-07
-2.1482711049541485e-07
-2.1482711095574933e-07
-2.1482711227136914e-07
-2.1482711429034668e-07
-2.148271164259431e-07
-2.1482711769338635e-07
-2.148271169641539e-07
-2.1482711343869256e-07
-2.1482710723139687e-07
-2.1482709984471693e-07
-2.1482709423439394e-07
-2.1482709419635123e-07
-2.148271029836612e-07
-2.1482712138828343e-07
-2.1482714592226633e-07
-2.1482716805248094e-07
-2.1482717547752723e-07
-2.148271560028698e-07
-2.1482710361255766e-07
-2.1482702502023787e-07
-2.1482694374919974e-07
-2.1482689829650046e-07
-2.1482693185214377e-07
-2.1482707373817979e-07
-2.1482731690886736e-07
-2.148276003139521e-07
-2.1482780763946568e-07
-2.1482779255262506e-07
-2.1482743339347992e-07
-2.148267074520596e-07
-2.148257595939012e-07
-2.1482492813365642e-07
-2.148246903912455e-07
-2.1482550814275198e-07
-2.1482759102651657e-07
-2.1483064688093034e-07
-2.1483373446682698e-07
-2.1483535058279366e-07
-2.148338446902813e-07
-2.1482814681044184e-07
-2.14818631804309e-07
-2.1480777326420845e-07
-2.1480014265047117e-07
-2.14801374058974e-07
-2.148160044212523e-07
-2.1484460079266468e-07
-2.1488117665786088e-07
-2.1491233830053374e-07
-2.149195861051386e-07
-2.1488546788689586e-07
-2.1480278761202478e-07
-2.146841047240105e-07
-2.14567011309242e-07
-2.1451013574444558e-07
-2.1457645966486168e-07
-2.1480480621747273e-07
-2.1517668496183764e-07
-2.1559213771803444e-07
-2.15871713402591e-07
-2.157987646912831e-07
-2.1520462597035855e-07
-2.1407958493773095e-07
-2.1266993043365199e-07
-2.1150516774972544e-07
-2.113014562493619e-07
-2.1271701261662633e-07
-2.1599409779186898e-07
-2.205981927002423e-07
-2.2503055192577338e-07
-2.270071462754688e-07
-2.2412847150127851e-07
-2.1499504300463038e-07
-2.0047753009135578e-07
-1.8460534174841438e-07
-1.7441428989909364e-07
-1.7822422080288652e-07
-2.0228413450161254e-07
-2.464905788664079e-07
-3.0075147258305876e-07
-3.4416195921935146e-07
-3.4903063670836627e-07
-2.9058727023342603e-07
-1.608855573938504e-07
1.7515655398615745e-08
1.849636551592414e-07
2.5257939103130995e-07
1.2909483952436647e-07
-2.35555061830712e-07
-8.01643951552827e-07
-1.4071142034385742e-06
-1.7764370602405339e-06
-1.5905361328505946e-06
-6.187577435865204e-07
1.116135396869004e-06
3.202091343047375e-06
4.814880179262421e-06
4.885048867705915e-06
2.4826323518350698e-06
-2.6435793306832483e-06
-9.548269595001043e-06
-1.5860963547848203e-05
-1.8127035417632803e-05
-1.2880936495197227e-05
1.6522597499984734e-06
2.3700853858268938e-05
4.67610786848182e-05
6.0055642783846915e-05
5.13644998206066e-05
1.2209699787634604e-05
-5.579449347779283e-05
-0.00013587933443188251
-0.00019558950233105764
-0.00019367293601570048
-9.530521366758374e-05
0.00010701651611867106
0.0003739158201861972
0.0006113289695989172
0.0006851139179921783
0.0004638879914373229
-0.00011463105805476479
-0.0009728282361608895
-0.0018502303143744542
-0.0023256813709928337
-0.00193147528965522
-0.0003564614451247452
0.0023105269187592863
0.005393810276171382
0.007625974653697459
0.007433607580597691
0.0035420731317211984
-0.004213697752676886
-0.01415479778737941
-0.022514542673174785
-0.024110282766272577
-0.014175438973153444
0.008788845356794034
0.03979085482402806
0.0648423726761134
0.06037019245223622
-0.004685995600822939
-0.1642875050390187
-0.04950890996827723
0.11668208905993954
0.12284639923694184
-0.02953195455109201
-0.1265796618025563
-0.5450574176258245
0.14119217172519266
1.1519958828217458
-0.7075631060520469
-0.24975456888939135
0.5016123207117391
0.12434738400066703
-0.7845237189371449
1.0101159924087488
0.19797871778359308
-0.8674329152874738
-1.174035814827517
-0.6792130732152066
0.6353796486454051
1.291479301221161
1.449283401548831
0.681183329249649
-0.19513150737296306
-1.427586697997778
-1.4134828525373753
-0.7981502136437931
0.17562823065323468
0.6537059736827681
0.9046790060200719
0.6318883344548709
0.0952492747834876
-0.3362544465128088
-0.39697387286859365
-0.3106546784508484
0.03606885029695068
0.5217929338509446
0.01535841381811827
-0.2025548245588725
-0.22147174371220069
-0.2894406888987053
-0.2113004426004293
0.4419751706571768
0.5167296429673178
0.2608163480425783
-0.2838007051387582
-0.27767663985524815
-0.2744197833113335
-0.21371847905784763
-0.023904385357646364
0.3644481346763215
0.19855168068216852
0.08540333559849332
0.18371553508662253
0.009931400896730868
-0.1426818708907332
-0.17735797105572132
-0.1676884063412348
-0.34021067442193725
-0.07133985063854931
0.3004348163862952
0.25160729389786135
0.24853787355749646
0.1292698170284423
-0.1020874395627912
-0.2684901533063966
-0.2057840393544173
-0.14854768119851855
0.07827470656831012
0.2603365760599893
0.19016555476668934
0.063565943638614
-0.1202127550213631
-0.1543603978428743
-0.21967010538811582
-0.08344643917233417
0.09495948562560241
0.1525464869377997
0.1089503565530989
0.1561637971883959
0.05631640934524308
-0.050668268428859464
-0.03117838065994006
-0.13831961031884277
-0.19465471765163103
-0.18301760475960355
-0.04905649678199067
0.0843887122556167
0.29509988554246663
0.23869858755430767
0.13313318863415446
-0.044255533362050105
-0.14661884600929842
-0.23891054889417113
-0.17794452921670692
0.0018318177098467978
0.09299294669061445
0.11057874290628623
0.08197627140532324
0.03597632641052211
-0.005294878967431715
-0.029963305341847653
-0.03589127788956031
-0.027615828468967527
-0.012547275079817332
0.0022008478720072417
0.011704526019232322
0.013859791143871704
0.009151715616743696
2.7411726011607138e-05
-0.009830033306868885
-0.0162754316668206
-0.015637150513013523
-0.00591127559517365
0.01189922045782722
0.03272625158805396
0.04732882934479251
0.043782677319115865
0.010786506250134349
-0.0578101078521534
-0.15879002046882923
-0.07773716196156168
0.008768939402928609
0.12686704436294316
0.0970389798909568
0.12699882466216703
0.008925565012345918
-0.07772656221084842
-0.1590832555060036
-0.0584602095929145
0.009907719878165388
0.04300870339250127
0.04713629549975321
0.033571981149242945
0.013979675841159457
-0.002906097053158104
-0.012660027281666689
-0.014820261275880889
-0.011506126580146108
-0.005777570106189824
-0.0003231878860054584
0.003245315182047597
0.004500261814442577
0.00389553366091466
0.0023002278322957746
0.0005743483680894269
-0.0006965633927157081
-0.001283540470884295
-0.00125481297155057
-0.0008454768799594523
-0.0003229464050623083
0.00010828274499500646
0.00034728603097717805
0.00039014179502116825
0.00029552922202484523
0.00014344075656303487
2.4117345585860053e-06
-8.764231943816148e-05
-0.00011736103597430814
-9.963605502364781e-05
-5.741866521040738e-05
-1.2868430798672252e-05
1.9265980444948945e-05
3.352408220638364e-05
3.202510245193316e-05
2.1023419707438883e-05
7.439608144517088e-06
-3.542241591691472e-06
-9.45331093586516e-06
-1.0312679983284198e-05
-7.707669436284961e-06
-3.722919965071379e-06
-1.0770212278880384e-07
2.146382108132569e-06
2.8363436764362752e-06
2.3214766573860463e-06
1.2048164689372347e-06
5.5581393489851484e-08
-7.5590440298945e-07
-1.1006412560330079e-06
-1.0425502559214874e-06
-7.476887322351631e-07
-3.9495868897268186e-07
-1.1560325544949726e-07
3.021502923867433e-08
4.6069325905896206e-08
-2.5253313146366544e-08
-1.2949575691562716e-07
-2.220620951610142e-07
-2.783756816502299e-07
-2.941906080474929e-07
-2.7944915397823663e-07
-2.499708548383749e-07
-2.203610251098498e-07
-1.999021213960429e-07
-1.9161365045761126e-07
-1.936101965319223e-07
-2.0149031246998505e-07
-2.106330456520158e-07
-2.1772014811197013e-07
-2.2129374012103334e-07
-2.2152950980171144e-07
-2.195836324978975e-07
-2.1687269156745615e-07
-2.1453483547930867e-07
-2.131731917694585e-07
-2.1285839881269333e-07
-2.1329607333576898e-07
-2.1404930575329624e-07
-2.1472982195898805e-07
-2.1511188567149798e-07
-2.1516123841607155e-07
-2.1499664953270633e-07
-2.1481208299565172e-07
-2.1478726567401978e-07
-2.1500974650241814e-07
-2.1542692731841182e-07
-2.158429839478166e-07
-2.159705815689849e-07
-2.1553688900704043e-07
-2.1442534294438002e-07
-2.1281123906308694e-07
-2.1122886414759367e-07
-2.1050352398611007e-07
-2.1150656519096967e-07
-2.147514617103888e-07
-2.199359676681914e-07
-2.256222340072123e-07
-2.2929053875838277e-07
-2.2795580988126478e-07
-2.193694974023605e-07
-2.035546445424342e-07
-1.841117451971293e-07
-1.6851946584157773e-07
-1.666990628910424e-07
-1.8754233404885847e-07
-2.3393209810640795e-07
-2.9783402826295785e-07
-3.579198798791216e-07
-3.8236257323800817e-07
-3.384274940885477e-07
-2.080779789474872e-07
-5.395181794568783e-09
2.117193232538466e-07
3.446438863513456e-07
2.7900422596536877e-07
-6.810410840348627e-08
-6.889928428107248e-07
-1.436587111343124e-06
-2.0160024031529794e-06
-2.0440758212678986e-06
-1.1869563348511781e-06
6.467451304458857e-07
3.120185037542801e-06
5.385730474716047e-06
6.206210319659264e-06
4.338515957092502e-06
-8.572181454638853e-07
-8.752135873690224e-06
-1.7022165886154016e-05
-2.1809411109869228e-05
-1.8733110939001873e-05
-4.745073266834482e-06
1.9594658922332878e-05
4.82994805653313e-05
6.975679727015349e-05
6.918543940400092e-05
3.408097044800914e-05
-3.830039827900953e-05
-0.0001339242445304902
-0.0002191558336345681
-0.0002459595238632496
-0.00016721341378481684
3.9536607559928395e-05
0.00034669084580979224
0.0006611405054766264
0.0008321228446866579
0.0006920447098067555
0.00012929158665420717
-0.0008242911692069782
-0.0019258302774569005
-0.0027185982043465193
-0.0026328353140342114
-0.0012005629814804248
0.0016555603509952699
0.00535915188128619
0.008588099653879504
0.009499302219466797
0.006344480240000899
-0.0015984997959261904
-0.013055496330456398
-0.0242089495500687
-0.029107973139859834
-0.02143579656319325
0.0023480607376606543
0.03904277484972466
0.07503081710917968
0.08425371822578981
0.02883627161723241
-0.13771946845944744
-0.26627282283163317
-0.20903925648077712
0.18076779065726833
0.4482256941153834
0.5398927981270117
0.21660063228389456
-0.5226557234730179
-0.8122682919027221
-0.5005673101579133
-0.15330658479807907
0.3141804489615295
0.9833521391754506
0.6750072839657335
-0.2924465043803936
-0.5173483137963882
-0.3028386635537585
-0.02913903204819584
0.2781986863289374
0.1774062201274722
0.03582079086657328
-0.14794408328275202
-0.326121555845692
-0.3917241507702687
0.22027659843848324
0.3206062075403053
0.347388327349936
0.15022072663638075
-0.016543322783312824
-0.28997971812210094
-0.38915418077483205
-0.20844080203291096
-0.020855260416939345
0.3064844576045681
0.4890805837872922
0.00239092464301075
-0.13233734608549372
-0.35045770145951144
-0.1365083841130818
0.18884831981538003
0.6851416027343489
-0.18765675706161583
0.056239929201218904
-0.24336908163499843
-0.4689669265734787
-0.5160513484978665
0.1938267604933163
0.07637808067986568
0.1314027768642579
0.28707501780748407
0.5580550745964986
0.6315330028019549
0.08895404397527462
-0.3387538904394116
-0.6963166699890166
-0.9326254436196282
-0.6572567843316683
0.2586138874016026
0.4363889744228951
0.9158893899214319
0.6800723452460613
0.2052179096350934
-0.14804082620220207
-0.30385969022813436
-0.8160009788719029
-0.41104840007239013
-0.15083204935237104
-0.02544797344673063
0.42453586096623036
0.6691576268423891
0.35121563180208565
0.06520116326724973
-0.23967873270902668
-0.4359378320431155
-0.3855365159551833
-0.11290227368996253
0.40687608792990176
-0.15770930682534098
0.08633006004790245
0.03134312755253569
0.14492622217181583
-0.14755701317545433
0.5302372005742786
0.11184773955057492
-0.09305487493163733
-0.37113030127868724
-0.37751750177303184
-0.3179031012472113
0.05177891421124783
0.2069358140668535
0.4238970552061403
0.34940697952797917
0.182119621910435
-0.12677611631289296
-0.2545221565076156
-0.2773265800412537
-0.24207536361508356
-0.14965970910138868
0.04461809660253569
0.214629659127696
0.23773168716571857
0.16944331943224822
0.22741517841880654
-0.010233321638275205
-0.19260429415863997
-0.3753431490953307
-0.20025865621576103
-0.08339869584058579
0.18438562931820576
0.22621899337639015
0.2638410122068297
0.10589427638567483
-0.054869601118065735
-0.23503092831759276
-0.24883779965876343
-0.09794214825095127
0.03212766250875172
0.16720721656850546
0.13413733508939918
0.14997880599014296
0.01570020396515693
-0.08328194679676111
-0.17063852722130463
-0.07014648054943583
0.0018272133687999212
0.03975775352501907
0.04797144119496432
0.03674106690824404
0.017641805151243847
-7.190114005861778e-05
-0.011232652054444691
-0.014727874201538954
-0.012287223492695181
-0.006867838938123057
-0.0012691682526588526
0.0026855645090202314
0.004359405645442452
0.0040636309615967965
0.0026113837660342097
0.0008789908623870189
-0.0004910403003896677
-0.001204822620407668
-0.0012808763965015506
-0.0009297123587531956
-0.0004177228233408594
3.6390407604682715e-05
0.0003122912421767197
0.0003894058151868568
0.00031669964003680474
0.00017187074277142642
2.6569947954558918e-05
-7.372016224405328e-05
-0.00011425690856663431
-0.0001043448596570377
-6.560269009241632e-05
-2.0699375793564144e-05
1.4100330020840888e-05
3.1655647837942906e-05
3.2825569807029975e-05
2.326299870463952e-05
9.891411383600476e-06
-1.7206902859259859e-06
-8.598550424029946e-06
-1.033618161304866e-05
-8.279553311980033e-06
-4.463458771841909e-06
-7.240366964490154e-07
1.8008252272481954e-06
2.769872012742587e-06
2.452320980150994e-06
1.4197100893712526e-06
2.566471924727895e-07
-6.262856108325209e-07
-1.0566489141203436e-06
-1.0664562401435913e-06
-8.07103524387548e-07
-4.5831522457288547e-07
-1.616975559421721e-07
9.418461302457271e-09
4.7768181846377585e-08
-9.84577813684689e-09
-1.1021466110365857e-07
-2.0634143982621204e-07
-2.6981432186712415e-07
-2.928394682660065e-07
-2.8309675991796125e-07
-2.556589972236311e-07
-2.2557392403455184e-07
-2.0318032923809471e-07
-1.9261619389764443e-07
-1.928124804132623e-07
-1.997488660188611e-07
-2.0880149534052364e-07
-2.1641193357639956e-07
-2.2080074091596184e-07
-2.2185044386108034e-07
-2.2050057525705496e-07
-2.1803065369112405e-07
-2.1551082022144682e-07
-2.1354843871084003e-07
-2.123160869853339e-07
-2.117510471666087e-07
-2.117817812216475e-07
-2.1245707538410712e-07
-2.139124613599638e-07
-2.1618627816126293e-07
-2.1897334161443717e-07
-2.2145602795225176e-07
-2.2235957981805068e-07
-2.203245695564539e-07
-2.1457211358851387e-07
-2.0567728856624108e-07
-1.9611298733541055e-07
-1.9015416409724135e-07
-1.9281908767347894e-07
-2.0781687777851123e-07
-2.349441293995933e-07
-2.679004617289876e-07
-2.938462956683703e-07
-2.9593262332311894e-07
-2.592795769516343e-07
-1.794568716252086e-07
-7.07367982396979e-08
3.0080847759996094e-08
6.87275179908926e-08
-9.92863128744433e-09
-2.3521264597535046e-07
-5.812104209311297e-07
-9.474760831736667e-07
-1.165272499490379e-06
-1.041089658661211e-06
-4.376313264672659e-07
6.25894209239127e-07
1.892399910738465e-06
2.855544824230516e-06
2.8645935034194434e-06
1.3612994795625844e-06
-1.7912969840375741e-06
-5.996844614691168e-06
-9.79393753681604e-06
-1.107421854539364e-05
-7.745905883049371e-06
1.225717137279881e-06
1.4694821261903776e-05
2.8634060617876635e-05
3.644680154032442e-05
3.072677118017352e-05
6.438065890431829e-06
-3.5227226565478015e-05
-8.382159024381567e-05
-0.00011941867152474395
-0.00011693154106452875
-5.548063402155247e-05
6.887433682418126e-05
0.00023136046440598595
0.0003740341830049961
0.0004150836724375552
0.0002752933828610201
-8.141011863421874e-05
-0.000605139534614839
-0.0011347381840823819
-0.0014126174225814598
-0.0011557304133476204
-0.00018028904821756667
0.0014500434691865295
0.0033118888193771185
0.004621996532372018
0.004414340158016346
0.0019100756801612724
-0.002990005643365445
-0.009262087223515292
-0.014611909233236166
-0.01586759651277759
-0.010032386699884157
0.004139113346021785
0.024515076396954674
0.044684995758038165
0.054649360644688366
0.043686157998306864
0.005245386527033189
-0.05736901669816047
-0.12689402799252905
-0.1725731248326469
-0.15774206730673224
-0.05518714750184282
0.13229349706474375
0.3523812658123258
0.4936191092314651
0.3941473193604994
-0.1273185120882519
-0.6225943456021129
-0.3603113853309694
-0.28523547686260536
-0.4062811214908189
-0.020579708987023014
0.42985704087852944
0.08202796591385625
0.1754868831294873
0.7955237019979794
0.6520593908323301
0.10249049265570387
-0.38465824605042526
-0.9416563348955382
-1.0157109128340012
-0.5133314132454198
0.20720361766821968
0.8956918687874431
1.1409357095306651
0.1009959171204165
-0.34295858302621257
-0.39915036108176283
-0.3492941516397429
0.08248798532875806
0.5639584792229216
0.18610420602741448
-0.510526327212147
-0.31713403899471404
-0.5512329339085985
-0.07029132862975206
0.49500082654357097
0.8958571721326076
-0.17664948295735744
-0.1166996889264636
-0.004827019009129318
0.013312078567014446
-0.03664431279872354
0.28533118841020005
-0.1247992704779318
-0.683509881752442
-0.5067940001538351
-0.22323008115647242
0.18562944187042354
0.7260879486313373
0.9322814628160988
0.22639210528765047
-0.08592412568384411
-0.38329769702810323
-0.6723269107140462
-0.5283848950643645
-0.0540351401386101
0.13314027226797093
0.2836626313377412
0.28084992778276435
0.20236138700287154
0.29245719120580493
0.15327377653495222
-0.2438912223131068
-0.3333998577549757
-0.32738820209462344
-0.39751624935397994
-0.0750317609524462
0.32961426197973265
0.4948259688316666
0.4567645682037314
0.19268958975359443
-0.17346050246353914
-0.3449800318274277
-0.416311170984677
-0.4414906471924885
-0.019320872304242225
0.2999763073035577
0.39103194637383215
0.32368288758302366
0.13982539654747222
-0.15525793752752137
-0.38659073821121925
-0.19423614767895975
-0.017595735439488995
0.11439502746599024
0.1857045801909023
0.19106167770138127
-0.06662181306394216
-0.17677545931504274
-0.1201710686261427
-0.06903191729577407
0.009325373370943843
0.14507820535450144
0.15705411867234453
0.04615745130083317
-0.005831259266838173
-0.031169321750261124
-0.0664510194827656
-0.1417300873572997
-0.07226802175641239
-0.05569976998931948
0.12461842275203806
0.09167866595549713
0.06564020086041794
0.05702077845777549
0.06465762898171169
-0.12125012086886737
-0.11277048327031408
-0.11758166075159243
0.06497900988478444
0.043621430239259955
0.031104758072570765
0.038593285806550165
0.07072324319967044
-0.07696899987924335
-0.01771173335475501
0.02932589038027046
0.043447268455336634
0.0075162224713422295
-0.08714635250259048
-0.03709908951345358
-0.025553657962619686
-0.024467568439648424
6.0051934415292515e-05
0.08021476103353009
0.03869624308045328
0.0830089931703696
0.0036030481626245117
-0.023487861118741918
-0.030293486839167875
-0.048796576324802665
-0.10351472650901593
-0.006898367963456929
0.04135954332192882
0.05140602310471744
0.038222786597069305
0.01652952376632759
-0.0028139563777702255
-0.014237033086080578
-0.016952438664176103
-0.013289787101479116
-0.00675062187765678
-0.0004547121170813504
0.003703658600531422
0.005198635414770601
0.004533353521004668
0.0027035657580661483
0.0007048213823194402
-0.0007788995248317427
-0.0014746778546341367
-0.0014551625139765563
-0.0009892030725355138
-0.0003860588516115789
0.00011583122090772543
0.0003971720652850897
0.00045124914333546164
0.00034467526787758547
0.0001696899004747862
5.986228303390707e-06
-9.95303544246733e-05
-0.00013532612373426495
-0.00011584444530692394
-6.746133797408806e-05
-1.5878229854098255e-05
2.164471135163488e-05
3.8570616592556444e-05
3.718603561294789e-05
2.4647435785459557e-05
8.961101805356828e-06
-3.825533096027056e-06
-1.0790221218994827e-05
-1.1899372773999634e-05
-8.957638529738877e-06
-4.370059676562195e-06
-1.7161484506626782e-07
2.471428361634351e-06
3.306141445344344e-06
2.7363704698826046e-06
1.4555984871370573e-06
1.243269052291104e-07
-8.237734882350936e-07
-1.2337866409612534e-06
-1.1754823426088766e-06
-8.390411302223106e-07
-4.315272499647933e-07
-1.0611756034858396e-07
6.5874602063616e-08
8.71726302908373e-08
6.495228047166566e-09
-1.1353237704667695e-07
-2.2102166754973896e-07
-2.870665095192574e-07
-3.0632214672042736e-07
-2.9001715658735245e-07
-2.563529608969948e-07
-2.2224379886330754e-07
-1.9848568165417334e-07
-1.8861249942178774e-07
-1.9045680521401323e-07
-1.9894904804811767e-07
-2.0883266016707604e-07
-2.164681494598425e-07
-2.2046691730867247e-07
-2.2133920781183516e-07
-2.2057780780551628e-07
-2.1964105444327678e-07
-2.1920727347535187e-07
-2.189175211533796e-07
-2.176545506913975e-07
-2.142481619322373e-07
-2.0836142919864645e-07
-2.0121345507667835e-07
-1.957629365097876e-07
-1.960566251103347e-07
-2.056733777871541e-07
-2.2556222369044676e-07
-2.52003200014822e-07
-2.7575122891077157e-07
-2.83441069036645e-07
-2.618430709726036e-07
-2.0450644834437374e-07
-1.1889378608109497e-07
-3.0778222984593583e-08
1.7844310765107997e-08
-1.9946412939003147e-08
-1.757148082562776e-07
-4.411925186832451e-07
-7.49231492416825e-07
-9.727234768912824e-07
-9.524438859263841e-07
-5.568842590972015e-07
2.3684746611368815e-07
1.2686999416180741e-06
2.168369255354065e-06
2.4157559109136226e-06
1.5103350291407484e-06
-7.708129016030963e-07
-4.102011908898397e-06
-7.451067896854743e-06
-9.17786832668061e-06
-7.489805736850139e-06
-1.2366954165592574e-06
9.149510033364555e-06
2.0949273337769298e-05
2.9167925755974524e-05
2.767657536046272e-05
1.1574199960693426e-05
-1.968434493340905e-05
-5.9491382311553404e-05
-9.319107932522102e-05
-0.00010063071245861109
-6.290173421378629e-05
2.7619591181987052e-05
0.00015696502321277929
0.00028392551338367295
0.0003445483985195565
0.0002704533885349111
1.996174609082866e-05
-0.00038586521729881717
-0.0008371892898253689
-0.0011379969655340952
-0.0010526802673045909
-0.00039916825134756964
0.0008302674444178202
0.002364003936777031
0.003622772358579056
0.003826545410647859
0.0022623919398436832
-0.0013252759109577898
-0.006343336706951588
-0.011149670204761987
-0.013253482562393488
-0.010049879905691622
-3.641818567114718e-05
0.015808832281190004
0.03307429494307061
0.044105306351105544
0.039910668656140166
0.013845468471485706
-0.03371074719960604
-0.0914096133140859
-0.13610852366181703
-0.13743075016377082
-0.06871321932964142
0.07707560552155772
0.27086809001803197
0.4372784420873804
0.4575830308467482
0.18939951252350015
-0.5006944324174705
-1.7043641523332291
-1.0570863853124877
-0.35675013015187473
1.3867349611265964
2.6968650684294095
3.2141700298285545
0.55577651336612
-3.1456059130542733
-4.071044293557449
-3.400360797416662
-1.9382474842202146
1.2843349528029002
6.079512848059985
4.558935113398231
2.1164663956906407
-0.5652881845987826
-2.8763836131598772
-4.294037588632945
-2.789161392212854
-1.3578254424448506
1.04652398270383
2.3837163832322044
2.2715805875880597
1.307027436085923
0.6545865991297226
-0.447431296921442
-1.0620486090455896
-1.2470297228461213
-0.72065344761213
-0.3491944583444116
0.3145201234251145
0.43694943491236915
0.4693850848496351
0.49777932502239525
0.19980986638732245
-0.17693920055257223
-0.21353517167180164
-0.3027556130393934
-0.4293892610740957
-0.15963829302138227
0.15409760520056354
0.35459330084966995
0.2557884584761407
0.22493301535314272
0.18041400565335614
0.00891180504253363
-0.20165728118270507
-0.3231027540773907
-0.5548820425454648
-0.21134788520134404
-0.13547253556137218
0.26247111075904445
0.552146357146678
0.8335806579982354
0.10839399656667609
-0.11740987828410955
-0.4002134780302271
-0.5079675415648448
-0.5707570619787846
-0.04981296540913537
0.2665272314123056
0.4426287632277645
0.36278459787568784
0.10031784033609137
-0.10083621932610601
-0.22910972522756465
-0.2970079267301632
-0.1290900635644517
0.24739393658547737
0.20700324204456144
0.127733100463757
-0.006734052932987075
-0.20248887639329957
-0.2502835752064268
-0.12379613939664358
0.015402452041500382
0.20610857030626617
0.2729290110092152
0.21525271639971855
0.005299228377222589
-0.20303039321432784
-0.25776311006199687
-0.1917247864275904
-0.011671918232833709
0.10245825703511263
0.18895836699397137
0.09086159464381183
0.04305908793737425
-0.13598722260397317
-0.046681369702187135
0.09415793989282377
0.058917584014324814
0.01656321178305928
-0.05943132570046323
-0.1842556220878872
-0.1582736809353874
0.03127717531950691
0.20343564636185132
0.17420648773889294
0.14920785717581786
-0.077940206189833
-0.12058637811932163
-0.18996006060864795
-0.08667435836862117
0.002943569515843679
0.10393888029594842
0.044552009954463824
0.046219593044853104
0.11562399655849272
0.04165227950607631
-0.0016504874610512703
-0.04705588826314826
-0.12378463328078182
-0.24858210925164032
-0.02174368416806465
0.170284904682911
0.1470778899444128
0.12509646268046531
0.111739830869206
-0.0948257745544692
-0.3007190936189342
-0.10972157570144209
0.08085902349024975
0.07950726420570997
0.0958034386547174
0.13481267326654578
-0.006172433294241311
-0.13694163063669876
-0.07042785668137048
-0.01780823701145911
0.014972609172899448
0.028068058910691744
0.026276174451035725
0.016440548765410956
0.004950165144611498
-0.003860581692448548
-0.008186678105492685
-0.008324969280250897
-0.00578144267720854
-0.0023461500905993956
0.0005729001175049416
0.002248882755969081
0.002611976581433697
0.0020290456070257345
0.0010282189388538209
7.454037266118457e-05
-0.000552145549035871
-0.0007765927927987825
-0.0006765568930946008
-0.00040239636219079533
-0.00010353998465488761
0.00011776101036029419
0.0002209893528534152
0.0002173237361347704
0.00014716776847499308
5.68185788048545e-05
-1.8133778509574352e-05
-5.997159664265656e-05
-6.781033961161391e-05
-5.169218960713513e-05
-2.5441627834168544e-05
-9.654945076647697e-07
1.4755600868078927e-05
2.0034800480417077e-05
1.7060814110859343e-05
9.792077824640784e-06
2.0724608234213857e-06
-3.5252748876214414e-06
-6.034898735043709e-06
-5.807990093013638e-06
-3.920326407813591e-06
-1.5704587376566934e-06
3.3911650965707085e-07
1.3746488363696317e-06
1.534235085442262e-06
1.089811444016956e-06
4.0178610662359144e-07
-2.2583676657445863e-07
-6.195364945888071e-07
-7.424599763538931e-07
-6.55718207245554e-07
-4.633506544751073e-07
-2.641185063565029e-07
-1.226517490753049e-07
-6.183886858410466e-08
-7.102856830491957e-08
-1.2167505040551062e-07
-1.8280990275772462e-07
-2.315760989343406e-07
-2.573525416865918e-07
-2.605421041126419e-07
-2.483721897370373e-07
-2.301297603656558e-07
-2.1353853012008564e-07
-2.0299396329776768e-07
-1.9951310039281035e-07
-2.0175342339343515e-07
-2.0734183601503237e-07
-2.1393401072852888e-07
-2.1974220784602283e-07
-2.2357963591654687e-07
-2.2466984326137377e-07
-2.225162587629023e-07
-2.170283650333753e-07
-2.0890618553023308e-07
-2.0006958157551548e-07
-1.9377086632360588e-07
-1.9402909601959923e-07
-2.0422084689874712e-07
-2.2504337498562897e-07
-2.525360072958238e-07
-2.7722291055031197e-07
-2.8549291713130577e-07
-2.6385645958652934e-07
-2.0565342043011559e-07
-1.1831736451424128e-07
-2.792303130504667e-08
2.28149769911222e-08
-1.4084421389366753e-08
-1.7128630044106882e-07
-4.411487308538458e-07
-7.560850517794183e-07
-9.870689768538538e-07
-9.715529904601696e-07
-5.741149223816301e-07
2.3105896112876901e-07
1.2838301857128697e-06
2.2090920942855006e-06
2.4768528725228197e-06
1.5735239012284535e-06
-7.354535890797393e-07
-4.128055554002153e-06
-7.561315816061084e-06
-9.366861158962863e-06
-7.71011036015422e-06
-1.3979172701795703e-06
9.161115827121673e-06
2.1228300288281624e-05
2.9732082847609716e-05
2.8413333600216777e-05
1.2220654448153818e-05
-1.949919355873419e-05
-6.0126533754179364e-05
-9.480964627969344e-05
-0.00010300583513484395
-6.530202576488527e-05
2.636245231166907e-05
0.00015813414192702923
0.000288353076133007
0.00035194384346965693
0.0002788949306751229
2.5896639522436947e-05
-0.00038681656837119067
-0.0008485551694530034
-0.001160222021162279
-0.001081117828061005
-0.00042341764385779964
0.0008245705134475839
0.002390401397743806
0.003686821154855395
0.0039184288453207525
0.002352818940433462
-0.001281941281487459
-0.006396028171137154
-0.01132825525241427
-0.013542548701996579
-0.010369082741944672
-0.0002404139348533691
0.01590021621568697
0.03361402392012504
0.045138527050279646
0.04130520065932579
0.015272598128704438
-0.03271429723148696
-0.09130447460094616
-0.13721759506045098
-0.13998715317031588
-0.07339406169920383
0.06771314341991945
0.24956795409545182
0.3874608157335974
0.3468116093577873
-0.03825540568862428
-0.5304568741341624
-0.6475610927315046
0.1742862012878016
0.4017067891510808
0.20602171364417965
0.048526833298826406
-0.5469928909787132
-0.8334915663434921
-0.49264244680413394
0.9031571463962611
1.4312010437058873
1.183100518986987
-0.12509774376456279
-0.8908476788684221
-1.3275029361365367
-1.1649477832697552
0.21675992333701838
0.8018924603128371
0.7061493217098262
0.11822169809197652
0.2412537708341949
0.2510367045788841
-1.3251254708911393
-0.014971953820748169
0.39727089511171687
0.26886028066243134
-0.5025253576278907
1.1275519732335022
0.1701776875922708
-0.16166799206463697
-0.607595721475203
-0.6166966381971932
-0.523483125449404
-0.15585052473340252
0.32295419428277217
0.7499829857671951
0.8976817838808762
0.632195223497307
-0.28950081454563353
-0.7837087571027045
-0.7818726415285898
-0.5757708263403867
-0.1886349710866425
0.6184049775220675
0.7116266844592094
0.3406418848608144
0.10586426910176372
0.35096735077951624
-0.818368845534113
-0.2990348581085105
0.046334547958435064
-0.18672963385237668
-0.5418051835646573
0.4794252729419351
0.18276596037939502
0.24299768360404042
0.47455260053665516
0.2222859349651536
-0.023162655143926104
-0.38941880582217436
-0.5777039263442999
-0.42549408012260204
-0.0906621199384215
0.13658648210913427
0.39829707712907503
0.42295750881363536
0.2857432225536355
0.18825717273704096
-0.13650418537631726
-0.3974659659188409
-0.30791667300073383
-0.15077442043235373
-0.15795604795773827
0.09109904478964491
0.25386952596368156
0.19972917220522568
0.1851994013206761
0.03775332760633011
-0.047721652182542394
-0.10069950022866965
-0.15985670632904386
-0.2575081717464376
-0.009375238362523875
0.18743793599176153
0.14919868807615272
0.0969670858642842
0.049229892681116195
-0.18160613233653317
-0.18914975655640565
0.0283041108131794
0.06814039957271212
0.12246048348062201
0.17746779059246137
0.015442950783460347
-0.1798703380007522
-0.21615705081216427
-0.08728141034010271
0.026742985841676427
0.1536736222458553
0.11919250397103019
0.13762979553886806
0.007276886238732848
-0.0879776855023699
-0.1719149184529598
-0.0675217178821647
0.009520547491052361
0.05322566584461362
0.06570634287471619
0.053469528606174155
0.023897239309389286
-0.016570397426920788
-0.06235031760120562
-0.10767189011815503
0.054055579637449336
0.029562087628009225
0.023863477294092387
0.03826579422736664
0.06943198142676643
-0.0898360791919677
-0.0483460331374903
-0.013802589170076077
0.009173939101684793
0.019616615322904596
0.019491960973957983
0.012356813118397396
0.0021058861816961477
-0.00778293107467804
-0.014500417803930002
-0.0159397555837811
-0.010867851587029291
0.0005653331324462546
0.01608336308400077
0.030726482525417532
0.03707028820498904
0.02669144809019723
-0.007104695207587032
-0.06598353103106191
-0.14406525663950523
-0.027738650609811573
0.10134014462469583
0.060688649519395774
0.06098163784406629
0.1021673342555917
-0.026546980836143947
-0.14282349586530266
-0.06514792689135875
-0.00719442907489637
0.02527258821536976
0.03428566288460262
0.027144412269620194
0.012965090928858272
-0.00033758392363428713
-0.007882557990150823
-0.008342105175485164
-0.003429196760190352
