0
-4.754361514980112e-19
1.6650013013374776e-19
1.1667429858816889e-18
2.2403265060406e-18
2.9007381005801004e-18
2.5826969478554915e-18
8.750152996360209e-19
-2.1873202071481605e-18
-5.8814171688793645e-18
-8.75345031296588e-18
-8.91087734789921e-18
-4.7004737987176936e-18
4.338019962884025e-18
1.6552640501089425e-17
2.776731966959616e-17
3.18748595059868e-17
2.272578457003274e-17
-2.8656221541028755e-18
-4.183108182995603e-17
-8.273041120684744e-17
-1.065301433853052e-16
-9.157619461710194e-17
-2.2744309422321912e-17
9.731631228824901e-17
2.391723254559413e-16
3.4556518785364343e-16
3.434786202240154e-16
1.7097609812279704e-16
-1.8584465192884693e-16
-6.581197872566739e-16
-1.0801167032784766e-15
-1.2146844898077093e-15
-8.286728809320354e-16
1.898448903691665e-16
1.7060506383835706e-15
3.2616036978829558e-15
4.112737193546828e-15
3.4311298723170665e-15
6.63040132103085e-16
-4.038425350623702e-15
-9.478488768827732e-15
-1.340489154169961e-14
-1.3004054318563024e-14
-5.961852868946427e-15
8.106039528812603e-15
2.6344634493541132e-14
4.2186420651014595e-14
4.643309110817851e-14
3.026164369670804e-14
-1.0209642127248535e-14
-6.914014870468596e-14
-1.2820213797953811e-13
-1.5836508755877812e-13
-1.2799024049927512e-13
-1.6908868834479614e-14
1.6698064449186116e-13
3.753142534898426e-13
5.196094190728545e-13
4.915849214816612e-13
2.0503207711376468e-13
-3.488884460386978e-13
-1.0523828726107408e-12
-1.6455734871795762e-12
-1.7721012489482116e-12
-1.0987453563304923e-12
5.069292371553415e-13
2.794763110659773e-12
5.033215871002232e-12
6.090474331221276e-12
4.759900214605823e-12
3.112529794307733e-13
-6.872918145239257e-12
-1.483990381039776e-11
-2.0117796174726338e-11
-1.8544719312852863e-11
-6.9193996681599025e-12
1.4863623831190166e-11
4.1965121087677965e-11
6.411598077837144e-11
6.75263466946226e-11
3.963796408504245e-11
-2.397202082760068e-11
-1.126893579451451e-10
-1.9736559059423193e-10
-2.33925125302607e-10
-1.7642232535197645e-10
1.4010620205862295e-12
2.8174818588621077e-10
5.859667607508646e-10
7.779879849021614e-10
6.980574330701903e-10
2.2771711737389254e-10
-6.278464964178081e-10
-1.6705914017411971e-09
-2.4952794759291533e-09
-2.568922262861466e-09
-1.4192972738059323e-09
1.0970615985817803e-09
4.53334093958327e-09
7.730029184290604e-09
8.972673233325471e-09
6.514687334404197e-09
-5.805479920332566e-10
-1.150797304694923e-08
-2.3106672661037387e-08
-3.005022202883986e-08
-2.6214718304378606e-08
-7.233872042527998e-09
2.632903143430118e-08
6.639745145850499e-08
9.70009341344385e-08
9.756377503934602e-08
5.0372076193574405e-08
-4.903543672837895e-08
-1.8197658249328584e-07
-3.0239946930233633e-07
-3.436914892080096e-07
-2.3957316457682087e-07
4.3044742085573836e-08
4.68489596567189e-07
9.09995504002737e-07
1.1593025306015352e-06
9.81989378476639e-07
2.1781566346026488e-07
-1.0972517624485238e-06
-2.6348791762948507e-06
-3.766476105386662e-06
-3.698697979505946e-06
-1.7687925646786405e-06
2.1529837289051803e-06
7.290051203108083e-06
1.1816161781629487e-05
1.3146148067201384e-05
8.76944173876869e-06
-2.4693719236538594e-06
-1.9014571037396406e-05
-3.5792358999614215e-05
-4.4669329987545016e-05
-3.6684881469598244e-05
-5.987061281797813e-06
4.5479068986684816e-05
0.0001044042607088504
0.00014607780608211378
0.0001399473625121071
6.128459219946125e-05
-9.324838642033221e-05
-0.0002915388084454422
-0.0004612721112759011
-0.0005022330293229679
-0.00031949116663634966
0.00012676772085280517
0.0007696722928758958
0.0014067828594847727
0.0017213269866475935
0.0013722183346234688
0.00014846071423384538
-0.0018507741672269607
-0.004084340529436556
-0.005578953222361455
-0.00515908365216995
-0.0019137514536215585
0.00418738806052673
0.011736233222693179
0.017678863172315776
0.017737264542990266
0.007578011583053525
-0.015463244888728495
-0.050668109194586086
-0.09305820895875078
0.06592512293863168
0.03607096373205696
0.02514650017437527
0.03610228204466419
0.06597729243243126
-0.09300474429047964
-0.05063844440489763
-0.015481387070223875
0.007498784217124802
0.017605044372383596
0.017530501849494243
0.011635863432630286
0.004211289392576208
-0.0017068469379781695
-0.004766405493358727
-0.005087132055199577
-0.0036785219152060105
-0.0017807057132469262
-0.0003462400948456783
0.00022911414375537584
0.00011702210538159079
-0.00013576105571725042
8.489863284088478e-05
0.0011353483958841352
0.002869433739910257
0.004564315525648581
0.005083468601439549
0.003292077274389588
-0.001345520395491889
-0.008164818595858363
-0.014970362969712521
-0.01827695743953249
-0.014329574344267192
-0.00086333075019279
0.020798122866695665
0.04407640083979965
0.05686986697803251
0.04347504936176266
-0.011161004918034218
-0.11574624088318736
-0.06740684388997348
-0.04920229362845549
-0.03204333671580806
0.018876500442399795
0.1348233675999808
0.13443865340231395
0.01806246900976142
-0.03240831108490295
-0.048095671306793444
-0.06420976929573508
-0.1107776912490882
-0.005976430350468215
0.0462478209525803
0.054301697659770796
0.03426536019195023
0.004421777490384866
-0.019399894506286635
-0.026947517268431045
-0.015167932481318397
0.011371574443556746
0.0411444177648487
0.057621592291668966
0.04283080437972702
-0.017583570305680685
-0.12877242171129286
-0.08244545153853103
-0.05613273615571248
-0.01723798043576158
0.06863099312727614
0.22754713273160387
0.06902524067332715
-0.01705800517190297
-0.05708504955125502
-0.08524310483593796
-0.13335735680671018
-0.02273506100462401
0.039470999036269966
0.05893230217347776
0.049315990562141754
0.026375150040409877
0.0031377253293460652
-0.012627380239711175
-0.018604943527468876
-0.016497897350595328
-0.009946325056273901
-0.0026487256332949696
0.002824721035469529
0.005422499238646595
0.0053819991783337524
0.0036812921991872215
0.001460960183229528
-0.00039280419570662486
-0.0014332120149191797
-0.001633353999271297
-0.001242762319620759
-0.0006092949710759643
-3.349774494064089e-05
0.00031179100628547584
0.0003951871109830411
0.00029227067388494244
0.00012807528450527175
1.895574793212693e-05
2.9003584434518545e-05
0.00014890913740226285
0.00029992394608207364
0.0003620104159053616
0.00022163028984559585
-0.00017064742184293765
-0.0007493445632904164
-0.0013125275216966756
-0.0015523156183678767
-0.0011504131264555952
7.056610568111985e-05
0.0019806511795146743
0.004032279537468383
0.005291699880748
0.004677979451836147
0.0014122942017387179
-0.0044215090319370196
-0.011416614692109008
-0.016769251084413482
-0.01685531450009449
-0.008559750457006013
0.008841670990864326
0.031821474223730224
0.051631689461987935
0.055129914734696854
0.027903146179185743
-0.040670933568412775
-0.151897300393627
-0.0940906437670488
-0.04300355199453382
0.0327319153785971
0.16243396520342346
0.16374211628368573
0.036433395953005224
-0.03764571721523413
-0.08845665114999991
-0.14800993026243858
-0.04085108039138913
0.021834801582363027
0.04299201040513517
0.03596677374172789
0.01829940589760959
0.005310802581978712
0.005212652851917108
0.01668891796042523
0.02924533580036586
0.02615306193288265
-0.010616943664112491
-0.09456680330230748
-0.02949335392701735
-0.006561839724046264
-0.004675999465375086
0.005817118924540572
0.05701996606374161
-0.023535710138618028
-0.019261527838831664
0.07106429079485552
0.03177130129781838
0.03226148695243111
0.03254353572690781
-0.008407916032630157
-0.12321403336497139
-0.12810594305054115
-0.018992146480232154
0.02683235757663133
0.043652657800533956
0.06724471520474505
0.12506719672756283
0.029873511090757518
-0.02140421887000069
-0.04354174111028472
-0.05553699561850668
-0.07265520692837503
-0.10085593664917507
0.06456896281453228
0.035920223034265855
0.02697771714624854
0.046262430067251496
0.09213988726183467
-0.04853466067887577
0.0022768249385209174
0.019798811586433297
-0.015929475595111982
-0.1129528906398601
-0.06299244990343078
-0.041441795728178236
-0.012401921848267154
0.06222683621775762
0.21218875464763048
0.050303371655077075
-0.031154000213724675
-0.05800570100315234
-0.066904386963152
-0.09610581856490878
0.02270887496948018
0.06964814801828917
0.038481802055835
-0.06411374723348923
-0.021006718109812878
-0.008206183484215911
0.0006811214664985827
0.029625040047042864
0.0959050748131318
0.007519677903567116
-0.036970267765761164
-0.046261600469542107
-0.03279581663085683
-0.009299361941477784
0.013585665003267591
0.02832113102419996
0.0305852483964294
0.019200086692266454
-0.0036142531676049278
-0.03168939413352434
-0.054672589015504106
-0.05900855028283934
-0.030808245705808084
0.03953759576585183
0.152287531039183
0.09502680434322316
0.043294848995622526
-0.033930077939627656
-0.1651662172795093
-0.16704425314388688
-0.038485935234137666
0.03894307777049037
0.0945484180342965
0.1586158791427665
0.05317512869796982
-0.013102752598117558
-0.044437450981160975
-0.05285195275202189
-0.05104009306410121
-0.04612085421425287
-0.03649234683285592
-0.01270333085968023
0.038168007734058526
0.12636847121372363
0.0539949705831019
0.012449633071263858
-0.01605752489547562
-0.05351530385585612
-0.11961128456859793
-0.026248728007310825
0.024942111417607073
0.041478629000809564
0.03616613529610003
0.022287804597100495
0.009627608073308543
0.0024531631787058656
-0.00025436245790213895
-0.002722274997094064
-0.009280493705650289
-0.02123181973524051
-0.03470070334821098
-0.040280405891311565
-0.02489004067030442
0.02440883605211694
0.11569903814876029
0.04830326563882691
0.01141156730698086
-0.013880379389062406
-0.04964403222427984
-0.1150711924017907
-0.021549645050137546
0.029415434300311676
0.04497779450097632
0.03734281140398748
0.01946758447189114
0.0016425364213871164
-0.010199498463298423
-0.014434143690049677
-0.012515869699342756
-0.007320910608102291
-0.0016974306031471377
0.0024230261530269054
0.0042933328855665615
0.004147820848560335
0.0027671384485455745
0.0010327654312723294
-0.00038589454871166005
-0.0011630007505500578
-0.001292072912453792
-0.000970922018887576
-0.0004650385760927819
5.1791372974430875e-09
0.0002942161948001481
0.00038860786526075537
0.0003271427114310233
0.0001862335928239021
3.899984449378673e-05
-6.632258313950575e-05
-0.00011228298562416877
-0.00010635090964320455
-6.943452399017652e-05
-2.4425259959611896e-05
1.1668944041431568e-05
3.086671620274139e-05
3.338731518005447e-05
2.457075221742935e-05
1.133195541332037e-05
-5.743677192838314e-07
-7.923045783426733e-06
-1.0096367790337368e-05
-8.320149326176178e-06
-4.60471381095927e-06
-8.287961739154136e-07
1.800716666497794e-06
2.8823702997936267e-06
2.6535067593170514e-06
1.6836615923040673e-06
5.728685903311663e-07
-2.542053106728086e-07
-6.287402709311137e-07
-6.105169229398532e-07
-3.9500165486204305e-07
-2.0053375675241736e-07
-1.7230233947046027e-07
-3.2635526732736786e-07
-5.444456778983482e-07
-6.202981105364794e-07
-3.481004148902669e-07
3.6742019698315836e-07
1.412816250241546e-06
2.4230648286292434e-06
2.836819690334837e-06
2.0731847611382786e-06
-1.882839981068887e-07
-3.7006939649532103e-06
-7.448319052904255e-06
-9.707611630632887e-06
-8.490726104759213e-06
-2.3740845996943705e-06
8.472611791669553e-06
2.1446794076490273e-05
3.138553283618543e-05
3.162549656895956e-05
1.6416827821042262e-05
-1.5712832477653985e-05
-5.875030951659951e-05
-9.781606573770577e-05
-0.00011135139214608534
-7.786659310754987e-05
1.3428110834832005e-05
0.0001510942864920815
0.00029419987239236303
0.0003753712525717547
0.0003186471257471502
7.192695550387606e-05
-0.0003535053075021278
-0.0008517512780127907
-0.0012195611258105329
-0.0011999647205790014
-0.0005776589075560314
0.0006908594917737879
0.0023564517796511894
0.003830844788620832
0.004280707691065238
0.002897689151377884
-0.0006864716729167201
-0.005960467013903906
-0.011273413098795466
-0.013990431227601947
-0.011237136739298619
-0.0012261510907541433
0.015115471710039824
0.03278349198042186
0.04232237019315034
0.031048099000156867
-0.013996619219686111
-0.10196834529347501
-0.03435127092713147
-0.0028159981231572987
0.010217672069041051
0.02840535514929514
0.0767484359621326
-0.023246591813029148
-0.05735758225239514
-0.020877711561094907
0.0806977924023303
0.03246196234352976
0.012491008255353575
-0.004133174762762298
-0.04025349902372524
-0.11183154435310891
-0.025019400900723368
0.023725347367083177
0.044445285902807385
0.048664992744239084
0.04456909130961363
0.03426683495333564
0.014155777197661456
-0.021819647637665314
-0.07737629791273956
-0.14968041935608656
-0.027826075359825148
0.10488093881916297
0.06548004262071669
0.06505306167639724
0.10439835419848999
-0.026381905686905998
-0.1442604614395964
-0.06733142179645557
-0.009161660241091774
0.02435821152023868
0.03494245682378713
0.029407193713723412
0.01626537925140433
0.002820317605515772
-0.006461537522274695
-0.010199042047141685
-0.009343108758770579
-0.0059860297311882926
-0.002241558225113469
0.00048806087599296606
0.0017605059582815736
0.0019301348650957839
0.0017388962749222234
0.0018490145303374005
0.0024796472674708334
0.0032605602717424784
0.0033558407176049222
0.0018418159232634493
-0.001755233026725781
-0.006937121067770189
-0.011964000227952696
-0.01407663790951345
-0.010358199890009915
0.0008217650048445202
0.018125479984542666
0.03594957731218878
0.04426129602917597
0.03014507900381626
-0.01890706836616011
-0.1107378256237339
-0.04480165139538462
-0.010629612632546578
0.010563376806364235
0.04144839630352779
0.1028224130194304
0.008494634474420198
-0.037603711245591254
-0.041550162366547655
-0.017354290056252455
0.01625347987918533
0.03929054016171796
0.033878279167029915
-0.012616525179549656
-0.1049627417785528
-0.03870707494443747
-0.0009267365655334137
0.026643867003705354
0.06292869057337641
0.12299216422290828
0.015534536639719494
-0.056611586583444465
-0.09351513841500943
-0.0946432339911131
-0.05716856014391452
0.0224888159321306
0.14430143971921774
0.09967590548713168
0.06888451427138531
0.023085365639318515
-0.06892502014843531
-0.23142495843087302
-0.07363643673472998
0.01374383827191901
0.05577219817424255
0.08539476423495646
0.13371079824161414
0.02202296797530129
-0.041826899126908824
-0.06237188951831556
-0.05211375258817351
-0.026139054220644803
0.0021940350278931847
0.023511689075536503
0.03277730695617858
0.02860795946341943
0.012524687506683969
-0.011300886843730547
-0.035891829241342196
-0.05155448159670729
-0.047046845603283295
-0.01230980722069536
0.057597771073256636
0.15873350277567297
0.0766691736155674
-0.011331488170813182
-0.1302774986014837
-0.09951741445921035
-0.12617454877023768
-0.002881380140266329
0.08915913597331329
0.17325045058141889
0.06965605222906614
-0.009242708196721829
-0.059389409864586545
-0.08176303086012357
-0.07776389202146572
-0.04599739571899057
0.017860087720287143
0.11816290928413516
0.05500084162791451
0.020835245019916175
-0.00011506056556031063
-0.02927564254462973
-0.08885489117447044
0.003535745103197596
0.039083966357840595
0.019783605280706884
-0.04199708301659474
-0.12622584808073237
-0.00992677135595692
0.12671937190880778
0.09439869872967341
0.09112058063059188
0.10318833919747589
-0.08885384767441953
-0.3012402473494507
-0.13886793157824617
0.007873673855683272
0.15942722602507414
0.13818454480496467
0.15876698869557698
0.022110400355036336
-0.08417682965474506
-0.17995205094632694
-0.08450114893541899
-0.010294044081513354
0.03891887281758869
0.06559650039352682
0.07350977918572663
0.06328860041879436
0.030681706564335092
-0.03165866827935717
-0.12976527401018276
-0.06350904484760025
-0.023803748524452793
0.006558176148830573
0.04854080217516682
0.12067942328987849
0.03357254134354219
-0.012777968187160597
-0.027853435235843348
-0.026343133620930603
-0.02240771174899249
-0.02446239623386149
-0.03208319291347968
-0.03594306419378861
-0.020881457344656875
0.028644342382149336
0.1223133141493904
0.05905064932211941
0.025527680116509282
-0.0009394833662037075
-0.04572738360144215
-0.12866516882063708
-0.057187051418383206
-0.023521782496991894
-0.007203901284687852
0.017700592526322535
0.07297269826535158
0.16753223709450046
0.09295600837285643
0.02540017382250921
-0.0661031983222875
-0.20766495645143568
-0.20952124086115198
-0.060754629691199574
0.06759535383261649
0.21202125530492977
0.20303642395746788
0.054418142485560414
-0.04049217075896676
-0.10454607727581959
-0.16721919894726034
-0.054197414652540535
0.019809218883487544
0.05305112158030896
0.05404032992598058
0.036337165882568315
0.013292031138158009
-0.005534365927321528
-0.015673855893969114
-0.017123141058394048
-0.012631942848037779
-0.005802449766927245
0.00035896385226373925
0.004163423401354343
0.005281971708542862
0.004347434000678258
0.0024026362406505495
0.0004237385861153811
-0.000960263266062133
-0.0015365251284825312
-0.0014220805365432838
-0.0009062933512460034
-0.00029738225312188517
0.00018059535026546496
0.0004266946037427571
0.00044934487882408573
0.000323553169533835
0.00014306477245646735
-1.5749765720049634e-05
-0.000111327181030233
-0.0001370881903403595
-0.00011064058045522372
-5.940555380179306e-05
-8.462952504616996e-06
2.6409409723630546e-05
4.023940681310304e-05
3.644252869559606e-05
2.267639913909874e-05
6.894962475609859e-06
-5.240586008780163e-06
-1.1285067584776096e-05
-1.1590671736069732e-05
-8.16977070108293e-06
-3.4576907785559727e-06
6.020186184691159e-07
2.983023051605288e-06
3.559384283433435e-06
2.8141526728511647e-06
1.465084101818874e-06
1.5462820791326498e-07
-7.227480791818689e-07
-1.052495405742534e-06
-9.329056544699189e-07
-5.663014874249601e-07
-1.5774549420323558e-07
1.4991173592591243e-07
2.977398830193017e-07
2.9830595011127975e-07
2.0552396840091554e-07
8.267925793019392e-08
-2.0745083400553822e-08
-7.94581960612381e-08
-9.142678627332924e-08
-7.00551289025004e-08
-3.4417534114681724e-08
-1.2606411054529237e-09
1.942523757765094e-08
2.5219797506410524e-08
1.9525422435422183e-08
8.664293503459742e-09
-9.859434039700284e-10
-5.095324149491507e-09
-2.459644009281255e-09
4.918788579917136e-09
1.2610431827147314e-08
1.5244601509531e-08
8.504091097864622e-09
-8.726114189733888e-09
-3.266349863023958e-08
-5.421745340301001e-08
-6.068759893989924e-08
-3.996346246303219e-08
1.3306780334778019e-08
9.13660937597003e-08
1.6975045352852992e-07
2.0976305003004436e-07
1.693168637024845e-07
2.1679176963384826e-08
-2.225012184815538e-07
-4.98804535439331e-07
-6.896186167276501e-07
-6.512430315321002e-07
-2.695611212340129e-07
4.6656565614228554e-07
1.4000552490528923e-06
2.1853919379024684e-06
2.349537488257697e-06
1.4510357055582589e-06
-6.841024770392851e-07
-3.721413252851197e-06
-6.687692871505846e-06
-8.079868806870305e-06
-6.29819009465766e-06
-3.784980579525152e-07
9.163702793141735e-06
1.9728454423789306e-05
2.6702772786190572e-05
2.4565590065426895e-05
9.081559705748373e-06
-1.986541393024561e-05
-5.582402204396264e-05
-8.514295635196792e-05
-8.951943959030165e-05
-5.231935455256683e-05
3.2256530442003924e-05
0.00015002552673337128
0.0002622140945491615
0.0003102923704411138
0.00023335082193898907
-3.2646580913589056e-06
-0.00037563612920538705
-0.0007790639759702823
-0.0010327738791087488
-0.0009248392221118349
-0.000298513125291453
0.0008385582257910966
0.002222813033298144
0.0033163633423332582
0.003413275511249374
0.0018906200191045868
-0.0014353513937358264
-0.0059625036216016
-0.010142447109531005
-0.011695130479980307
-0.008313732215425708
0.001195616139681424
0.015634252648387043
0.030515064934505124
0.03817100776475055
0.029331296996229737
-0.0038476721475675505
-0.06403397470719428
-0.14569933359441398
-0.03451462964168831
0.08978921576916307
0.04752427300414183
0.0521078401660872
0.10476105248174716
-0.007063831522902169
-0.10690682854079551
-0.023192395876943203
0.01810963110002605
-0.00014626241490813146
-0.08241609943981651
-0.019822668492297545
0.007226099448699817
0.023811169832178396
0.0540967993387999
0.11570310099486637
0.016703349401162707
-0.04380379341942581
-0.07203872063075518
-0.07464654554384006
-0.05493511061926876
-0.011994052205466049
0.057022918907686244
0.15279023118998394
0.07022841438344363
-0.0023754340895761825
-0.0808009034370484
-0.18013480266530152
-0.11043540509539299
0.12479154935557028
0.12673048440563578
0.09767674655372623
0.03848733484269142
-0.051054567713293864
-0.16921599479620725
-0.10882765246088702
-0.056036967553203976
0.2072773958097462
0.09832139169419328
0.02814200942349901
-0.0008984564559649867
0.006205702314959479
-0.1587303897494602
-0.10251955359211758
-0.02819919373031223
0.06386872076731852
0.1720767393463741
0.08927591680981475
0.0009233192683690065
-0.11284847657631464
-0.0719855482023668
-0.09052201356430094
0.027558180276130252
0.08927245014518141
0.11079821933725328
-0.08569977236523943
-0.0752716683953884
-0.033073737839692356
0.06269342579097692
0.027662555984628762
0.06860521168623271
-0.017833073072787912
-0.04435588146241029
-0.030428697488072233
0.0012307400776416374
0.028129721480570056
0.03090215666396723
-0.0044818388430003485
-0.08523834488382545
-0.011278314505138082
0.023946142662782666
0.031239774548551848
0.022686497475126535
0.008849538714924051
-0.0030343759555542388
-0.00954871712948559
-0.010476966357661656
-0.0075669451994879
-0.0032153730965033423
0.0005408979909701969
0.0025599658322001924
0.002680693815651826
0.0014950689027823955
-3.0122092663642727e-05
-0.0009492406191758141
-0.0006664464813697931
0.0008512487152528056
0.0030104508575685973
0.004709681427590906
0.004660842685473426
0.0018933768427008587
-0.003658590792621725
-0.010683958166821828
-0.016407352873850437
-0.017144307580716105
-0.009609371793484344
0.007201353549222778
0.030100829270668223
0.050631789924900986
0.055733436109021706
0.030706768122591578
-0.0358002742331351
-0.14617053511653622
-0.08982109749292799
-0.0431049003526722
0.025835732405471323
0.14829220850422536
0.1452475621334786
0.02032472100485133
-0.041933733756140464
-0.07205557728329204
-0.10774103371785336
0.015004998838667183
0.06921250641341056
0.041567815070842104
-0.06570544898303066
-0.035375854326279065
-0.03808947700885837
-0.037712835718151066
0.001220572613818652
0.10524549338406938
0.0850661410184134
0.1325082120558158
0.023071421719610106
-0.07598411477980159
-0.19442062178661512
-0.1488686139042496
-0.13808326467072607
0.053984158080449596
0.24832327384672342
0.2585993121951503
0.08235364011262422
-0.09994661766644336
-0.11748058322346512
-0.196830273179129
-0.1505820046992686
0.028358583168779844
0.16485598365817647
0.09369279239293198
0.04973666409881121
0.06017183694714946
-0.058933304090283696
-0.10182133305627139
-0.0698731731397608
0.03152979263142533
-0.00556553235448011
0.007767221238680148
0.05577938635312847
0.11701785236960537
-0.03482787907790529
-0.027664221727277605
-0.08597676443862684
-0.0257212584831999
-0.05097416851156988
0.04655724536553359
0.08530271725099642
0.09004681648283236
-0.11197408462667618
-0.09432216633621188
-0.03417335192377739
0.08473110317368904
0.06911792763367848
0.11437686426493882
0.0053927494066405915
-0.07945506854487103
-0.1622749497745621
-0.060092671750594615
0.01781726836004599
0.06873266071013165
0.0925498903729064
0.08769087800511824
0.049438475091779344
-0.028047828179306195
-0.14678493651140886
-0.09958078062567141
-0.06732276600842191
-0.02112079221856321
0.07065444268164679
0.23276439174066832
0.07472442732709836
-0.012774090882783515
-0.05504569153720668
-0.08537377109024659
-0.13503532313974712
-0.02513682039433532
0.037140833338820275
0.057339722664106064
0.04896178561658576
0.027543515192394175
0.0057828795432649654
-0.009032941288359877
-0.015163345822254653
-0.014783227114199694
-0.011596696146450168
-0.008651056155579658
-0.007012699921053953
-0.0055918869814261495
-0.0020482882448199244
0.005583903753421723
0.01712892295217634
0.029053117240237285
0.03445162134500509
0.02462593694582899
-0.007879336663343577
-0.06561020851091688
-0.14336448581308628
-0.027781121730591905
0.09975827899008818
0.05752130902543286
0.05719921435847613
0.09966181895179294
-0.02551356581951457
-0.13659488247231596
-0.0538465924714584
0.006348681697583736
0.03541314460140032
0.033824201147475676
0.010173813936376792
-0.02104558379621932
-0.042281466257281006
-0.03618387138515158
0.010795201331510696
0.10490602001671251
0.0426946261196262
0.010855166493730669
-0.011052543004639901
-0.04554878242326883
-0.11144692755796876
-0.019351641324622852
0.030026291866525362
0.04439403243772341
0.03618509333511174
0.018307633527114252
0.0008429947326652755
-0.010521290696628991
-0.014352695907828877
-0.01220403815679515
-0.006960190460583146
-0.0014185374383490939
0.002562031234211226
0.004298522496605733
0.004064446031876798
0.0026520653046738594
0.0009336523080574209
-0.00044110224577907994
-0.0011673685522213613
-0.0012552948952737702
-0.0009129157789708686
-0.0004098162669053511
2.9625422106763773e-05
0.00028162041473388163
0.00032866118880493117
0.00023116214678219199
8.450652013310353e-05
-2.2380579314528297e-05
-3.708776729643829e-05
4.171060798725523e-05
0.00016573130017388387
0.0002535308799567944
0.00021961720956307826
1.152053654570521e-05
-0.00035396458740542504
-0.0007687389553997692
-0.001041174704460652
-0.00094571366809421
-0.0003143844703622427
0.0008492619960340666
0.002275438910172951
0.003409311035515941
0.0035208568002037975
0.00196396923466131
-0.00145590649776178
-0.0061234179289346175
-0.010446319948502212
-0.012074434828507112
-0.00862404854400582
0.0011484847265449407
0.016027131012212214
0.03141009730948636
0.039418566451595694
0.03052096224751658
-0.0033361357245069584
-0.06484686923414565
-0.14820617182078685
-0.038466548693962724
0.08549351571893006
0.04478674731466352
0.05315245654791408
0.11121610644654877
0.004676064109958907
-0.0927242615096231
-0.012291461527256423
0.018330184261436684
-0.016829778714862215
-0.11688387258541749
-0.06318303053929418
-0.023326940110234624
0.04048225371351782
0.1608674321834449
0.15585634095231515
0.024049298522461994
-0.05371986703481912
-0.10694753195826186
-0.16540428831585324
-0.050588767817201646
0.028138121595911433
0.07190283290113253
0.08681468271271633
0.07774038364511181
0.04440135693234952
-0.018545950928530106
-0.11773088291631414
-0.05554684803093449
-0.025550324252674055
-0.01091811435431841
0.013294395477856085
0.07485718377740828
-0.002218434788089023
-0.0035670123116826845
0.07192608046163781
0.011669135426348839
-0.007844461526096407
-0.0156573206528507
-0.0397434903069394
-0.10097552805070001
-0.009371127371006496
0.03638436549510331
0.04629761486905113
0.034570882454030324
0.014999621772909685
-0.0023013106758741596
-0.012214903446889433
-0.01416460767964119
-0.010557309405779994
-0.00491140986554197
-0.0002846460261774849
0.0016712671884083618
0.0009687186195995093
-0.0010322703692621546
-0.002327070422498481
-0.0011519329990053726
0.0031553061645834737
0.009539750191822616
0.015087737283091578
0.015544024732306764
0.006527448835565638
-0.014777486016199343
-0.04799293010733825
-0.08873535459885283
0.07075189111070003
0.03947172782545395
0.024811796502170292
0.03019837882924216
0.054301173705880106
-0.10797112997996049
-0.06337061766754427
-0.018360107959433256
0.021602346526482605
0.0513634623560961
0.06485195795939554
0.054743892568541994
0.014048802964049291
-0.060455355408231395
-0.16432992959271095
-0.0833562353700818
0.004872635395516675
0.125290103326486
0.0974302395304423
0.12851856141355278
0.01068818963060432
-0.07635850248699057
-0.1583907968138408
-0.05841086577631942
0.00953488144240485
0.04248505932289942
0.046680563127026245
0.03330137443752113
0.013910638722489911
-0.002826009033550937
-0.012510494639120287
-0.014673352813985787
-0.011406623084898038
-0.005739023123663797
-0.0003351637403855629
0.0032051728119296026
0.004454881771535954
0.003861057187418611
0.002283468116273752
0.0005740918411786174
-0.0006862307199771762
-0.0012696625943342224
-0.0012429523881420687
-0.0008385241560878439
-0.0003212001202807498
0.00010625716695908093
0.00034357246436301304
0.0003865851454078385
0.00029324790198412054
0.00014274474899204288
3.002837024717737e-06
-8.635414473225493e-05
-0.00011596649363182652
-9.85420748855676e-05
-5.678900465227565e-05
-1.2661918841488834e-05
1.9207342743930918e-05
3.338294729656038e-05
3.194276634577876e-05
2.1070950914204783e-05
7.621478543227128e-06
-3.265092839288406e-06
-9.135309346628013e-06
-1.000100164419227e-05
-7.430192735664432e-06
-3.4866196969381073e-06
9.584835394582729e-08
2.332726879527245e-06
3.0206832678626456e-06
2.5140542925653847e-06
1.4095445868352136e-06
2.7114669271178853e-07
-5.33712234772264e-07
-8.765526912757833e-07
-8.201497879933471e-07
-5.287179785966879e-07
-1.7945009220959944e-07
9.750233862546685e-08
2.423371833906923e-07
2.584129283105275e-07
1.8800497083176274e-07
8.483040671877231e-08
-6.904414717402178e-09
-6.27956232760126e-08
-7.857889114646639e-08
-6.40626858233988e-08
-3.4901349387926556e-08
-5.566714663249688e-09
1.4730289517586033e-08
2.2979713580010452e-08
2.1033786696025253e-08
1.324365511632742e-08
4.1848291124773454e-09
-2.8519773713034327e-09
-6.415118935169251e-09
-6.669260042473692e-09
-4.750420552434474e-09
-2.054994760996046e-09
2.9130518602431663e-10
1.6850638371879397e-09
2.0415033626063226e-09
1.6304439524956879e-09
8.619369417660054e-10
1.0689894457180921e-10
-4.041766884080413e-10
-6.015215252484965e-10
-5.388195916491758e-10
-3.3112803157491434e-10
-9.645940618219011e-11
8.210302587714343e-11
1.694845978650586e-10
1.719247121941284e-10
1.1985818160408014e-10
4.953884705643712e-11
-1.040239267855762e-11
-4.508581044630775e-11
-5.297245512848242e-11
-4.1444486121765587e-11
-2.122685099460889e-11
-1.8152984094698777e-12
1.1033200067945727e-11
1.5722511921877012e-11
1.3786943514047315e-11
8.263115685956187e-12
2.1913265362135473e-12
-2.333841148732693e-12
-4.4693393832261545e-12
-4.426898544083388e-12
-3.0196252945424318e-12
-1.1875931237191134e-12
3.4192639924039256e-13
1.2030914555243874e-12
1.3728296078704207e-12
1.0521464748386534e-12
5.211519037577334e-13
2.2662701617932504e-14
-2.998175166726133e-13
-4.1037251215789355e-13
-3.52360346488041e-13
-2.057788633130172e-13
-4.8863961156299825e-14
6.565924987472663e-14
1.176483516898244e-13
1.1385817622850802e-13
7.595616103081825e-14
2.828907114728454e-14
-1.0692952743846268e-14
-3.2024014748903626e-14
-3.5535062303926737e-14
-2.6675861751561463e-14
-1.2752048763891171e-14
3.4542956308290775e-17
8.114387071745383e-15
1.0696589072597684e-14
8.995023564309403e-15
5.113543453987096e-15
1.0630907505334354e-15
-1.8312435867438136e-15
-3.0915301319130042e-15
-2.9249019413327875e-15
-1.907368339162329e-15
-6.687266579136843e-16
3.2357879166286465e-16
8.50591745273179e-16
9.188600815743115e-16
6.755751037918792e-16
3.110206844189935e-16
-1.6588301226051076e-17
-2.186636871667267e-16
-2.7829686437836876e-16
-2.292061933077323e-16
-1.2662944199778142e-16
-2.219600545780577e-17
5.084723369252473e-17
8.125194274358632e-17
7.519664032087983e-17
4.795987112005665e-17
1.5813881616059023e-17
-9.414427200528033e-18
-2.23988245583558e-17
-2.3587159752262517e-17
-1.6941115759674574e-17
-7.410361211912786e-18
9.7373062273658e-19
6.017912004511768e-18
7.375898792292561e-18
5.97803254054872e-18
3.2723213132764995e-18
5.827952179971732e-19
-1.2578274679562536e-18
-1.9873631999425695e-18
-1.7863833701185486e-18
-1.059300855156497e-18
-2.2605553074629323e-19
4.145360965895559e-19
7.334755400633384e-19
7.494397615530296e-19
5.687217576642352e-19
3.1990773690190866e-19
1.0559324673400113e-19
-2.00633585979194e-20
-5.043976444536401e-20
-1.1056558133494367e-20
6.018557840069212e-20
1.2937099096724622e-19
1.756812681699815e-19
1.9307684087941398e-19
1.8675257761265789e-19
1.6739191964584745e-19
1.4581977321328236e-19
1.2957507461028807e-19
1.2176676793966499e-19
1.2173132177132583e-19
1.2662511898874367e-19
1.3311182962670494e-19
1.3858371748625295e-19
1.4170721419300798e-19
1.4237080722502693e-19
1.4127099863780561e-19
1.3939836564956768e-19
1.3762067114229195e-19
1.3645737812823236e-19
1.360455850386351e-19
1.362377026333554e-19
1.367520308069485e-19
1.3730985354432108e-19
1.377212537024268e-19
1.379117216112207e-19
1.379030043906539e-19
1.3777097326223408e-19
1.3760208729503676e-19
1.3746254476950858e-19
1.3738508187638786e-19
1.3737105406963377e-19
1.3740153832877437e-19
1.3745068133361445e-19
1.3749630641540792e-19
1.3752547851316932e-19
1.3753514356972722e-19
1.3752945195481932e-19
1.3751581836802365e-19
1.375014108856611e-19
1.3749100634795709e-19
1.3748637902736398e-19
1.3748685009207562e-19
1.3749040021303075e-19
1.374947915545666e-19
1.3749834583733065e-19
1.3750026216501977e-19
1.3750054453540285e-19
1.3749970498735008e-19
1.3749841735034534e-19
1.3749724770795536e-19
1.3749651744951857e-19
1.3749629291949652e-19
1.3749645839766878e-19
1.3749681904890814e-19
1.3749719073352428e-19
1.374974534986458e-19
1.3749756540922925e-19
1.3749754697156633e-19
1.3749745180667628e-19
1.3749733776824141e-19
1.3749724734795815e-19
1.37497200067464e-19
1.3749719482697865e-19
1.3749721782154485e-19
1.3749725151162494e-19
1.3749728146363103e-19
1.3749729970975164e-19
1.3749730485788153e-19
1.3749730011107365e-19
1.3749729058188588e-19
1.3749728099789312e-19
1.3749727436983237e-19
1.3749727168363842e-19
