0
3.489635017927711e-06
2.2736609087791297e-06
-7.675923312944372e-07
-5.194787526555783e-06
-9.630564800532672e-06
-1.1893872512778432e-05
-9.608342180171391e-06
-1.2600388086450568e-06
1.255586084566612e-05
2.820418853275601e-05
3.903675726847941e-05
3.6919861229104854e-05
1.5380475133577795e-05
-2.623980858698261e-05
-7.908531934683945e-05
-0.00012362827917415423
-0.0001330980278303745
-8.247010073908594e-05
3.818771371731986e-05
0.0002100605954589761
0.0003781733267311631
0.00045749448590150303
0.0003573959356324994
2.3067461299058676e-05
-0.0005166821241674381
-0.001115087926358308
-0.0015112931257085626
-0.0013926836307550162
-0.0005189123140712415
0.0011177012135597918
0.003153329031350346
0.004816288505443801
0.005070597909531443
0.002973118850099381
-0.001807720933705785
-0.00847341367038177
-0.01483259933861394
-0.017571748400124175
-0.01323514604950476
0.00015769230724565342
0.02128514863912967
0.04426690185895747
0.058928448933291314
0.053337976069223705
0.018677718069647575
-0.04461475969466773
-0.12176939576503544
-0.18288453944350622
-0.18946575669327143
-0.10966878372865711
0.059663917175468914
0.27025758505943
0.6086317239692273
0.7019671733250893
0.3506438054442967
-0.41466631189236447
-1.4662217288242039
-1.128345327324956
-0.569212584767825
0.15072000774048747
0.9828598865537692
1.979641430139885
1.4128093613651407
0.3578357384521571
-0.8437645921795505
-2.2662783288920356
-1.4745298585215598
-0.845739524211308
0.226816614178863
1.2491670553946075
2.2964059606602767
0.2902837019553388
-0.0675051307040705
0.9167484585898173
-2.1881430103332717
-0.41537633985310696
0.7221737427872764
-0.8815141742078888
-2.0962962548686086
1.4104367619134595
0.28656021588992786
0.779471470391629
1.6275044403490109
0.3925534621547374
-0.5476740318271741
-1.1528410502146884
-1.4448793172975067
-0.43947708139556596
0.8899009287313352
1.0108439800999562
0.609837223412708
0.17332013934916504
-0.4115492902749983
-0.8361408451714454
-0.5430148431210886
0.09079684676575754
0.34939833790119834
0.3539024625909353
0.2294402991240531
0.07656374777393264
-0.043932298798833966
-0.11072702779927886
-0.1301376589110813
-0.11965434778652918
-0.09376038309425679
-0.05680009778236177
-0.004491253560674253
0.06753232331197494
0.15230265702019422
0.2227016631903694
0.23037079929747295
0.11514204436909992
-0.17636759337521682
-0.46934479677364044
-0.7466757879408275
-0.35216618430678365
0.1847785952320419
0.9096495623992116
1.2061258872371372
0.7840856226413664
-0.09310345817319078
-0.9455298273673899
-1.802421222810758
-1.55365685219931
-0.3595323930818018
0.671846053846138
1.5630055975957244
2.7524561677797763
3.645870985129625
-1.9278363419816016
-2.961264458158234
-2.671809832426564
-2.1514654819142986
-1.9386499720072172
2.4636574511047797
5.164393921736535
2.0450095747226094
-0.39909302002088953
-1.6794182104939666
-0.40462949969850426
-2.6980185071737424
-0.41511791454691727
0.7829575142776678
0.6781241769686646
0.07532083777761843
0.14090846595154402
0.12744875485095228
0.10450958234462114
0.10625701173256853
0.10039071131499745
-0.02133574278226616
-0.03427574034427493
-0.15981170500907427
-0.2397819566644389
-0.11411131754429239
-0.007305615857566519
0.07418214831681554
0.13575963843888347
0.18461055789223843
0.021331188823939945
0.03735013645902516
0.019267370990554866
-0.04182993969056932
-0.14029993765608667
-0.2504294951651006
-0.3304041006256764
-0.13845147267728722
0.14056956264066187
0.46572129217081704
0.7203311089585356
0.7158934748364272
0.22796726242644602
-0.9392917534876307
-1.077843183324005
-1.117686437395372
-0.2124924808430908
0.41942483673455166
1.4094011649639606
0.9372521530449052
0.44938639411981474
-0.7795627808942392
-0.8377444190513746
-0.3344978609208905
0.2519942304681275
0.22161665078134482
0.2888377816843605
0.21192042790827723
-0.18104923256888622
-0.36929909459468163
-0.12461486019106952
-0.11178006546585202
-0.309306480786549
-0.050560483310682816
-0.07944148298583832
0.7908168448776284
0.8311808532860444
0.3782239140657216
-0.34753695236831667
-0.38984876690582176
-0.9882248050694783
-0.5164081929696411
0.15190375052151842
0.44180796427250435
0.4467549983109505
0.2852041251707061
0.061879985208720775
-0.1550774370364433
-0.13865639086639928
-0.0937505029738334
-0.04158408854336158
-0.004440539663105925
0.005182252979759529
-0.01061132934715471
-0.03625602560216237
-0.04890159032658336
-0.02820663961094537
0.03223708478032224
0.11461023515746765
0.17112006314432068
0.12613505249644216
0.08812625944278736
-0.029441095910359448
-0.2826052119438909
-0.2740440744808268
-0.1409794761098979
-0.15987848658482964
0.03077879930726342
0.1942266742445804
0.2551118943616381
0.2670702356393547
0.39917822031104094
0.3479603108753929
-0.025457326193444083
-0.8420960888060308
-0.5526666276603145
-0.7060585353644832
-0.35429228286197334
0.303026909555065
1.447733796314943
0.7713585324075035
0.4311560591240936
-0.34774752467377257
-0.6248855516610927
-0.8709059208192373
-0.4960865830360932
-0.0053120394571624235
0.4092338665806555
0.4420170291127546
0.23008579434389528
0.10889329003659952
-0.01891872537094598
-0.09672200738505697
-0.1110515072217899
-0.07856699488305437
-0.029433598984092688
0.007656227621539266
0.015803706869318153
-0.005487368226236793
-0.04127930998839269
-0.06711990891079316
-0.05902626766914866
-0.006116657733329244
0.07653305287075801
0.13844374269250992
0.2920632470735949
0.2226446427543174
0.010897400620336596
-0.23479965453413415
-0.5448759535981055
-0.46517423142563413
-0.05392883331807889
0.2969461713944299
0.42147471618490034
0.5328289200218882
-0.015408808966223778
-0.3502171540144058
-0.2809095021157695
-0.08715004276936451
0.09950794415297858
0.5162196998474182
0.19131469641814844
-0.23040737488063062
-0.46149040938133074
-0.3512681089096084
-0.27935275760155986
0.23189336633588137
0.4885130408508147
0.38975966076953045
0.1995360663635686
-0.06585887994723577
-0.43177092206338435
-0.34707297092192113
-0.06397293291224622
0.17573709049252312
0.14498907657622861
0.2289689758085533
0.021088585140327118
-0.07863511518749455
-0.2622453906070128
-0.11211107592422839
-0.002223270522940947
0.09582445588364541
0.2036958538637403
0.1280224490809805
0.05725280104049642
-0.034143733739059476
-0.17522324648403664
-0.18589778062484794
-0.06723617132820196
0.0012499163529929927
0.056248283596526887
0.1394019660940327
0.0845244119740432
0.10792827279784743
0.005092920371876211
-0.045584938404914434
-0.0738205330808326
-0.10697084544935063
-0.1623198955592033
-0.04543760938062301
0.04424159488318519
0.10228874751068917
0.10677141043710305
0.20971820379868192
0.13721210261618272
0.0002946067623688132
-0.2847668197327712
-0.1719073729327715
-0.06341237382539842
0.10301745351762243
0.05516640424429871
-0.024603101126352403
-0.11998645141401586
-0.20875033394351708
-0.09573402082358105
0.35271964171416775
0.17880221048075073
0.11556021872622455
0.38879279574698206
0.5421684634948419
-0.9168311028824111
-0.4595093540844376
0.11824983592976122
-0.2678157336791215
-0.3811423890062001
0.5173811010245771
0.4305594671476635
-0.22323204685726197
-0.05566420399681943
0.05706458992461979
0.35538959403518844
0.19506175830350694
0.06346591851368637
-0.18932440351160046
-0.5121064801907693
-0.41757914298122645
0.03861187364114231
0.25938114992177863
0.2906186909626334
0.19714903627340594
0.04038495833426571
-0.1354436307030685
-0.1069562593488493
-0.0679745243543504
-0.0229627573732106
0.01893229229864689
0.04775956604352122
0.05485764158046266
0.03428012152616855
-0.015532456146678732
-0.08977967404157929
0.024085179933343116
-0.05419123128338733
-0.10122444529864327
-0.09681057568376263
0.16699147856743202
0.07699891086358107
0.1940064817798639
0.2556597480964641
0.1890454928538475
-0.26883574599652216
-0.549345555120725
-0.6396115952339096
-0.4891563934237089
-0.03937942340883839
0.9322647640700319
1.7740414907830206
1.9541961262303138
-0.8937060582006984
-1.6792351477939638
-2.151980990390053
-1.8395528526323655
-1.2711427423725261
2.303388473733452
3.334799004466083
2.2067206652289224
0.9526536331004637
-1.9025508950249523
-2.1919796454220473
-1.108578775906765
-2.036720465872897
-0.07064859316571649
3.1638111545961998
0.40939606914275295
-0.7514817821748434
1.3926495018061418
-0.1828710679632217
-1.2538995082357651
0.6774051587041889
0.030765447642136998
-0.3972976349238533
-0.38472448954887206
-0.2505038423503966
0.15798470615740373
0.25695606099354534
0.30400135730500527
0.17194004518613568
-0.0718924805570079
-0.17620649341368377
-0.10689506673588381
-0.04287802912596339
0.028949223174763658
0.11721373777751244
0.02783592099610963
-0.03495351080598348
-0.06764409256860769
-0.0667571644826647
-0.02922574575066725
0.045775232358848776
0.154282163427785
0.08602381148323959
0.025715847329458464
-0.04232920409312492
-0.12788824540763552
-0.23024092222861406
-0.13915592748993313
-0.043731051626082935
0.05196743143278881
0.31155303583809363
0.4553947148770888
0.3645980850090578
0.10482476347592656
-0.2323808153211301
-0.6819204088343158
-0.7689061584705899
-0.7021474237316437
-0.20797372007982598
0.7996542223328416
2.3334055118152808
-0.7376449626044401
0.6854599361191756
-0.23961168804426633
-0.4219471038142587
-1.5424274472182264
0.8312344536919493
-1.3058711677529806
0.20563419890670542
0.24504747104784072
0.5368348740719536
0.7694545878810046
0.933239802459659
1.2956778616910118
-3.382938697498752
-1.6092704458735285
1.0807341288409966
1.7366022301263397
-0.8129890233991511
2.433129213428668
-0.13710960026643818
-2.1087699653698944
-1.7895611532347813
0.02243063338888128
1.0307014890345616
1.1923761530362402
0.6541210997035611
0.10314663275767054
-0.4468782478756794
-0.6351370085495686
-0.314202521871757
-0.11277724557053344
-0.016408568887594427
0.02811437990976448
0.08830009935093049
0.010782100057301583
0.18695633183966323
0.33072512165898177
0.4777755389938589
0.41206766662472627
0.1187876587015973
-0.546091950449084
-1.1892188533763461
-1.4416190339221455
-0.17071482842589053
0.6508376899640536
1.635963224462015
1.8697096655300427
0.03169202059187369
-2.021260907669252
-1.215492488966996
-0.18868509682571036
0.9881993133747118
2.6861540373123156
1.598953361512205
-1.962715026309498
-3.179045719031436
-2.874971248987951
-1.5721349948279726
1.538090144045862
4.533929408061386
3.7009129666845997
0.9702063769534746
-1.0744699934867639
-2.4225242402457887
-2.7633850238194437
-1.81562192150035
0.05397281211034442
1.2798587164436706
1.4284844558664367
0.8610262972343423
0.3884039900188445
-0.036605752323215515
-0.3719614396168603
-0.4893065879375347
-0.3464658512758936
-0.15098081851569148
0.06967661811574798
0.28488299242399473
0.2664940961259728
-0.010751942066346484
-0.16883427431715495
-0.22447913283998097
-0.1874873127272649
0.13809585440369168
0.34978050147328565
0.2425245519323984
0.009178029288937045
-0.15227469245380013
-0.22707434738058865
-0.37411798203524255
-0.32576807383298517
0.19888621957211644
0.4694386918275748
0.5167366446745212
-0.28601660313262633
-0.024949292437984397
0.17215005020658983
0.16881544068640436
-0.3392979521474573
0.015173412715664844
-0.3002222904988348
-0.5099759466378213
-0.5503786479183213
0.08221456044109185
0.6624473938081092
0.9637318748643933
0.6056009534827037
0.040137255028826854
-0.41570189349805325
-0.5115832423298314
-0.5813808913769076
-0.4723796190751741
0.09459406652609438
0.12686251110370453
0.5288690625361091
-0.14737519221047826
0.24626254898682196
0.21441597526318534
0.3987792274474783
-0.2185002397026902
0.10828883026815227
-0.4775348801015066
-0.6028952599547566
-0.4478130291346441
0.04843079861676837
0.5588877298652624
0.7300126302254248
0.5505282620752163
0.14465923851574475
-0.20378138334515886
-0.6039095501069344
-0.705760190172444
-0.666504187543818
-0.3522288162632782
0.22046063276486405
0.815136613425452
1.3043629743117762
1.227409114349637
0.39979821610926325
-1.222612185955826
-2.44807605227524
-1.3636739458453024
-0.10104168514766677
1.330035339886337
2.5585290091291744
1.1639239106245032
-0.572023011194169
-1.0530454975649983
-1.3095687080258642
-0.9304797234551906
0.3768273374843588
0.37873179988112354
0.06459895844319873
0.5747447514082935
0.33436940697087997
0.8165485950216993
0.3479348689188588
-0.24168329838223815
-1.1388802701268363
-1.0599184275286464
-0.38637260003250873
0.45684737287742566
0.778665107957416
0.5695734522342883
0.24372253517518258
-0.2049059244189382
-0.4244681680460689
-0.30956749586242993
-0.1980605614411637
0.13096626817463028
0.45563930922843987
0.31022299729495495
-0.008684901023092897
-0.024375612600273933
-0.25225276252752415
0.03066411530239886
-0.5910061095592998
-0.4639387153623117
0.12014968481837955
1.092324602536389
-0.8341307253996298
0.8017607330661205
0.9932361951527549
0.0763798522537865
-1.4354986413655606
-0.20667601007121997
-0.6436660244461974
-0.48862127455880006
0.15154849379818017
0.9497157514247523
1.0997268118982677
0.6825675363848498
0.2793838357145592
-0.16399192987785358
-1.0379170598789869
-1.5692513391158256
-0.960676538058891
-0.3990121633057986
0.46046000571117474
1.7551194643341026
1.2653170901886899
0.5036451042385661
0.4795709881930391
-0.45106296522227307
-1.6709869357405664
-0.5599419399519765
-0.1700023471876996
-0.3500323537677054
0.06864224251940347
0.63304216589079
0.5965853854485343
0.2397317755203275
0.0050487676496141914
-0.14097277469823913
-0.1180150860834263
-0.1204790730444348
0.006070226218492722
-0.0079721863519807
-0.03158209191693369
-0.11456119702165178
-0.07716187079684399
0.09133771839852532
0.025742007245776743
-0.028186512827301627
-0.030109526189272526
0.038339983900774505
-0.04026685981814055
0.07257686912306768
0.2714903306370725
0.21838243750363653
0.1657129759716696
-0.21031788733380238
-0.3734071199094292
-0.6983370062398756
-0.060945794841662224
-0.05338109375066975
0.5777979977367601
0.6822646422062384
0.46141002982744633
-0.35832496919701357
-0.5308981407154074
-0.8824656792997805
-0.5025336907922227
0.45670897889820367
1.3760636448625627
1.3756263911950066
0.3506304751495079
-0.5557382518307877
-1.657600860704688
-2.045886773259685
-1.164231046059783
0.532501114821883
2.043852538081058
1.6551104155475218
0.7939498308056829
0.363485302940838
0.1729843853879338
-1.7482965411806235
-1.3958251949842302
-0.4449440438112695
-0.15956158722616923
-0.17430872009163303
0.8568708085996589
1.1728891928168448
0.6136801238085879
-0.04526845567845518
-0.5168965687712542
-0.5888162821101881
-0.28911372805855795
-0.051852515365763754
0.10412148980639264
0.17965774920633618
0.1878182984152284
0.14266787028929737
0.05162912611555755
-0.08489411587975275
-0.06715986001616629
-0.08678679112507663
-0.11965959329173272
-0.1256138742970471
-0.05749203071628008
-0.07937691441010274
0.00929721095874773
0.15000899213402757
0.4102465510313125
0.5864830552714768
0.43178208485363573
-0.2915234611604102
-0.5434169977324251
-0.9411942386421739
-1.1214342808558693
0.05271645661942477
1.0354945865310075
1.1091794300258733
0.4902308047300675
0.059310552639936384
-1.0702214032444377
-0.9489814526154042
0.23167828364369022
0.9694864299038677
1.084960884144151
0.16510886716894743
-1.1791280139847822
-1.650360323142106
-0.4171095594423063
0.7008230115381121
2.0121635952051866
0.9164666098864982
-0.9275329828242975
-1.2163710947973214
-1.2088904061347734
-0.5474739800950699
0.892056635077989
1.7283800700945608
0.8068791116465432
0.16770761774122522
-0.9319826988326989
-0.3465643324944303
-0.3450999034584048
-0.3188772953337754
-0.31676929652094676
-0.020148722001992442
0.04263146242672604
0.45164314925756377
0.4362456043198423
0.2185236592585074
-0.02722227910727383
-0.1930015436082724
-0.23596964368902673
-0.1653017084939116
-0.02575293025894411
0.11628958643303593
0.18277829056532693
0.09184648301248259
-0.033776017122536486
-0.05661730635026457
-0.2139862101226417
-0.1103320400488625
0.08453410074976876
0.23030335719761694
0.0055674646408934575
-0.3054892424681144
-0.426772455164233
0.2974203159712013
0.6946536321609471
0.9672087827094805
-0.08827367762375711
-0.44481903559995944
-1.2054185369796004
-1.182521196137988
-1.3196272767499766
1.2361538011619064
1.6259402313882676
1.5739206730740718
1.1322021388957615
-0.8913409413168107
-0.8199431015815711
-0.3390339906581967
-0.5190790141567115
-1.2775307376235348
0.6857275599347981
-0.9370138319220183
-0.9750750630616443
-0.3636671222973463
1.4344851499625597
2.6180078460759573
2.1026846695777737
0.09215517229015487
-0.8197680987324052
-1.6427597518484731
-2.544060106280208
-1.2392297263013037
0.5219998597381936
1.1549575842696873
0.946113639587669
0.714090539736496
0.27628096033338867
-0.044217528330465286
-0.2590230287307125
-0.3085631699421505
-0.22649048950986342
-0.0930607551674237
0.007682058601691896
0.018235445268905276
-0.07755719514222158
-0.05457923762274977
-0.05883084709507082
-0.028410070138853744
0.08188509043173861
0.2786504381479903
0.3177203812420704
0.30784706610872287
0.1326852353321994
-0.3126485035409939
-0.8813067536911323
-0.7463987781002128
-0.1989810319218958
0.52253695461735
1.3806844209975713
0.08575469856696392
1.0636272535144338
-1.3433923277504634
-0.8476467755041084
-0.9776886439317808
0.7491282346423906
0.033580490459142784
1.988258613863425
0.5358632785322146
-1.1731218506068344
-0.9241254302835049
-0.8019775176579786
-0.37962964524242515
-0.148497929077546
1.4124032529673212
0.34978330451210227
0.16204585436357402
0.3646376487289071
1.5089425940319305
-0.34683816147198915
-2.3320904336706105
-0.45456234018763353
1.4754506363373985
-4.341604094256396
0.4464647642522309
4.026270627556584
1.0802863352028373
-1.5224413747806895
2.6355666217783043
-1.0340449113619623
-1.8152744808721617
-0.9535325131497618
-0.7433813790395616
0.12678835402502692
0.762369014062008
0.7976178997117
0.5091161733908472
0.13922733362502457
-0.1500138100247725
-0.2878150303525882
-0.2783641995015673
-0.17136870611871682
-0.03255255521174934
0.07774532719728532
0.11568477336023056
0.0569567523838911
0.09567755473881538
0.04244351327547129
-0.07714531842664382
-0.22440962029951253
-0.15236928096551203
-0.015668584964774183
0.014135927087765433
0.13103139378584203
0.28084991258027775
0.35868712055733754
0.22318609914291668
0.12899147218394125
-0.4280363953362969
-0.6652911208142868
-0.6842251733445811
-0.2723528405547101
0.057614448152046846
0.7991646855086957
0.9742679090885402
0.4725432148833714
-0.17160013126723817
-0.35660434227579924
-0.35511245788264023
-0.2388234737024805
-0.008682232038153506
-0.14732151370867208
-0.6031858866386393
-0.2086693470035593
0.8719709700901154
-0.9240977290304186
1.1729550032624658
1.2139566334649985
0.1125467783057245
-1.332155134300285
0.6212299496414158
-1.072483528335419
-0.5836389793625198
0.025248542074938776
0.39694453580924305
0.44719742739141355
0.3181201118008344
0.13514897234362386
-0.019479337545855444
-0.11246751480174502
-0.1481005844559776
-0.14812825553468423
-0.13213256304086402
-0.1056650465938366
-0.059871046204148994
0.0177374506678529
0.1254178711846258
0.22901561582182686
0.251301150050707
0.2754881425476528
0.165949182155358
-0.19655433487969745
-0.6742509857811991
-0.6402579676545498
-0.3689928730248334
-0.05648232098068537
0.9340746424090811
2.418407679063483
-1.249061533765529
-0.5874122280956173
-0.7765171684543317
-0.8378553617098974
-1.0286268353806884
2.544534895301644
1.305336556210507
0.8067483181772386
-0.4300370249395806
-1.8381653762927073
-1.5174059383304326
-0.5772171815123156
0.05816544718421489
0.9783204145743452
1.3737943797741403
0.9237132378430142
0.12389353888673381
-0.12254765453360318
-0.6549321994519754
-0.7686248640612504
-0.5253186512401187
-0.48950174700617405
0.09207091074776937
0.4677141398672131
0.7295988429158515
0.35684375409618074
0.37485261742831927
-0.25620806164090326
-0.42374117366957
-0.4268900163379948
-0.138635453882931
0.020257220750463753
0.0886568977169412
0.1549867480856948
0.13601878669861267
0.15233200964719376
-0.09342062004067624
-0.13250197389844162
-0.14056085434545748
-0.14443807054662558
-0.026492173813268696
0.27496166754240126
0.5735593131889023
0.45697122111774396
0.12648105882076777
-0.5498065745846304
-0.9835927254621403
-0.8330707231601601
-0.20834263040616838
0.27738490517480396
0.8213306385059229
1.1352435973733463
0.7714802897193824
-0.504933893658027
-0.4916621610878833
-0.08458693423737597
-0.9985495968353502
-0.699317146776064
0.6357584822639232
0.5246090329181201
0.36454161066987034
0.6104361513723218
0.16134207318443575
-0.840496933577646
-1.0062202688856126
-0.9078602093520831
0.29058080753770854
1.3791835076891483
1.243157329475418
0.42621445875826847
-0.2625968505861125
-0.6970042224153289
-1.5565265694013264
-0.6557992531810338
0.49282574253189476
0.8739486718631322
0.532236555653009
0.32728536602028935
-0.09829616486444721
-0.3279231574994935
-0.3606748491008827
-0.19281162110744623
-0.0029172216769200593
0.0525209247211564
0.2329188474005871
0.20158056957071666
0.2142068740067142
-0.08761494616148423
-0.27765361626637014
-0.5450927501974084
-0.29946294089031833
0.015951760989042787
0.5054363426775964
1.0082382029934975
1.1077869411119778
0.3744529391765773
-1.1604262540402712
-2.321063694734628
-1.3305772080328715
1.5848254258053678
-2.081138146934281
1.7547440673793055
4.825767924155577
-0.18035391562889583
-3.0349779846177665
1.1038551482645484
-0.9841378010513112
-2.8564286374544094
1.0743706366576014
0.5587039204304018
0.2701288010852405
0.5340818674523681
1.0599403757115238
1.5044360798857972
-1.7212180721984547
-0.8081028027431058
-0.8960084347986731
-0.8421030103434353
-0.8345345415425204
2.5486739242190746
1.4588977847973372
0.3111565830537213
-0.6356506692474073
-0.8444349380438207
-0.6290473681898653
-0.2771332532093963
0.20717847684922278
0.32864794570457384
-0.10378460872795515
-0.002098049792403703
0.1663001782012735
0.14357540354389656
0.05243511215856546
-0.02275637035260933
-0.043116702697227706
-0.01161374842219566
0.03865771508724268
0.061074751637740024
0.013815864551817755
-0.1232928152776387
-0.13705167038483707
-0.1781418602032147
-0.17034947423443061
-0.03227639828767756
0.09173365753070514
0.19881699400730127
0.403298511189624
0.5316662649496526
0.3444475996629799
-0.01443625081601256
-0.9501803969951371
-0.7503306455017835
-0.7416635867265254
0.1117635955378977
0.566074067660612
1.0240809878744388
0.4555086274764364
0.13536178809223556
-0.5861463666316257
-0.8840467844227713
-0.442428367020271
0.36446835760662655
0.8886583919853371
1.0286143392853404
0.2647207513415094
-0.6849505840590209
-1.198495314271737
-1.0975885449752336
-0.8351092987251869
0.6628786166925186
1.5094726154035025
1.154021237647982
0.5030177564979342
-0.1060050619164834
-0.8715386031619754
-0.8541136011875694
-0.4927886765145736
-0.14226678423052916
0.15221619771831083
0.4420188442094155
0.4372934710305176
0.2627650865004348
0.02307498420742414
-0.21409033149384107
-0.21773697843858114
-0.18299519151846808
-0.11863591799791677
0.1614827902946027
0.24167706276700684
0.10484914215635213
-0.0662951270903528
-0.08523723293222109
-0.15585742949178225
-0.06797178513537429
0.002763050688948882
0.08941951917073411
0.024101430105813948
0.026904111004051233
0.09679693090468339
0.006939515059549189
-0.09433039425440772
-0.07690063556590146
0.18238858919920628
0.21461674277742507
0.17624664903884543
-0.532750310856823
-0.05434936060599667
-0.26781012578321933
-0.20058496148756033
-0.05648136440685986
0.543117129786569
0.1145631686438227
0.07606689810210177
0.1315719270836058
0.2807450234791234
0.6557459624820352
-0.42031382232420467
-0.5646656850476206
-0.673630625723808
-0.689077492272767
-0.6078434478904782
0.6634949197035817
1.0227942030143218
1.2834781727000544
0.31419879524325434
-0.3716603043669282
-0.5755300304752368
-0.7412668163636965
-0.8802125020156383
0.07984266832004515
0.5085101910567444
0.45273745560211887
0.3984161364350294
0.03236830076235124
-0.182238638199327
-0.2134588311159766
-0.05525255021306562
-0.11648767945739123
-0.01020264107609907
0.2542520084085432
0.27665250767245575
0.07060032139562167
-0.3322748084349998
-0.4817954603579302
-0.5183975394459075
-0.19683972258069796
0.27717115556727845
1.008910411018926
1.1947580477611357
0.7407484521582368
-0.07083712773348709
-0.8773699671723579
-1.9267071211283486
-2.208180034891271
-1.063558135594521
0.9084540289723482
2.680671938600013
4.821935374481161
0.1924910105978956
-1.8410970059304437
-2.278456813978213
-2.5070539109352676
-2.7564326294139905
2.153648853600221
3.1612141163259064
1.4478462599360438
-0.07236749191908222
-1.2104835949877044
-0.6953415230005413
-0.5231455159377614
0.10317062170839685
0.421041352056303
0.33378358977271416
-0.38249663208139223
-0.2849306475065536
-0.07958885877562151
0.15452804224166308
0.136184565588579
0.3536520704871997
0.24554601910208962
-0.003073174995752985
-0.2480998349347592
-0.16192382191274768
-0.205894974715222
-0.20904006029432062
0.04064051943536999
0.1909210525999854
0.10963051372677209
0.06494729895441305
0.10841297873119041
0.06527385465677447
-0.06631594371577025
-0.10860383559945538
-0.09350917824783822
-0.05204508663599981
-0.00728138283509306
0.027659831573231528
0.04715949625293134
0.0482315356831463
0.025710370380442153
-0.030441081727403146
0.06544333687035596
0.09874049456711775
0.06127283866798268
-0.040921407892648885
-0.1818120888485981
-0.31592788924801063
-0.3897077685452055
-0.16583031745402746
0.14254836937032553
0.6378658484154387
1.1208877181558812
1.1074353223549986
0.2885704024987239
-1.5735755284191872
-2.743409333257396
-1.0454492713371846
0.3303330893867972
1.5444298309782296
2.5748284720110313
1.0878752932065383
-0.8395192748532576
-1.5286641339213438
-1.6570168039697335
-0.6034786992855283
1.186774046240718
1.4106246409318302
1.3062834524432718
-0.9302954432701198
-0.097788759954837
-1.1188111971644294
-0.37082182901432537
-0.6452843548747923
0.8491019452064468
-0.5604947697000952
1.1128671677591617
0.0323090397259511
0.26721708296983254
0.15176676201869757
-0.12268827564035144
-0.285003110638695
0.05863429112701056
-0.3246201943112848
-0.04723265851832344
0.1339429434990973
-0.06304597397968235
-0.2425862599038739
-0.14382956126314697
0.13529080938354499
0.3077764699272312
0.4687691295722939
0.0765426700932602
-0.25152199867505176
-0.32888821921361483
-0.18247288008960613
-0.03667974832480238
0.09502591845309309
0.21000001374780936
0.11107539630802432
0.000777583833818693
-0.12152424567843775
-0.05894021556839123
-0.014486457894669173
0.011218269915431588
0.02071106343027713
0.01888102105143054
0.011359506004644197
0.002968461957873463
-0.0032167655010189016
-0.006044614836894679
-0.005873255078043595
-0.0038768111282864986
-0.001370410948578176
0.0006540059241403073
0.0017200014235786295
0.0018297010225212624
0.001293442745226833
0.0005260894907683496
-0.00011781180781889365
-0.00043680435546272924
-0.000403213215966473
-0.00013071038391975544
0.00018767248109579005
0.0003518141310806136
0.00022393740628939653
-0.00021512505803128172
-0.0008349448613173093
-0.0013651687417542708
-0.0014601521352829371
-0.0008218322430701229
0.0006388008722116055
0.002651490269403904
0.004523192808154317
0.00524078855407925
0.0037863975966527037
-0.00036475084629705056
-0.006701386980938915
-0.013329246492164232
-0.01710774619524928
-0.01449237967473577
-0.0030960337338207687
0.016347421147488633
0.03828918920177599
0.05183146738082016
0.04214111011249518
-0.005940409853482921
-0.10275005517038902
-0.04871199348948995
-0.03131982431425809
-0.025753324836860846
0.0005145288236915388
0.08017221519507836
0.0377002351782118
0.08267576328290427
0.006822478238614012
-0.014252157777553572
-0.015130592302801879
-0.03220448605770253
-0.09522399478513015
-0.021105392826425595
-0.01162759123372406
-0.055475989555609756
0.06626008715866646
0.1731913860361846
0.07997561143970804
-0.005858118795952556
-0.08195656795359106
-0.14660690009186203
-0.19474235159486544
-0.01750397729351942
0.19361210339796386
0.23995031723986418
0.1103528869778352
-0.018792258845781278
-0.17692489821549162
-0.1885830860262666
-0.06336599420343143
0.008935349169889417
0.056103112486597245
0.11535339351661195
0.0226010458114958
0.0028199027502134114
0.06417762954653287
-0.002944063933556451
-0.02236540838946517
-0.025333006036772167
-0.042574125281558385
-0.09737162403712077
-0.0014428772672798462
0.04554653598273304
0.05325333600728591
0.036177978989092384
0.009230550644789969
-0.015370800984030056
-0.02951850116856219
-0.02940857040992804
-0.015286880212318783
0.008679291942826167
0.03436614201227043
0.04999305276919784
0.04147510856391111
-0.004742803198287973
-0.09768986509376476
-0.0378861176742743
-0.014969503929677544
-0.00815965893803372
0.010221796615210874
0.06904658760459469
-0.007950468566011705
-0.007466409329870799
0.0703868552868372
0.012074351788027692
-0.006373295995879484
-0.01400498167053213
-0.03850411946570753
-0.10035522041428561
-0.009256481972627087
0.03626388410805602
0.046192083991572874
0.03458055525868371
0.01503186739001637
-0.002478713955389421
-0.012841445689765587
-0.01531835342716623
-0.012012958526007776
-0.006097337332990071
-0.00039938696917722795
0.0033635089969351103
0.004714386613433854
0.004108976063538968
0.0024494498916743067
0.000637728393836386
-0.0007066772509262582
-0.0013367646790772624
-0.0013186247666873117
-0.0008960456699412956
-0.0003493319166445559
0.00010546729945062346
0.00036031117352406175
0.0004091843568984847
0.00031250228278860453
0.00015387584216384548
5.521967215613516e-06
-9.006979453772392e-05
-0.00012246815094453547
-0.00010477860646645448
-6.091242979263823e-05
-1.4161844484990128e-05
1.983578907068191e-05
3.516279238659833e-05
3.389679905062114e-05
2.2526530323349848e-05
8.30842544697586e-06
-3.2780543674616107e-06
-9.586446929549368e-06
-1.0588073273146654e-05
-7.919570782403934e-06
-3.760942362629739e-06
4.378066349384008e-08
2.4381648765179347e-06
3.1935432980424594e-06
2.6763130366001863e-06
1.5151394180620688e-06
3.08601251579856e-07
-5.504116121575752e-07
-9.216697253079013e-07
-8.685387786284375e-07
-5.634479798704249e-07
-1.9406745998390464e-07
1.0080942936912496e-07
2.565948583980554e-07
2.757938402259159e-07
2.0258252019381036e-07
9.37287618119472e-08
-3.733945973608041e-09
-6.359766063889917e-08
-8.100388813307386e-08
-6.611780159278646e-08
-3.544093294117371e-08
-4.338539109667926e-09
1.733433303423739e-08
2.6282243695401326e-08
2.4387985559383465e-08
1.622390592839462e-08
6.638579007219819e-09
-8.563986081925838e-10
-4.690416979266743e-09
-5.0110493195177726e-09
-3.007579250331479e-09
