0
2.3849708870385968e-08
2.449058365985828e-08
1.3434986869966429e-08
-1.0657673871452816e-08
-4.348120642704438e-08
-7.39272364071351e-08
-8.561142179667176e-08
-6.188562413457314e-08
6.110697042571941e-09
1.1056368297803818e-07
2.211575514627038e-07
2.8695396033916637e-07
2.495253902148648e-07
6.74023544062194e-08
-2.536467044363046e-07
-6.360398511583465e-07
-9.269326917511867e-07
-9.298582498233054e-07
-4.7622962253915016e-07
4.753948203756965e-07
1.7450891771521795e-06
2.8917422419462256e-06
3.278845204981905e-06
2.2747601225081306e-06
-4.331700319789054e-07
-4.499391776276998e-06
-8.708390413849594e-06
-1.1068765528650263e-05
-9.344281475669504e-06
-2.013815099702628e-06
1.0563934192298656e-05
2.5236112401904336e-05
3.5987683950954655e-05
3.524445615480618e-05
1.6700800265445148e-05
-2.083650620845626e-05
-6.989285192771323e-05
-0.00011297838072437716
-0.00012539425982410857
-8.322062917844485e-05
2.4442670754367296e-05
0.00018254645582591763
0.0003424455410842192
0.00042636969663198
0.00034884225898620225
5.43284243258762e-05
-0.00043801823731971133
-0.0010004374037889206
-0.0013964598873220965
-0.0013342746523008168
-0.0005782517583583698
0.0009026681438147674
0.002801584478558113
0.004429888156039703
0.004836983064084296
0.0031295396730065352
-0.0010514086221121255
-0.007040240638537268
-0.012881073333531563
-0.01555694918989554
-0.011907678843635033
-0.0002222597717308202
0.01781679002517298
0.03547137320541941
0.04036522805423465
0.015641191221920432
-0.05697185146312644
0.007290163846190793
0.0009542308229575864
-0.07196581781651853
0.00569380521006187
0.06325638649285668
-0.06148789118892629
-0.1282593954185826
0.09820269743594584
0.04028542934273204
0.10112877241417692
0.061957258868242326
0.08482425221797864
-0.07905100697595847
-0.07717746810270656
-0.1434260069473676
-0.08951197176504339
-0.10352178494688764
0.043579585421174856
0.1854069600236668
0.14600454374225313
0.12951127705432142
0.11793010849771338
-0.12172745789286146
-0.223409613244049
-0.20655990782290684
-0.06546160381108479
0.03232120217897554
0.13796547126265102
0.10726692118844487
0.18582150518041798
-0.0014287680287254283
-0.053573420418289365
-0.1904473003186754
-0.04556812019795561
-0.05889203841995325
0.12825008841750002
0.07589385890772023
0.14747360772743595
-0.08698742291282768
-0.04596214007781271
-0.13115272830169658
-0.12452613609570065
0.00993862541587691
0.1191032582258759
0.04974886717578338
0.03719214761591181
0.09699257530222052
0.022193865237283998
-0.013229224461052305
-0.04585893731031652
-0.1118413087052037
-0.036689682501790145
-0.028834717913844263
-0.07861397803339297
0.03733830178592678
0.14802618484688745
0.07927892647983102
0.047386333052981816
0.057392247409012886
-0.09374619133737051
-0.21110306212058585
-0.09615872660252593
0.055286689228327475
0.05044928312016816
0.0935808749344403
0.17999849304250276
0.09359185319506878
-0.19033701652660545
-0.09765950450441463
-0.046509897302902135
-0.040690484180993795
-0.06803542721791954
0.09580152675035096
0.07971551163386575
0.10849717631520321
-0.003914426379525292
-0.0574254029128268
-0.06493253444288775
-0.04898722408075603
-0.03775040448534145
0.13868953426447808
0.05175157897099216
0.0784523503708982
0.006783283296887252
-0.15831507712515885
-0.19068657150309756
-0.043488255122761485
-0.05670513434052473
0.02867713705508771
0.25326085956513483
0.22425949375413035
0.10892734240163028
0.04021800236653492
-0.06561454151518026
-0.2843053603263353
-0.2597381433154906
-0.18937023714709222
-0.024588453989128532
0.113467674393256
0.30774155946050696
0.21782669816219405
0.2609545250953972
0.008069866845811319
-0.20390420619202598
-0.24850195664478408
-0.18378256814423216
-0.23342996638762215
0.01886709596998387
0.220815836956403
0.23306777623550495
0.10851118016560564
0.0768113720095669
-0.06139079672156161
-0.13053046632452445
-0.1698211818500116
-0.021411846217213447
0.07907133652702517
0.10798950013809691
0.05582206279368816
-0.07247539229176143
-0.05800244356610542
-0.06975009453812535
-0.06884321341580409
-0.015783545644050708
0.12013499306944887
0.15165584748179
0.06793476793803456
0.03525105539198744
0.004900163450654825
-0.07350074057285684
-0.23726178357021244
-0.09934585215590384
-0.04474130977303068
-0.03621162216024842
0.17222374077026073
0.2187224601074811
0.12001037322629624
0.06590440702026962
0.024172148982277278
-0.24604207222368024
-0.17739336049020438
-0.18073243688932678
-0.04015120892693124
0.08138107720231973
0.22822731165262333
0.23594321151644262
0.11945048538902994
-0.1299200581225206
-0.13807799794958983
-0.13616295251023353
-0.1485339181117965
0.01440335552626009
0.15654888986345647
0.09092362622132014
0.03232421894368207
-0.008706836689827552
-0.028645181783228016
-0.03045971197158989
-0.021036768354660777
-0.008086982045914709
0.0023118848993003397
0.007005073295749983
0.0058925288871135885
0.0012164739124714261
-0.003607683092449
-0.005294788671485031
-0.0018932057917160315
0.006314018476622024
0.016442258149056043
0.023437003890291217
0.021505292406458612
0.006510045900483963
-0.021125797162276704
-0.05394063735098288
-0.07663828911531903
-0.06811765741790468
-0.0067222740179425635
0.12222670984973052
0.11901748235377653
0.16547395944464485
0.026864159567817292
-0.13967603768913744
-0.17253931161883793
-0.0933939106434512
-0.10005395857759876
0.03269341892701078
0.1446172389720446
0.07712117912206133
0.06050531614613964
0.1056228027581233
0.002268271632880061
-0.07582572672366673
-0.1617408834958375
-0.08556659812257363
-0.06760351871583732
0.08354015742722168
0.16861693576467002
0.19393578959388585
-0.030687405725496657
-0.09059179722469267
-0.1627521389231464
-0.21363964790165776
-0.20233438910725962
0.10945106546233911
0.34275410833089287
0.688380279842747
-0.29690849782129924
-0.08060310777629578
-0.13308632025886505
-0.30274199868120805
-0.597658692505561
0.41848669829365437
0.2145458951563855
0.0687261561550457
0.04298834144738154
0.16379662477807555
0.41477777027891305
-0.4572904816700629
-0.12579429545825047
-0.06292391670569399
-0.12095562365292102
-0.3217677420313546
0.5435919033959349
0.10745710611231472
0.014951966980125998
-0.08512330457988293
-0.14599639373589204
-0.1263994807691784
0.005790122583433137
0.06855706173224152
0.26060856535926213
0.1591195707605977
-0.07671917257789963
-0.0957509290728665
-0.14124850893651336
-0.23879161429024853
-0.1907588207209711
0.21995378689907502
0.2184249770460616
0.22361510643013968
0.038289696503835215
0.04761828675183543
-0.17311871997729214
-0.24552177100565406
-0.1758754374349107
0.050647921710496265
0.06684796578773745
0.11295821644222555
0.2233110928878321
0.015528700215394563
-0.11405825444129004
0.012025144783390555
-0.0400680501781595
-0.10614228276556088
-0.01588289976084286
0.011875603751099036
-0.030116662909126075
0.0599205863383333
0.08863469811790144
0.0637675914040916
-0.007669366189632647
-0.11885627338633362
-0.061228421676819016
-0.02293045450768299
0.010871642443250914
0.055610873235350584
0.12402462322090735
0.023741037830943376
-0.04289718162367286
-0.07671217581807822
-0.0786168424419582
-0.04755193066422869
0.019172860821091896
0.12317165259872324
0.061408459410093354
0.02389712264804363
-0.00575873782906577
-0.04686974750905142
-0.11657843442365078
-0.02531465994410318
0.025386036156178356
0.04203280395197425
0.03600019389810193
0.019556728588598506
0.0026096128438677997
-0.008978458158572457
-0.013433080241079576
-0.011966071685504016
-0.007228027603683584
-0.001922580269378278
0.0020668750840589184
0.003965361636904438
0.003939956221481884
0.002700090392255395
0.0010757259915531252
-0.0002867230793622898
-0.0010591866146756402
-0.0012176931541207296
-0.0009383601153267995
-0.00046909010339581965
-2.5949660415942536e-05
0.00026249578002535086
0.0003631307165877482
0.0003135604189143906
0.00018441287278007665
4.5188602893810906e-05
-5.6996191454834816e-05
-0.00010388003522523759
-0.00010115290208616318
-6.788524792252565e-05
-2.5667096378203432e-05
9.04968036077313e-06
2.81944560174976e-05
3.151637958030638e-05
2.3790699230104946e-05
1.1483827099501893e-05
1.1584785076631037e-07
-7.113235469692794e-06
-9.46926837912719e-06
-8.007262948905757e-06
-4.585327122434021e-06
-9.903137410307016e-07
1.5931961708997691e-06
2.7310846991257027e-06
2.599450011699903e-06
1.7055857838311437e-06
6.081589015237306e-07
-2.7586442901269433e-07
-7.491981558153941e-07
-8.150751762612846e-07
-6.025964056990553e-07
-2.8024739720013887e-07
1.1104176825960488e-08
1.9199166150514933e-07
2.4657892617271917e-07
2.0422944846508965e-07
1.1374997460399649e-07
2.1030579819511457e-08
-4.419384085781691e-08
-7.168249604784519e-08
-6.672260852109835e-08
-4.2777887908759846e-08
-1.428729822475902e-08
8.195550371198309e-09
1.9866345176572956e-08
2.1056683727137584e-08
1.5244452946221418e-08
6.813826060920767e-09
-6.446773879819622e-10
-5.162328420600866e-09
-6.410467888657292e-09
-5.2006575013906095e-09
-2.8128564343770115e-09
-4.242742540084311e-10
1.2199767198638504e-09
1.880534710317256e-09
1.7126872927075515e-09
1.0730127006519803e-09
3.342667231578431e-10
-2.3679176481587623e-10
-5.236562222290009e-10
-5.412265960292973e-10
-3.829129823581583e-10
-1.6268588220424855e-10
2.800581645127743e-11
1.404814574293216e-10
1.6831773876427388e-10
1.3386342649833167e-10
7.074294658118683e-11
9.263117523669053e-12
-3.1812613774223787e-11
-4.6914455763664615e-11
-4.06484163100581e-11
-2.2751218757086705e-11
-3.294205762130804e-12
1.0523277093342973e-11
1.5642083994275795e-11
1.282929608426672e-11
5.437888948409948e-12
-2.1442150150195157e-12
-5.95362688510485e-12
-3.6305659670338578e-12
4.770796065062541e-12
1.645738387678289e-11
2.6258185026955416e-11
2.7886853115085854e-11
1.6153797066946818e-11
-1.0214593254149448e-11
-4.601958230606933e-11
-7.861288851270156e-11
-8.987554376914785e-11
-6.192607190918365e-11
1.40338516858899e-11
1.2822033197772052e-10
2.46381162313267e-10
3.1250770262529123e-10
2.6380437175694877e-10
5.766872016535117e-11
-2.956259256441056e-10
-7.073293238604008e-10
-1.0084158285433523e-09
-9.862908529533582e-10
-4.6426609310725434e-10
5.905339090464614e-10
1.9675055196411445e-09
3.1750380013739147e-09
3.5196847358669755e-09
2.3307533998833984e-09
-6.959599356718839e-10
-5.135535080111759e-09
-9.62013196816259e-09
-1.1965788401786075e-08
-9.775014208394766e-09
-1.494379684802585e-09
1.2330007564915008e-08
2.8102998692755643e-08
3.918240165811855e-08
3.7383777848231404e-08
1.6118716679101293e-08
-2.543189011880077e-08
-7.856549516153585e-08
-1.2382000754518358e-07
-1.3431989813940987e-07
-8.471796729493807e-08
3.5425997349701005e-08
2.078476140255428e-07
3.7791789538188356e-07
4.604582781202122e-07
3.6398627122836505e-07
3.214072191064251e-08
-5.081568542583348e-07
-1.1116298514251481e-06
-1.5175446050888413e-06
-1.4111899019844982e-06
-5.476422362405755e-07
1.087024414164021e-06
3.1347974852402415e-06
4.826276343869757e-06
5.1210647395673385e-06
3.063203033554292e-06
-1.69870760387803e-06
-8.387423502395641e-06
-1.4824999366467319e-05
-1.7693109140351902e-05
-1.3506465702254216e-05
-2.335247235028813e-07
2.0858536485466036e-05
4.391362884380306e-05
5.870919630715217e-05
5.315965068067593e-05
1.8191013575399423e-05
-4.60392296273194e-05
-0.00012486152874938695
-0.000187900488660466
-0.000194928380966511
-0.00010997176177925729
7.849033638512601e-05
0.00033765477210378683
0.0005808316481759008
0.0006788867264724962
0.0004992418184882973
-3.079083615716719e-05
-0.0008534260121640855
-0.0017331458899237082
-0.0022695771478212774
-0.0019990351636290653
-0.0005861032194573722
0.0019370035201430815
0.004973671224077599
0.007330638056051837
0.0074619213072786615
0.004029223590898778
-0.003313840334267903
-0.013171601108168049
-0.022083886744741266
-0.025048580933869313
-0.017144104090031857
0.003865827515902261
0.03457881710925765
0.06376901358092667
0.07228231284668638
0.03598059480091737
-0.06825856814553054
-0.054822005047959366
-0.12239345967642917
-0.0504900674594971
-0.0013727304095331075
0.07256574336695192
0.01775092359538106
0.06780727545559606
0.03467433146469987
0.10503969177809912
0.04337892380750457
0.0012846997871602405
-0.06901370951455053
-0.200669312295215
-0.20234582672137025
-0.05636185063761171
0.07372129888967635
0.22830663980702537
0.23527048566041292
0.0983914821023948
-0.0045230642893317515
-0.11307280247265346
-0.26885346412764843
-0.09943940910581796
-0.007877469394507987
0.02882076808073328
0.05239831210617218
0.11050315089040681
0.04279952726416223
0.07020112762502827
-0.0100954140999643
-0.023032806456810946
-0.008607398344436391
-0.011499576900985263
-0.07009982200399308
-0.007469428640766128
-0.026245289616004332
-0.10870360595796028
-0.022199704062374214
0.0709768091690711
0.0015915201789652657
0.1826674711190601
0.20361891798631845
0.032124854307343596
-0.17575760008792246
-0.05989678235513953
-0.2401013435100019
-0.10579952547173094
-0.015562224393573076
0.09279975178890705
0.08457987801755477
0.20862201580182985
0.08215941559918943
0.08484673409968682
-0.0362236643362709
-0.15223829887738202
-0.13367579901962195
-0.03239270265614159
-0.06977174106053179
-0.033633281009421485
0.11612937215061546
0.035479244407451406
-0.01873210439089202
-0.002961104138859506
0.10259508305487094
0.08942361950234534
0.12318667189783403
-0.04673440963188948
-0.07250471919417088
-0.1918398598420619
-0.21592716547869417
-0.12590411218269112
0.12008736413009174
0.17125295736699858
0.2656373073392936
0.21610754048600744
0.006633471324622893
-0.19956073442469552
-0.24346351193010446
-0.15236918918333484
-0.12787306212082222
0.055952325245164115
0.24457355356265725
0.2896744422568158
0.036648883762509805
-0.08247402771472631
-0.24997414031432746
-0.26051146601950886
-0.1210893784673535
0.1442774731744603
0.2867339593165735
0.4273586531446226
0.26165996975364736
-0.12206063971475713
-0.4128297498587622
-0.4449487718314168
-0.3767079213592963
-0.09055179350123603
0.18216052039733566
0.4182129037050206
0.5552269557432614
0.2558893425791071
-0.10462510081125469
-0.22515124733726796
-0.24546547955819764
-0.306083501413212
-0.11385764548908452
0.0777604763931825
0.07110677670643548
0.11231727042819693
0.07124392583904048
0.020045097824675374
0.01574225999927526
0.08985196697329573
0.04620141422579901
0.06641883356388822
-0.07889660651526846
-0.2168131327147021
-0.16106316029741885
-0.10770197361736476
-0.039579200738708735
0.2618739828308339
0.40272713596234416
0.1675122510862473
-0.07942545425501128
-0.18140100885091473
-0.37062255812159267
-0.2516520984722331
0.005107194870244046
0.25662947844498896
0.16992428172834875
0.20120140362818156
-0.02077818949190529
-0.10233581931281677
-0.0828631824054464
-0.025747433674376173
-0.005854898681520511
0.10359774694096849
0.043330808909816006
-0.0212146983632398
-0.09147546913995853
-0.13142092826014895
-0.06937556650559963
-0.007424236447066045
-0.03795832902501405
0.13540561044702057
0.17718176148545758
0.10499413229672729
0.08461951245912074
0.03704612442637623
-0.14387851221582132
-0.16776860033730115
-0.12433552519651843
-0.06643595220998007
-0.0033920120373765526
0.09487837737160786
0.08545347240604446
0.03602314655013545
0.00894357941747611
0.04898626878410028
-0.023600857728930145
-0.014535903335054494
0.047765648176209534
-0.08114746769579557
-0.05321674973300788
0.0811461642121239
0.0815216466526157
-0.0751886490964226
0.010963475889093752
-0.0337882112798204
-0.1575293386659479
-0.08839540718681552
0.05422491689779144
0.14438587813489448
0.03346227847736032
0.1375416183854354
0.03212570728123223
0.056022091895337904
-0.07618572890770856
-0.056009943073423406
-0.16174432468266844
-0.042786172020523074
-0.11138729215547122
0.056523813310028925
0.11242280630210863
0.12135994575981786
-0.05259773634708321
0.041972384730728805
0.03708051126593363
-0.05628184452171177
-0.04549742556169079
0.04909783646584862
0.0008732797266866533
-0.016470306447691235
-0.023278769838578003
-0.030177583484614176
-0.0369198069465181
-0.03428266046481578
-0.00880201308217643
0.05071912082799464
0.14682065323597002
0.06942201665442373
-0.003862463472261613
-0.10274352511269161
-0.05614705939767745
-0.08384713819309224
0.009268082299278113
0.03460299082081293
0.016882848400848298
-0.01197485385681795
-0.020409101123000963
0.015490177867861821
0.10641240292563217
0.04729591380274239
0.018790624496401554
-0.007227134085012098
-0.05936059958941708
-0.15810300549474676
-0.109883950193446
0.09403712969244622
0.07343958802944321
0.05152780761814158
0.04689060179995844
0.06790069446258597
-0.08890288268197162
-0.03653333127380437
0.007311395820374496
0.025943567358424405
0.00872874209730286
-0.04549962111692998
-0.12735387203783974
-0.018677104450778793
0.10278860044209338
0.05692219552357541
0.055079421237655024
0.09664668751468314
-0.030301155516629673
-0.1445175200056256
-0.0651669239651449
-0.00610805727940518
0.027053815747900993
0.03658866131124547
0.02986408110821096
0.01577483849908124
0.001793012389256565
-0.007613578907374629
-0.011148224057521465
-0.009862981618108328
-0.0059393539629816385
-0.0015815689731759667
0.0016828510591784997
0.0032313590853655532
0.0032075365772317255
0.002194170541259846
0.0008695840232176582
-0.0002394071167047966
-0.0008663964431103781
-0.0009929747221909578
-0.0007634718049877427
-0.00038022274175492787
-1.918898329711086e-05
0.00021521827224543292
0.00029641676765138677
0.00025535878557956675
0.00014974988629441822
3.6230052160636166e-05
-4.6896268164019934e-05
-8.487021321116937e-05
-8.243312777448742e-05
-5.5186318714573196e-05
-2.0737676169417798e-05
7.52587817404044e-06
2.306258518230453e-05
2.570177554773893e-05
1.935723529209826e-05
9.30672564020379e-06
4.53074432488578e-08
-5.828877820695781e-06
-7.72810991028579e-06
-6.52000639041554e-06
-3.7224884797115955e-06
-7.916234806590786e-07
1.3096973563646107e-06
2.2308882983939802e-06
2.1181145835896994e-06
1.3862770299103634e-06
4.909392838534223e-07
-2.2866235758928954e-07
-6.12678904768232e-07
-6.646116450277904e-07
-4.902281323439456e-07
-2.2702274882539816e-07
1.030956405397625e-08
1.5726474706285377e-07
2.012104608594308e-07
1.662746993274317e-07
9.232142479612367e-08
1.674076278815113e-08
-3.630164311683643e-08
-5.854325263822407e-08
-5.4360505493478964e-08
-3.476232944723047e-08
-1.1521421859238826e-08
6.777278873480505e-09
1.6242854631868462e-08
1.71677629675394e-08
1.2400249818185176e-08
5.51755225846514e-09
-5.573049056650383e-10
-4.2267156060438935e-09
-5.2298917009821485e-09
-4.233221951096016e-09
-2.2819589879420206e-09
-3.351410421730107e-10
1.00179726181919e-09
1.5359498376772723e-09
1.395586362564828e-09
8.721991054006755e-10
2.696629345106847e-10
-1.9506813342692007e-10
-4.2768988250311753e-10
-4.409096378686342e-10
-3.1118246164231034e-10
-1.3145844493944927e-10
2.3859255293551247e-11
1.1530317002107314e-10
1.3781731846030622e-10
1.0969520160366295e-10
5.829984783557284e-11
8.200910363422667e-12
-2.5459551398807494e-11
-3.822433801138794e-11
-3.3784713638180116e-11
-1.9835512269687715e-11
-4.206094879307709e-12
7.626894588956825e-12
1.3376997847344775e-11
1.3481908483691843e-11
9.960950240453482e-12
5.204577476418583e-12
1.1015607280108425e-12
-1.3472445489310113e-12
-1.990353889231138e-12
-1.2389369666477266e-12
2.752073274194743e-13
1.9578708117008144e-12
3.371211183717428e-12
4.234143930607394e-12
4.371403847214761e-12
3.684600135022236e-12
2.189318821462242e-12
1.1144742010978458e-13
-2.0166468605190726e-12
-3.3516851523757587e-12
-2.9112232236379155e-12
5.041799691172861e-14
5.533415369239069e-12
1.2337213763156983e-11
1.792803296962172e-11
1.8891970789922406e-11
1.2095077945952265e-11
-3.6111237775505264e-12
-2.5665845548996967e-11
-4.690004780759682e-11
-5.638751925705585e-11
-4.2644317348800524e-11
1.0367488248443133e-12
7.050702606957987e-11
1.4650322430612275e-10
1.953654260586298e-10
1.7726746753774757e-10
6.22642650510286e-11
-1.4921527237001424e-10
-4.0894901023921366e-10
-6.169449716282685e-10
-6.406698560370174e-10
-3.614756211202548e-10
2.5886916140576076e-10
1.1126617097901457e-09
1.914638003850294e-09
2.239493932020556e-09
1.6501992918527968e-09
-9.343187143775832e-11
-2.8021186573556687e-09
-5.701118499734042e-09
-7.472214454547446e-09
-6.587907439568429e-09
-1.9427221351813533e-09
6.357038686086512e-09
1.6342328549251686e-08
2.407054554367675e-08
2.4423006594372828e-08
1.2944895041894484e-08
-1.1573994795953915e-08
-4.46195731329074e-08
-7.485552300375968e-08
-8.575021450082436e-08
-6.070827662226501e-08
8.787894735717202e-09
1.142919179023309e-07
2.247095351587151e-07
2.8847690793773827e-07
2.470910495318039e-07
5.991348066678063e-08
-2.65433263621305e-07
-6.488099715016386e-07
-9.349639111081911e-07
-9.264420288947571e-07
-4.564050864619825e-07
5.113816739352639e-07
1.7888844820215275e-06
2.9262951477267214e-06
3.281762855352803e-06
2.226242605189618e-06
-5.390669003412461e-07
-4.6437847704925055e-06
-8.842464360537597e-06
-1.1120457030358232e-05
-9.240299386390278e-06
-1.7150477085846572e-06
1.1023304328593536e-05
2.5722910200360905e-05
3.62779118397397e-05
3.508096425215452e-05
1.5900767961233065e-05
-2.2248331290491792e-05
-7.157586251105271e-05
-0.0001142605979097898
-0.00012541106373678874
-8.122882732599434e-05
2.86285549349792e-05
0.0001881399223809938
0.0003475130779546902
0.00042812039080534955
0.0003445092477274517
4.2551067527227706e-05
-0.0004557036155280344
-0.0010186747790199993
-0.0014065151890719338
-0.0013264417823779045
-0.0005462280347661794
0.0009563578512817196
0.002861022896889443
0.0044645666692929254
0.004806185422042789
0.00299304401213018
-0.0013180284863252667
-0.007429820603549603
-0.013342980001196172
-0.01598889097781641
-0.012138239366727647
5.2210996179046313e-05
0.019211842293883598
0.03932353872550822
0.04952062430661823
0.035777530590832066
-0.01542875827509476
-0.1123108187191617
-0.0534873041639021
-0.02615180841859826
-0.007956135739452311
0.027502919370000926
0.10313200688389335
0.031117958156644462
0.008394582250545058
0.016299487738657633
0.024628137180814958
-0.0009196600331696014
-0.08976713766736945
-0.058314121211251416
-0.1049798669584299
-0.010097666822471596
0.05913389717759188
0.14023565725605858
0.06650669961792965
0.06063300552233469
-0.06734693574851007
-0.11798847117769902
-0.09836258078283612
-0.01857286079298847
0.10946615394101097
0.07115450604252392
0.04791499675440131
0.017419638054042424
-0.04375847726415865
-0.15569506808756947
0.06942190101511651
0.030137915237153805
-0.06406259392726507
0.004876257310536437
0.05931785862609911
-0.0793332883842605
0.004097788179733243
0.11437363107789854
0.04389422422232648
-0.026021889213125208
0.07975390590564783
-0.06205172323178346
-0.0642903913776287
-0.12212446016444391
-0.009908909317756589
-0.08390614013149668
0.1091703434825834
0.01968628599957798
0.08197931414178185
0.10427469482460558
0.06454951783921666
-0.08632958681464659
-0.01487729285275343
0.008870253203042779
-0.07406710916998953
-0.09971783735244417
-0.074648192232973
0.023642438753697148
0.039536631228185924
0.02721207506722193
0.036800307634047104
0.10225264561138167
0.033811485701859774
0.016830450696259033
0.01717800980156438
-0.008132659598454599
-0.09776670942334183
-0.0737847676272289
-0.13369908558986182
-0.04939143032069561
0.026434723312822594
0.14798323985830514
0.16209750759913794
0.096660333066032
-0.04469342786596934
-0.08047280665407303
-0.04365337318829599
-0.17209220815387963
-0.10080355687095989
0.14161632281968514
0.13249588181266192
0.05279023065126887
0.08604390368348998
0.020608367818480723
-0.14517100894329132
-0.19733707920094784
-0.10394459918323105
-0.01890666750756557
0.10744546748897411
0.113828698367574
0.21460837603539656
0.19297556376166797
0.004186413589702788
-0.21133692541189927
-0.3093530775220788
-0.12454759142357517
-0.06120438741001828
0.10521455703694851
0.21747331343859483
0.322587573349239
0.06097699570794916
-0.13715108944287166
-0.24861899424371536
-0.25200581346395556
-0.12653591072993686
-0.0592238820234428
0.14041984536115845
0.42400995084976056
0.4954084397108757
0.2180877034652493
-0.15748363030001572
-0.3509557993458463
-0.6064544060974216
-0.46089234670416235
-0.1402345756771184
0.21106579252798693
0.273676324911149
0.48574121417308586
0.3836393256029637
0.16819337982452798
0.10565854934085227
-0.03720074322730076
-0.3339555367318347
-0.4316275250011042
-0.4944529121263902
-0.37374893761960054
-0.01166123169531582
0.5241960327206794
1.1886549254712466
-0.4914236446932525
0.15079359531299882
0.11575381712764164
-0.24650500289677085
-1.0082468353970557
0.7644075461799598
0.03133675380084568
-0.2137357998595938
-0.1460343470852419
0.07996299579997605
0.1158766351495
0.20422060532906697
0.16725470347747534
0.003762753171395184
-0.10521444695333368
-0.1844004841125444
-0.25155315995950206
-0.10987164315986307
0.05092046787624171
0.24545936384138028
0.28035585633755944
0.1452503408401313
0.01258162043139411
-0.15293934511744403
-0.3791969506422901
-0.27317479454276167
-0.01607984598279511
0.22993266772468865
0.30628138575444974
0.24106823534966998
0.03871574610901798
-0.11946150914950489
-0.26489353576627034
-0.2272809099209765
-0.023015819369999017
0.14873189786838986
0.1017166805000568
0.05326140644447223
0.014371405290368879
-0.017123660849734365
-0.05881854566492399
0.058583493125439805
0.0973657113836932
0.021736497410117735
0.008422269612944967
-0.14307979226394218
-0.2036310335253396
-0.11435835971557722
0.0044679485085418955
0.03620397018512112
0.24628426402074216
0.26285440020072504
0.06631009063894962
-0.007951377737619718
-0.05357643523579988
-0.1685808974454405
-0.22930033875383968
-0.07066944884003896
-0.07848561045268015
0.0043742255897732465
0.05991981850444764
0.170633828164837
0.19582780037933417
0.15569610646313192
0.02778987329778712
-0.04312223233742198
-0.1250537992007592
-0.27516314341115405
-0.12014014772694122
-0.046902601884837754
-0.006395991779813502
0.071071475785778
0.25420642626223555
0.18991967779096494
0.08993687845309226
-0.07132644117123192
-0.14794816250847126
-0.20692373245126927
-0.11184065924716917
0.08910872614702971
0.16865687013593475
0.12066275892815247
-0.042219217346208364
-0.0912692450019205
-0.18474920882428086
-0.07277706796004625
0.0946659277430987
0.15720332527431263
0.13386658841592722
0.017014981035622545
-0.02699718714934963
-0.05031018070919661
-0.11156182526732274
-0.06298991497509256
0.06005585469912952
0.04522575422118953
-0.09548430355126747
0.07149119337557673
-0.004661537118582353
-0.06735470532389368
-0.06220891572090407
0.05298080286038231
0.0994005279061446
0.07157169732937627
0.13714531417979953
0.04349728075005873
-0.06947251250833815
-0.25336751133046953
-0.1370516716864447
-0.11921094826467613
0.029301563515597852
0.15406732352523322
0.3010539646362184
0.10220326630809902
-0.0319629825679514
-0.11070322370816718
-0.15449315679911496
-0.1843996285101198
-0.014395874212066666
0.15060031676801813
0.1114390545378056
0.06921429355854258
0.021068792416283573
-0.04053902487119172
-0.12523654112844396
-0.04067675786598953
0.010670069306944294
0.032393310407820675
0.032632431531649624
0.021240566068277546
0.006983335523969514
-0.004257163143416646
-0.00996011230666281
-0.010364902876384583
-0.007310712147359497
-0.0030451163354385208
0.0006371295511151106
0.0027891295339068393
0.0032941575102516216
0.00259478324479556
0.0013473587233861664
0.00013757145423387435
-0.0006763484202555372
-0.0009906726147035083
-0.0008929613864041161
-0.0005621897496107584
-0.00017798215343430834
0.00013478285545039567
0.0003207977672297613
0.0003789858030701704
0.0003345614167299284
0.0002151808154652923
4.141407351630211e-05
-0.00016707517612149587
-0.00037645802865103763
-0.0005267118777402028
-0.0005349462093947957
-0.0003213343778972764
0.0001449594256442703
0.0007947773663439798
0.00142835876322348
0.001733928721240015
0.0013753033868785412
0.00014477339624692262
-0.0018572999939604714
-0.004090341586767006
-0.0055826232609045385
-0.0051603195981139915
-0.0019136503869293872
0.004187367732614974
0.011735118844707881
0.017676746265159547
0.017735417922136662
0.007578461833649105
-0.015458632307738055
-0.05065880251219069
-0.09304603345092727
0.06593563436373574
0.036073380580768005
0.025134682510873075
0.036073640695435456
0.06593613646837096
-0.09304535485811304
-0.050658098727541914
-0.015458155215889252
0.007578400590089716
0.017734557954824932
0.017675041864465595
0.01173289816979552
0.004185400634702272
-0.0019142664531252482
-0.005158506399903261
-0.005577864861317117
-0.004083268148011428
-0.001850046291847192
0.0001487436378759523
0.0013721314978783969
0.0017210332666662627
0.0014064498263991
0.0007694182336318833
0.00012664285414312328
-0.00031949535100550476
-0.0005021595478958754
-0.0004611724004538941
-0.00029145359302557467
-9.319891452751115e-05
6.129602179059445e-05
0.00013993115783215833
0.00014604916976239068
0.00010437668854450893
4.546076846022386e-05
-5.993788109648342e-06
-3.668218696847064e-05
-4.4661513854522014e-05
-3.5783738874557904e-05
-1.900812956364812e-05
-2.466316976628102e-06
8.769401894361622e-06
1.314416305805558e-05
1.181356557285056e-05
7.287878433713596e-06
2.151757015998821e-06
-1.769037545388486e-06
-3.698244783612256e-06
-3.7657218586852375e-06
-2.634169030959468e-06
-1.09679035772455e-06
2.1797640801495687e-07
9.819103648098175e-07
1.1590970564323442e-06
9.097746907851631e-07
4.683285382602051e-07
4.297232045350276e-08
-2.3956631408453107e-07
-3.4363601096465216e-07
-3.023299165577608e-07
-1.8191920721553048e-07
-4.900305231301044e-08
5.0379154998824415e-08
9.755324001241513e-08
9.698314460121141e-08
6.638122430538943e-08
2.6319458257615793e-08
-7.235644470884237e-09
-2.6210396848510733e-08
-3.0042786915535894e-08
-2.309898051275503e-08
-1.1501911509559307e-08
-5.76802986473563e-10
6.516404152724164e-09
8.9731767514342e-09
7.730213350600498e-09
4.533870971924001e-09
1.098250556279605e-09
-1.4174567756088665e-09
-2.5666380637032816e-09
-2.4928214411611662e-09
-1.6681844919920042e-09
-6.256171109264989e-10
2.2974435747134455e-10
6.999299830865597e-10
7.797841079453105e-10
5.877598087937852e-10
2.8358553043080884e-10
3.298864081121386e-12
-1.7447269226164622e-10
-2.3194528172454194e-10
-1.9537863708039302e-10
-1.1071212816919215e-10
-2.2012133999798392e-11
4.158109496587495e-11
6.945831797613469e-11
6.604381333291794e-11
4.389454785359207e-11
1.679777514541558e-11
-4.980016353991814e-12
-1.660141438468588e-11
-1.817262162328584e-11
-1.289474100577252e-11
-4.928953840313266e-12
2.253641602672885e-12
6.700965836001977e-12
8.030789376636743e-12
6.973376585114955e-12
4.735194885021896e-12
2.4478167100436646e-12
8.425725445264873e-13
1.6949687185817664e-13
2.9612243144825854e-13
8.89264922440417e-13
1.5926339014582001e-12
2.1464191689051923e-12
2.432872727729191e-12
2.4608516592437733e-12
2.316559126633374e-12
2.1082578269885896e-12
1.924409325536916e-12
1.8133616836270503e-12
1.7830054408497817e-12
1.813171622950877e-12
1.8722261104561803e-12
1.931144662503489e-12
1.9716049040886477e-12
1.9877693271117203e-12
1.983520366163904e-12
1.9676799990695995e-12
1.949444727846761e-12
1.9353803279279887e-12
1.928340636680341e-12
1.9279409053897607e-12
1.9318671807016363e-12
1.9373063759884678e-12
1.942006775394322e-12
1.944774006239673e-12
1.9454551535833364e-12
1.9446039559532256e-12
1.9430486092233246e-12
1.9415327165992002e-12
1.9405144818847094e-12
1.9401286460437447e-12
1.9402632669034434e-12
1.9406852227093514e-12
1.941157409960325e-12
1.9415141406347167e-12
1.9416865797825087e-12
1.941688639632527e-12
1.9415822515778607e-12
1.9414404188205603e-12
1.941320385875798e-12
1.9412515758345672e-12
1.941236633227505e-12
1.941260434119572e-12
1.9413013278047245e-12
1.9413402850749614e-12
1.9413658692354654e-12
1.9413750139205477e-12
1.941370905167059e-12
1.941359691662392e-12
1.9413474793611932e-12
1.9413384431879255e-12
1.941334234382012e-12
1.941334392451119e-12
1.9413372643214985e-12
1.9413409577971988e-12
1.94134401941506e-12
1.9413457265418565e-12
1.9413460443041803e-12
1.941345383875353e-12
1.9413443104454954e-12
1.941343310416519e-12
1.9413426686655254e-12
1.941342453725147e-12
1.9413425758682643e-12
1.9413428732098644e-12
1.9413431886876885e-12
1.9413434172670167e-12
1.941343519585461e-12
1.9413435101082572e-12
1.9413434328488412e-12
1.9413433367924352e-12
1.9413432587952723e-12
1.9413432165463944e-12
1.9413432100911246e-12
1.941343228296784e-12
1.9413432564293855e-12
1.9413432820706795e-12
1.9413432981399985e-12
1.9413433031419044e-12
1.941343299581277e-12
1.941343291713083e-12
1.9413432835728463e-12
1.9413432777988728e-12
1.9413432753226975e-12
1.9413432757054107e-12
1.9413432777777845e-12
1.941343280273028e-12
1.941343282257592e-12
1.9413432832998864e-12
1.9413432834205813e-12
1.9413432829202077e-12
