0
7.289339833693746e-17
7.936208845170231e-17
4.9008319421574004e-17
-2.4581907424363396e-17
-1.3023774951817974e-16
-2.3450193366830927e-16
-2.8518338305011463e-16
-2.262042634071783e-16
-2.2980180891693578e-17
3.0806053096758516e-16
6.779636293064551e-16
9.269909698299292e-16
8.622572439058473e-16
3.335477791390281e-16
-6.678855361763612e-16
-1.9229014454779482e-15
-2.960192129332279e-15
-3.142187113613802e-15
-1.882755775223298e-15
1.0340793787279085e-15
5.132856664254831e-15
9.079658789427657e-15
1.0841217686927738e-14
8.281021700051967e-15
1.5230220327403466e-16
-1.2771101361875387e-14
-2.6903280303445177e-14
-3.598124655128836e-14
-3.259758899094581e-14
-1.1186723848922396e-14
2.816322916673535e-14
7.64722891487973e-14
1.1513300257425733e-13
1.1949245651908488e-13
6.749271740294038e-14
-4.795240555112729e-14
-2.0677509106758853e-13
-3.558822685068295e-13
-4.1615198521048345e-13
-3.063181960463931e-13
1.8224326519506518e-14
5.221586377243458e-13
1.0612611571065533e-12
1.390264925449004e-12
1.225082982815354e-12
3.6027933706307736e-13
-1.1840369259028102e-12
-3.041208416959612e-12
-4.477577599828361e-12
-4.541028513003108e-12
-2.403407057408711e-12
2.159398062713924e-12
8.306403989206002e-12
1.3927771933611885e-11
1.5948091384901205e-11
1.1281551447958479e-11
-1.6533512662111876e-12
-2.1281271861872248e-11
-4.1814043624535234e-11
-5.36579411093369e-11
-4.5932780969477636e-11
-1.1087177196341798e-11
4.944785925120648e-11
1.207504874650487e-10
1.7393129950187477e-10
1.7226334529331002e-10
8.473269951077338e-11
-9.536128665730177e-11
-3.329916027488006e-10
-5.444455098451996e-10
-6.103210184437922e-10
-4.136552466819197e-10
1.0101837782645673e-10
8.646408027081338e-10
1.645382394890399e-09
2.06841577492177e-09
1.7176373473785665e-09
3.1677284186432424e-10
-2.0533083502662708e-09
-4.7871498544607624e-09
-6.7486018508405555e-09
-6.522705762477639e-09
-2.9511827282063404e-09
4.147760321582748e-09
1.3323057063450702e-08
2.1258131860109796e-08
2.332257005526413e-08
1.5091478938119005e-08
-5.354552105908177e-09
-3.50292711321031e-08
-6.466504514224289e-08
-7.963421251879671e-08
-6.404673805760911e-08
-7.848395004155468e-09
8.483704222377366e-08
1.895107188974295e-07
2.6154585987674074e-07
2.464977996617569e-07
1.0123671112217644e-07
-1.782297363167171e-07
-5.320722663885137e-07
-8.290809294887743e-07
-8.898962337579773e-07
-5.474533283842539e-07
2.635491616625709e-07
1.4154007360846543e-06
2.538287036656808e-06
3.0620166082229486e-06
2.380716698819822e-06
1.307080096717616e-07
-3.489690840788086e-06
-7.491697374428248e-06
-1.0124545767666805e-05
-9.296017769096824e-06
-3.4053367933784494e-06
7.582692079730631e-06
2.121162569898344e-05
3.229774011791074e-05
3.3901668200258965e-05
1.97292194492095e-05
-1.2392245087040079e-05
-5.7050820463487403e-05
-9.951484561066558e-05
-0.00011758348015657848
-8.819238904552465e-05
1.7208308025111889e-06
0.0001429736350499965
0.000295751849778819
0.00039145067959095074
0.00034977249775952076
0.00011151079320905015
-0.00032003130960112824
-0.0008443871268832142
-0.001257039225894783
-0.0012898044361944964
-0.0007060158130964758
0.0005646210126334959
0.0022949656524961838
0.003900027554498068
0.004518065708813568
0.0032754864035329434
-0.00028823400893306046
-0.005752177593771497
-0.011508253132984547
-0.014864725874812745
-0.012749385309343136
-0.003022262798439246
0.013878496879834192
0.03354445631681682
0.04723884579020287
0.043266393544162854
0.010283704457770434
-0.05808246512985937
-0.1588888024529397
-0.07791754693348052
0.008219593035978285
0.12582688943672588
0.09570817352601088
0.12594101252027584
0.008939126434686955
-0.07591782654771465
-0.15525944331965663
-0.053311401444884346
0.014605941710728532
0.04466165072376785
0.04315588719286636
0.02267456556621728
-0.002412408063603665
-0.01979375547623719
-0.021876204275527552
-0.0072888766982619315
0.018624709274926345
0.044399535201404605
0.05444284150686824
0.032686548850105905
-0.03238574603631923
-0.14252992564906514
-0.08634286243487042
-0.03968970446176569
0.02917373682444391
0.15089651874859106
0.14568135060075937
0.01681694828564736
-0.050474196477971044
-0.08472558303257276
-0.1205170454451223
0.009627082921347657
0.08137527265704309
0.08198456693263471
0.011523026353201755
-0.1172636388228959
-0.08037255616751933
-0.04595150802644191
0.019796056578275708
0.14495252099593253
0.14468958648580574
0.017306319452583787
-0.05470552684501209
-0.09892019900811885
-0.1450054757917022
-0.017768121915686805
0.06644111000264762
0.09963219550958963
0.07994728190320632
0.009526020779261634
-0.10612018820325357
-0.057397103976644895
-0.029971880943040242
-0.0056458180481030506
0.03474720779836238
0.10721212355489534
0.020848268737185222
-0.023967217127758955
-0.03480328341496129
-0.02428270904508698
-0.006276220966223193
0.007602984841900564
0.010458185645655238
0.0012846618931823526
-0.015097943500176608
-0.02927520081550133
-0.029565370182194742
-0.0052449697164986386
0.04991207712312539
0.13486758182963823
0.04064487098768852
-0.047415315657887244
-0.1449095305440474
-0.0630123634681524
-0.0049379202522004005
0.03418268526191712
0.06413447244490586
0.09479274881348275
-0.06825054066857357
-0.026095710442876504
0.013437615157523331
0.03775329332059293
0.032750119849782926
-0.013170919974545045
-0.1051069705744632
-0.03875225915654908
0.0002492038482670291
0.034148823597390396
0.08866443501328944
-0.012325307480872589
-0.05145089408454859
-0.020952003119003866
0.07604486961649354
0.026051841818895572
0.007573975521986554
-0.004817579922043145
-0.03533743516091236
-0.10202475335208075
-0.013455837388673005
0.03181837541131649
0.04305749364696087
0.033362109886030306
0.015519395505789822
-0.0009896139197102384
-0.011201380237879104
-0.014246095810166615
-0.01192028315994027
-0.00700920664117794
-0.0019529632271345159
0.0018445750867942521
0.004058787731871735
0.0050413131298764876
0.005263190270798361
0.004880222104958879
0.003605086901080345
0.0009377581475397969
-0.0033377588323070784
-0.008607168906794103
-0.013120753096028353
-0.01420810695080442
-0.009166269443822726
0.003265253306938641
0.021238105866718635
0.03860734978393312
0.0449849953798661
0.027566153903616785
-0.025349890790073167
-0.12007405552391218
-0.05412091179108903
-0.015383608086626713
0.015275488984581795
0.05866681725659327
0.13113709688965242
0.04014710833810753
-0.016560567344195632
-0.047851897956949635
-0.06354370280290744
-0.06871714363538857
-0.060543531942843204
-0.029164666341316977
0.037429904536789724
0.14627105689577266
0.0929569940334505
0.05892620397745399
0.014266766971328344
-0.0743464328340228
-0.233271287576439
-0.07306070143166449
0.015238621923210818
0.05714333552973893
0.08645269553096108
0.13502377357742468
0.024420302003833005
-0.03794553010695262
-0.05763909855492185
-0.048412928938281544
-0.026210811786908258
-0.004184066184653046
0.010028618783049531
0.014604347154491219
0.012046853729084196
0.006845411661746932
0.003159853449098204
0.0031484572412500953
0.006259111293349582
0.009560252612477437
0.009001023137059808
0.0013172258367460652
-0.013893355471969966
-0.03259366816441051
-0.04598833382512681
-0.04207600606653976
-0.009186606142252507
0.05921651056777005
0.16010786580985786
0.07898488192603671
-0.00787284406441132
-0.1269293417409326
-0.0987708581709562
-0.13078653387210493
-0.01433776892479562
0.07226171857752814
0.15617250480209816
0.06102961847351794
8.173008554423053e-05
-0.02622046065942996
-0.027940399094718713
-0.02014724470360343
-0.016390535072346727
-0.023231043996986032
-0.0373310100607783
-0.04591617709228612
-0.03067527229843726
0.02570128654693311
0.1320925637295643
0.08311823432632923
0.057412895712845476
0.02142864536592764
-0.06177100098022804
-0.22134272119114068
-0.06900172461024529
0.005510176384489731
0.03206345617226213
0.05175851437091615
0.10550568918046535
0.023301164851957042
0.01733044492468754
0.08059259367989952
-0.008948852622403157
-0.08021359177430103
-0.15954135168315764
-0.06311429904279113
0.006133946332424472
0.056297330114123356
0.10038258350514964
0.149298593666043
0.007079304429823405
-0.12988316979571532
-0.0699473316098369
-0.02174102169702777
0.0095031224200313
0.023392656048674413
0.02361627961639118
0.01592518272662955
0.005977865019739082
-0.0021620902960076452
-0.006585278659783749
-0.007280256762249225
-0.005412815721764052
-0.0025194416648059797
0.00011105429325157736
0.0017485647418008557
0.0022433512478684504
0.0018587082285884062
0.0010364859731850679
0.0001932774691605095
-0.0004004858061988982
-0.0006513360561219443
-0.0006070028963881722
-0.0003897119300322848
-0.0001307285964333176
7.388784486360028e-05
0.00018030687078463502
0.00019141295403003573
0.00013875028621230406
6.216160213153906e-05
-5.68301906015577e-06
-4.6838949972414176e-05
-5.827432779291587e-05
-4.7338483166501254e-05
-2.5657571189172277e-05
-3.938505966290799e-06
1.1032134756647668e-05
1.7064552193446087e-05
1.5560343042912104e-05
9.75646529222608e-06
3.041814940511356e-06
-2.155319205761582e-06
-4.771664181715286e-06
-4.939201201060942e-06
-3.5050402004071743e-06
-1.5046305050211097e-06
2.3028824903344537e-07
1.256228942616425e-06
1.5136574037987093e-06
1.2045456394359091e-06
6.333507600194436e-07
7.443872969190261e-08
-3.0241857653987053e-07
-4.4656917385090423e-07
-3.9852739613548063e-07
-2.4385862117758855e-07
-6.995230898725988e-08
6.189813480689396e-08
1.260240609784953e-07
1.273020240047715e-07
8.841498418491649e-08
3.623953664507216e-08
-8.074997385740242e-09
-3.359787203459948e-08
-3.927220867534564e-08
-3.061792790638306e-08
-1.5594865786821175e-08
-1.2246692924875782e-09
8.253682111637991e-09
1.1682807313581347e-08
1.0214914927957323e-08
6.103336834578643e-09
1.5953167273213612e-09
-1.7653364341875523e-09
-3.3586090363999873e-09
-3.3385621182702194e-09
-2.2973648121520003e-09
-9.181223498761165e-10
2.6915872661068127e-10
9.891029400891722e-10
1.2013899270287164e-09
1.0139666850325282e-09
5.865768847166281e-10
6.507858278485141e-11
-4.3914863253668436e-10
-8.349414132553729e-10
-1.0277871468761859e-09
-9.149029317479942e-10
-4.163937556000034e-10
4.6014438914480044e-10
1.5475097890351582e-09
2.483089976152574e-09
2.756238563965795e-09
1.866535637375342e-09
-4.222025017429582e-10
-3.805503226029442e-09
-7.266607302297119e-09
-9.157932607385734e-09
-7.643696910562211e-09
-1.495089213436536e-09
8.950222850730748e-09
2.1042937840098697e-08
2.978394799217255e-08
2.8922854313828116e-08
1.3311655485370637e-08
-1.7918015889026316e-08
-5.844225211447016e-08
-9.368613108352654e-08
-1.0321691137007061e-07
-6.74134252979621e-08
2.239313614674171e-08
1.5328980806840936e-07
2.8461866481207716e-07
3.5190960443480565e-07
2.8483100205552584e-07
3.8448219718638073e-08
-3.698905317191146e-07
-8.329527545390318e-07
-1.1542961408643424e-06
-1.0932988002082598e-06
-4.580989644593034e-07
7.715500931320525e-07
2.334691389577864e-06
3.654549285265636e-06
3.939464220661569e-06
2.448311874320067e-06
-1.1149248633013042e-06
-6.196919155983357e-06
-1.1174704321723679e-05
-1.3534649598026242e-05
-1.0594254626324337e-05
-7.261177560651711e-07
1.5227638851339868e-05
3.2936995210843116e-05
4.469346454336767e-05
4.124801269910585e-05
1.5474973180926915e-05
-3.288382412647922e-05
-9.31057186931351e-05
-0.0001423979469049028
-0.00015012451958037684
-8.835185297725085e-05
5.281627850150554e-05
0.00024989186625863863
0.0004382000597430683
0.0005198448940807737
0.00039267004529208564
-1.8714665459268593e-06
-0.0006245535546111744
-0.001300956617029559
-0.0017289445845862447
-0.0015534026893144711
-0.0005104209106886547
0.0013898665265864771
0.0037095250727158433
0.0055509085625189735
0.0057331829697006
0.0032114134617451597
-0.002327508278388863
-0.009883541295490864
-0.01687323869850734
-0.01948823558458885
-0.013879642729766503
0.0019177928633272753
0.02580630993384322
0.050056243383100094
0.06137792219309621
0.04341029028081706
-0.018368389949388837
-0.13045116251179908
-0.08604739841582665
-0.06330483269398846
-0.028686672491091275
0.054702612674654164
0.21617702133139752
0.06765021126595695
-0.001404375907820134
-0.022246193282609603
-0.03897056702518238
-0.0970875552907006
-0.03211261475173463
-0.06131039322213783
0.01951706914022258
0.033905210131044604
0.01840748567091446
0.014086155286843451
0.0579666170019732
-0.023796477629037197
-0.01996548304393241
0.0649084963324053
0.012641979348473782
-0.003909579773682409
-0.014547294236502532
-0.04512932054587514
-0.11235344120985645
-0.021483311418026785
0.032189867404724085
0.05866213277176372
0.06713459390486554
0.060998955002003113
0.035955673335265545
-0.01792506349370798
-0.11097569776436104
-0.04761555784587559
-0.021497691368243716
-0.014088643644553301
0.002663825690864999
0.06031361315863711
-0.013763698522909842
-0.0036910642929467784
0.08980366802839321
0.0478960655117705
0.03655756320858052
0.013689348927468276
-0.060879054967602694
-0.2151401459092761
-0.05764194798700213
0.024158487302841366
0.059198763793457995
0.08350135683294467
0.1296981364169088
0.019001489969458312
-0.0420723058621823
-0.05997884949835411
-0.04902351296943612
-0.025311068866937046
-0.0019312811011281436
0.013493504445074272
0.018894660745309867
0.016228280458387076
0.0093330324139357
0.002019923086917269
-0.0031281730605663602
-0.005151983714319844
-0.0044815151472286895
-0.0023621033414261724
-0.00021499361515175296
0.0008811384835930505
0.0005000786727388706
-0.0010477103348835632
-0.002840713695972026
-0.0036554088366472716
-0.00241803217156582
0.0012794234435858504
0.006738605524400099
0.011987989012178292
0.014099560786578407
0.010116228145484093
-0.0014802310863643235
-0.01911300104395655
-0.03689022726975993
-0.04456119883327004
-0.029198836314670764
0.021405187393788064
0.11446952284944005
0.048632933049450267
0.012715728319760934
-0.012261787777500324
-0.04825673849979992
-0.11427260868277017
-0.02151065134831683
0.028688854972131198
0.04364210264032721
0.035736009754420706
0.018114552611174787
0.0011915687141392764
-0.009151930275898938
-0.011626083564479752
-0.008333917978718526
-0.0029991229984713745
0.000777608969311929
0.0008368582650757147
-0.0028440225793721153
-0.008146618439333874
-0.011497427535401342
-0.009175002376827437
0.0009567292313273366
0.017680011681113498
0.03521489547189861
0.043248479595427096
0.028691207764324215
-0.020887705936470078
-0.11298150490531533
-0.046550790289629315
-0.010743755754132929
0.013187920539837764
0.04722004987832178
0.11077400336966062
0.015921492728351787
-0.03481276358905486
-0.04762947803446878
-0.034452544366982314
-0.009226152353482685
0.01522522729765425
0.029248499985467028
0.02750093411377905
0.00963417671754127
-0.019222033220246036
-0.04840949746902609
-0.06278395316604175
-0.045530300925274214
0.017141040534584213
0.1303604631324295
0.08602545372619938
0.06163725221938275
0.024064531133770356
-0.062104339609679385
-0.2240433096775416
-0.07174687310374002
0.005806529624375699
0.037711198833326576
0.06239451816114873
0.11618342750161907
0.02296845746807263
-0.011991147883093623
-0.0026795457924738797
0.022397452655090477
0.028822797381781815
-0.013290493368939709
-0.11940931736563594
-0.0838208191429042
-0.07836934980268612
-0.05800770428448462
0.02743828210982117
0.21815964553085487
0.13054120997247387
0.1496214621219088
0.031242722101685928
-0.08594784530399545
-0.26219822827147543
-0.1382331463037646
-0.12322200111468598
0.0066412388879573975
0.09869636140407122
0.20724921651188885
0.17602313034395725
0.02574047614750929
-0.04943388315252701
-0.0764832366965504
-0.09228634077746675
-0.13119419831908102
-0.015703387620899834
0.04733379018601945
0.06489331743100507
0.05225700023493392
0.026525060903807084
0.0015007391023607914
-0.014868689315190853
-0.020521071680655704
-0.0176064462884092
-0.010195881352867926
-0.0022749376919721886
0.003478975047166609
0.006053499711282342
0.005804739339565082
0.003842108469875889
0.0014043545656032288
-0.0005752020076989429
-0.0016481590555039863
-0.0018131316949369515
-0.0013522110798559247
-0.000638991285293708
1.148654286237556e-05
0.0004194493930265131
0.0005467656879865868
0.0004568156957240462
0.00025744768727315885
5.10180581353061e-05
-9.550797923224166e-05
-0.0001584393181117093
-0.00014885310364926707
-9.637131827452531e-05
-3.311296595427865e-05
1.7238570456592262e-05
4.372256000344108e-05
4.684623133692503e-05
3.421487185242251e-05
1.555346423146053e-05
-1.1042927756865764e-06
-1.1299953469315404e-05
-1.4227530689691272e-05
-1.1643417238607e-05
-6.377635605625549e-06
-1.0570628128791082e-06
2.6390889287761565e-06
4.154852613205569e-06
3.8183466458204734e-06
2.414768922133952e-06
7.736846435663151e-07
-5.059475414500819e-07
-1.1578531928560994e-06
-1.2092911978493002e-06
-8.647503538326112e-07
-3.770949040029928e-07
4.905137166240598e-08
3.033951900418201e-07
3.6972207572340194e-07
2.9640094921215087e-07
1.5758249484618796e-07
2.0608455101415107e-08
-7.248657243067232e-08
-1.0878825607826497e-07
-9.78348022265662e-08
-6.039675442969554e-08
-1.7875009440094317e-08
1.460402944584509e-08
3.060087053171225e-08
3.118056491112724e-08
2.1824469082124574e-08
9.099081320183915e-09
-1.7900895019600605e-09
-8.121894992302917e-09
-9.59566109474449e-09
-7.53599956268634e-09
-3.882855995981182e-09
-3.605973551135323e-10
1.9805157176085047e-09
2.8442537065718605e-09
2.503863727170463e-09
1.507717485665804e-09
4.0727250026950615e-10
-4.1601962862910073e-10
-8.072229291092876e-10
-8.03039647371671e-10
-5.499843208754743e-10
-2.1836709143569635e-10
5.955247631307691e-11
2.1683278114704165e-10
2.487355883988018e-10
1.9135878977207368e-10
9.538282787531372e-11
4.911811825416723e-12
-5.386397592028988e-11
-7.425597245815761e-11
-6.400117668495092e-11
-3.7552209951914665e-11
-9.104853981145405e-12
1.1733885601389586e-11
2.125647472722171e-11
2.064540322812826e-11
1.3810405129660562e-11
5.1698578380785e-12
-1.912216708086074e-12
-5.7880622995035684e-12
-6.412467735533289e-12
-4.773894105180138e-12
-2.2138712699773877e-12
1.1467721280211023e-13
1.5359512966086807e-12
1.893156907830982e-12
1.422833695822024e-12
5.600550065623216e-13
-2.466305889729022e-13
-6.679180851278062e-13
-5.645553690359722e-13
-4.966592086514427e-15
7.593348500633763e-13
1.356516109787461e-12
1.39690164211441e-12
6.116853610851764e-13
-9.942837161259503e-13
-3.024702762251149e-12
-4.67942341186728e-12
-4.9156975597768325e-12
-2.810649419183981e-12
1.9291764342485207e-12
8.470754108527487e-12
1.4618904920293938e-11
1.7109422793703016e-11
1.259496081462103e-11
-7.578260547801384e-13
-2.1490152720758636e-11
-4.366197069093676e-11
-5.7179347569642305e-11
-5.035754967848819e-11
-1.4754998836769656e-11
4.878542510268516e-11
1.2516376443789562e-10
1.8418975018713135e-10
1.8670225127225585e-10
9.866134914722173e-11
-8.910403833486922e-11
-3.4194216420170576e-10
-5.7301953503377e-10
-6.558261998456196e-10
-4.634926806443036e-10
6.88951978809541e-11
8.763447327267051e-10
1.7205840387211547e-09
2.206910251244749e-09
1.887908987142557e-09
4.5335298563944913e-10
-2.03728454397257e-09
-4.969553831343366e-09
-7.154715153243078e-09
-7.08223603286068e-09
-3.4774310438189015e-09
3.9334567437371314e-09
1.370737337784133e-08
2.239912741784037e-08
2.509714124576619e-08
1.6992831230012162e-08
-4.189852560719351e-09
-3.5602785866143214e-08
-6.770304894402291e-08
-8.506998684805149e-08
-7.05931732687182e-08
-1.2923948925678554e-08
8.458744139293836e-08
1.9701121182032382e-07
2.775984597724187e-07
2.681553968384852e-07
1.210793559160447e-07
-1.7103432028752376e-07
-5.48410956605911e-07
-8.74561642513416e-07
-9.590201680210663e-07
-6.198781920405069e-07
2.2159971484167511e-07
1.442289040004937e-06
2.660717594016785e-06
3.275109049560165e-06
2.632078077468639e-06
3.186752400047643e-07
-3.494547448209377e-06
-7.798905348554516e-06
-1.0758201400761797e-05
-1.013332395093483e-05
-4.151857940461746e-06
7.347551539518793e-06
2.190057215086322e-05
3.410762381709051e-05
3.659118448911192e-05
2.2483512300194408e-05
-1.0892911482990649e-05
-5.8273720204777586e-05
-0.0001044373383675289
-0.00012592702587942964
-9.783094794820701e-05
-5.214812777195279e-06
0.000143726561211863
0.0003082822450149304
0.00041641378057022356
0.0003820718783325213
0.000139468608318595
-0.00031274265064562063
-0.0008733991725407541
-0.0013291754406756081
-0.0013945825811864155
-0.0008107049538906202
0.0005119351236859976
0.002351249889808883
0.004102778871128326
0.004856645813961269
0.0036702822627400376
1.6200261708623218e-05
-0.005714596662441391
-0.011870770117836087
-0.015626446679757315
-0.01370939561621862
-0.0038038114230862815
0.013637222131291007
0.03376323280826499
0.046690032503853826
0.03859557459153512
-0.005174417735145684
-0.09551517667057625
-0.03484416929259563
-0.013999477591761627
-0.012119896719275478
0.00011348194076154764
0.05456838730062569
-0.02149156262375773
-0.012128772407230863
0.0825279655594923
0.044764393680693265
0.041791045237371316
0.03238207264441762
-0.023356918809455802
-0.1533592983362262
-0.16529159431964505
-0.04369984634747657
0.04572074140353901
0.14563637853352596
0.09380567627162945
0.11162199198901293
-0.0017553813846628119
-0.06818345732111342
-0.12334473464459886
-0.006493836684265108
0.04961356949032778
0.026298374232386682
-0.0769825999057606
-0.04233547925110354
-0.03688427294476518
-0.019677952728771136
0.04902617778336763
0.19819407416698978
0.03886803906206637
-0.038268265541286026
-0.0599004279542813
-0.06298113058253738
-0.08614211113123052
0.03779628450728227
0.08677274884617246
0.05185399312694263
-0.062190608774950376
-0.03748798846648661
-0.04496263430555951
-0.048147689131764995
-0.009195900372219516
0.10358342804030975
0.10839163347646262
0.00505474855917475
-0.025656040754020268
-0.01810180674713038
-0.014359297921559006
-0.055299082845658105
0.027789355004425868
0.019433271499937923
-0.07691941630874385
-0.03943140492814354
-0.03215623268878805
-0.01262888236959889
0.05855701626365859
0.2084823302668864
0.04571288093050964
-0.040674017171880905
-0.07652831909209308
-0.09444092410668929
-0.12521828722060557
0.007934229532336409
0.09112074734234951
0.11811750709612219
0.08769862041813982
0.0023133224253032475
-0.130918308004092
-0.09795248195719677
-0.07672042811242435
-0.03938745225084033
0.04148978601409195
0.18462907906883252
0.19294583018669667
0.051385623624246396
-0.06838613596778202
-0.19758702780512705
-0.1583237825391659
-0.15524072052282398
0.025404420983296098
0.20884280925344573
0.22035128987874952
0.07460868898697234
-0.02947845487907245
-0.10683157553185976
-0.17905946996023342
-0.06619490106799263
0.018807699426411677
0.07100752566099523
0.0906542838077538
0.07915039221695146
0.03647933084710732
-0.03848328479904184
-0.1452402121215155
-0.07853116823327443
-0.027187726170475147
0.023621511598892985
0.08728192887311093
0.17006670464302232
0.06789628300302841
-0.03234980933086434
-0.14694360770127388
-0.08715099951710965
-0.05238274967463299
-0.027722724848993383
0.012999441415182798
0.09966352321984245
0.05655217407396074
0.09454677873143726
0.007471739139409188
-0.026290950092026824
-0.03764412780218836
-0.05828976162651691
-0.11276427190045381
-0.013486481791730513
0.0398796469126021
0.05707099991206077
0.05163770427927823
0.03549310855089725
0.015560559794571802
-0.0066286146710910765
-0.03277923841355615
-0.06446078364515144
-0.10024935023178354
0.0651990626758032
0.03968892013115474
0.030403218833143817
0.04077527395605659
0.06884736765644507
-0.09214276121509221
-0.05129141603181614
-0.016880097426343468
0.0060458195670788925
0.016517820140605946
0.0169324551991556
0.011447927218309083
0.004290532787811657
-0.001453815752655112
-0.004340375360353856
-0.004434681634433252
-0.0027890460759860225
-0.0007929194009985008
0.0003971432611342163
0.00023204398459790622
-0.0010914892233153644
-0.00272537643213779
-0.003472120258655086
-0.00224671603158696
0.0013896738034801929
0.0067724278850786615
0.0119559522655613
0.014026718751179145
0.010032210200311439
-0.001547566470051435
-0.019141144530910974
-0.036864992730349835
-0.044480794054844015
-0.029078803670303525
0.021528806387866497
0.11454305880928783
0.04859783600633649
0.012531899052871004
-0.012586884085216344
-0.04864423295918097
-0.11456890949585577
-0.02151872553116375
0.02913850088230753
0.044592448282410865
0.03700904147835402
0.019270533196532953
0.0015934409181613649
-0.010139666145302166
-0.014324045333487669
-0.012408297462224493
-0.007248480545438535
-0.0016698219548853025
0.002413665426473604
0.004263499083923878
0.004114335857581135
0.0027417846622998974
0.0010204625022034622
-0.000386103367973809
-0.0011554920907050085
-0.0012820225374974964
-0.0009623973781990976
-0.0004601374886716931
1.0853202537664455e-06
0.00029254200906900517
0.0003857131180765699
0.00032437840938037016
0.00018441374373148587
3.8344792355256606e-05
-6.60368236877878e-05
-0.000111491583747186
-0.00010548674063535418
-6.879375210894726e-05
-2.4124964654850365e-05
1.1661548055706675e-05
3.0668739933326055e-05
3.3132063799603215e-05
2.435930218126512e-05
1.1212595681075687e-05
-6.022031255965992e-07
-7.890100614563058e-06
-1.0041101880661526e-05
-8.271053392721557e-06
-4.571950828434856e-06
-8.057349729456901e-07
1.8285444392784387e-06
2.9251686355166547e-06
2.706903505414631e-06
1.7247175059005917e-06
5.654396509103655e-07
-3.443988489880796e-07
-8.12696669941687e-07
-8.555874356309631e-07
-6.159322254344429e-07
-2.722297879045165e-07
3.013222973695735e-08
2.1205241440045303e-07
2.6103705159672143e-07
2.106335587136883e-07
1.13060427781954e-07
1.6067013881809826e-08
-5.031458416211386e-08
-7.662743295209708e-08
-6.938221610770566e-08
-4.316275168896427e-08
-1.311343875011213e-08
9.989030031120671e-09
2.1492025333318823e-08
2.2068658113331087e-08
1.555194873503185e-08
6.5790818633386226e-09
-1.149923674816495e-09
-5.681789943921045e-09
-6.777551331038683e-09
-5.3574696716225885e-09
-2.788333997463158e-09
-2.93268934845491e-10
1.3769042119086308e-09
2.0043338973592667e-09
1.7763308549792365e-09
1.078159472239337e-09
3.002018855741331e-10
-2.8565262131792353e-10
-5.67271763675257e-10
-5.685733976936325e-10
-3.921013873619526e-10
-1.581735444135687e-10
3.9164198384263494e-11
1.5181505228409238e-10
1.7575383302504754e-10
1.3609632470914307e-10
6.856519411265426e-11
4.45526064997469e-12
-3.7498845454018105e-11
-5.2351745773674174e-11
-4.542515083970877e-11
-2.687771234248353e-11
-6.760877041523972e-12
8.076037047247698e-12
1.494561405401909e-11
1.463183947563979e-11
9.870722557911886e-12
3.780236623545306e-12
-1.2522246760674832e-12
-4.045983678609139e-12
-4.55206397958023e-12
-3.452832547325499e-12
-1.6806263461418814e-12
-3.5221742363379255e-14
1.016871685419036e-12
1.3654847018509895e-12
1.1602719919168514e-12
6.686227879887472e-13
1.4904279363687834e-13
-2.261918754711118e-13
-3.930859711713998e-13
-3.7611309212627674e-13
-2.4809301958282005e-13
-8.972898534448933e-14
3.845292827343681e-14
1.0756707169908704e-13
1.177552027172772e-13
8.748164213170674e-14
4.10464636332944e-14
-1.1351311265028439e-15
-2.7472027387603584e-14
-3.557085603469946e-14
-2.960433161995987e-14
-1.6598626323270174e-14
-3.194466975496255e-15
6.282052865773e-15
1.0318383596179961e-14
9.653865344085609e-15
6.2221512258260755e-15
2.1096204329648332e-15
-1.1512980772691475e-15
-2.8565313646663348e-15
-3.0456872748069355e-15
-2.2165786051750416e-15
-1.0017115455999648e-15
7.8413451259254e-17
7.364715497827672e-16
9.222723437040538e-16
7.513202209434465e-16
4.0794389589898674e-16
6.254153611906469e-17
-1.7643755853694409e-16
-2.7355878216625886e-16
-2.5063616699837865e-16
-1.589050109508671e-16
-5.224012275421455e-17
3.061309971412292e-17
7.2564021458427e-17
7.555310945446183e-17
5.2957460349409763e-17
2.1219252038024545e-17
-6.407029851439048e-18
-2.2816961027547658e-17
-2.7012839262244355e-17
-2.21720311328367e-17
-1.3122847729366653e-17
-4.2326269261654566e-18
1.784815752424172e-18
4.108149026258139e-18
3.3696017352279425e-18
9.23981608054952e-19
-1.8391633431950286e-18
-3.941599893478649e-18
-4.970387569172984e-18
-4.999033862514788e-18
-4.385919264079085e-18
-3.557922335304176e-18
-2.8521514623227104e-18
-2.4437950143460936e-18
-2.3509601078759464e-18
-2.4867161990303066e-18
-2.724778489809187e-18
-2.953340021826817e-18
-3.1046187727386365e-18
-3.1598251587468003e-18
-3.1370280812508484e-18
-3.0719838933606504e-18
-3.000490747275846e-18
-2.9472104713307392e-18
-2.9220683261903526e-18
-2.922570226480906e-18
-2.939141603882305e-18
-2.9607133870749962e-18
-2.97872249188754e-18
-2.9888616562537373e-18
-2.9908595554022997e-18
-2.987083164599125e-18
-2.980830730971621e-18
-2.974961276376008e-18
-2.9711643922751397e-18
-2.9698628686867613e-18
-2.9705461045610528e-18
-2.972272124468044e-18
-2.974119737502696e-18
-2.9754681546226784e-18
-2.976080240465546e-18
-2.9760355570554e-18
-2.9755892436814457e-18
-2.9750279752784325e-18
-2.9745689880920827e-18
-2.9743178420448657e-18
-2.974276518856241e-18
-2.9743808443481363e-18
-2.9745447960760458e-18
-2.9746953513296386e-18
-2.974790483167781e-18
-2.9748208819410613e-18
-2.974800842484536e-18
-2.974755137614155e-18
-2.974707445178547e-18
-2.9746733668443174e-18
-2.97465852916907e-18
-2.9746604925686176e-18
-2.9746724744221755e-18
-2.9746870590944065e-18
-2.9746987428002837e-18
-2.9747049476763964e-18
-2.9747057510466373e-18
-2.9747028861633567e-18
-2.9746985935770375e-18
-2.974694736164904e-18
-2.9746923569432945e-18
-2.9746916549318126e-18
-2.9746922330612273e-18
-2.9746934409100328e-18
-2.974694670568835e-18
-2.9746955305888665e-18
-2.9746958885480512e-18
-2.974695817213109e-18
-2.9746954964911636e-18
-2.9746951179816235e-18
-2.9746948209365045e-18
-2.9746946680632872e-18
-2.9746946540829714e-18
-2.974694732344999e-18
-2.9746948445682508e-18
-2.9746949432860306e-18
-2.9746950026756665e-18
-2.974695018661666e-18
-2.9746950021996602e-18
-2.9746949703398143e-18
-2.974694938671865e-18
-2.9746949170002065e-18
-2.9746949084113613e-18
-2.9746949107787394e-18
-2.9746949193403366e-18
-2.9746949291515333e-18
-2.97469493669402e-18
-2.9746949404490676e-18
-2.974694940636736e-18
-2.974694938508666e-18
-2.974694935578924e-18
-2.9746949330555015e-18
-2.97469493157604e-18
-2.9746949312184664e-18
-2.974694931682256e-18
-2.974694932521132e-18
-2.974694933335757e-18
-2.974694933881017e-18
-2.9746949340858132e-18
-2.974694934011324e-18
-2.9746949337833482e-18
-2.9746949335293435e-18
-2.9746949333380747e-18
-2.974694933246144e-18
-2.974694933245734e-18
-2.9746949333033614e-18
-2.974694933379741e-18
-2.9746949334441692e-18
-2.9746949334809445e-18
-2.9746949334887557e-18
-2.974694933475804e-18
-2.9746949334537538e-18
-2.9746949334328224e-18
-2.974694933419126e-18
-2.974694933414278e-18
-2.9746949334165406e-18
-2.974694933422597e-18
-2.974694933429165e-18
-2.974694933434009e-18
-2.9746949334362513e-18
-2.9746949334361485e-18
-2.974694933434594e-18
-2.974694933432605e-18
-2.9746949334309623e-18
-2.9746949334300502e-18
-2.974694933429885e-18
-2.974694933430244e-18
-2.974694933430823e-18
-2.97469493343136e-18
-2.9746949334317034e-18
-2.974694933431817e-18
-2.97469493343175e-18
-2.97469493343159e-18
-2.97469493343142e-18
-2.9746949334312975e-18
-2.974694933431243e-18
-2.9746949334312485e-18
-2.9746949334312905e-18
-2.974694933431342e-18
-2.974694933431384e-18
-2.9746949334314065e-18
-2.97469493343141e-18
-2.9746949334314e-18
-2.974694933431385e-18
-2.974694933431371e-18
-2.9746949334313626e-18
-2.97469493343136e-18
-2.9746949334313618e-18
-2.974694933431366e-18
-2.9746949334313703e-18
-2.9746949334313733e-18
-2.974694933431375e-18
-2.9746949334313745e-18
-2.9746949334313733e-18
-2.974694933431372e-18
-2.974694933431371e-18
-2.9746949334313706e-18
-2.9746949334313703e-18
-2.9746949334313706e-18
-2.974694933431371e-18
-2.9746949334313714e-18
-2.9746949334313718e-18
-2.9746949334313718e-18
-2.9746949334313718e-18
-2.9746949334313714e-18
-2.9746949334313714e-18
-2.9746949334313714e-18
-2.9746949334313714e-18
-2.9746949334313714e-18
-2.9746949334313714e-18
-2.9746949334313714e-18
-2.9746949334313714e-18
-2.9746949334313714e-18
-2.9746949334313714e-18
-2.9746949334313714e-18
-2.9746949334313714e-18
-2.9746949334313714e-18
-2.9746949334313714e-18
-2.9746949334313714e-18
-2.9746949334313714e-18
-2.9746949334313714e-18
-2.9746949334313714e-18
-2.9746949334313714e-18
-2.9746949334313714e-18
-2.9746949334313714e-18
-2.9746949334313714e-18
-2.9746949334313714e-18
-2.9746949334313714e-18
-2.9746949334313714e-18
-2.9746949334313714e-18
-2.9746949334313714e-18
-2.9746949334313714e-18
-2.9746949334313714e-18
-2.9746949334313714e-18
-2.9746949334313714e-18
-2.9746949334313714e-18
-2.9746949334313714e-18
-2.9746949334313714e-18
-2.9746949334313714e-18
-2.9746949334313714e-18
-2.9746949334313714e-18
-2.9746949334313714e-18
-2.9746949334313714e-18
-2.9746949334313714e-18
-2.9746949334313714e-18
-2.9746949334313714e-18
-2.9746949334313714e-18
-2.9746949334313714e-18
-2.9746949334313714e-18
-2.9746949334313714e-18
-2.9746949334313714e-18
-2.9746949334313714e-18
-2.9746949334313714e-18
-2.9746949334313714e-18
-2.9746949334313714e-18
-2.9746949334313714e-18
-2.9746949334313714e-18
-2.9746949334313714e-18
-2.9746949334313714e-18
-2.9746949334313714e-18
-2.9746949334313714e-18
-2.9746949334313714e-18
-2.9746949334313714e-18
-2.9746949334313714e-18
-2.9746949334313714e-18
-2.9746949334313714e-18
-2.9746949334313714e-18
-2.9746949334313714e-18
-2.9746949334313714e-18
-2.9746949334313714e-18
-2.9746949334313714e-18
-2.9746949334313714e-18
-2.9746949334313714e-18
-2.9746949334313714e-18
-2.9746949334313714e-18
-2.9746949334313714e-18
-2.9746949334313714e-18
-2.9746949334313714e-18
-2.9746949334313714e-18
-2.9746949334313714e-18
-2.9746949334313714e-18
-2.9746949334313714e-18
-2.9746949334313714e-18
-2.9746949334313714e-18
-2.9746949334313714e-18
-2.9746949334313714e-18
-2.9746949334313714e-18
