0
-2.74025205333254e-16
-1.779167891140733e-16
5.895134471080121e-17
4.015475084369806e-16
7.424018113710369e-16
9.125239284000248e-16
7.289762860286029e-16
7.693366169176399e-17
-9.941943064407948e-16
-2.19978609798769e-15
-3.023750784948045e-15
-2.838515153218274e-15
-1.1495955977955237e-15
2.083461890703718e-15
6.163612393211808e-15
9.571761433979288e-15
1.0238259749584357e-14
6.243305603435568e-15
-3.1499653159252836e-15
-1.6445726007629602e-14
-2.935670608839978e-14
-3.5296797551558356e-14
-2.7292493810841658e-14
-1.1947043844496229e-15
4.0637118043578525e-14
8.67199992930145e-14
1.1681089076244377e-13
1.0679819890069188e-13
3.8339000388854336e-14
-8.875291150257917e-14
-2.4587653972320873e-13
-3.730297976377458e-13
-3.9015347972103116e-13
-2.2494414303887715e-13
1.47011735832269e-13
6.62409531981169e-13
1.150509828263565e-12
1.3549234698038108e-12
1.0102511118238268e-12
-3.235287554986729e-14
-1.664175143407915e-12
-3.4230240957148393e-12
-4.515836712551212e-12
-4.017466622231793e-12
-1.2499480468763522e-12
3.739918864100736e-12
9.782955403586181e-12
1.4512333862138124e-11
1.4834841329893298e-11
8.033655657000907e-12
-6.674285555420904e-12
-2.6629963247822996e-11
-4.504479983377633e-11
-5.194927183620774e-11
-3.7259755578098083e-11
4.318304145480029e-12
6.790141570834475e-11
1.349270616620444e-10
1.74361919564378e-10
1.5075721462769258e-10
3.915566517672639e-11
-1.5651952026397807e-10
-3.886349409196717e-10
-5.639508729456923e-10
-5.631002037407197e-10
-2.8424960316430365e-10
2.965379799910622e-10
1.0682932824278561e-09
1.7615246222345236e-09
1.9890170513337594e-09
1.3683288001694996e-09
-2.869638548579826e-10
-2.7616185882248542e-09
-5.311662993690138e-09
-6.724146598375366e-09
-5.642695849792709e-09
-1.152712850172042e-09
6.511473626604065e-09
1.5415217030988888e-08
2.189006544664239e-08
2.1335288066801718e-08
9.944076734645662e-09
-1.2959571382164607e-08
-4.277049066218913e-08
-6.88065038327216e-08
-7.60455102805381e-08
-5.00096286275993e-08
1.5783954248018052e-08
1.1198754776427499e-07
2.0884115716544337e-07
2.5899082450244225e-07
2.1061345204486962e-07
3.036215461780426e-08
-2.6947561313668996e-07
-6.105459560949655e-07
-8.486957754499378e-07
-8.068221808234349e-07
-3.430269852688667e-07
5.590193461135938e-07
1.70914626123095e-06
2.6845436286664736e-06
2.9030991544033926e-06
1.8178101562809786e-06
-7.932647046142998e-07
-4.528952946485089e-06
-8.200998874284734e-06
-9.962810375701475e-06
-7.837374620271696e-06
-6.158660004650105e-07
1.1100743096703988e-05
2.414739055577051e-05
3.286644972661801e-05
3.044915236808682e-05
1.1622919017144569e-05
-2.38585641255603e-05
-6.817656049680085e-05
-0.00010461931134725658
-0.00011065615625148017
-6.566368691284747e-05
3.7803421857003354e-05
0.00018269385498129482
0.0003216435468109822
0.00038272195023364235
0.00029061987122880036
1.7999756634482128e-06
-0.00045560775876881716
-0.0009540705207747379
-0.00127179821116192
-0.0011473076828442332
-0.0003851763389615593
0.0010094628848189124
0.0027173566113798384
0.004080723675553198
0.004231936695802285
0.002400897080998492
-0.0016465952050854964
-0.007179812700953558
-0.012301654001305473
-0.014209939977648595
-0.01007000089481699
0.0015585399886111713
0.019087574425668614
0.036682257700720915
0.04419941420241419
0.028834477058180874
-0.021532210160819916
-0.11411651075109552
-0.04767839483833504
-0.011285448077781594
0.013722481064521756
0.049026511853639994
0.11355601393174088
0.01878950194839489
-0.03324077584277516
-0.0488476585767929
-0.03941915792527516
-0.017601266944788176
0.005651696154667521
0.02254313754178411
0.028642817272274298
0.02254313754150026
0.00565169615423944
-0.01760126694511978
-0.03941915792524527
-0.04884765857621767
-0.03324077584166553
0.01878950194975114
0.1135560139327786
0.04902651185364303
0.013722481062886767
-0.011285448081188532
-0.04767839484284805
-0.11411651075511933
-0.021532210162079915
0.028834477061911615
0.04419941421219133
0.0366822577152311
0.019087574440503775
0.001558539996646008
-0.010070000901490404
-0.014209940004278235
-0.012301654046349758
-0.007179812752900911
-0.0016465952423410145
0.0024008970853231543
0.004231936763710304
0.004080723810483688
0.0027173567857380625
0.001009463035562638
-0.00038517629982841767
-0.001147307839389504
-0.0012717985998149542
-0.0009540710847225662
-0.00045560832183395443
1.799691482316136e-06
0.00029062016785433184
0.0003827230186014751
0.0003216453083528372
0.00018269584391646595
3.7804789987609826e-05
-6.566397416105836e-05
-0.00011065891815045962
-0.00010462462314618272
-6.818328448402127e-05
-2.386420627384726e-05
1.162176719551548e-05
3.04556648368563e-05
3.288186561260921e-05
2.4169280444991765e-05
1.1122076959634703e-05
-6.059246203495664e-07
-7.850337568818663e-06
-1.0005583654751643e-05
-8.269805861811655e-06
-4.604995059673271e-06
-8.432664769806268e-07
1.8336051424914186e-06
3.0150973163544894e-06
2.893389508888433e-06
1.96813017065793e-06
7.696108976978663e-07
-3.126996215247968e-07
-1.0763358116545684e-06
-1.4592661131821489e-06
-1.4592325466108235e-06
-1.076240085878685e-06
-3.125588746890539e-07
7.697627895142913e-07
1.968241001232549e-06
2.893396278764633e-06
3.014946463684936e-06
1.8332831831311687e-06
-8.437017919253375e-07
-4.605399425568856e-06
-8.269966876659233e-06
-1.0005284309215346e-05
-7.849459857932065e-06
-6.045653418055902e-07
1.112352857808069e-05
2.4170164078820105e-05
3.2881417330355656e-05
3.0453333154818834e-05
1.161760815506021e-05
-2.3869203936033182e-05
-6.818714501455489e-05
-0.00010462478437459813
-0.00011065315368607324
-6.565168546876222e-05
3.7821333725121535e-05
0.00018271095951749513
0.00032165071776044134
0.0003827104222750167
0.0002905853224508197
1.7468554026507739e-06
-0.0004556635523705297
-0.0009541028809427292
-0.001271777689981595
-0.001147213936044387
-0.0003850133125801217
0.0010096548820340723
0.0027174996967473997
0.004080718953197614
0.004231700762596806
0.0024004120830495627
-0.0016472347556901509
-0.007180381296357736
-0.012301830238077972
-0.014209409280640063
-0.010068614497310726
0.0015605954992857804
0.019089674417416495
0.03668339307323961
0.044198465531159636
0.028830702228473504
-0.021538591226796223
-0.1141238660820123
-0.047683665082856874
-0.011284825713242625
0.013732109577792114
0.04904562885497563
0.11358070562621908
0.018810835547113686
-0.03323526305600664
-0.04886986626455014
-0.039474231506906106
-0.017681141469764253
0.005571989138902363
0.022502976333261742
0.02868494744096934
0.022694560286718936
0.005901222492523816
-0.017319669907546867
-0.039225659729511385
-0.04888876910703659
-0.033632435205680246
0.018036800390822606
0.11260359808721344
0.048227764978241085
0.013560199506925668
-0.010361771241826448
-0.0454931910153726
-0.1110131829199256
-0.018504226656240498
0.03025745481800747
0.04239675432111272
0.030692068577383803
0.009467896554049839
-0.00900140446644934
-0.01683998466041754
-0.011585540021351814
0.0038755697514174284
0.022210314019677047
0.03331654350725048
0.026809877162810296
-0.004829499061633261
-0.06307387552196281
-0.14128622581906455
-0.025084953794996943
0.10421869192122715
0.06387597297982614
0.06380820197378884
0.10312433649063696
-0.029335683606709566
-0.15061584304846937
-0.07737649196986551
-0.020559462367476813
0.016773588730513322
0.037861221376327976
0.048105574836728705
0.050518807621172265
0.04282576669118341
0.017462138310734957
-0.03551600584786639
-0.12382309275423797
-0.0486469066906266
-0.0026265293156567207
0.028943360326830078
0.06425558252431886
0.12027877472329863
0.009268299580534408
-0.062226469770974326
-0.09206762414009921
-0.08048756011648495
-0.029174324302794173
0.057576493730130095
0.17036001367685616
0.09288166463503893
0.0030780881617279306
-0.1220953168675292
-0.0996570360780394
-0.13445415962146784
-0.016948406093967083
0.0737067251793709
0.16243049846238328
0.06991796534289439
0.006780508992392903
-0.027694659209620647
-0.042182079391742046
-0.04723255726246785
-0.04913352262547726
-0.046091974129634325
-0.02812175643727419
0.01929582892023315
0.10902404865296428
0.045768104848294605
0.021697182547419234
0.01593220174430739
-0.0017017353026935937
-0.06364583453909381
0.003767233706213556
-0.01222664338456862
-0.10631349830359339
-0.05496651287539684
-0.021200759665236744
0.03651629117252064
0.15339291162257715
0.1487881038508882
0.021351754091203497
-0.049323130832987706
-0.09518398965184963
-0.14930982450190697
-0.03654242626937578
0.03172946928265963
0.05757700581667807
0.0524454061691469
0.031348822571755065
0.007702404940497192
-0.009766258081688505
-0.01772922625507052
-0.017161290592465423
-0.011382084399489937
-0.004127374548579371
0.0017808176616057496
0.004981750756628876
0.005463301822606122
0.004069203326079092
0.0019204045623389648
-3.7188256641605886e-05
-0.0012639747107429584
-0.0016460523192269399
-0.0013745851439539815
-0.0007742534665390383
-0.0001530210597719528
0.00028773720911556085
0.00047687673907415587
0.00044783827118102516
0.0002898108482952897
9.944735100345178e-05
-5.201454284159831e-05
-0.00013163138586362317
-0.0001409621602673587
-0.0001029105034980871
-4.674358124959981e-05
3.371297333781177e-06
3.402970843608598e-05
4.2817173611747307e-05
3.502587793361528e-05
1.917407395303581e-05
3.1650641836139093e-06
-7.951402720719905e-06
-1.2505772761822874e-05
-1.1487881991620592e-05
-7.261610018435682e-06
-2.3231296593119787e-06
1.5260491327256832e-06
3.4857130015134442e-06
3.6387345953001447e-06
2.600907537044898e-06
1.1332051540914894e-06
-1.488291792801608e-07
-9.136133000711457e-07
-1.1126340524452029e-06
-8.916146607529334e-07
-4.737390487831033e-07
-6.160912040475594e-08
2.183726845822956e-07
3.274337876092471e-07
2.943387180603787e-07
1.8161586156493784e-07
5.365937149392963e-08
-4.403580818195808e-08
-9.211952557370408e-08
-9.381839305824964e-08
-6.56381464356547e-08
-2.7339860102524425e-08
5.417664075546864e-09
2.4454247657674528e-08
2.8872742088351036e-08
2.2664254217034298e-08
1.1668505593252381e-08
1.0738675612826221e-09
-5.961672763558302e-09
-8.550266940154569e-09
-7.518169829505588e-09
-4.519233491183406e-09
-1.215302387517508e-09
1.245868042240498e-09
2.4017529444648316e-09
2.370413321231303e-09
1.60303736843409e-09
6.21890433341857e-10
-1.7066618836474342e-10
-5.793854299315327e-10
-6.09823236083701e-10
-4.0224313255599433e-10
-1.4397651363667032e-10
9.479495803591575e-12
-1.3254129638157873e-11
-1.8080156618004912e-10
-3.740965749770746e-10
-4.310595246356013e-10
-2.1275900453676318e-10
3.231675365223899e-10
1.0639104803082577e-09
1.7258544014581165e-09
1.9084968189485208e-09
1.2296119123734884e-09
-4.767400897835908e-10
-2.9577373609958746e-09
-5.429113286217892e-09
-6.657766775791221e-09
-5.311325063943921e-09
-5.573963806739671e-10
7.23717978694347e-09
1.5992756834380655e-08
2.1949119803372394e-08
2.0544056528121244e-08
8.196453767442416e-09
-1.5359646567657555e-08
-4.502024328217811e-08
-6.971031650883723e-08
-7.437637278013168e-08
-4.509599069113894e-08
2.3404476498123022e-08
1.2013106286249174e-07
2.1379814263543118e-07
2.5646877229380265e-07
1.9751401931736638e-07
7.001325180878569e-09
-2.9754139202894944e-07
-6.322163323775168e-07
-8.495791015694293e-07
-7.744176415094188e-07
-2.739827616260157e-07
6.519438503436706e-07
1.7940170222820294e-06
2.7148601339076654e-06
2.8322558788033885e-06
1.6220036833334398e-06
-1.090069860207772e-06
-4.839108500921562e-06
-8.379403432502214e-06
-9.845070513324487e-06
-7.309623310058057e-06
2.997945241122543e-07
1.2178212955156407e-05
2.494959185939383e-05
3.283826845920751e-05
2.9122496999450306e-05
8.89791520440345e-06
-2.745062894544006e-05
-7.136871950320966e-05
-0.00010560629186164239
-0.00010767160204556362
-5.7873239500301854e-05
4.934997553786406e-05
0.00019448632045686038
0.0003280131137153454
0.0003773819587102404
0.00026940537412238505
-3.40481923705865e-05
-0.0004969168067718896
-0.000983652272816425
-0.0012682673838353017
-0.0010931848208044722
-0.00027776907553020224
0.0011481501144398713
0.0028371320366035865
0.004111582978997483
0.004107062969622263
0.002091440210174936
-0.002095262259739864
-0.007627370906376813
-0.012526876857027714
-0.013972751820358715
-0.009218844312002823
0.0029606383230061407
0.02066950536840085
0.037768859934457506
0.04396761492927021
0.026632805795488972
-0.025763508311929143
-0.11947363709150406
-0.052182037884975704
-0.012235141007502028
0.01883129605650721
0.06114819286946916
0.13071857629028205
0.03536777221249683
-0.025853502540141068
-0.05965775295383181
-0.0734422661147778
-0.07066252792359067
-0.04896863919928325
-0.002172149922551062
0.07463624232323465
0.1791036484103961
0.09785281394796583
0.007472394398022211
-0.11917190695013286
-0.1033240221787905
-0.1513049131783633
-0.050041141653617456
0.03061259428768883
0.12928632863622674
0.08130494764298447
0.10796514698163184
0.010583693525018882
-0.02892654418125277
-0.04159465194266345
-0.061588035360865635
-0.11644792936912507
-0.020417530861274444
0.02734286095696289
0.03960991180985696
0.03459316469022624
0.02852630175243611
0.0297550228577526
0.03600863524332991
0.035563590310373906
0.01198700983257643
-0.04885207177112317
-0.15169636160723812
-0.08737922028750011
-0.0330607603545626
0.042152013233158765
0.16781172907044017
0.16243968036723655
0.02744147929882044
-0.05289545553497356
-0.10553897024166878
-0.1597652154171127
-0.03900051000495603
0.04353041354559311
0.0845335229029276
0.08722075598944044
0.057376395446612695
0.001170832168366659
-0.07455059498996185
-0.16052450310455954
-0.04391492125049678
0.0905171385636305
0.056700259819510435
0.06254471655122969
0.10663673115205582
-0.02183303230424236
-0.13964283549998774
-0.0640599161568653
-0.007693925917959239
0.024291309439546032
0.033952880813523385
0.028098391885729344
0.015027553555899653
0.0018007818991131617
-0.007255281154768651
-0.010747084755362573
-0.0095029419763218
-0.005492591026232181
-0.0008393468780958545
0.002818288873925107
0.0045754298417174655
0.0042290902972416606
0.002125183151471684
-0.000993852784709495
-0.004104027926548311
-0.0060240021211157525
-0.005633768594723201
-0.0022434484154766152
0.003925860124622131
0.01131067412792687
0.016879166716267126
0.016565032480720596
0.006368467605066311
-0.016059333672756887
-0.0498831820494746
-0.09036948639462977
0.07036771261045201
0.04112427407415918
0.02867531033928814
0.03547947070616769
0.059118275951727604
-0.10627903998418585
-0.06739737070514379
-0.029337167938557306
0.005183664462851853
0.03458388972411173
0.05591124544030277
0.06266588588425108
0.04453674947516243
-0.010171845147311533
-0.10992043810891677
-0.054832636476831446
-0.0333634013636884
-0.022497380382018893
0.008084063299416326
0.0889445558650804
0.04311369909930346
0.08006843282610392
-0.006621190501188768
-0.03735644354292491
-0.04114620757447641
-0.04876458154051062
-0.08665586382253526
0.026764200266086682
0.081921659829529
0.07677847872533969
0.014898474326266434
-0.09587859089380932
-0.04394719333418868
-0.014386081247764134
0.009764752306760724
0.04523179986124947
0.10599095279298078
0.0016652477749887846
-0.06241867013651895
-0.08379779968066503
-0.06130030040404156
0.005299069595271178
0.11392104837859049
0.05798070238045966
0.0250266436746618
-0.0023808118841354893
-0.043359873598284485
-0.11412555920201255
-0.024026791602973323
0.026157215356359037
0.043101739467299845
0.03774184714005289
0.02151841520345795
0.0035121856089326115
-0.010780781847897476
-0.01910867886539889
-0.02122287141410983
-0.017593364346373486
-0.008761068486162198
0.004412733046880824
0.01983415156005792
0.03323525269044659
0.03799225686294828
0.02630485840531666
-0.008202909418340431
-0.06717057199550935
-0.14489174957762613
-0.028011929788314127
0.10156909788721616
0.06119734508002138
0.061472479739692276
0.10236546392335871
-0.026806541625838926
-0.14352870700460632
-0.06607694716846271
-0.007938403967941423
0.0252106164991177
0.035311524478648694
0.029343146831133725
0.015894768737285264
0.0022810502339716972
-0.007044786177610131
-0.01070567753082261
-0.009638297489414726
-0.0059225718017071015
-0.0017015614753622765
0.0015137359718366999
0.0030838983128788073
0.003119760137556101
0.002171529946605751
0.0008952174277646691
-0.0001912220073213667
-0.0008189673482094109
-0.000960813601770895
-0.0007509999944702858
-0.0003840981604190054
-3.2199482028647e-05
0.00020048465269409895
0.00028518717614035215
0.00024984799827978645
0.00014957601041668507
3.94872652863011e-05
-4.2483754246217206e-05
-8.110263002086779e-05
-8.024844585660638e-05
-5.468443965611401e-05
-2.1457070972783634e-05
6.258060969585689e-06
2.184309680828089e-05
2.489313350075333e-05
1.9060706149316257e-05
9.426694900888355e-06
3.914013377643961e-07
-5.4476275575520445e-06
-7.443498955576171e-06
-6.385292394439491e-06
-3.724627950408798e-06
-8.796889128114309e-07
1.1947236649787113e-06
2.1347398151185395e-06
2.0638584700139457e-06
1.3754456706658963e-06
5.109613384014752e-07
-1.9536214101223013e-07
-5.813615374295242e-07
-6.443150580932449e-07
-4.832344166301844e-07
-2.306276990867575e-07
1.1219362345975425e-09
1.4740907259178562e-07
1.9400473125284992e-07
1.6299201651628314e-07
9.254402427417044e-08
1.9111272829898826e-08
-3.331185724509636e-08
-5.609452334168979e-08
-5.3018304937359604e-08
-3.453941008773909e-08
-1.2076832414906452e-08
5.901974503023749e-09
1.5437477750667694e-08
1.6657163476174534e-08
1.2234779921535618e-08
5.621451617400942e-09
-3.159689292154041e-10
-3.974278108964102e-09
-5.049751537285686e-09
-4.155604710614892e-09
-2.2940204108934372e-09
-4.0079009611546715e-10
9.221066583332091e-10
1.4716185075812163e-09
1.3604280310256967e-09
8.658576140957775e-10
2.829274632877372e-10
-1.7413892111905235e-10
-4.0904158636063207e-10
-4.3012415121069126e-10
-3.0934050502812214e-10
-1.364561227718968e-10
1.5484662124336055e-11
1.0679477183497342e-10
1.31269019096443e-10
1.0582238878933126e-10
5.672422520260757e-11
7.971064377474295e-12
-2.5361617371451806e-11
-3.8544097396452665e-11
-3.4867571784590063e-11
-2.1671703139177547e-11
-6.568384489239632e-12
5.0326452021109855e-12
1.0802544433061315e-11
1.108804997704134e-11
7.81971164398877e-12
3.3261476038298165e-12
-5.41016486166207e-13
-2.8117951908867846e-12
-3.3772846471548777e-12
-2.705118321551831e-12
-1.4759733248792917e-12
-2.842615858945666e-13
5.245626103665872e-13
8.751955927151185e-13
8.827297896279022e-13
7.306966190120882e-13
5.613546138460472e-13
4.1491063132867506e-13
2.317618848091051e-13
-8.974602549647135e-14
-6.050481021205264e-13
-1.2411644047788624e-12
-1.7606776215404528e-12
-1.8044051563314585e-12
-1.0240110018047518e-12
7.186823090579585e-13
3.150039575426729e-12
5.478655620037636e-12
6.489816220549538e-12
4.906123934850537e-12
-1.2342854593630765e-14
-7.787014296333921e-12
-1.6248053706479923e-11
-2.1623000248009364e-11
-1.946784576618421e-11
-6.46956449588473e-12
1.7263128505009383e-11
4.626659075243522e-11
6.930677385756397e-11
7.156681386170083e-11
3.987016074258814e-11
-2.987314209052491e-11
-1.2537642545493813e-10
-2.1452595698335485e-10
-2.496990757659787e-10
-1.8223185762873898e-10
1.4202606091768342e-11
3.17654615633741e-10
6.406938087568123e-10
8.354894796598757e-10
7.316061061293099e-10
2.0687664368195812e-10
-7.243747383930878e-10
-1.8391681248192095e-09
-2.694646215782088e-09
-2.71869894868951e-09
-1.416887610308179e-09
1.3388037620458753e-09
5.034196621279216e-09
8.393564995147404e-09
9.566311078514947e-09
6.705300582451504e-09
-1.120825039974835e-09
-1.2937113274302733e-08
-2.5236293121640194e-08
-3.2237386879724756e-08
-2.741495287052023e-08
-6.282833641101301e-09
3.021131902412115e-08
7.299911310120535e-08
1.0464695804777228e-07
1.0309223967437902e-07
4.9829355052212997e-08
-5.890578503161377e-08
-2.0172431192839568e-07
-3.2802567224633045e-07
-3.6597914780630514e-07
-2.4560071447379643e-07
6.568565973768056e-08
5.25281186162111e-07
9.927719288470087e-07
1.242352441334621e-06
1.0245429803970259e-06
1.753964341625524e-07
-1.253059723437728e-06
-2.8931051867381433e-06
-4.0593082628052725e-06
-3.9019097082789186e-06
-1.730218921486743e-06
2.554672711377466e-06
8.067659421197274e-06
1.2804665438114784e-05
1.3980806257953154e-05
8.949626427919745e-06
-3.4123287501876756e-06
-2.1267856276592585e-05
-3.9006046036367974e-05
-4.781706911571939e-05
-3.81770877281839e-05
-4.1273830692858744e-06
5.171969054904391e-05
0.00011449304257003702
0.00015727594291225401
0.00014737890647397621
5.909818284581768e-05
-0.00010956334108635955
-0.00032215309311331447
-0.0004994165216381847
-0.0005335095466444508
-0.00032454256383242355
0.00016560106874122555
0.0008586860837639291
0.001531273615944066
0.0018407996845309158
0.0014256902517931268
7.324020038868412e-05
-0.0020880707617035765
-0.004452467293588997
-0.0059570997044952785
-0.005340713982539152
-0.001655010273229174
0.0050694462102432985
0.013226914892357633
0.019417681906275946
0.01888871889021249
0.006729061249387396
-0.020428241954756128
-0.06284864219478298
-0.11718301707001638
0.022304217650922706
0.1609158744386038
0.10047095496227142
0.0380798957088281
-0.03183927908074582
-0.1127568633199674
-0.20085596236053818
-0.08267591659719867
0.0622922694696331
0.25446645008676466
0.10558165291341012
0.012848364710965976
-0.04123402744802095
-0.08337622386943457
-0.14092148986135763
-0.033864533659224295
0.0296017715225838
0.052973139890156555
0.047712434498312986
0.028041487953885655
0.006360824957726089
-0.0094210461711345
-0.016408113157320825
-0.01562490862049303
-0.010183187460590498
-0.0035131035251818724
0.0018349227455049597
0.0046650897179010805
0.005010986270415171
0.0036721696089138064
0.0016821974738120942
-0.00010057905560715583
-0.0011969576644647467
-0.001517437065617325
-0.0012471961644951728
-0.0006875472240128361
-0.00011933266761786101
0.0002771606048040607
0.0004415191117588982
0.0004080143369230254
0.00026008325300596024
8.61328061552641e-05
-5.00132113508144e-05
-0.00012013022873749653
-0.00012736361065287114
-9.359243902491247e-05
-4.537669741766838e-05
-3.4373208012558006e-06
2.2190273586566463e-05
3.1646920598868555e-05
3.1228124971894e-05
2.820719238068736e-05
2.6597610529270958e-05
2.524341030865061e-05
1.8750243254113895e-05
8.841085995160983e-07
-3.07435626735699e-05
-7.051757676759824e-05
-0.00010327989507832737
-0.0001071830583876286
-6.157782911444677e-05
4.137281046841136e-05
0.00018504926027454314
0.0003223832114148093
0.00038161553968242974
0.0002876310441098664
-2.7220956333418514e-06
-0.00046067561154139274
-0.0009579475389409709
-0.0012722469948766761
-0.001142317618072163
-0.0003740838569750681
0.001024814984960542
0.002732004514078907
0.0040871593119402964
0.004222297585023748
0.002370627805353169
-0.0016945673058644153
-0.007232157388356814
-0.012335150601426982
-0.01419716786634329
-0.009990410679511064
0.0017045089881649702
0.019266522444035542
0.03682514671182937
0.044214900056451886
0.028640974618310278
-0.021960658078668798
-0.11470515363147678
-0.04823015685401871
-0.011507039685938634
0.01413189829591306
0.05023151792949407
0.11542488745060225
0.020787461966306507
-0.03202139044705667
-0.049455508552940806
-0.042607356722980334
-0.023282440442892245
-0.001147210743283023
0.017360976447464753
0.028609356040284327
0.030693684987506745
0.022693251781187408
0.00489714512598825
-0.019990009316469222
-0.045326321801025395
-0.05979794178877293
-0.04855003583915071
0.0033358309778484343
0.10559541838987577
0.05745535788746256
0.04447720408452428
0.03940340285881858
0.007534588704488596
-0.08446596382495737
-0.058805014620700646
-0.11893609372375892
-0.04683563419327853
-0.0065700164043141895
0.04647407176192199
0.15333172354575347
0.14004659890565063
0.01084307150942672
-0.05200371288134624
-0.08200987053072153
-0.11867898976106468
0.002422826958860502
0.05689376913931199
0.03484092101431157
-0.059328172145844675
-0.009654499800272274
0.007057209293604006
0.01618965460892577
0.04047255271862319
0.09645373254343477
-0.006793126760802836
-0.06650267386124958
-0.08341559156438377
-0.05897505999460845
0.005883789804481227
0.10977095479810091
0.04851011466002241
0.013090227735057984
-0.010676133437822715
-0.040430551099694026
-0.09426447509344776
0.012260705826509817
0.0680745365912787
0.06740016808325922
0.009988443113570786
-0.09863391126947546
-0.04702691162710699
-0.01861665702143878
0.00587724018783042
0.04449987899006807
0.10977480986140331
0.0057514836446035545
-0.07228477394641503
0.06486456733695199
0.005146832195039841
-0.05924960563158562
-0.12748064409439647
0.01165611929884937
-0.022339814102143307
-0.007354165647016129
0.07362344139829109
0.22538741733336354
0.03683507128835193
-0.11746455937151237
-0.07071050509990785
-0.05477321347868883
-0.09202164601505541
0.009147396517906166
0.05405532035916132
0.057600389042720745
0.03829189798531
0.012742759305651575
-0.0077925951820655235
-0.018359244573073575
-0.019206262839595225
-0.013632722708861492
-0.005762531686741989
0.0010755335544497117
0.005103821059956609
0.006081748044081474
0.0048147065898206205
0.0025167059552170397
0.00028005009849221715
-0.0012217364532955727
-0.0017908476697656838
-0.0015925727825318564
-0.0009706199809566047
-0.00027451843008855886
0.0002514651071174305
0.0005058184723164988
0.0005090052927508772
0.00035228725049779396
0.00014326671230360823
-3.3666012798387756e-05
-0.000135121545004018
-0.00015718245574799543
-0.0001221278065954526
-6.186474343261837e-05
-4.4428766872605305e-06
3.3275641519311694e-05
4.6765472245294455e-05
4.0718381689545996e-05
2.419514602163089e-05
6.195602676121577e-06
-7.125348349111117e-06
-1.333216459863819e-05
-1.3102150270078269e-05
-8.871028359678301e-06
-3.4276217875015747e-06
1.0854520412521755e-06
3.6025773767155304e-06
4.071885172751897e-06
3.0991173170515082e-06
1.5172259576993111e-06
4.319238337473934e-08
-9.029543275483916e-07
-1.220053997909925e-06
-1.0402514820375263e-06
-6.021066605279539e-07
-1.371233076903319e-07
1.9984822281507759e-07
3.507454378954692e-07
3.368526365075528e-07
2.2302292682468038e-07
8.145424884285101e-08
-3.352124619828291e-08
-9.581792740340441e-08
-1.0535699436290167e-07
-7.853974916277672e-08
-3.7080752088175554e-08
7.146826190723288e-10
2.4406464184138173e-08
3.178661892018394e-08
2.654445516377004e-08
1.4950300452390233e-08
2.9523461424857987e-09
-5.5598413912094356e-09
-9.212133102971702e-09
-8.650503013420816e-09
-5.597691636012742e-09
-1.9205572307451864e-09
1.0049868062539615e-09
2.5427116323141852e-09
2.7228078054581407e-09
1.987721109172124e-09
9.027813840328743e-10
-6.521220165907346e-11
-6.573644779087414e-10
-8.270592797658173e-10
-6.76533706200592e-10
-3.703299703105392e-10
-6.110471272231003e-11
1.5360810095054347e-10
2.415663240840294e-10
2.2189439583170005e-10
1.4025490166326615e-10
4.486338946698231e-11
-2.9484065187364776e-11
-6.733270630895245e-11
-7.028496599263767e-11
-5.023634196446267e-11
-2.188583598765837e-11
2.8771859610306282e-12
1.764852931128023e-11
2.149167051786507e-11
1.722172539344767e-11
9.149793001800626e-12
1.189229016717904e-12
-4.218562110332968e-12
-6.324828394513333e-12
-5.685304588263421e-12
-3.507832617111911e-12
-1.0362321663729906e-12
8.507670780594662e-13
1.7794522382811571e-12
1.8121873153230568e-12
1.2678123909974687e-12
5.280274889219934e-13
-1.0471719165215139e-13
-4.724275325680977e-13
-5.577789551440974e-13
-4.3785619832169006e-13
-2.254434620823006e-13
-2.0744406297871436e-14
1.152435474422661e-13
1.6535082850546905e-13
1.4549335534722426e-13
8.755853181566815e-14
2.3596238896581888e-14
-2.4234802578867184e-14
-4.694404366207173e-14
-4.6676429766971683e-14
-3.195391718833255e-14
-1.2676082280745057e-14
3.4727639285604213e-15
1.2606157789800855e-14
1.4452578953111124e-14
1.11124888599698e-14
5.532216697761755e-15
2.7456482473569328e-16
-3.139483477030511e-15
-4.322425432750226e-15
-3.724788548628618e-15
-2.1868686965238704e-15
-5.335577489977075e-16
6.772213361353318e-16
1.2304417182411037e-15
1.1950910543898528e-15
7.983518909472149e-16
2.9666153779670463e-16
-1.1499572842533754e-16
-3.4132039181779912e-16
-3.7980415770679956e-16
-2.874334866229778e-16
-1.4106965500026824e-16
-6.182210943218112e-18
7.938235141762623e-17
1.0705721251421359e-16
8.947329033080029e-17
4.873549314872364e-17
6.050419405442284e-18
-2.455648318378338e-17
-3.797704985513056e-17
-3.63382820222567e-17
-2.5681898426354168e-17
-1.2642650190954553e-17
-2.1616393620205025e-18
3.432430421884105e-18
4.189970192267582e-18
1.651029686963177e-18
-2.1820157264199014e-18
-5.638650743364568e-18
-7.779249834749061e-18
-8.419648856492155e-18
-7.911120440262283e-18
-6.8341931213282745e-18
-5.733431017965134e-18
-4.960833263303202e-18
-4.6367933970851754e-18
-4.697617356347522e-18
-4.982993134850268e-18
-5.3214641549429364e-18
-5.587986745717971e-18
-5.72587627080942e-18
-5.7393772141083746e-18
-5.669962739782809e-18
-5.569729657787105e-18
-5.481251664260079e-18
-5.427801253587409e-18
-5.413181347068267e-18
-5.4276898645180555e-18
-5.4561049420817765e-18
-5.4844586978557365e-18
-5.5039322327943255e-18
-5.511714565438058e-18
-5.509672692160017e-18
-5.502051370560195e-18
-5.493276236931568e-18
-5.486507350893541e-18
-5.483118605873809e-18
-5.482925303844503e-18
-5.4848141590309685e-18
-5.487431482908329e-18
-5.48969358922012e-18
-5.491025553478555e-18
-5.491353640539792e-18
-5.49094422968841e-18
-5.490195839985009e-18
-5.4894663321021954e-18
-5.488976250539437e-18
-5.488790483158164e-18
-5.488855194145667e-18
-5.489058213986767e-18
-5.4892854404694776e-18
-5.48945712845314e-18
-5.489540138406287e-18
-5.489541153720756e-18
-5.489489971245723e-18
-5.489421721198177e-18
-5.4893639539311896e-18
-5.4893308328250615e-18
-5.4893236343019165e-18
-5.489335082684723e-18
-5.489354759792177e-18
-5.4893735077117764e-18
-5.489385821621357e-18
-5.4893902246938914e-18
-5.489388249283255e-18
-5.4893828539420144e-18
-5.489376977082246e-18
-5.489372628100952e-18
-5.489370601990306e-18
-5.489370677442714e-18
-5.48937205910762e-18
-5.489373836425684e-18
-5.4893753098760014e-18
-5.489376131598229e-18
-5.48937628471298e-18
-5.489375967028781e-18
-5.489375450513813e-18
-5.489374969253371e-18
-5.4893746603690476e-18
-5.489374556871746e-18
-5.489374615603866e-18
-5.489374758670668e-18
-5.4893749104874386e-18
-5.489375020500334e-18
-5.4893750697574855e-18
-5.489375065212491e-18
-5.489375028042036e-18
-5.489374981818879e-18
-5.489374944281276e-18
-5.489374923944539e-18
-5.4893749208329665e-18
-5.4893749295906915e-18
-5.4893749431277e-18
-5.489374955467565e-18
-5.489374963202067e-18
-5.489374965610764e-18
-5.489374963898524e-18
-5.489374960112728e-18
-5.489374956195419e-18
-5.489374953416414e-18
-5.489374952224222e-18
-5.489374952407823e-18
-5.489374953404691e-18
-5.489374954605296e-18
-5.489374955560433e-18
-5.489374956062418e-18
-5.4893749561211445e-18
-5.489374955881091e-18
-5.489374955526843e-18
-5.489374955210804e-18
-5.489374955017489e-18
-5.4893749549621076e-18
-5.489374955011271e-18
-5.489374955111254e-18
-5.489374955212215e-18
-5.489374955282313e-18
-5.489374955311024e-18
-5.489374955304595e-18
-5.489374955277936e-18
-5.489374955246791e-18
-5.489374955222518e-18
-5.489374955210163e-18
-5.4893749552092005e-18
-5.489374955215747e-18
-5.489374955225004e-18
-5.489374955233089e-18
-5.4893749552379115e-18
-5.489374955239166e-18
-5.489374955237771e-18
-5.489374955235135e-18
-5.489374955232536e-18
-5.489374955230771e-18
-5.489374955230083e-18
-5.4893749552302925e-18
-5.489374955231003e-18
-5.48937495523181e-18
-5.4893749552324265e-18
-5.489374955232729e-18
-5.48937495523274e-18
-5.489374955232562e-18
-5.489374955232321e-18
-5.4893749552321145e-18
-5.489374955231994e-18
-5.4893749552319666e-18
-5.489374955232005e-18
-5.4893749552320744e-18
-5.4893749552321414e-18
-5.489374955232186e-18
-5.489374955232202e-18
-5.489374955232196e-18
-5.489374955232177e-18
-5.489374955232156e-18
-5.489374955232141e-18
-5.489374955232133e-18
-5.489374955232133e-18
-5.4893749552321376e-18
-5.4893749552321445e-18
-5.489374955232149e-18
-5.489374955232152e-18
-5.489374955232153e-18
-5.489374955232152e-18
-5.48937495523215e-18
-5.489374955232148e-18
-5.4893749552321476e-18
-5.489374955232147e-18
-5.489374955232147e-18
-5.4893749552321476e-18
-5.489374955232148e-18
-5.489374955232148e-18
-5.489374955232149e-18
-5.489374955232149e-18
-5.489374955232148e-18
-5.489374955232148e-18
-5.489374955232148e-18
-5.489374955232148e-18
-5.489374955232148e-18
-5.489374955232148e-18
-5.489374955232148e-18
-5.489374955232148e-18
-5.489374955232148e-18
-5.489374955232148e-18
-5.489374955232148e-18
-5.489374955232148e-18
-5.489374955232148e-18
-5.489374955232148e-18
-5.489374955232148e-18
-5.489374955232148e-18
-5.489374955232148e-18
-5.489374955232148e-18
-5.489374955232148e-18
-5.489374955232148e-18
-5.489374955232148e-18
-5.489374955232148e-18
-5.489374955232148e-18
-5.489374955232148e-18
-5.489374955232148e-18
-5.489374955232148e-18
-5.489374955232148e-18
-5.489374955232148e-18
-5.489374955232148e-18
-5.489374955232148e-18
-5.489374955232148e-18
-5.489374955232148e-18
-5.489374955232148e-18
-5.489374955232148e-18
-5.489374955232148e-18
-5.489374955232148e-18
-5.489374955232148e-18
-5.489374955232148e-18
-5.489374955232148e-18
-5.489374955232148e-18
-5.489374955232148e-18
-5.489374955232148e-18
-5.489374955232148e-18
-5.489374955232148e-18
-5.489374955232148e-18
-5.489374955232148e-18
-5.489374955232148e-18
-5.489374955232148e-18
-5.489374955232148e-18
-5.489374955232148e-18
-5.489374955232148e-18
-5.489374955232148e-18
-5.489374955232148e-18
-5.489374955232148e-18
-5.489374955232148e-18
-5.489374955232148e-18
-5.489374955232148e-18
-5.489374955232148e-18
-5.489374955232148e-18
-5.489374955232148e-18
-5.489374955232148e-18
-5.489374955232148e-18
-5.489374955232148e-18
-5.489374955232148e-18
-5.489374955232148e-18
-5.489374955232148e-18
-5.489374955232148e-18
-5.489374955232148e-18
-5.489374955232148e-18
-5.489374955232148e-18
-5.489374955232148e-18
