0
4.851603068457495e-13
8.947246937502015e-13
1.1008312868876315e-12
8.838137412703803e-13
1.0502794623525727e-13
-1.1777937803649589e-12
-2.625011278761804e-12
-3.618829441042685e-12
-3.4063092959847706e-12
-1.3919885517236216e-12
2.4772592445920905e-12
7.37125447908722e-12
1.1472941096815637e-11
1.230105170701755e-11
7.547393128897156e-12
-3.685175747055671e-12
-1.9621597894888545e-11
-3.5138372413418703e-11
-4.2344969777075263e-11
-3.286636132473125e-11
-1.6891697321603894e-12
4.841643942915684e-11
1.0374413689554145e-10
1.4005847351708357e-10
1.284271296285065e-10
4.6753087253467745e-11
-1.0536813040574134e-10
-2.938581020728328e-10
-4.469350408977073e-10
-4.686049826328802e-10
-2.7191588573981555e-10
1.7294258458319202e-10
7.907811552005459e-10
1.3775205804708654e-09
1.6259539282931098e-09
1.2172853238452079e-09
-2.848813758162948e-11
-1.98330789324907e-09
-4.095355113511728e-09
-5.4150336182787774e-09
-4.8320661076748185e-09
-1.5293950169335634e-09
4.443962604299076e-09
1.1694375049070803e-08
1.738994737142277e-08
1.7821318950155576e-08
9.720396629636276e-09
-7.872943306371037e-09
-3.1798071438382243e-08
-5.393940891444743e-08
-6.234992835126952e-08
-4.491497807350906e-08
4.774688151893117e-09
8.095272205455749e-08
1.614518513462575e-07
2.091087162281095e-07
1.8137446540991023e-07
4.815770959755671e-08
-1.8611518911018323e-07
-4.6464633745786294e-07
-6.758593018765846e-07
-6.765908729740864e-07
-3.4431059557264015e-07
3.5051806951519464e-07
1.2759050413289625e-06
2.1096257098038542e-06
2.38760115528501e-06
1.6502681706052172e-06
-3.2831844370783037e-07
-3.2935367727924894e-06
-6.356744096998273e-06
-8.065211047588505e-06
-6.7906399582679844e-06
-1.4297144732768188e-06
7.747450856739941e-06
1.8433247017183656e-05
2.6237179311324808e-05
2.5640614774454487e-05
1.2061662251253041e-05
-1.5343071665610375e-05
-5.109290554576535e-05
-8.241338940514238e-05
-9.129830170808514e-05
-6.034686404401734e-05
1.8309207100502353e-05
0.00013359470260027774
0.0002499528627952404
0.000310657325036958
0.0002534785580969099
3.815504169040843e-05
-0.00032101663737032067
-0.0007305604760885005
-0.0010179223426981046
-0.0009705818933457579
-0.00041751928650870916
0.0006625717247446593
0.0020442055094540648
0.003223586765706349
0.0035064092513807147
0.002241152014702279
-0.0008325330645073583
-0.005225481417594363
-0.00950281694798583
-0.011444362167052744
-0.008698271356450817
8.959693831035323e-05
0.013915321452094394
0.02829753059375036
0.03498305150864818
0.022938446758212706
-0.01932945929539639
-0.1007055086498114
-0.02476968618001559
0.011361620183211288
0.016120748143245385
0.0009732105115920653
0.1775723095591491
-0.04399161807668096
-0.05502730615032038
-0.04648881514850716
-0.007027414885954185
-0.12255143146712187
0.021634470128403537
0.03625173034303878
0.12249684673600178
0.06791125827379373
0.04605699937456645
0.021219469226926503
-0.042559744788020236
-0.17072282323482302
-0.1694578736035973
-0.022538988055509666
0.10446616505940955
0.053630962345480745
0.06127136165682069
0.14625504962328575
0.10382720184450772
-0.09318978406864602
-0.0864662492756402
-0.12043144369652689
-0.03078955878461732
-0.03677190508438697
0.061248375560189625
0.07927559044583884
0.04428577712201978
-0.011857017007748851
-0.05764131317414806
-0.06592783310433285
-0.01712901118030129
0.09816890043441989
0.07761271862067431
0.10763865038397345
-0.032942911125908664
-0.16676235718980198
-0.1112140723925072
-0.07425955013530133
-0.054882261037044223
0.15191708311649313
0.34833462825025635
0.1294465520113089
-0.11521125094725561
-0.19402411147556076
-0.3035738702615775
-0.22294997998696886
0.08312457774530095
0.25202033205426544
0.30664074742162695
0.24246757980230443
0.025133030209824454
-0.1992057026127726
-0.28440425763509397
-0.2638357726656843
-0.13749516273914805
0.12805908915632205
0.187343262142305
0.29678303043860815
0.09672624219585488
0.001251850949795716
-0.20172838150594516
-0.14219791591830416
-0.05654192608999589
0.022252240692443418
0.07003100180880932
0.07261707451695358
0.02442451463063205
-0.07354796457435575
-0.015355465466498788
0.008590679954008487
0.010103432559792616
0.0014418011663809426
-0.006684032786235686
-0.006995225804477965
0.002910236246655386
0.019850884519372593
0.03541650282137955
0.03766883893082906
0.01421631062689289
-0.043857424292771854
-0.138430285454928
-0.06280920675379012
-0.003572907877451586
0.0541573681612241
0.11976475429804437
0.1915834731875222
0.05582821254345954
-0.1085371217772391
-0.12026485873216156
-0.18544123483248193
-0.09099353041987211
-0.005487847093734894
0.11238070968697472
0.10047902983140088
0.18010735998055383
0.14818027388948907
-0.02204680449296676
-0.17171765890309304
-0.1419991977470268
-0.16009681372904208
-0.030896742237802765
0.06303628872028695
0.15385366896636127
0.07677134627902363
0.058926088425734977
-0.08770533319760361
0.03208303163460585
-5.073438873061795e-05
-0.009716531993553882
-0.022517862782279272
-0.057750903742861924
-0.12481195897200545
-0.023510635646026765
0.05160933532208863
0.10441419178493688
0.13070080976613113
0.1154363426320443
0.03596814724754135
-0.12892916217813358
-0.18708302211318462
-0.12286724293996772
-0.09389920027306602
-0.03717444857708662
0.11614821727770933
0.2215060534470465
0.10349808356498554
0.14642559244370476
0.09663787136249183
-0.12329260806099185
-0.19254603277641127
-0.16906815399907857
-0.27323044200668145
-0.08377803071341532
0.2525099272708345
0.2010633652274829
0.2170937896544488
0.12865837831633736
-0.06936579359823611
-0.20976269103922024
-0.13975424707133988
-0.10611877788848376
0.05606931582335842
0.1286867334318861
0.1105660370394056
0.014756872648761094
-0.13478134799664898
-0.10652863434264176
-0.06571749646188675
0.019451475537490808
0.17023203792290212
0.1908166306390547
0.06613419545720567
-0.033905742931992895
-0.14436020205155736
-0.293023450561681
-0.09111896006697207
0.06909464599038037
0.20912200211348378
0.15449946790315228
0.12558055613414404
-0.06702347384917179
-0.22130020449611937
-0.13925707443847643
-0.0227483812322225
0.127436216547957
0.10904817154523946
0.11467991058434891
-0.07023723875888419
-0.06617912583806511
-0.09552653191587343
0.022329503102378637
0.07498989332909667
0.059418328919784345
-0.017123474274694298
-0.13731843843533537
-0.0755656424855238
-0.001972413764514632
0.11141190802541143
0.0835401090062033
0.11904066571402079
0.007017562954434081
-0.07517331025547727
-0.15448196391121694
-0.053986676151583285
0.012910843663044683
0.044147352302699956
0.04674105511955492
0.03232969246366273
0.012588824689784329
-0.003957284549987388
-0.013168538654526758
-0.014826836487537826
-0.011193034727192228
-0.0053598017160910874
3.059536497584018e-05
0.0034483537707653616
0.004544669506015438
0.0038257876312626404
0.002180067456020234
0.00045982486888693637
-0.0007717418281130812
-0.0013103141350737004
-0.0012425432886336892
-0.000812261915480272
-0.00028676879675326137
0.00013512084358761154
0.000359912857629901
0.0003899062269615847
0.0002872955644947879
0.00013278085003328298
-6.392335983172865e-06
-9.245980966134593e-05
-0.00011808685815722648
-9.747960185944178e-05
-5.404393276506048e-05
-9.708184148156456e-06
2.1372057459741366e-05
3.4373405818609577e-05
3.1881377384572745e-05
2.0363159496855022e-05
6.72538964391437e-06
-4.000902861595134e-06
-9.540261681601564e-06
-1.0070333616925178e-05
-7.265544445031523e-06
-3.225262062802001e-06
3.3690373076152517e-07
2.4857733522980102e-06
3.07032209337233e-06
2.482783431868615e-06
1.3368235832684334e-06
1.9486287251512558e-07
-5.884778561210055e-07
-9.006373925682711e-07
-8.17312640516396e-07
-5.097152776680118e-07
-1.561092815984804e-07
1.1635808488468147e-07
2.5252078000585555e-07
2.599523062202768e-07
1.8356160983705762e-07
7.788857791377567e-08
-1.3415678993488905e-08
-6.716820239095628e-08
-8.033527781617318e-08
-6.356647070252629e-08
-3.287225698200554e-08
-2.7311600566718303e-09
1.7757038931045503e-08
2.5621703687643585e-08
2.262990793506917e-08
1.3032668212104763e-08
1.5103370591511546e-09
-8.120864544070425e-09
-1.3395368207262882e-08
-1.3176519325577141e-08
-7.518328404617218e-09
2.3328435224009686e-09
1.3805962238303026e-08
2.301215827194135e-08
2.5281780261221563e-08
1.6511626019219924e-08
-4.756900179479716e-09
-3.512732757287361e-08
-6.50886386568948e-08
-7.997366543838591e-08
-6.403008510800532e-08
-7.450078932419505e-09
8.537849500815642e-08
1.8977256988209385e-07
2.6108799039240673e-07
2.450827900702491e-07
9.904063060669364e-08
-1.8050402098966e-07
-5.332733394587052e-07
-8.279403619872937e-07
-8.855942535329866e-07
-5.402789688929549e-07
2.717079175803968e-07
1.4210711414944486e-06
2.537211837196497e-06
3.050800707575497e-06
2.3590004994230256e-06
1.0310368969684125e-07
-3.5129901112159827e-06
-7.496704381973507e-06
-1.0098171853755428e-05
-9.233044988418614e-06
-3.3155571594686703e-06
7.670591081407614e-06
2.1253232281578796e-05
3.224567888277859e-05
3.372722763465359e-05
1.9447334462327427e-05
-1.2705019918407596e-05
-5.7258272744671953e-05
-9.945360608523885e-05
-0.00011712777150476917
-8.733783078368316e-05
2.784601128642716e-06
0.0001438438047656815
0.00029588721122870564
0.00039035801857118137
0.00034727751547997967
0.00010802911233193322
-0.0003233565628119817
-0.0008458264106756313
-0.0012547885594302599
-0.0012828312278777981
-0.0006950154790382817
0.0005765647731979031
0.0023025143273664502
0.0038969099720964255
0.004499627241996188
0.0032419211465887594
-0.0003291645481900788
-0.0057845771513861536
-0.01151120300247077
-0.014819678856426294
-0.012650682609411644
-0.0028874036011308645
0.014004037786918524
0.033593401611762684
0.04714261662066072
0.04298815174738204
0.00985493177224595
-0.058537824395803996
-0.15916175134794316
-0.07776766046719208
0.008963930806000673
0.1271439762517298
0.09728147136574794
0.12714397626344204
0.008963930859787247
-0.07776766033036547
-0.15916175110900277
-0.0585378240898763
0.009854932039891916
0.042988151816585767
0.04714261632997088
0.033593400883296744
0.014004036717099443
-0.0028874046866605965
-0.012650683183996394
-0.014819678337083498
-0.011511201006411644
-0.005784573802234441
-0.00032916070960282523
0.003241923867076763
0.004499626853899137
0.003896904861231824
0.002302504270242304
0.000576551854605844
-0.0006950265536116993
-0.001282833930181611
-0.0012547766978738659
-0.0008457973772219678
-0.00032331469836822593
0.00010807062378172731
0.00034729801141211464
0.00039033520006736226
0.0002958071825298986
0.0001437127988475832
2.6375913323545856e-06
-8.743768446369751e-05
-0.00011710388843777508
-9.924593561515023e-05
-5.686248278392061e-05
-1.220697267107139e-05
1.9861545417249178e-05
3.380481030200464e-05
3.175300959120594e-05
2.0102115636234222e-05
6.046135364517815e-06
-4.887530843459436e-06
-9.947376783477958e-06
-9.10502393324214e-06
-4.294444251481215e-06
1.602486457512018e-06
5.7212854218498215e-06
6.002929221972716e-06
1.7787632364390666e-06
-5.877287637865354e-06
-1.4134776102994463e-05
-1.890433776510165e-05
-1.5987488001467315e-05
-2.826961177119888e-06
1.953249357216813e-05
4.503963720549341e-05
6.277984808153647e-05
5.951108254634003e-05
2.4770020324930136e-05
-4.243681171332255e-05
-0.00012770664094995405
-0.00019943144479814276
-0.000214389707402365
-0.00013228900434521349
6.269989078940908e-05
0.00033996190690697834
0.0006105775376628674
0.0007373022119917339
0.0005741457508716091
3.323126218074974e-05
-0.0008381766175082234
-0.0018025242999571798
-0.002438565421132955
-0.0022422574922698743
-0.0008269115989190015
0.0018185388448752036
0.00510687294265983
0.007796187542685258
0.008224422661148001
0.004888417927494689
-0.002717902749839359
-0.013270033958169334
-0.023201597777350435
-0.027173420903810072
-0.01972603203530817
0.001964803895879617
0.034858905384498276
0.06751154878751223
0.0796279899441213
0.04479556620143732
-0.06352522607583039
-0.06412135459052448
-0.16092002757122914
-0.1396850315921653
0.02948529180588716
0.18416966081812972
0.15913460024112647
0.17792261600078318
0.0504249773587044
-0.222554934446549
-0.24051256199471582
-0.19561234461216487
-0.07143043587668536
0.14990723618120533
0.2748625728112131
0.2863123816672482
0.1392114295968953
-0.03166400235007182
-0.2930158859602468
-0.28985039078182245
-0.2270555954747733
-0.06365717661098498
0.07714689146706952
0.2852555137334825
0.23620623973127589
0.16861015499322005
0.07400388555222184
-0.0981824245976878
-0.22336260503933364
-0.17915827775169316
-0.2255749912662301
0.005706116940736641
0.11080043127222675
0.3044952610300589
0.20848762911595964
0.043278004725216646
-0.17286420273106795
-0.21904148408633414
-0.2658968284747715
-0.07449020798549195
0.19709567692942004
0.18100121064283758
0.2862535697580778
0.0915439097357344
-0.05155745060622254
-0.2052508533990352
-0.22687731515115686
-0.1521505369466374
0.013585251728462994
0.09350826956520403
0.12867542367313486
0.16346145873120935
0.032635932521313485
-0.0459849331628075
-0.07220774789105391
-0.05897342477470158
-0.025561533428748045
0.00885808898311517
0.02981459685392136
0.029990394988733588
0.009993490517768249
-0.022034493601754208
-0.051836522606815066
-0.06174642176126814
-0.034950636784396714
0.03901940067753111
0.15891755345178016
0.10878564773620863
0.05957298277881345
-0.023750172819199247
-0.1710910606371972
-0.19593310714040235
-0.08851897903843203
-0.01698946826328698
0.06304823556647367
0.19354139739152726
0.1990461179515602
0.07755842678388362
0.0008431634019250439
-0.07561435613852976
-0.19662045476321743
-0.1911521193847453
-0.0620378559528726
0.014877232439631884
0.08205136711268352
0.18557801869711493
0.16009180697750802
0.018604525537166825
-0.04961953460265335
-0.07331065776352251
-0.0885734250889435
-0.12770962796193241
-0.01129793099149087
0.054456809804232426
0.07537032499587107
0.06402257427968835
0.034363905353137075
-0.0016851744157419426
-0.03492542616338934
-0.057581020409098974
-0.06159289818725892
-0.0381034289838456
0.021040526238410042
0.1201716404454691
0.05659920507897684
0.019217262103136
-0.009871045546600529
-0.05094262903331613
-0.12107634601928195
-0.02965200558181447
0.023264483940759733
0.04513111657670815
0.04670637515375886
0.03727870984882493
0.021196085528671724
-0.0032569663639034786
-0.04266839412100329
-0.10593343231484936
-0.001632128777689712
0.0636916316646986
0.08633653559291861
0.06622202743799449
0.008614502835695665
-0.07318389507892156
-0.1556454407833037
-0.2057958582430077
0.01292229371244846
0.12960844033972607
0.1525865636900438
0.25909861578565935
0.19351426317636622
-0.12291464042524174
-0.1721080444214545
-0.2148469100289381
-0.2703699250909512
-0.10726973625212625
0.1508443102914462
0.20679686783291187
0.16482865934514374
0.10732930079294137
0.08002158174722637
-0.11146685359206018
-0.0948673029161434
-0.11858794613629617
-0.03831664589381656
-0.10716570592422814
0.028640394446884456
0.12911409502636723
0.15755745649509492
0.07888957784975408
0.062046877637184104
-0.1130601108411873
-0.24642805887120825
-0.11110089405993724
-0.05299679293090925
0.0004075205211558728
0.12392182361875655
0.17562793015578065
0.18118146331177576
0.12694735054687817
-0.035242294783689315
-0.17288893988986337
-0.1521600360604008
-0.21879952187170454
-0.1870870288175368
0.1597743780141922
0.25894375946114295
0.15205426570664415
0.07098692024837241
0.03058291481866229
-0.17021893739655417
-0.1412126649018679
-0.09229675861171492
-0.027755539786285196
0.05434259588898696
0.15830415004444331
0.08537474409968736
0.03007934678305003
-0.01951337048674933
-0.07767272989344579
-0.15514251125723977
-0.0545306954651299
0.030678752945100193
0.1129497537507189
0.004887891025424143
0.11355238260733094
0.0374460897949212
-0.032560820298826856
-0.10885374531512389
-0.0012001614073569838
-0.11196527168006498
-0.03451651093047966
0.04443932265846156
0.1395096221568316
0.060511210845653446
0.008198148369235946
-0.02651500562750294
-0.059878064722570644
-0.11071642617500513
0.004018067194068112
0.07211089543203977
0.08719043542188232
0.04898687613374868
-0.036224217781148274
-0.1548911893672159
-0.08627238903250387
-0.004839554427084056
0.11446802824966998
0.08943009907957954
0.12488957681657373
0.010949200184952192
-0.07384587515949087
-0.15547240124455441
-0.05642171741442217
0.010118852598702963
0.0420265329997732
0.046078374164432126
0.03353020998897598
0.015537658025413192
-1.1001384816703492e-05
-0.009619183021103392
-0.013490869120326788
-0.013774284650470418
-0.01263719812808578
-0.010924361722229077
-0.007831335576954628
-0.0016498765280230962
0.008725918147486585
0.022137737908364662
0.03410878778538173
0.03710533310594024
0.022485227735814257
-0.01612042179437639
-0.07903514510102935
-0.15806481427356123
-0.03706207003299264
0.10367724172940779
0.08018593112628897
0.09752475451938766
0.1457630962688376
0.0015395328499474622
-0.16478843571304264
-0.17893959805366583
-0.053559639700217154
0.01612320580286688
0.050305007946889205
0.07753997108213165
0.12575000211848253
0.014730680128024785
-0.047576249220250943
-0.06464929133475761
-0.04808198710249159
-0.013414818660371034
0.02330495869778192
0.04770411594695351
0.04843534369556018
0.01847367915377774
-0.043254340358228005
-0.13033709877719457
-0.02852798452061624
0.08242013340909046
0.024685099076004847
0.0172204621737095
0.07126105635149765
-0.012090193246748406
-0.04167794703497276
-0.03396797591001064
-0.009673553808490835
0.009501513332017302
0.0032780321693912542
-0.04575936949386782
0.04859740959609986
0.07678069084143518
0.03445619488977355
-0.07576608574480573
-0.042323390052505426
-0.04357783415290023
-0.048998005765422334
-0.023455236420241086
0.06573636216237645
0.04065219953183908
0.10590636545160585
0.04560041953805555
0.025665441806825052
0.0015948013924979674
-0.07023724264240483
-0.22089993423738807
-0.060599306434681505
0.023386701658158055
0.061826853862880365
0.09364443190747494
0.1547629018670723
0.06957596288720472
-0.152572723134052
-0.1159055172705642
-0.03378982421169452
0.0759695072299012
-0.005473255967814678
0.10410828138581923
-0.010199589522162638
0.04177163580449308
-0.14225249009480306
-0.15544119498146033
0.017252574307464418
0.19508613950172576
-0.004568839521368368
0.028010594245928038
0.09189672291216457
-0.0235951962089426
-0.13466269561543465
-0.05727078181948678
-0.0022394059728310834
0.027086037009722928
0.03419419167657699
0.026716352130388057
0.013166105468391674
0.0003639920342305176
-0.00783420957232295
-0.01052579536521878
-0.008895907194975981
-0.005053073742483322
-0.0010215198024565622
0.0018623622581390145
0.003114285087524507
0.002939335129877895
0.0019139541198946125
0.0006691119969373229
-0.0003269361601786512
-0.0008551868187651703
-0.0009227962793010568
-0.000677871520394605
-0.0003115603071902038
1.7343803771869476e-05
0.00022002876604253742
0.0002796550056439441
0.00023017407998476226
0.00012708888804774152
2.223220046820472e-05
-5.104769985135251e-05
-8.149689165483998e-05
-7.535047737895658e-05
-4.7965174678379846e-05
-1.568063387145422e-05
9.636696927658772e-06
2.2651007573986516e-05
2.382252001094363e-05
1.7135322042719604e-05
7.560847941905183e-06
-8.549555970819078e-07
-5.913363161709129e-06
-7.270076691305257e-06
-5.861527410368159e-06
-3.142510801058458e-06
-4.4216942667776287e-07
1.4043200726005767e-06
2.134761896292307e-06
1.9312669602923276e-06
1.2002896172455198e-06
3.63492200042938e-07
-2.7932560033166965e-07
-5.98957049083157e-07
-6.144268648790372e-07
-4.326197731494243e-07
-1.8268366748519782e-07
3.241912196674547e-08
1.5840286874710166e-07
1.8871149330260995e-07
1.4903597613382592e-07
7.746118346777009e-08
8.036725042277388e-09
-3.836337180910952e-08
-5.571842205084036e-08
-4.929170599420285e-08
-2.9850367831687265e-08
-8.284543992538215e-09
7.846255329419484e-09
1.5470308969849632e-08
1.5341655010395995e-08
1.0422483367866636e-08
4.150848030762236e-09
-8.36907303264165e-10
-3.3016952091740546e-09
-3.3680877748253373e-09
-2.0718633608667e-09
-7.371678232766413e-10
-3.925116917951267e-10
-1.3675399539630296e-09
-3.1510200461512185e-09
-4.543386836390197e-09
-4.092180995080425e-09
-7.371713894323122e-10
5.493207434318352e-09
1.2983098159397695e-08
1.8527515500762354e-08
1.807701560265672e-08
8.280808068872963e-09
-1.1462108694960065e-08
-3.7142055129798664e-08
-5.947633278562685e-08
-6.545337745390463e-08
-4.2596579551666956e-08
1.4574637346762533e-08
9.779071833225368e-08
1.8113751483453077e-07
2.2359574128589554e-07
1.8049464072736235e-07
2.3408882321393404e-08
-2.3640510512124026e-07
-5.305271322209904e-07
-7.339155430219678e-07
-6.936674072400154e-07
-2.8820126729723836e-07
4.946455207829563e-07
1.4881135786872625e-06
2.324852699043333e-06
2.5015304404019074e-06
1.5479557348916402e-06
-7.219659575562915e-07
-3.953623590144831e-06
-7.11261738625881e-06
-8.59995989780469e-06
-6.712382389244854e-06
-4.21208824708689e-07
9.729139567024388e-06
2.097637155550474e-05
2.8414314781672322e-05
2.616639463104217e-05
9.718468735459802e-06
-2.106572215335992e-05
-5.933634833657914e-05
-9.05782872153867e-05
-9.531531242605869e-05
-5.582885495596465e-05
3.408956455555814e-05
0.0001593975000075684
0.0002788794301137648
0.00033026581433156854
0.0002486987410428104
-2.809124332505412e-06
-0.000398970975903392
-0.0008285406032185258
-0.0010992339168956733
-0.0009854249183024568
-0.0003199164574516531
0.0008898976129875693
0.0023646342141989563
0.0035332780529785616
0.0036462388369738886
0.0020425468837216164
-0.0014710083424615775
-0.0062510529944293635
-0.01064828645105496
-0.012240589408551546
-0.008595699196892766
0.0014878642034927931
0.016563167357192436
0.03147979202762024
0.03733003519645342
0.02287122735331634
-0.022580738722735326
-0.1054793505434513
-0.024863847570272674
0.029029383838962388
0.07371011570340832
-0.06875696589139543
0.0238408951486208
-0.030825423331453817
-0.023887283823813228
0.041585528593519966
0.14949387951798268
0.07271311365807878
-0.021239357167268765
-0.16165877207169307
-0.1657453164892126
-0.03275976870479666
0.056178923726087834
0.13241709418485767
0.030419819796301113
-0.02190326275549224
-0.010382186363980386
0.0621603080226098
-0.023170207564672505
0.10333080452175752
0.007505519560317273
-0.13976829570063876
-0.15459245639573355
-0.035597595712099674
0.03512965377845795
0.08587039242270617
0.14618959422779954
0.038443870626036825
-0.027142770411692472
-0.052672253425231394
-0.04892274218807519
-0.02999988768936777
-0.008495129020007184
0.007452217519054523
0.014851223498487701
0.014799303466230596
0.010540133490987091
0.005501663744742385
0.0019154913581936738
0.0002787052444253301
-0.00037846534324637607
-0.0016579049845988935
-0.0047370053311210705
-0.009468348850211498
-0.013986764656309514
-0.01507968455408733
-0.009392530375035527
0.004739029479917639
0.02537349183409514
0.04579236437003264
0.05497287558199572
0.04030020743896434
-0.007638177788195553
-0.08941743353943525
-0.1925701516684907
-0.09143287354911195
0.047256995421604775
0.05354938823266066
0.14146758005961238
0.29916022871869774
0.08679976641153128
-0.15535808849165186
-0.09020865168126832
-0.16354227749968012
-0.18732064397195816
-0.13254958388801794
0.06534853392453568
0.08991453684974396
0.22083793045419461
0.11213454161854683
0.1781546560197601
-0.008411291917598984
-0.10635874602607337
-0.18740975104202773
-0.11561715255509558
-0.13134496038702204
-0.04437080162396146
0.16283647224969203
0.12416703976853516
0.07606572351491483
0.04594564439629162
0.046200562786179775
-0.125436031623385
-0.0808138540680931
-0.034516943549986315
0.001869068039531313
0.02268167376710451
0.028173445616803097
0.022570796047276378
0.011543351735383886
0.00014747391086234886
-0.008253763599792106
-0.012131657099254518
-0.011368545634766915
-0.0067237627787748
0.0004926669084132304
0.00846917620073007
0.014840419702823638
0.016847635157844393
0.011991928674107808
-0.0007537333624386413
-0.019445376064811414
-0.0379888730802433
-0.04605319398853277
-0.03068270820595812
0.020351249408080283
0.11426624888276196
0.04961334306773577
0.014960170579631895
-0.00912197282675626
-0.04516214506794197
-0.11265426976216025
-0.022905316891988246
0.023322160710164314
0.03473895543403283
0.025740402890552096
0.011447739585242884
0.003178940514256295
0.005458549468450393
0.015068163786626662
0.022160630304341983
0.013112738870135834
-0.02553985865798838
-0.10309799287632937
-0.021855378657035473
0.02358177922192428
0.044612216432689596
0.055417788155591216
0.06962347309761908
-0.10197001831958816
-0.05228044398197948
0.021915378455408762
-0.08031242805544762
0.03512403015008135
0.15651805298138688
0.06684916934599777
-0.05319460204163359
-0.0194292109596579
-0.03699533927148287
-0.09439014525919308
-0.16150677575493463
0.006413525914109431
0.05877262613151002
0.035634618622646025
0.15376954161893636
0.1974434967878949
0.11778785095384654
-0.15784252946677527
-0.10850072714331332
-0.1993551881650275
-0.06485312195797195
-0.10048561590872769
0.13481184939304314
0.10713896139861065
0.09108842893701258
-0.046969032282839884
-0.061967595889968086
0.06236067886602057
0.11210851848008364
0.047834972357792334
0.014681432006685358
-0.043589353658679775
-0.1696599722176199
-0.18096422814098284
-0.06518904293104591
0.014934787480110085
0.10858347026827375
0.25970954948018893
0.09171282791878296
-0.0008266552052693845
-0.050832127591467324
-0.10885811701462082
-0.028385426657754727
-0.05088260755361987
0.005529592649497347
-0.04847100960101963
0.025426220865960487
-0.11416099901506484
-0.000455705963136492
0.026665356052410768
0.20624523261726263
0.14593085661970395
0.01919878255108654
-0.028255196929028194
-0.06425327910662647
-0.15202484397369181
-0.13361095368466308
-0.019640235258872703
0.011726014958863388
0.006696995830259056
0.021176488843357672
0.10363815027662716
0.08010756172305807
0.14528130791257682
0.062426206164818934
-0.02750045129174471
-0.18974501140553876
-0.07724471921496062
-0.11528229296002351
-0.09396004247529278
0.02935213210251648
0.11853266746015545
0.04177394348052732
0.054198280040691674
0.1848780471655142
0.03166288917599318
-0.03501238439392008
-0.06071129218337604
-0.09162080748410772
-0.16010889582034593
-0.07581359915293479
-0.02511916520507235
0.020811575709917877
0.09213369873341559
0.20537236514467988
0.15297051028947134
0.1017798774118647
0.0021177136022244958
-0.19484943630644858
-0.31721267461076585
-0.15749614615367036
-0.06932869413985601
0.021929197141174226
0.19742097759250293
0.31911936392521517
0.20928152700412572
0.04255646268796768
-0.04614981204459401
-0.1406223397945047
-0.31636586507812886
-0.2169646528656299
-0.04168898342818263
0.051874866807200506
0.13180228085151646
0.26860913743381326
0.11304281400238705
0.08204807495236252
-0.04337445078615902
-0.10907932424312886
-0.17176558492866564
-0.08206252401536882
-0.07215351925405263
0.0489856184843418
0.09272671812146929
0.08285060367530586
0.04623075696662152
0.005406121367867163
-0.02522275837402412
-0.03960448624511252
-0.037931103574215815
-0.023893714489748915
-0.002618665711428062
0.020188391111337016
0.03819571306409967
0.044339438452700705
0.03154393733907067
-0.005328075406645109
-0.06673188179331022
-0.1461721302113866
-0.029994978533527738
0.09979551223286015
0.06020661142757089
0.06143271366649931
0.1030922959608731
-0.02573485506623119
-0.14263358195648398
-0.06583581343231237
-0.008639935025508107
0.023600126881679163
0.03323598476365899
0.02764162622546378
0.01562442110695397
0.004354116749292122
-0.0023570226603005866
-0.004247641016221129
-0.0035825551700447455
-0.003461635914453792
-0.006063616569896005
-0.011362513195413189
-0.01673316509202127
-0.01769027315247075
-0.009755489896964672
0.008896528605865778
0.03475556407052674
0.057310700363418676
0.05948755930017134
0.020840101050658838
-0.07677811600317852
-0.042502248883415
-0.07101444339095447
-0.14074248584798132
-0.017130096178947136
0.1393381274598328
0.16270623698444744
0.07246329540942542
0.06936987271564683
-0.062214244368317365
-0.14675127084837042
-0.20825233286958655
-0.0635183419449862
0.07932277967877703
0.21713938693933194
0.14603905975836712
0.05769568569432204
-0.059513275025633826
-0.21495793981571754
-0.20911630528709624
-0.03013503175872152
0.14373532539085856
0.1364668686316925
0.16497781424037067
0.03276181247314236
-0.07070672875732163
-0.16493930403369145
-0.0705572076351116
-0.002268277751656247
0.034658303908143395
0.04386406738847513
0.03456626419214078
0.01738221175887959
0.0009691010291061717
-0.009689322759776665
-0.013346056481467944
-0.011437666503180718
-0.006619662654855964
-0.0014787926833128736
0.002251670296376453
0.003918926134238093
0.0037563650127223724
0.002484260275140124
0.0009055409002721863
-0.0003754767122286688
-0.0010689105033742485
-0.0011744053474197103
-0.0008750043188719559
-0.0004127600413059127
8.396784821089802e-06
0.0002722409370931409
0.00035428250733108294
0.0002957132004559601
0.0001664403706202517
3.274283905557613e-05
-6.206330006822097e-05
-0.00010269803536323901
-9.638534580122387e-05
-6.233561868151007e-05
-2.135316126094018e-05
1.1236521965548453e-05
2.835346931232385e-05
3.0342708784579194e-05
2.213975915793471e-05
1.004570014951351e-05
-7.391824298111059e-07
-7.33269943359949e-06
-9.21815151363265e-06
-7.536696709876467e-06
-4.1226418762578e-06
-6.768926901832923e-07
1.7144387612441678e-06
2.692921423547921e-06
2.472324147793718e-06
1.5618103117627145e-06
4.98680815146152e-07
-3.29503787587145e-07
-7.507806768041305e-07
-7.832264513673829e-07
-5.595262801002758e-07
-2.4350801904388123e-07
3.238097007049053e-08
1.9684942817863158e-07
2.3953235748885517e-07
1.918472384208925e-07
1.0185217901776336e-07
1.3148721017407665e-08
-4.707750276606818e-08
-7.050501171101762e-08
-6.334325479114217e-08
-3.905970015770761e-08
-1.1514748122971881e-08
9.504601925197004e-09
1.9840584010360998e-08
2.019376339065509e-08
1.4120305949731784e-08
5.874324149754422e-09
-1.1749918303127394e-09
-5.268975416198236e-09
-6.216397636451978e-09
-4.877438139615437e-09
-2.509317764924199e-09
-2.2844737194777485e-10
1.2859833368041155e-09
1.8432200208602352e-09
1.621042382411182e-09
9.74979688935015e-10
2.621672107293197e-10
-2.7060743658994847e-10
-5.233325168206228e-10
-5.200532823775671e-10
-3.558127353619389e-10
-1.409400897669543e-10
3.89667082536776e-11
1.4064975565701115e-10
1.6113024844729298e-10
1.2384439777289508e-10
6.163421455173658e-11
3.052152148590153e-12
-3.496688464829998e-11
-4.811959753043336e-11
-4.143707317862982e-11
-2.4287805338346898e-11
-5.863399511184106e-12
7.62263856865601e-12
1.377869109415161e-11
1.3377164100465665e-11
8.95160845774891e-12
3.3598942757413475e-12
-1.226055353356682e-12
-3.745603329810698e-12
-4.1719998589545455e-12
-3.141017015917382e-12
-1.509380306464249e-12
-6.472302318355049e-15
9.463392236772973e-13
1.2539725690436128e-12
1.0574487719002218e-12
6.032062971795418e-13
1.2753954165008122e-13
-2.1335822919109995e-13
-3.6268186452225206e-13
-3.4422621595062227e-13
-2.253650451091983e-13
-8.003733294096685e-14
3.671992017317672e-14
9.899166278712657e-14
1.0737040057037927e-13
7.903624058917871e-14
3.630771568814709e-14
-2.2048445488047642e-15
-2.6040607353389446e-14
-3.3157195700541093e-14
-2.7475781045434045e-14
-1.546818260121063e-14
-3.2020359951026034e-15
5.402808456256572e-15
9.007796265266306e-15
8.325054189008974e-15
5.142195376056168e-15
1.3699118188078786e-15
-1.5990299535886479e-15
-3.133874871633792e-15
-3.2827075048917096e-15
-2.5081466083963256e-15
-1.3908465365184895e-15
-4.0508459198417256e-16
1.900625013712648e-16
3.5247046744071434e-16
1.9042467765501155e-16
-1.2638560288640248e-16
-4.423319000540751e-16
-6.592114529170897e-16
-7.457790884774985e-16
-7.228993344834689e-16
-6.379024589114803e-16
-5.401058523144573e-16
-4.647058216203538e-16
-4.269886151988345e-16
-4.2487597506860556e-16
-4.45950500008281e-16
-4.75124872415023e-16
-5.003270232917806e-16
-5.151571256904689e-16
-5.188000286052969e-16
-5.14228406902437e-16
-5.058846844015791e-16
-4.977559916851488e-16
-4.922980892047631e-16
-4.902320117319634e-16
-4.909563288766141e-16
-4.932203764874511e-16
-4.957526838284288e-16
-4.976650918526644e-16
-4.98588928205287e-16
-4.98599181304889e-16
-4.980281776623472e-16
-4.972674437487384e-16
-4.966238762634992e-16
-4.96255125191934e-16
-4.961752470685579e-16
-4.963030580947506e-16
-4.965224273827995e-16
-4.967313242196063e-16
-4.968684553831631e-16
-4.969174166266457e-16
-4.968953219665578e-16
-4.96835157150514e-16
-4.967696648030495e-16
-4.967212237388027e-16
-4.966986768995398e-16
-4.966995450817016e-16
-4.967149581680789e-16
-4.967347681554727e-16
-4.967511828553631e-16
-4.967603305050804e-16
-4.967620273138915e-16
-4.967584804210015e-16
-4.967527216758863e-16
-4.967473594408899e-16
-4.967439207781612e-16
-4.967427722646299e-16
-4.967434316021559e-16
-4.967450293802056e-16
-4.967467219861463e-16
