0
2.7830301081905907e-09
1.5009835466419007e-09
-1.4452766694807885e-09
-5.569740283789607e-09
-9.523661230435566e-09
-1.1259485998674107e-08
-8.63431631506218e-09
-4.106279305261523e-10
1.2608347430258526e-08
2.6789951475901565e-08
3.582005356209452e-08
3.225836121182026e-08
1.0551474416568986e-08
-2.9135085410590165e-08
-7.767900819303531e-08
-1.1629804030407912e-07
-1.2019929536366903e-07
-6.730888895199239e-08
4.927145049331189e-08
2.0905638999115317e-07
3.583782495887461e-07
4.175753634690862e-07
3.051631049151881e-07
-2.3067087870920976e-08
-5.306247326954428e-07
-1.0714632605769264e-06
-1.3983647137681486e-06
-1.2260503113384564e-06
-3.496794200195035e-07
1.2075124035051341e-06
3.0732818321641262e-06
4.507251224244805e-06
4.552103828561007e-06
2.379448974312414e-06
-2.2270990088630487e-06
-8.410055239687718e-06
-1.4037340848386087e-05
-1.6013196802196095e-05
-1.1244480963762501e-05
1.8334560390905798e-06
2.1598499237851206e-05
4.219148254744901e-05
5.3944380888708564e-05
4.593411501467953e-05
1.0637177163548399e-05
-5.03894300148173e-05
-0.00012200491753934412
-0.0001750619654994631
-0.00017264134969463324
-8.373561195422582e-05
9.803802229284163e-05
0.00033699824501496543
0.0005485671967461504
0.0006125684398002478
0.00041178614497128414
-0.00010855422873431958
-0.0008775511952258275
-0.0016606166304306024
-0.002080048563469534
-0.0017180235992669667
-0.0002990365562574732
0.0020921055123692715
0.004843687506303607
0.006814055677234241
0.006588873522028168
0.003023202145659264
-0.004033548400372605
-0.013082183443249509
-0.020755199713427843
-0.02240649564975352
-0.01370971593281149
0.006893368817887833
0.03552703750678183
0.06104780784827935
0.06521258372784165
0.025626841931557353
-0.07870062067852622
-0.06061248283124587
-0.11923330074762847
-0.037985057885201075
0.012489351805038974
0.06702579202347934
0.1566261788039786
0.10045534644954793
-0.09798890911880699
-0.049416055956466934
0.02699186606735787
-0.08879114614398968
-0.010613789156214372
0.05848755860498458
-0.07230527227730284
0.01652298725618516
-0.04990414912558284
-0.047615866947619566
0.03865876359408235
0.2090327269133648
0.04546458807668455
0.11430901156254437
-0.025061881565010664
-0.20757912073018456
-0.2501533704257301
-0.1450280817140215
-0.06261199104851062
0.2361945485262522
0.3826965671614464
0.18558667412543536
0.02554533645825528
-0.1379633899610257
-0.35070048798049175
-0.24580093718369284
-0.032042391818148434
0.10706701756055392
0.20406051454644702
0.2934426775864481
-0.0003276946447558676
-0.06782614124737792
-0.11172572659629247
-0.13895286782650737
-0.15278700381137422
0.05100604747693103
0.08248188003217023
0.15171124125071506
0.06225559184841519
0.007378196163802908
-0.029219844203067658
-0.06867172781727961
-0.13053896311693622
-0.027578913643614093
0.03624233856941684
0.06407412742046865
0.062118473584361886
0.035330423908881234
-0.015260997760300139
-0.09285711326590257
-0.0032334260301068703
0.04789438571957084
0.05770480515393505
0.029043620169066448
-0.02700071363097289
-0.08938081356177055
-0.1276275279021499
-0.10620189708242145
0.006731951491159371
0.22752988906524685
0.14596438710796078
0.11961947806238948
0.07760623169918977
-0.06559758908179805
-0.1891475400123726
-0.14358242456597148
-0.13420242973292465
-0.1155496410044929
0.0008094280015321738
0.12701913889108957
0.173540232710641
0.22496397759723175
0.12407695332630986
0.0685398719554728
-0.17976249926234755
-0.2771234630965839
-0.2795070046733001
-0.03040321954833729
0.04101593548327872
0.3127442871650834
0.35970964379255616
0.1479735395459162
-0.16155549549642326
-0.2002317028025405
-0.375544577694772
-0.26038173487371336
0.005455824772842353
0.3000535376529076
0.2955519299077622
0.23504864754912932
0.1195238485263934
-0.09024559919127939
-0.2581177435396143
-0.2500443320384899
-0.1134512605708597
-0.06584420852224376
0.10442983434291185
0.22735653547767715
0.13600568479095226
0.05334233680099979
-0.014300987794893033
-0.07592836304876753
-0.14887349335795994
-0.0499730926749326
0.011323598221262257
0.03575793253744819
0.03289762831125397
0.017029133503767845
0.00219438765089162
-0.0020887381513803116
0.006486079307176002
0.02230304382724806
0.033152173506750066
0.02340531502788493
-0.02151175382889155
-0.11041616099580011
-0.042935868614411676
-0.008791290970152214
0.009577766669800399
0.031716694823587625
0.07304521227928726
0.14029476017907325
0.03047956874278299
-0.06588689395995206
-0.15849027066689633
-0.05065455836697865
-0.13579930778140673
0.0010181161447684632
0.17679188886599323
0.20227019395310278
0.07576608285840532
-0.017556803005389223
-0.10019996908985736
-0.19311707024110553
-0.10723111392669533
-0.03991428811429013
0.02159749694795156
0.09107227280722316
0.17237187738698773
0.2519009228578947
0.09872326376487002
-0.12617617596415176
-0.2540997467020633
-0.2926130082383388
-0.21680994921013452
0.026960009850870784
0.30492797526178955
0.2730284025692498
0.15641161404362464
0.13976492002171462
-0.02748025380610476
-0.21283571774778856
-0.27606967422966594
-0.24719997408624142
-0.11510752659974445
0.1695301844411173
0.47899608645968156
-0.11243902282997333
0.05251699957314571
0.0024462947795334386
-0.06610493804535754
-0.3854360303516411
0.3901786022351539
0.1930998025081034
-0.04770065911412037
-0.19522318966527938
-0.09296878412496123
-0.1566639470251765
0.02750598278176938
0.09701340127577959
0.10129044189146741
0.08812306753524679
0.09229163891380814
-0.0708551087927941
-0.20652784054532802
-0.1379507490208268
0.09770186955179079
0.25407327102615423
0.28248271656798346
0.14317946005033277
-0.1786857370914135
-0.6564487253929245
-0.4128287040874376
-0.1267040520096737
0.34125895014492885
0.5102018149007881
0.6416795797688863
0.11867789946890352
-0.14941332853649336
-0.09691885236865043
-0.8583803927269034
-0.32805693172529965
0.06263296390364452
0.14258354511349874
-0.023368203822515744
0.8308709528717975
0.34223296259968117
-0.09579984009690402
-0.32690206139313005
-0.40983147693529653
-0.1919636142877807
-0.09035473348797367
0.1128371539405393
0.26097652658831455
0.2056843726831295
-0.010265940714619606
0.03639883013878835
-0.05238248833487088
-0.090529802873523
-0.09886333933933052
-0.0969340672550193
-0.09883109475480946
0.08596796188534409
0.24817623161137414
0.17419238153025035
0.04533093993402714
-0.15736307981573805
-0.24435294195844443
-0.20946911280700267
-0.027341272245091506
0.14127157319968242
0.3381556726638771
0.19556508819964208
-0.07101336696615834
-0.2626351243915282
-0.19101348632589837
-0.071661496703344
0.07975092697857827
0.24684770176054377
0.21027660533589138
-0.05251400123690322
-0.16332126498614025
-0.13625677364894123
-0.17167639982350663
-0.054956711424262214
0.23826532670582823
0.13216890037334966
0.0403737539775094
-0.04049331506533142
0.0691393877897055
-0.06210222665959419
-0.06636928071032802
0.034704463503970544
0.03949142541393742
-0.22840428458028916
-0.12097529036412716
0.02646498891257183
0.08149336754052525
0.09787449069010466
0.3009715365635844
0.0804424515757562
-0.00666259044240029
-0.2229874910292074
-0.2326039809890961
-0.08401090522120462
-0.00022923007149012068
0.021479262921886195
0.20176018784024752
0.16749873908337798
-0.0587395274851703
-0.06478855004134605
-0.049792513645242044
-0.021495761357580172
0.0078066330839502455
0.024972645650309495
0.01867817504705615
-0.01901139354274091
-0.09209916462181333
-0.0011917746114898037
0.05495218333127026
0.07744807593478008
0.06604755890479719
0.01977515007099624
-0.06033642413398085
-0.16759276041967053
-0.08728876411637206
0.002247201275353757
0.12465263682393607
0.09820671123326873
0.12935959806175157
0.010181963309726693
-0.07895414021856775
-0.16260975471843478
-0.06243553597191429
0.008464691748956034
0.04706516368217469
0.0580840016487684
0.049659541146196896
0.029334153420538845
0.0019567920582842123
-0.030109894794136047
-0.06526514214524685
-0.10089747966952302
0.06703791428764062
0.04251649285688897
0.02659886232077571
0.014613206370990455
-0.005290230113602266
-0.05150916656011389
0.05372900314823867
0.08882409350020283
0.038528509256521494
-0.09983541443642864
-0.11118986294882555
-0.16082537985851988
0.0020411674053822963
0.034720473302558286
0.18744884635589157
0.08980026387372238
0.14176410076045767
-0.0872400191964646
-0.05086858483125526
-0.012158493738779716
-0.02765086573301712
-0.13364624175358916
-0.1381286941403823
-0.02048833529621157
0.060822318645051554
0.15497333431310725
0.10406836648445036
0.13191729838168034
0.03976036700215011
-0.19031064130461453
-0.18648930992061052
0.022895016250410637
0.01681875512750262
-0.015697380975522812
0.12289805514031363
0.03488792144444439
-0.07664836766055082
-0.01050497763377417
0.03165801215161943
0.045822471538861285
0.027366548004748914
-0.026208805071347614
-0.11221488046333264
-0.020501093241560697
0.06683689184926038
-0.026787812166414456
-0.07682996608401373
0.13698936383829355
0.02566113938974535
-0.01236991937936081
0.00831172964216892
0.062617809621522
-0.08016285394087087
-0.05043803224205714
-0.07295026078324446
0.03660990201958992
0.07240580793544729
0.03713743033554035
-0.060264708108343605
-0.006939612518662494
0.011991080870696598
0.011832730672394256
0.006966270666590379
0.00979315748240757
0.030021812003991136
-0.12586294016784783
-0.05531673930547591
0.03908504144192683
0.14837358915374596
0.057123942777198636
0.14628736790069374
-0.0003216301057797607
-0.18725509160633572
-0.40012461611671024
-0.2046449240006063
0.04461108814118236
0.38683430825332876
0.4355274941789274
0.3665908772842587
-0.07839025212106837
-0.37271363618267667
-0.5762574149492135
-0.31070934436826875
0.05039585412754439
0.3725782472955283
0.337032873410342
0.21377906668790558
0.04227553732578546
-0.17456139527152295
-0.26374454219451426
-0.06874294071205929
-0.036083774482443175
-0.0067539837549688815
0.1865672680173493
0.11845962987876803
-0.030927774408103296
-0.07586702934020988
-0.0229914387750353
-0.06858251343840739
0.0028810864132427184
0.01766937114482374
0.009141084248082356
0.012321595510908267
0.057999305785277344
-0.03244168130634312
-0.05062520590916841
-0.0028621096754823635
0.09020983719140642
-0.0037628780051279275
0.07637594447453158
0.09322388735310526
0.020651651308002842
-0.34663487111822316
-0.18726712390515132
-0.05474919223069657
0.11201797693482406
0.17142873920077284
0.36092849289702794
0.08488782655397502
-0.08647161021617132
-0.20671104022411935
-0.1356903519518061
-0.12176707823403622
0.010271532593117355
0.06256675095917437
0.05939161030650932
0.0371983296097067
0.033272055899085294
0.07613654545143946
-0.020439790746664258
-0.05940698094188435
-0.05914553350380187
-0.0503830742458728
-0.07260513135249018
0.2297369617139121
0.2121853222952706
0.037923680353022106
-0.11147472376459937
-0.22450924035558575
-0.4524637315152361
-0.11191471981853161
0.5003507127215646
-0.11719562126325743
0.3027679494545949
0.37744648009311227
0.06934238807451727
-0.5020326864401753
0.16399045856068845
-0.22237362863396223
-0.31797985985056904
-0.13536259480524981
0.1538475070946008
0.2028161912628008
0.26722799830125465
0.18535616982458103
-0.03261216754801622
-0.20355322645582385
-0.16129331798480837
-0.14321163756897465
0.020595229805457593
0.11238857274992146
0.1264159371801474
0.06582276493465573
-0.060117536204197485
-0.03690082281942806
-0.044259500415017854
-0.05589052192974043
-0.04115254998502293
0.030469226922901604
-0.01739447659130983
0.02459588627385113
0.14582610796296386
0.11434473868401769
0.08163468380613499
-0.006227672318969095
-0.19324641252819516
-0.29863160536703576
-0.10800404231784197
0.02512099139464765
0.16708654604181172
0.18494149338769192
0.126970073995375
0.009322380749126358
0.012494394137161498
-0.11222149728924824
-0.029171104505207924
-0.001957927939870073
-0.07847313552024801
-0.08055655219855053
-0.00017668579222882965
-0.0025944899113689622
-0.03550012169363962
0.15821007279390162
0.027170494576594522
0.001003049471561583
0.08491014186241187
0.06042633989060518
-0.1082085719448984
-0.06399025082404212
-0.0463065563176222
-0.08234749832380456
0.01710135473808217
0.056950745060345837
0.05325737535391289
0.026891332518492263
-0.0024643158751115586
-0.02060016914084919
-0.020958415597601945
-0.005005999544792997
0.018702245015619096
0.036458607208087045
0.03225409237375904
-0.00856278698626283
-0.0953089991996331
-0.028663391490686137
0.0007997635255253613
0.011542134290378743
0.027678984360971885
0.07432751309409111
-0.02698834094388729
-0.061877883923632616
-0.02521169410543177
0.07806112105590642
0.03335145627095929
0.0183763332667457
0.006852526860767437
-0.02639245648638647
-0.10001572900651827
-0.02206870031580099
0.011345048535694537
0.014064408120154063
0.005025144559732952
0.00191861257376245
0.01500836652546623
0.04267462272353699
0.06999322805822665
0.07121544724335911
0.016225043467511826
-0.120175599705984
-0.14867276718033906
-0.05887413773353592
-0.018609247903509516
0.019924634971924326
0.10862748338962613
0.08990885146249483
-0.01501389003011294
-0.012721149691037733
0.06259986548378065
0.15632918135732304
0.006581959294762857
-0.03880796254850086
-0.2052199520523927
-0.2792439980626409
-0.20695474405010214
0.09460690083427749
0.11423631810255395
0.31806612463093503
0.32526151322404284
0.09696676720085169
-0.05650228484117054
-0.05141178350497246
-0.1964104684347126
-0.3590044075474755
-0.34353740062091226
-0.08840108236412801
0.11569244599355867
0.39178740226635905
0.4385172388471967
0.3010684893826885
-0.038709800562642206
-0.25058281210005967
-0.42859272678654875
-0.2596436651244966
0.00026023394416919537
0.13517684369179506
0.1637431898886866
0.12446452220008679
0.05909976762396391
1.9970837278874895e-05
-0.03570454019142827
-0.0457621532918346
-0.03778648388421032
-0.023030529062718626
-0.010852838346751907
-0.005413592348988556
-0.005010755679177899
-0.003728911397891184
0.005420670677087114
0.026975187281592254
0.06033647815448633
0.09904998331536902
-0.06731639694584986
-0.04900134850939152
-0.051021625413234725
-0.06940223626959242
-0.09052407007227202
0.10571202913340173
0.1397937471941198
0.02577074145350258
-0.033853104100322
-0.05006832759601538
-0.04627600364719055
-0.05530106833536427
0.08445617935147615
0.133532375852648
0.05715578923830717
0.0327165548005445
-0.1418518121700829
-0.24142845932848586
-0.21257448207769408
0.019120677114057665
0.13329910603891845
0.39491373898088206
0.23730346091014123
0.055185920165375886
-0.18940920719592114
-0.3510413235559693
-0.28197742984042623
-0.018729059386119174
0.22123406713167545
0.23350659716030947
0.21698955251751822
-0.03320086364180982
-0.12648107364083205
-0.27194307058013667
-0.07190810328634968
0.08172984079317083
0.20634327018380674
-0.07629852071492114
0.054246102389991585
0.013005811825679734
0.008145415432196872
-0.15821744736782917
0.11199875810675684
0.014911877323213607
-0.053920011963096995
-0.09902864460590388
0.0744866696157835
0.05978973052449037
0.047199074047644014
0.024209691342168393
-0.022687352496028466
-0.10473849326847043
-0.02752786130159347
0.010982056835403065
0.020002435155426507
0.013157801222632244
0.00436580039248113
0.003599578603859811
0.013615667116950886
0.028418903498327507
0.03392450020373059
0.010920052128488355
-0.06006300013380565
0.0070655607186801235
0.009327733474241214
-0.04183161729599471
-0.12010230439179544
0.012397901000479944
-0.0018326103208588422
0.07489289728020136
0.06588130368712139
0.17321091095664917
-0.02406938523821004
-0.16593793931741374
-0.10286858481935326
0.11456527776196353
0.04537892665718803
0.06578208225046565
-0.025737349568386452
-0.20648538653906237
-0.2322236887078982
-0.0458842527749544
0.20797076168573667
0.3664612447651516
0.23566720876393238
-0.012137478114495203
-0.2291075294303837
-0.2736696052097655
-0.19102187435855988
9.65260440281621e-07
0.10940954440855
0.16853613688327135
0.016947421018973435
0.08937034884688447
0.00690018580103736
-0.02567546918989064
-0.016897608523019306
0.018003263828373067
-0.13527427795771196
-0.0841585271761184
-0.02694627589588817
0.04504602224183921
0.14194899703279598
0.06896381851208588
0.022077289012276635
-0.012223612356089533
-0.053221250235388776
-0.11995433036733115
-0.025470148182382597
0.026485803459841317
0.0414472263257089
0.031441071051583516
0.010897378724893382
-0.007275065789261401
-0.014555083712189287
-0.008373915543218329
0.007492863451144165
0.023531309363073495
0.026026391942648393
-0.0005111071153111133
-0.07026516756297084
0.007057760869441511
0.028765673854029065
0.0005250497763746023
-0.06368753737893643
0.057028918063926785
-0.012062803799657176
-0.0448146086740201
-0.018176318279668518
0.08388464906914297
0.06730631802360343
-0.07340753787026703
0.04581732837125269
0.001881064742394997
-0.03078418130024849
-0.07524089545798666
0.05197037967209655
-0.057058993368942434
-0.001792812334830099
0.02453659444183934
0.0315053039030288
0.028000692255104816
0.019785734376771783
0.008878100699204269
-0.005162515791389392
-0.022645119809197468
-0.04097925516284922
-0.0530356432911201
-0.047702022555358214
-0.013003213564496486
0.05890659133818341
0.16669819311928696
0.09724453854398059
0.0274800511659353
-0.06891317206951086
-0.21208498235346962
-0.20786148802366816
-0.04497586716405188
0.10031998241934748
0.2538505382938413
0.23207211395173638
0.035166323268102324
-0.15195717661764513
-0.15146025288052326
-0.18149517824135125
-0.047686913560308554
0.05910689770898957
0.15838362935806768
0.07161297756629556
0.013881531541433881
-0.011182585514376982
-0.011909464459898178
-0.0051213977697943365
-0.010407970752470302
-0.04414579245800793
-0.11509417718310143
-0.022911316547896948
0.039966703657404144
0.08395921677787486
0.11763481439680114
0.14527331355332315
-0.031572893055309206
-0.20886172891837948
-0.17391274903659798
-0.10232989482051784
0.038922411328813224
0.0821280288941612
0.246331279736641
0.12699358067317634
0.09265951863804249
-0.10916672859333724
-0.13853920939661846
-0.24681293878395183
-0.06358021081291865
0.008723183149840006
0.19145619538383454
0.12015818502107127
0.03318351881542548
-0.03731536881973078
-0.07010434843021392
-0.055668999419988686
0.0052802971239930925
0.10412839890051377
0.026902051656102443
-0.04292204305331543
-0.12145498446894601
-0.02197518353370798
0.046078958352610826
0.07652340934544188
0.06513558803093951
0.00903289792273119
-0.09244099572859919
-0.03565761126812425
-0.010734907051825072
-0.0009834492059306275
0.015624510500555253
0.063257247564241
-0.03586877311438773
-0.06562854560574023
-0.01962064124671038
0.09610816037487598
0.0618870970583648
0.045755668559813466
0.008025869942855727
-0.09123910800848191
-0.08345522738237905
0.01612489841879269
0.012720214748543726
-0.06818672711867421
0.014433136238135873
-0.09117412346849155
0.06007385324165785
0.09991221116453129
0.23958621989558046
0.06849598640304759
-0.0400885634431385
-0.31776063887213163
-0.18857208698483
-0.060985159473164706
0.07217581628729837
0.226106628993901
0.21288696420570533
0.03244806528349766
-0.1302896043571533
-0.10152357449506107
-0.11058540066405473
0.018223931317828592
0.07106572567610128
0.04641511144259604
-0.04586694000027857
0.013037102540623407
0.04782369786131809
-0.11440324939208918
-0.048056200058280076
0.06657750050098353
0.03905003922557792
0.06576048608544607
0.12983475260606267
0.0049319488253180025
-0.13739379114067354
-0.11892908799289607
-0.14799011136740334
-0.01762298259532265
0.0901126573297525
0.19551793493351027
0.11219991071278256
0.04180935607245717
-0.02500696144772623
-0.10200992157726954
-0.1983892463549547
-0.11183555978101772
-0.027251560984665284
0.0778757550370333
0.22365377694587227
0.21812222840817208
0.05262527899956899
-0.09515111811189376
-0.2516762099124045
-0.23624346323730688
-0.05349752304583658
0.10657812880106443
0.2617239893270423
0.22779873807540466
0.011978171144102304
-0.18784037369545675
-0.17801009716268784
-0.162387985555572
0.06160725541313208
0.10182275385626836
0.1661223311386862
0.056407229537564545
-0.034686334727578705
-0.12285687491024307
-0.027748574973115895
0.03277331692347492
0.047694670275920385
0.01624956726650854
-0.0506441809349489
-0.13115643476966404
0.00400476823369086
-0.014746472544345786
0.03572815307700727
0.16301843736202073
0.15403038977254338
-0.024360034777960463
-0.017941455667602333
-0.07272951102219556
-0.22134883507277214
-0.07297974710016865
-0.010641847726685782
0.002885830159448581
0.012247005389236685
0.254000102378429
0.14373910720530733
0.07057395148838104
0.0013742688218648684
-0.10633750957176424
-0.287373146733411
-0.15411969977551446
-0.08976193613094464
0.14788801454883382
0.21368459865786926
0.15887419759701882
0.017585379660864344
0.0005341634272210656
-0.10314555574899201
-0.11831734422025883
-0.07452958338734746
0.001291581720754882
0.08812781754328856
-0.029745760092410586
0.03438365431519185
0.06669710029446106
0.05151736226764708
-0.027407003856734936
0.01695175338034556
-0.019798608910727027
-0.12868973345892873
-0.08539297541203675
-0.052791036635662515
0.011422055264414135
0.14362273089180014
0.16298929030833248
0.06422012050284577
0.0174391561334195
-0.023926455397425193
-0.10937466369035198
-0.07585759920904957
-0.13547660499710923
-0.07035673928128727
-0.036668046826834506
0.022938297452509703
0.16189277504811578
0.2126008246372404
0.17541098563720456
0.0178043688608605
-0.11549357268338761
-0.2849195669297569
-0.1374455000504228
-0.09370161026348393
0.054951697258785535
0.13943351574696733
0.19990048216906908
0.07231974639754206
-0.02046164190914875
-0.07097930196450751
-0.0837146148918698
-0.06899337426789254
-0.037562715289337446
0.0019624189695497977
0.04239161389356743
0.07524202285836593
0.08818803678016207
0.06477744326048827
-0.012551712273601495
-0.1568363083596897
-0.1706830441534807
-0.04311376446466217
0.04881131858952488
0.13396604384173216
0.23961072762005986
0.18625439859362575
-0.21244086814547353
-0.3453073524205609
-0.19877483412577626
0.04374194352610739
0.19594766378248304
0.25862058919312075
0.2111600028498828
0.010388129540777046
-0.20119844547027224
-0.28032688759982627
-0.06701595699479794
0.025945292552993906
0.014683917153396711
0.1375740132150982
0.0435140513750143
-0.02075453951118524
-0.02104934636768215
0.05786462093001798
0.01038904740923866
0.01251262433878047
0.02792416279236434
0.016714608163448354
-0.05503433827915869
-0.20700812334618926
-0.04013193867067122
0.0626081763328914
0.1301146229409056
-0.0059548400112186305
0.07981296589306718
0.0004789529213740607
-0.04515044409172676
-0.0704155998066106
0.10416658844154973
0.057360955671694934
-0.026039172474065873
-0.14940974319001554
-0.10108800752586028
-0.055534072832439656
0.020347086390179542
0.15697497271603666
0.1712833973708014
0.05951934545696227
-0.0031943901805877735
-0.05596089302376277
-0.140217591108881
-0.08709537775388804
-0.1084357897036118
0.005623892614336163
0.08209430442634917
0.15576016822584887
0.058748511306498684
0.012780297429675314
0.02627112403958837
-0.10384623883380523
-0.18763055499545442
-0.037799434764309144
0.13232687077007602
0.10837717038784278
0.07367695408467805
0.009487925399567361
-0.1021066668675283
-0.07348406735033539
-0.10716310810717021
0.00585681839647845
0.08414922852284694
0.1512091139450526
0.03029142280946027
-0.05914936979012872
-0.10270717378543698
-0.09094487933524995
-0.01971179266806072
0.10814822709562888
0.08032634831555602
0.07377862036852875
0.05672288747631534
-0.005279137006331762
-0.14030354293659303
-0.16102098964448852
-0.05923871258355468
-0.006740674166085837
0.037165694740756816
0.1137012580882439
0.25246529646283555
0.06354189734812725
-0.06329667233835577
-0.15248930761609886
-0.23303075539664572
-0.1301262307111068
0.1380755995470319
0.15809997549406832
0.1160087258221115
0.19409145429644048
-0.027049941182968693
-0.16052608299469284
-0.20229901132914413
-0.12264286821006316
-0.06487654005966252
0.04634821609469548
0.0887040348346878
0.12251310786221838
0.17397231006942068
0.226961902879067
0.026714058589611837
-0.305134810179122
-0.048658075690257645
-0.26421664895705527
-0.1787701845247804
0.01573174649611706
0.3521382110206745
0.07079771235095834
0.20233573098777805
-0.04310603908334076
-0.07720877174772081
-0.1265086612374892
-0.021010374824461237
0.017094973966370535
-0.018824018337561813
-0.11736286811766651
-0.05219041669127699
0.010050576892536552
0.09907431530156717
0.2308667784592593
0.20218923552043333
-0.007316578347467168
-0.22531364496576414
-0.27292579677501083
-0.15313287422659402
-0.04724385275109283
0.07824676951561553
0.25697049847339676
0.3064745997025486
0.017705718358800592
-0.04498254951196655
-0.13302888432884402
-0.09628241525531096
-0.16561178027879733
-0.14169762503233108
0.00625642145200746
0.1316451123764872
0.09460262947378327
0.14459419592670147
0.1071068675883271
-0.02169554917663116
-0.07143531139436034
-0.08713294234440949
-0.11589800768489972
0.005117164153360411
0.05655772136520227
0.03949042497584359
-0.026595949949709433
-0.10917387619996331
0.029689855956765356
0.02448868210982304
0.09764472197316332
0.05306226707255937
0.07381305470887642
-0.0750460110781457
-0.03907939128815872
-0.06450781280423898
0.0116663444095525
-0.030876019773893457
0.007943488642065477
-0.051738127120986854
0.026364332580704582
0.08823130241741059
-0.018071199168742714
-0.04973975770775113
0.02472556334274956
0.021330273987633062
-0.06146441929339901
0.1576675954054617
0.04610954204901484
-0.036738698524849414
-0.1316019514176811
-0.0715296088696925
-0.07662591262900055
0.04696076251300781
0.10385611742840244
0.10400558395018913
0.05772137525104847
-0.026624575265627715
-0.1418733358951731
-0.07979213514076498
-0.02956491589824158
0.021253160601862848
0.08335902222237174
0.16167651618861023
0.053176333300764045
-0.051711377951684435
-0.1642549567808291
-0.091348880568049
-0.03127905638003378
0.02652639467355702
0.09775083831567678
0.19748487961132058
-0.06458745972532806
-0.0860814811899494
-0.07072220633674982
-0.025536111994404465
0.04180245767679253
0.12463114555501006
0.018262827730915986
-0.0791301373903804
-0.16577064009326978
-0.03661779400766632
0.11427079796469958
0.0896654766526908
0.08524661597367376
0.08822005403034543
-0.12023542805015609
-0.1594231627166917
-0.04295802858821008
0.025207349582389734
0.05099632561860707
0.047073226596605976
0.028170489191629785
0.0068841596444465135
-0.008783241797609254
-0.01585198825986499
-0.015255259577963741
-0.010019550462352192
-0.0035137054952848927
0.001740495763387766
0.0045460506703676705
0.004916113781746365
0.003623323962567815
0.001678112058172942
-7.500287988015512e-05
-0.0011606366556424705
-0.0014856777551651478
-0.0012281797474398054
-0.0006823761299010447
-0.00012431886274275357
0.00026750212006823555
0.00043197933238896176
0.0004013323010021391
0.00025678694618955455
8.525093243042551e-05
-4.987162732538021e-05
-0.00011981830185420036
-0.00012671408352330578
-9.156469154347593e-05
-4.077213238932885e-05
4.080041372551234e-06
3.1187432907896865e-05
3.8614219084966524e-05
3.12724476699429e-05
1.6875378180985548e-05
2.5035139497354316e-06
-7.370893037712752e-06
-1.132049524310143e-05
-1.0289658123875395e-05
-6.428945245795264e-06
-1.9815284594105454e-06
1.4503012979816513e-06
3.169398206903927e-06
3.2687246046977837e-06
2.3121868893654963e-06
9.85835718263862e-07
-1.6092083291049754e-07
-8.364531205947793e-07
-1.0031754326263908e-06
-7.959656847521722e-07
-4.1676786585151124e-07
-4.699001505961169e-08
2.0152134560223966e-07
2.958105442916926e-07
2.6311562367715937e-07
1.60268013735655e-07
4.5102552422742146e-08
-4.1945388371702873e-08
-8.405851952172015e-08
-8.460768057883044e-08
-5.868641197287664e-08
-2.409912626608482e-08
5.1863328909833636e-09
2.1985165465020692e-08
2.5644844690212952e-08
1.98495377244698e-08
9.878621438788667e-09
3.746519715359113e-10
-5.87032313378776e-09
-8.105682250571253e-09
-7.106516962195669e-09
-4.371670505325561e-09
-1.3907559273317469e-09
8.166384912578572e-10
1.845922266434976e-09
1.8075899013810232e-09
1.1036928248587269e-09
1.9592706869687413e-10
-5.592777655876802e-10
-9.820780070538077e-10
-1.0595339614367786e-09
-8.88290297341445e-10
-6.055103216391377e-10
-3.3406302246405875e-10
-1.5330498341986702e-10
-9.38572257808913e-11
-1.4727135310110432e-10
-2.8016209131791073e-10
-4.4574548667587576e-10
-5.910886420492548e-10
-6.629724052405013e-10
-6.170337541329983e-10
-4.329587577838737e-10
-1.3355728323049837e-10
2.0044103717077483e-10
4.3212627594360363e-10
3.980602555277185e-10
-3.0657846818089055e-11
-8.669149707730655e-10
-1.93407935839981e-09
-2.8419632644987843e-09
-3.0536142093167055e-09
-2.0633909186816422e-09
3.3648808654544226e-10
3.7808762614543806e-09
7.178876420640695e-09
8.82976761833854e-09
6.906755551972109e-09
2.837760778652171e-10
-1.0502951474422683e-08
-2.255430902444839e-08
-3.0665400841953104e-08
-2.8552142411877403e-08
-1.132167507741522e-08
2.1308883685975798e-08
6.219725987718517e-08
9.598604709122666e-08
1.0190276217529304e-07
6.085379545930295e-08
-3.41914558793152e-08
-1.6773403869625517e-07
-2.963067552006837e-07
-3.536619531235775e-07
-2.70197099123484e-07
-5.308908183924732e-09
4.157645478520164e-07
8.761652626949872e-07
1.1718260260436636e-06
1.0614195844513955e-06
3.6366228145678907e-07
-9.18494845626275e-07
-2.4923848646140733e-06
-3.7516965295279514e-06
-3.893226771019847e-06
-2.1984318682699058e-06
1.563322061090686e-06
6.737900500921849e-06
1.1595223232405524e-05
1.355736780105856e-05
9.97690374407228e-06
-5.98748903793969e-07
-1.7017932568300015e-05
-3.4580729773967314e-05
-4.5295650043733955e-05
-3.9907456820584205e-05
-1.172481241959622e-05
3.8593915309018433e-05
9.909905824437691e-05
0.00014588474055381598
0.00014793019552408268
7.825735883826915e-05
-7.042780134919736e-05
-0.000270716037827091
-0.0004538603267731991
-0.0005196619322720205
-0.00036759265230828375
5.3861276719679775e-05
0.0006933808655574343
0.0013624584605989411
0.0017487513246542234
0.0014982861998399913
0.0003660084014135753
-0.0015998014704930897
-0.0039104449067172906
-0.005621284610778139
-0.005532137033964924
-0.0026311028420918834
0.0032933472337339943
0.011071301280190963
0.017896599411866113
0.01969689031808226
0.012281761595892702
-0.006886042431948547
-0.03686041797312733
-0.07223993189678794
-0.10402795654165257
0.07718947499493077
0.0763445802767425
0.08912614343398513
0.09985104373621267
0.08385527088397698
-0.18549955278362223
-0.12735649514550337
-0.145193984524158
-0.023658942409105547
0.06788591935194223
0.1663890737403971
0.10444800724329337
0.10235966504239472
-0.03410410860965866
-0.10989557343267785
-0.1332919869310087
-0.10882032591404094
-0.03403987652803559
0.09832301188067487
0.09408722597661792
0.15043502769678516
0.05155775728674059
-0.030467976059337962
-0.12960920622566316
-0.07701785059259447
-0.09295623974317695
0.017458142527233527
0.0634861396455257
0.06389837313684645
0.040332426630346425
0.011393451696682566
-0.010836432963663507
-0.02147741373104331
-0.021356821159853823
-0.014470489174686916
-0.005489535574434362
0.001977144751490782
0.006127897861733587
0.006866893255096265
0.005205160750395131
0.002536190133149703
5.8886176635587374e-05
-0.0015261950388944221
-0.0020531093114296937
-0.0017463963749545135
-0.0010078969243586277
-0.00022644961127174016
0.0003385332013625295
0.0005904053488787552
0.0005656417388422143
0.0003735754161409065
0.0001355491581258969
-5.73307966936059e-05
-0.00016149769330854992
-0.00017704911003953516
-0.00013167986154523497
-6.191056702455889e-05
1.541669859990317e-06
4.12100884803979e-05
5.345852664134815e-05
4.453613523481042e-05
2.4998895183691504e-05
4.837148023895037e-06
-9.431089570625043e-06
-1.5517046078041472e-05
-1.4522295633358937e-05
