0
-3.994606081333688e-09
-3.989393132100669e-09
-3.994663599964693e-09
-4.013905001247826e-09
-4.045743980847586e-09
-4.0818017265561135e-09
-4.1067570180116935e-09
-4.101867218161221e-09
-4.052219094630122e-09
-3.956301041210338e-09
-3.834526744524979e-09
-3.731901061809378e-09
-3.710114273776624e-09
-3.826824711984433e-09
-4.10490339999396e-09
-4.500971158801433e-09
-4.888322996352275e-09
-5.0710057829393334e-09
-4.840193806795864e-09
-4.069630295673585e-09
-2.8257746575381806e-09
-1.4469085012324191e-09
-5.341982430264426e-10
-8.080156851415033e-10
-2.8221159891187883e-09
-6.594027443359308e-09
-1.1285170501391372e-08
-1.5117213746210315e-08
-1.5703007340187927e-08
-1.0869637467456802e-08
1.4637238266080267e-10
1.5504724994484317e-08
3.0156970904366073e-08
3.6472366525927913e-08
2.6499601961157194e-08
-4.3007132663536795e-09
-5.283857096987172e-08
-1.0548903794042413e-07
-1.38692077633716e-07
-1.2479672935262283e-07
-4.3313513137284897e-08
1.0483123073942692e-07
2.853214535226409e-07
4.2798255881106365e-07
4.4055132710485173e-07
2.4132401272744687e-07
-1.944494956036083e-07
-7.893107082896283e-07
-1.3424404692820114e-06
-1.5570239908292358e-06
-1.1308078230318147e-06
9.81008309073427e-08
1.9899806788749363e-06
3.9972874038554685e-06
5.1977804869964015e-06
4.531535074676371e-06
1.2433762686670547e-06
-4.568070395800671e-06
-1.1503411133689455e-05
-1.6797124641609793e-05
-1.6887518972985584e-05
-8.709876319515068e-06
8.50473947217972e-06
3.1517996168938256e-05
5.235426342310141e-05
5.9481480217433474e-05
4.143010916831258e-05
-7.5181720137933415e-06
-8.117420314373166e-05
-0.0001575800441343705
-0.0002006776766573984
-0.00016989519326954746
-3.7521903921335584e-05
0.00019016928373657892
0.00045628638966965286
0.0006519720663566672
0.0006398840575638436
0.0003053413797914418
-0.00037400951838705053
-0.0012635859544967085
-0.0020470793941067896
-0.0022767842083999475
-0.0015177844856107193
0.00043068684924335793
0.0033011911593453587
0.006219578980737321
0.007786118651709554
0.006464125293059926
0.0012631200682258364
-0.007450184918878612
-0.017342279370945922
-0.024131812071587343
-0.02261498430299099
-0.008822096592654373
0.017014071368354998
0.04751690794687113
0.06646931414999738
0.049559699870165515
-0.03182024905899052
-0.004194948895859462
-0.08468591280078451
-0.07514383531486298
-0.16005153587073473
0.09049427941267865
0.11320869258887745
0.14188906809545263
-0.0009792482390824724
0.09158942972246191
-0.18805177640939935
-0.25767301803905307
-0.13958078037201746
0.9443011212912961
-0.6227995908241254
0.35410789836733725
0.0910279919645386
-0.16547328710979312
-1.133627339425802
0.49721293104147296
-0.15416448394541474
0.4069046917357402
0.417094722632832
0.43273972584047815
0.12936786256878147
-0.27406142548794343
-0.5727899626617304
-0.32966093839203087
-0.23989939550173456
0.08198655940277198
0.2914090822379054
0.28591455416953143
0.17205285298230585
0.03805507254163464
-0.06101600145382319
-0.104753228859567
-0.09912731881417995
-0.06396776784345688
-0.021239618397013445
0.01277498304219477
0.030527585528532696
0.032358817752182856
0.023486622254957755
0.010576720672411123
-0.0008770791139860088
-0.007842585466264238
-0.00979588477578078
-0.007967644990152234
-0.004318253033143572
-0.0006605962559576499
0.0018509382276320646
0.002841085058953719
0.0025497526878780407
0.0015380400427447822
0.00040119588480516796
-0.00042793663878607966
-0.000760204539143939
-0.0006345926920595724
-0.00024409711935425348
0.00015912580071645295
0.00035289217290827775
0.00021443598043485002
-0.00023676385098172755
-0.0008292379074118885
-0.0012716132162712513
-0.0012338870022063967
-0.00047455303554738996
0.0010109790268510214
0.002871496510437249
0.004380509443689384
0.004582112999047704
0.0026281863149639284
-0.001744847148090411
-0.007750752480174731
-0.013334871142174357
-0.01545600167455407
-0.011029338163658314
0.001531562169901354
0.020550383481604595
0.039779397291761755
0.04835477621674568
0.032622053231823975
-0.020170906151618637
-0.11721261638686449
-0.056199719053931806
-0.024015294330167414
0.0008855539038329107
0.04274353568205851
0.12121941056676347
0.045120170999307777
0.009381565814962894
-0.0036716286629057764
-0.01943030806017721
-0.06452079402168444
-0.16147210865829156
-0.1270434464767702
0.02451115400687661
0.07418961791892695
0.19057295960198323
0.3271271884530851
0.22962868607308812
0.055961739755399496
-0.19468114018694296
-0.45214491416529623
-0.758333236036102
-0.4757154998692467
-0.12770217990702482
0.7345173791866969
1.2572806298099106
0.8286592589190996
0.06554317072580595
-0.3471092538826447
-0.9761228557114019
-1.1467847167146574
-0.26851477438913507
0.397643851408613
0.5250331037722883
0.4739111605220099
0.23248327039565655
-0.033706520108791584
-0.21334386252673548
-0.2611967792025846
-0.19582246899024422
0.11033160066388666
0.3449826504653334
0.3749457717216338
0.27256009836972134
-0.050218404134288776
-0.8060904522542054
-0.9077107845368181
-0.36882951183894436
0.05990624098342758
0.6251297757988848
1.0945090039322594
0.8982262815458634
0.3132549244678347
-0.29907666596575233
-1.0122529509409612
-0.8381326679920251
-0.6494583141841909
-0.34909057359333895
0.10344368682257256
1.0179516164770046
0.8781897633704643
0.45748371617349215
-0.028099496729890212
-0.11774333701724664
-0.46131574905913764
-0.5510785490871009
-0.2525201023056748
0.0468408333733718
0.060854645067054174
0.00043341131089526816
0.14882421381132752
0.2268892942615711
0.1586815506481579
0.045345416134647897
-0.048320217436818254
-0.09457828885258611
-0.09421588219047015
-0.0638880333679434
-0.024117535153649304
0.0089902106198
0.027354757114255442
0.03057591122862725
0.023252988721606235
0.01168024093433116
0.0011840012509893223
-0.005291350836912229
-0.007336705581086786
-0.006338653213813833
-0.004351909806950424
-0.0030405901373754232
-0.003000558866500033
-0.0036088757506115786
-0.003398183991419393
-0.000830273485035542
0.004763700019677292
0.01239705613174709
0.01915936797680809
0.020778944239774933
0.0131337482522907
-0.005523665367743649
-0.032310514899501715
-0.058505273923718654
-0.07058467935283165
-0.05433569590877007
-0.0019144436331612912
0.07968502947406404
0.16171164433778074
0.19199877429887116
0.10165928789906464
0.020917514830755143
-0.09872739373579122
-0.4624996771109024
-0.4191512199167472
-0.06422380552391235
0.13744927359089074
0.314695396155216
0.5498616048818662
0.2495837586490783
-0.06269146106925243
-0.12919922040633797
-0.32081420452242604
-0.3918892937999019
0.16055943496972294
0.32435701470498873
-0.017163421567118566
-0.2909293172586815
-0.25522517334306927
-0.4358093426438874
-0.17561343065580484
0.708201474446831
0.8728485173880841
0.6215630809987475
0.11282285053691438
-0.38976103279736607
-1.0394237026246855
-0.7246569838906499
-0.2105602026339559
0.27977182262444866
0.442798699554916
0.4446923759164487
0.264672745220508
0.04982820460634554
-0.10853680534536662
-0.17649114762572465
-0.16342763509503822
-0.10155151583563003
-0.027003213285628748
0.03259935004949414
0.0631176804654389
0.06300716036688055
0.03943203971406755
0.003968014230848657
-0.03065665970924844
-0.05264258864098612
-0.052776168090978064
-0.02655760585598393
0.022909058592386542
0.08200981751202845
0.12537524138125158
0.11819976444533732
0.023128059467993164
-0.18929307667793618
-0.32997998160183345
-0.18523345661684174
0.08113969185253599
0.517594885209126
-0.028933893761614517
0.276345307447237
0.053474576893286295
-0.28684627358330483
-0.7349723294050542
-0.0789757931133062
-0.11225408562228328
0.34850134002750555
1.2439291885539911
0.46515386558249555
-0.5293765077342846
-0.4731138918700548
-0.6399661184086619
-1.0031551350956085
1.177727997423482
-0.4646951077804965
0.34584361154777815
0.6690452953597658
-0.1074380377454142
-1.3068081811934817
1.8206956464632555
0.3059700932785584
-0.506776864906989
-0.3078932798338351
-0.3613288269350087
-0.6517149804222927
-0.05502547730694377
0.2599315629627593
0.402871616236125
0.3186796176331633
0.1448752033326435
-0.017837327074221095
-0.11678514052636849
-0.14231420076169357
-0.11299664813940825
-0.05847393485979566
-0.005640601403601253
0.029046309736181334
0.041118184671793116
0.03529288742924066
0.020728771883078603
0.00643332407372956
-0.001866526053390606
-0.0029308461002880578
0.0005393087486953115
0.0036843723933818137
0.0018630403416931168
-0.007045267200623359
-0.021090123591703168
-0.034117664673661584
-0.037601294511949906
-0.02463968250963376
0.004288075003041478
0.03502451375730152
0.034869261354076087
0.1515352873343951
0.11808456611163026
0.06489962151882495
-0.06230685939229084
-0.08210055034209737
-0.3605543584185627
-0.20494896906623522
-0.07323369402246728
-0.00045686408996984664
-0.03784539860520126
0.30492743212513673
1.2268324235124408
-0.7758459732438011
0.30813979108570205
0.4505437260735772
-0.15277395579144198
-1.4162222022151971
0.28406034112612333
-0.8762549677906386
-0.601510773869586
0.24962407223501573
1.1654520760119604
1.4888908887437744
1.5664999113917866
0.16401806913559958
-2.0511166687447604
-1.990194026113358
-1.2366141761291467
-0.19848320880090606
1.0611554771582967
2.335241706822661
1.1701574878717447
-0.00228732335591362
-1.071847215749349
-1.2017556133131766
-0.556259718778063
-0.03955227600301268
0.331229877277957
0.4163584519016909
0.3200873431707756
0.1516868157624903
-0.004325059091061853
-0.10183949016590756
-0.13143453271820024
-0.10879486549881577
-0.06010019409799703
-0.00983676926971395
0.02616181451285595
0.04225950330078768
0.04073205789561496
0.027886814725907982
0.010533775295489578
-0.006078218913415468
-0.018690677638149144
-0.025388500632419493
-0.024772263453129745
-0.015763393117368796
0.0015577775620239588
0.024261690390454723
0.044743935827332805
0.04975244959581183
0.021089017365180457
-0.061830231172837785
-0.01827093780280773
-0.06278240561840165
-0.003707324472918176
-0.04467626240942027
0.010789502587505944
-0.0475194282669763
-0.043661521535304136
0.1795320625369555
0.3609257380414219
0.0299161331442915
-0.0751935743515886
0.018247975382644173
-0.4568187947953856
-0.5896515899204477
0.20949049948964651
0.3911911380215519
0.4332948626402325
-0.19908524440225775
-0.29108877422234036
-0.3086270366458339
0.1787379882709803
0.08332453163923988
0.7973791842066748
0.6102702649852142
-0.25072490032088596
-0.7594967862577067
-0.6238358602071655
-0.4318348117825897
-0.02903300811104668
0.46786027592511437
0.42828899692766886
0.25287256881512465
0.12398113788706634
-0.02591117424327375
-0.12439067349357333
-0.15143488539223046
-0.12156826680853748
-0.06398102269342275
-0.006682308037759316
0.03242943617777088
0.0476800576034384
0.04295482438153787
0.026947276934664352
0.008631669134564672
-0.0056698376242183355
-0.013267690410878318
-0.01453135789239004
-0.01152170591912754
-0.006587375823703468
-0.0014426401587919265
0.0030863585920307764
0.006759007143580777
0.009366566941203877
0.01029174300217082
0.008474238840797415
0.002898072022001742
-0.006523668342071931
-0.018032301297207908
-0.0276020356921555
-0.029531113634830807
-0.01831450133018448
0.00842728105605743
0.04682776734204701
0.08488583502797231
0.1033926441010366
0.08071090885162108
0.0010433536107177252
-0.13622825666555172
-0.31060182564939887
-0.2833331761733525
-0.21323988127267895
-0.08538463125327192
0.25372589919667865
0.6673233827693671
0.9228126287711552
0.9247489269973229
0.5922528723013794
-0.8303878338722033
-2.8619304939360553
-2.3183275695782934
-0.9372750193185367
0.6900841177554397
3.709354578519489
4.186203114202182
-0.43281203236619137
-1.1257652692950997
-1.1685991784984702
-2.9323643482422437
-1.8845416146093485
1.9399034794542551
1.3718178835562453
0.06203955314925116
-0.003316996905189476
0.211717577875058
0.12856795409957175
-0.08295749667201115
-0.11679602683860851
-0.12431543617101505
-0.09774483990336387
-0.05110697115496791
-0.004216058110666757
0.027581178435182686
0.03776945165065337
0.028557281050595414
0.008238915103003187
-0.012321988407660996
-0.02308962865984204
-0.017722756361239617
0.004255273037382486
0.036272234110972766
0.0650868277315763
0.07342710151212066
0.0452025695989742
-0.02740348842425093
-0.13709146501740446
-0.25825280755909485
-0.15105149972131923
0.02519440628410085
0.0907353655441621
0.22170729949821424
0.3323892437275718
0.2718511634653902
0.04030257473887414
-0.3752632545945317
-0.15292873099169788
0.013620293285634485
-0.045761051723023284
-0.35773370365108575
-0.009696994658425948
0.020606543508060758
-0.18738513494451084
-0.16610748431109432
0.2641713384915515
0.3249127545104273
0.2285850036291782
0.7612895079355003
0.507986360244824
-0.27904104582475436
-0.579534338839106
-0.6949567196070402
-0.9571705901096864
-0.48129214765207984
0.4250992791698902
0.8024758657508249
0.7520450482426337
0.35037985656893667
-0.009028574794525271
-0.23595654308127337
-0.32916573487921247
-0.3416272830772949
-0.14190715582709165
0.015297998327179199
0.10342109513845929
0.12389004828078093
0.0967972914944492
0.04871853425731811
0.002646858682768516
-0.027500303819514398
-0.03772076304343779
-0.031547156524091534
-0.016358655099043475
3.115852440094137e-05
0.011650737151280177
0.015375750027479658
0.010989933730431467
0.0007471667847443989
-0.01127280043531767
-0.019982580261138992
-0.02043160930193012
-0.009407713969045328
0.01262907489210779
0.03979942803986601
0.060091595515525814
0.056541031342477656
0.010666093264635426
-0.09246909702205325
-0.05935616025725765
-0.08584228756394822
-0.15994365839107155
-0.07063993100570548
0.1786428823145825
0.15577871453981998
0.1908110271171472
0.1779394532882806
0.19225616933257056
-0.07944488676298798
-0.29952747657691076
-0.44207656997112765
-0.16889680451904068
-0.028358585294841622
0.3194348182488228
-0.34532411439983424
0.13564733925348707
-0.16701565061727164
0.27165254395654465
0.3923105796870975
1.1435718631103957
0.11367095278341383
-0.19812368386858373
-0.882865240170122
-1.1211212168414353
-0.7099780046995322
0.15942559390699632
0.6686209302479509
0.697531368084694
0.5369686142907291
0.21639493237434151
-0.13470569774267446
-0.2882494402192899
-0.29080136537075674
-0.22415612407609006
-0.16847313042871045
0.02184919064057555
0.12620425673068278
0.15239088935268125
0.12406840888192201
0.06785883842674469
0.004937528400407126
-0.05122798150559893
-0.0923366534083654
-0.11111795233329173
-0.09912229750231914
-0.04879283225103696
0.04004719529469072
0.15173121966754588
0.24877494809436315
0.2733663101201977
0.15954085725176842
-0.1448743045653608
-0.45301864727932906
-0.7216643522025108
-0.45394933104291946
-0.12927420918442467
0.3433144283572874
0.9648170531596922
1.4048524391134176
1.0049043561045112
0.03970536965489392
-1.1727303618020934
-2.747472797946173
-1.7459299403935438
-0.37020780637850415
1.1475271602797197
2.7894715339866103
4.5926337484889475
-2.2483404650809167
-1.9809683341800723
-1.213242846859473
-1.6051568365016753
-1.7915136497479438
3.8352050192307794
2.093710399694888
-0.2256642282878175
-0.76958747342435
-0.9867626182070272
-0.8682987838450968
-0.49660238526489864
0.3717518274143408
0.6831863601400358
0.43682382508639694
0.2283865614308738
0.0077710009291096695
-0.13986290469669801
-0.19034288475120117
-0.1619990301500959
-0.09245818579948205
-0.01890366446058165
0.033797129330179566
0.05654613898456438
0.05318033107339134
0.034569428058720826
0.01259510628029614
-0.004090199862786371
-0.011848599478719687
-0.011668515654960054
-0.007398485906408089
-0.003499923336942876
-0.003058288781824134
-0.006543322463047186
-0.01157683631424898
-0.013774544828042908
-0.008538132034904514
0.006561515090124377
0.02944554289994986
0.052095860665606744
0.06090420186024222
0.03928547225791315
-0.027827368421246095
-0.14917426965425912
-0.12462494373567758
-0.1476035963696346
-0.013862471092272682
0.06468808848127093
0.24553723481819895
0.24725188210804638
0.1541722727174091
0.23846023735489938
0.3989179706341879
-0.19033063506248177
-1.2348852116898068
-1.0974375000277932
-0.4152387742907877
0.035241091271753476
1.4386537171821001
2.837655680534758
-0.3344680608382514
-1.0580084065198114
-0.6679411953391431
-0.9594857135114648
-1.2966786298583257
1.4467861246026246
1.1061437427149108
0.014800370404388549
-0.6170240771189086
-0.5220027991004077
0.006915067926343088
0.2967355707129912
0.27097192578977203
0.2273476123315353
0.023810428256850917
-0.12286825648134604
-0.22699809915254385
-0.117801484362367
-0.02385811615838935
0.03696556066627961
0.06057463427993658
0.05411366142618317
0.030676467270095244
0.003944549593359532
-0.01559994310166189
-0.022431708268267042
-0.016091867311633028
-0.0003293707009362399
0.018196318847082265
0.0314655657224806
0.031962491106928226
0.014851266573798814
-0.01995453955437797
-0.06687501930523312
-0.11645561758906998
-0.16139546466996577
-0.007383253096942511
0.11268630296870254
0.1250918713887349
0.10822304301487205
0.2983356237907693
0.3125592280645303
0.18979582668883327
-0.15535984825816754
-0.47706128070612513
-0.757915535028696
-0.6022733973234078
-0.4761784849999999
0.005011803750962515
0.7562900490718746
1.4995609842095645
1.0738868101553787
0.21080620526603774
-0.2124950250460765
-0.8550405294013685
-1.3638807918367752
-1.040139767343619
0.043223041428240926
0.4543820404427407
0.7535381482681339
0.607912431456617
0.3030749690030081
-0.12397152419596995
-0.11833980571825431
-0.2093804985748113
-0.1917577967564302
-0.09805338709649446
0.02688371461415747
-0.05602254855147135
0.02875310923892961
0.07236996737419833
0.07782062907442026
0.054581353342085255
0.014335009155420101
-0.031002345747727995
-0.06933822912096639
-0.08813217092269579
-0.07568084520649941
-0.025083998012385412
0.059583440037339334
0.15723819131317696
0.22756367989245074
0.2161720411530884
0.06863892544391553
-0.24908370900471244
-0.5310462711937111
-0.522725416353259
-0.33266203229441776
0.133035177570631
0.5211343237023537
0.9847092832212739
0.9623680791986993
0.6015484787909241
-0.3703153985146388
-1.5434343717508254
-1.5270876527063173
-1.0960895414096388
-0.21175144557354633
0.8805719275529881
2.507025278333362
1.4251154960994519
0.33917923331935906
-0.9005448111331192
-1.4231716168614437
-1.6248463318551554
-0.2665038123390696
0.7842595743089592
0.9602371229532173
0.7683454258395546
0.15764490216493868
-0.4979835043628597
-0.7985226919330632
-0.30803725645496305
0.0491423447490738
0.3778765860085323
0.3894467404630514
0.1763383954131967
-0.004830428876682622
-0.1366473054241663
-0.23174651035552674
-0.1172039338822324
-0.01958187662162581
0.04448847541412181
0.07088851962661867
0.06545170528981946
0.03925717662900085
0.004417717378685638
-0.02830315804419271
-0.05014724371634435
-0.054353827819283364
-0.03673628739442852
0.002487741334762697
0.056010367249333164
0.10737795738540652
0.1316168759233655
0.10016112710550912
-0.009916846310566876
-0.20488840840339628
-0.2665899891319165
-0.35403480426499584
-0.21901685174766825
-0.03564280623611805
0.36314967981881674
0.6558771978111049
1.0270941825070543
0.8011972511971375
0.11966320643393324
-1.1518180857097664
-2.1191311504573824
-1.6025287988564259
-0.7643309598529289
0.3668975139322148
2.5023473437107984
2.889461093575082
0.9712895493061596
-0.03739644059506029
-1.0464530729861703
-2.296536900129039
-1.7435931233498232
-0.29212528299264295
0.2773828964359234
0.8803389720426191
1.0274111585920669
0.6972031928942825
0.2257207175801215
-0.16021222778689068
-0.35937559821838594
-0.37332448891552567
-0.26374652825538336
-0.10910134726812808
0.026615550087723087
0.10830924296044434
0.12956129499230246
0.10363977704514889
0.05218506433576894
-0.0037391387111795015
-0.04826435727323367
-0.0715256316594222
-0.06864253733741575
-0.039031556972124834
0.012710220794903993
0.07460747569076412
0.12544967358304626
0.13555400321753996
0.0718053479560741
-0.09329788158683709
-0.17154873601613194
-0.3531236031900838
-0.41052884327901445
-0.1155197222837764
0.3335893756382212
0.6841460419976002
1.0163788496862363
0.7605467682635382
-0.45033998547498033
-1.3031092820474908
-1.5300395245961758
-0.8722946666378691
-0.10634542656790187
1.2658099264154452
1.6898363974900983
1.2404941360169643
-0.046103911827001444
-0.7683036905880273
-1.0913295577309574
-0.6474233547327636
-0.040376776827437434
0.21957620486097104
0.34247598577733324
0.253863255496459
-0.02813290139719391
-0.22189835417085294
-0.010714823567573509
0.13222414159535242
0.12331296377080543
0.05406046551062276
-0.015806877691184607
-0.057444694520189195
-0.06595997180668586
-0.05058432005482378
-0.02520093274678508
-0.0015324092996637589
0.01410183687370443
0.020821432455701432
0.021174810081652576
0.01848694375162353
0.01476456190252706
0.009888337546554079
0.002258112109436304
-0.009475272228334877
-0.024375247096102864
-0.03789606462189268
-0.04225195521396422
-0.02909792705512347
0.005555942080151092
0.05518622164957455
0.09718449452520483
0.09006881040487306
-0.024791947299926686
-0.11653182555688686
-0.054442664642004125
0.10381283249938997
0.12324971075053752
0.00035512774479325724
-0.4317163236106446
-0.3033882497602383
-0.11586157112421877
0.6461607846847583
2.1024882415962667
-1.4253884604557512
-0.8052456876112795
-0.6825764675731639
-0.6844644520045395
-1.0523446978694735
2.89967831096522
1.5239613434169588
0.409233765957857
-0.5939200842409806
-1.4932013771950028
-1.249694314560506
-0.4897419123878416
0.33402429601690964
0.7239181548825498
0.6762799740472472
0.4071095463712163
0.09155844147367355
-0.16708972733070013
-0.3377015628583538
-0.24031329182675434
-0.11751300631871257
-0.009870310819215364
0.05827700382038182
0.08203192893434229
0.07129402584035796
0.042741871269979255
0.012310769532108709
-0.009559106798129631
-0.019326157371846064
-0.019064858427134644
-0.013746571788982283
-0.008349672121996278
-0.005735154664639742
-0.005776864246910624
-0.00582363272224739
-0.002249611584410173
0.007389793240307092
0.022252409938121047
0.036894268383232676
0.04140139068367467
0.02327568219000408
-0.029268538485579126
-0.12376371106060469
-0.061500864939436614
-0.038832802520746425
-0.05247816819311905
0.09222080613126736
0.17294293235270883
0.1458676330716208
0.14858252357132676
0.11191476835643512
-0.4213251069120396
-0.4763785908596131
-0.2328495461995915
0.17731449227208523
0.46086647718727813
2.1508221479648566
-1.6000675140374243
-1.0173726294112584
-0.704212248767616
-0.258129914499576
-0.7150198920214411
2.9886456699747717
1.3617537272129583
-0.05564590861990946
-0.8486614557403358
-1.4355442609748552
-1.1617688952853613
-0.22120196940232958
0.5689721953952924
0.7379510278436207
0.4957120474837944
0.26098287853775615
0.006701898146478388
-0.16572666615973347
-0.2247847191723411
-0.18924684575093573
-0.10235547655033737
-0.009251455674037271
0.05729112333885659
0.08220076445043165
0.06681744440936073
0.024217708409539608
-0.026287681962906213
-0.0643980878099097
-0.07405792627050578
-0.04946131174751913
-0.0021116161778451186
0.03204620010027027
0.18784992654236096
0.17181814846092072
0.07167035784463562
-0.024565453521354502
-0.002102912081153327
-0.2911292684840228
-0.24424907376548438
-0.1269568066967355
0.07428184454031649
0.026363068757972695
0.2110598187769154
-0.11849664792524499
0.2219653471431254
0.11795768370198069
-0.05851129154587192
-0.046163311532311936
0.5256892888943332
-0.027824162702461915
-0.4021029257099285
-0.2558794349061195
-0.17201359532134183
-0.23575561664398484
-0.03542437870770213
0.31616667535467824
0.34724686343969524
0.190617276765524
-0.044540566415659545
-0.08679221119334261
-0.10264193257962795
-0.08730046157144307
-0.05194301102781016
-0.012283820121627731
0.018923085437979624
0.03502378975355622
0.03530015554718297
0.02314956789432212
0.004068199556435026
-0.015761935419073086
-0.030235412288772377
-0.03391377231065537
-0.023027286263847153
0.002868087740057016
0.0389740994712855
0.07412492324357922
0.0918200671111997
0.07443811201495676
0.010502297733742507
-0.0969256725405958
-0.22452703914587574
-0.330540728469679
-0.16817197461272354
-0.11135233842551666
0.21186487523762426
0.48902940903607406
0.9109710085974053
0.5916299221932892
0.026954059376420293
-0.6137005615527285
-0.5856851919735064
-1.0894237776302338
-1.4462249298305871
-0.3512672080907102
0.39599183297026563
1.1100656106936937
1.8349637847392781
2.214457503544998
0.2633970418903915
-0.7438559271714247
-1.6917182906152868
-2.0057816104248087
-1.4686939561451537
0.2762355548669039
1.1146620668031704
1.1642774232572397
0.8378026889857223
0.31626323057863537
-0.13270492784208968
-0.3806484653370147
-0.4179830550397098
-0.30843506664125175
-0.1399311701940867
0.012645622072127901
0.10634743288728045
0.1320282500140801
0.10512259840885739
0.05236180516650037
-5.020827143111799e-05
-0.03394333497672058
-0.04203442785817054
-0.027381238669761034
-0.0011554059009657252
0.019926092223580077
0.015881055642877725
-0.03460684110436402
0.0475485368117483
0.04346560769735564
-0.06229448076091971
-0.08093370261160882
-0.019886635196053114
-0.08506233237726288
0.1154413929861804
0.16769291190043023
0.05081334838272509
-0.059356269981591527
0.21887539658103244
-0.11395964964283457
-0.22537187855300767
-0.24280116865852933
-0.2556362330317279
-0.13020917756394315
0.26411091171941126
0.6253579545298166
0.3976732990838398
0.36954512707103354
1.296359152910794
-3.0594613058732754
-1.4898680541221556
0.671323602196209
1.1201261884748712
-0.6786653130719232
3.04387125852757
0.7269341350526808
-1.3014110849541696
-1.5561414373777305
-0.9056286065128107
-0.29930253971388365
0.45892723864075874
0.6869622431184793
0.5678464844008146
0.2868041974450962
-0.015438272645831289
-0.2624002897196149
-0.236572725411721
-0.1590076565618825
-0.06541923252923425
0.012561193143004681
0.05722739560641773
0.06625695240803049
0.04870738032034761
0.018958171987246163
-0.008810978375113398
-0.024341655994164872
-0.02311586317252573
-0.006793571895315978
0.01716726761986838
0.036457454003151014
0.0355021947984239
-0.0022123944571735706
-0.0913299416486792
-0.042119716209182555
-0.05929600965199869
0.05728366511573587
0.11056253543597169
0.10445155847143915
0.04403205677308018
-0.06141004644113932
-0.1936176089952126
-0.12166017603004507
-0.0024150984727812365
0.013167687362707617
0.1690775777761567
0.09194553533139198
-0.018322187697378922
0.00830901102462439
0.11635522116722746
0.035922411422349
-0.10174151792352128
-0.14781179835533167
-0.12298183301018496
-0.21227449979096918
0.030131364177102
0.2670426396912287
0.15983318247635359
0.15193209617401918
0.05991636462281551
-0.12543194428325646
-0.2299819466664997
-0.08400874172791724
-0.11246484142193026
0.06856244643380334
0.04893293172320378
0.21795646686553818
0.15879463720949688
0.04769922812940569
-0.140472267025839
-0.22247915174057575
-0.19739213646930887
-0.04287630900083791
0.08020287895916026
0.2160927460233749
0.2000931077096132
0.04796922363943438
-0.047030499706812216
-0.10898313726676227
-0.16885318769247215
-0.05348922134869095
0.02181385792713795
0.05527049110415395
0.05571352600818515
0.03714775263621562
0.013306034348331807
-0.006028076115149791
-0.016334737006949908
-0.01768378674022251
-0.012954452124908622
-0.005873809674008001
0.000468700006298142
0.004353484459751861
0.005463566158663328
0.004467031323652426
0.002445704407764385
0.0004049498782705539
-0.00101233482018686
-0.0015934203907930454
-0.0014642878292087835
-0.0009260468606768404
-0.00029676989800772537
0.00019390184952753023
0.00044388267219299716
0.00046362806775535146
0.00033154323184229613
0.0001445801813522747
-1.8804912649940262e-05
-0.00011632287458471291
-0.00014175521123987976
-0.00011364559462204096
-6.0423164980362685e-05
-7.906992318982239e-06
2.7786414859009136e-05
4.1705281995452266e-05
3.750628674843725e-05
2.3152763600639677e-05
6.8498653103159585e-06
-5.602823243219538e-06
-1.1736271688868008e-05
-1.1958727482995942e-05
-8.371701781096646e-06
-3.4927950688267276e-06
6.821679051775053e-07
3.10985889973543e-06
3.674967403596988e-06
2.885332528856633e-06
1.4847272774722782e-06
1.3428191869946957e-07
-7.633217715570309e-07
-1.0944989342004135e-06
-9.640064021435229e-07
-5.820886653918172e-07
-1.6017692989923291e-07
1.5547639480239654e-07
3.054656320334429e-07
3.03861266571829e-07
2.068382775705522e-07
7.969664473846202e-08
-2.6852051966683165e-08
-8.714094158800756e-08
-9.935546055774595e-08
-7.734182750729665e-08
-4.05403189750645e-08
-5.869758045760701e-09
1.6624121165566012e-08
2.4382525063515846e-08
2.0390351981138167e-08
1.0218442793322553e-08
-6.57936449983997e-10
-8.53442144081885e-09
-1.1997175883884649e-08
-1.1548733546922987e-08
-8.778629690263897e-09
-5.492145834821847e-09
-3.068223597615551e-09
-2.1489013301750234e-09
-2.632057221812889e-09
-3.873086983531359e-09
-4.9919223931391185e-09
-5.202855668238476e-09
-4.107330097497392e-09
-1.8972611776154083e-09
5.901233947438995e-10
2.0278535948330673e-09
1.0018408051339885e-09
-3.3736662151050587e-09
-1.0774511695660249e-08
-1.9185963989039383e-08
-2.4957064714971002e-08
-2.3667460262299714e-08
-1.1855062127990148e-08
1.0738039836545573e-08
3.919778010173512e-08
6.287270319179391e-08
6.73005209861017e-08
3.912397723730071e-08
-2.6689119451070455e-08
-1.1953950266830472e-07
-2.093519235945809e-07
-2.5009525548401066e-07
-1.932069394748417e-07
-1.0055315562352527e-08
2.8238327834570337e-07
6.034200551441082e-07
8.114390976620292e-07
7.383247160565741e-07
2.5693054014506515e-07
-6.324809772696339e-07
-1.7284163649838691e-06
-2.6106504860820284e-06
-2.7203627742538635e-06
-1.5550892139146182e-06
1.0509432074476428e-06
4.649694885134323e-06
8.0438402747528e-06
9.441923678828961e-06
6.9963706543029906e-06
-3.1856571734790137e-07
-1.1724283412696335e-05
-2.397424181495375e-05
-3.152145296333809e-05
-2.79169002111108e-05
-8.464194115884051e-06
2.6448624846881188e-05
6.8589050863154e-05
0.00010138387916279576
0.0001032452667919795
5.5298488411492875e-05
-4.774209219199243e-05
-0.00018708120479611555
-0.0003151279529742195
-0.0003622334334738963
-0.00025820437612279664
3.3439392924678386e-05
0.0004779611437003542
0.0009452753300230257
0.0012188728884452765
0.0010526357444652756
0.0002753849827486632
-0.0010806325544798813
-0.002676827304242405
-0.003856845222335097
-0.003786391136391005
-0.0017655371501696156
0.0023353480929223782
0.007649637648229594
0.012097200820329763
0.012576087241427508
0.005664169013680217
-0.011272740153647546
-0.03892522754034618
-0.07537039410606053
0.08367056575457404
0.04365189888640075
0.009676431391196475
-0.014584695286201179
-0.027109523182510434
-0.027109523182858107
-0.014584695287081586
0.009676431390228559
0.04365189888594514
0.08367056575517896
-0.07537039410415257
-0.038925227537434944
-0.011272740150690843
0.0056641690151856584
0.012576087239876924
0.012097200814728188
0.00764963763901867
0.0023353480825799235
-0.0017655371571797082
-0.0037863911346696743
-0.0038568452076642563
-0.0026768272763443538
-0.0010806325194360803
0.00027538501180742955
0.0010526357497401186
0.001218872853531229
0.000945275248801552
0.0004779610293236703
3.3439282518156e-05
-0.0002582044258426145
-0.0003622333627789846
-0.000315127726811763
-0.00018708084438475431
-4.774169722581911e-05
5.5298743345131696e-05
0.0001032451747824323
0.00010138328418383539
6.858795419858629e-05
2.644727575962905e-05
-8.4652773047623e-06
-2.791702942222548e-05
-3.152001098664352e-05
-2.397102773257178e-05
-1.1719853442195072e-05
-3.1439887451649306e-07
6.998065385511574e-06
9.438871790238505e-06
8.034784364152172e-06
4.635605424463209e-06
