0
2.2872037050052007e-18
2.2872037050052007e-18
2.2872037050052007e-18
2.2872037050052007e-18
2.2872037050052007e-18
2.2872037050052007e-18
2.2872037050052007e-18
2.2872037050052007e-18
2.2872037050052007e-18
2.2872037050052007e-18
2.2872037050052007e-18
2.2872037050052007e-18
2.2872037050052007e-18
2.2872037050052007e-18
2.2872037050052007e-18
2.2872037050052007e-18
2.2872037050052007e-18
2.2872037050052007e-18
2.2872037050052007e-18
2.2872037050052007e-18
2.2872037050052007e-18
2.2872037050052007e-18
2.2872037050052007e-18
2.2872037050052007e-18
2.2872037050052007e-18
2.2872037050052007e-18
2.2872037050052007e-18
2.2872037050052007e-18
2.2872037050052007e-18
2.2872037050052007e-18
2.2872037050052007e-18
2.2872037050052007e-18
2.2872037050052007e-18
2.2872037050052007e-18
2.2872037050052007e-18
2.2872037050052007e-18
2.2872037050052007e-18
2.2872037050052007e-18
2.2872037050052007e-18
2.2872037050052007e-18
2.2872037050052007e-18
2.2872037050052007e-18
2.2872037050052007e-18
2.2872037050052007e-18
2.2872037050052007e-18
2.2872037050052007e-18
2.2872037050052007e-18
2.2872037050052007e-18
2.2872037050052007e-18
2.2872037050052007e-18
2.2872037050052007e-18
2.2872037050052007e-18
2.2872037050052007e-18
2.2872037050052007e-18
2.2872037050052007e-18
2.2872037050052007e-18
2.2872037050052007e-18
2.2872037050052007e-18
2.2872037050052007e-18
2.2872037050052007e-18
2.2872037050052007e-18
2.2872037050052007e-18
2.2872037050052007e-18
2.2872037050052007e-18
2.2872037050052007e-18
2.2872037050052007e-18
2.2872037050052007e-18
2.2872037050052007e-18
2.2872037050052007e-18
2.2872037050052007e-18
2.2872037050052007e-18
2.2872037050052007e-18
2.2872037050052007e-18
2.2872037050052007e-18
2.2872037050052007e-18
2.2872037050052007e-18
2.2872037050052007e-18
2.2872037050052007e-18
2.2872037050052007e-18
2.2872037050052007e-18
2.2872037050052007e-18
2.2872037050052007e-18
2.2872037050052007e-18
2.2872037050052007e-18
2.2872037050052007e-18
2.2872037050052007e-18
2.2872037050052007e-18
2.2872037050052007e-18
2.2872037050052007e-18
2.2872037050052007e-18
2.2872037050052007e-18
2.2872037050052007e-18
2.2872037050052007e-18
2.2872037050052007e-18
2.2872037050052007e-18
2.2872037050052007e-18
2.2872037050052007e-18
2.2872037050052007e-18
2.2872037050052007e-18
2.2872037050052007e-18
2.2872037050052007e-18
2.2872037050052007e-18
2.2872037050052007e-18
2.2872037050052007e-18
2.2872037050052007e-18
2.2872037050052007e-18
2.2872037050052007e-18
2.2872037050052007e-18
2.2872037050052007e-18
2.2872037050052007e-18
2.2872037050052007e-18
2.2872037050052007e-18
2.2872037050052007e-18
2.2872037050052007e-18
2.2872037050052007e-18
2.2872037050052007e-18
2.2872037050052007e-18
2.2872037050052007e-18
2.2872037050052007e-18
2.2872037050052007e-18
2.2872037050052007e-18
2.2872037050052007e-18
2.2872037050052007e-18
2.2872037050052007e-18
2.2872037050052007e-18
2.2872037050052007e-18
2.2872037050052007e-18
2.2872037050052007e-18
2.2872037050052007e-18
2.2872037050052007e-18
2.2872037050052007e-18
2.2872037050052007e-18
2.2872037050052007e-18
2.2872037050052007e-18
2.2872037050052007e-18
2.2872037050052007e-18
2.2872037050052007e-18
2.2872037050052007e-18
2.2872037050052007e-18
2.2872037050052007e-18
2.2872037050052007e-18
2.2872037050052007e-18
2.2872037050052007e-18
2.2872037050052007e-18
2.2872037050052007e-18
2.2872037050052007e-18
2.2872037050052007e-18
2.2872037050052007e-18
2.2872037050052007e-18
2.2872037050052007e-18
2.2872037050052007e-18
2.2872037050052007e-18
2.2872037050052007e-18
2.2872037050052007e-18
2.2872037050052007e-18
2.2872037050052007e-18
2.2872037050052007e-18
2.2872037050052007e-18
2.2872037050052007e-18
2.2872037050052007e-18
2.2872037050052007e-18
2.2872037050052007e-18
2.2872037050052007e-18
2.2872037050052007e-18
2.2872037050052007e-18
2.2872037050052007e-18
2.2872037050052007e-18
2.2872037050052007e-18
2.2872037050052007e-18
2.2872037050052007e-18
2.2872037050052007e-18
2.2872037050052007e-18
2.2872037050052007e-18
2.2872037050052007e-18
2.2872037050052007e-18
2.2872037050052007e-18
2.2872037050052007e-18
2.2872037050052007e-18
2.2872037050052007e-18
2.2872037050052007e-18
2.2872037050052007e-18
2.2872037050052007e-18
2.2872037050052007e-18
2.2872037050052007e-18
2.2872037050052007e-18
2.2872037050052007e-18
2.2872037050052007e-18
2.2872037050052007e-18
2.2872037050052007e-18
2.2872037050052007e-18
2.2872037050052007e-18
2.2872037050052007e-18
2.2872037050052007e-18
2.2872037050052007e-18
2.2872037050052007e-18
2.2872037050052007e-18
2.2872037050052007e-18
2.2872037050052007e-18
2.2872037050052007e-18
2.2872037050052007e-18
2.2872037050052007e-18
2.2872037050052007e-18
2.2872037050052007e-18
2.2872037050052007e-18
2.2872037050052007e-18
2.287203705005201e-18
2.287203705005201e-18
2.287203705005201e-18
2.287203705005201e-18
2.2872037050052007e-18
2.2872037050052003e-18
2.2872037050051995e-18
2.2872037050051995e-18
2.2872037050051995e-18
2.2872037050052003e-18
2.287203705005202e-18
2.2872037050052037e-18
2.287203705005205e-18
2.287203705005205e-18
2.2872037050052026e-18
2.287203705005198e-18
2.287203705005192e-18
2.2872037050051868e-18
2.2872037050051856e-18
2.2872037050051906e-18
2.287203705005204e-18
2.2872037050052234e-18
2.2872037050052426e-18
2.2872037050052523e-18
2.2872037050052423e-18
2.287203705005206e-18
2.2872037050051463e-18
2.287203705005078e-18
2.287203705005031e-18
2.28720370500504e-18
2.2872037050051336e-18
2.2872037050053143e-18
2.2872037050055442e-18
2.287203705005738e-18
2.2872037050057792e-18
2.2872037050055597e-18
2.2872037050050354e-18
2.2872037050042885e-18
2.287203705003558e-18
2.2872037050032123e-18
2.2872037050036464e-18
2.2872037050050982e-18
2.2872037050074432e-18
2.2872037050100444e-18
2.287203705011768e-18
2.2872037050112554e-18
2.2872037050074617e-18
2.2872037050003516e-18
2.2872037049915042e-18
2.2872037049842716e-18
2.287203704983155e-18
2.287203704992255e-18
2.2872037050130165e-18
2.287203705041977e-18
2.287203705069623e-18
2.2872037050815673e-18
2.287203705062809e-18
2.287203705004773e-18
2.2872037049132614e-18
2.2872037048139435e-18
2.287203704751233e-18
2.2872037047772834e-18
2.287203704930776e-18
2.2872037052100387e-18
2.287203705550446e-18
2.2872037058197292e-18
2.2872037058438977e-18
2.2872037054687693e-18
2.287203704647449e-18
2.2872037035257163e-18
2.2872037024820117e-18
2.2872037020759833e-18
2.2872037028778554e-18
2.2872037051935543e-18
2.287203708760532e-18
2.2872037125471978e-18
2.2872037148149264e-18
2.2872037135645006e-18
2.287203707370108e-18
2.2872036964148278e-18
2.2872036833342583e-18
2.287203673341161e-18
2.287203673152384e-18
2.287203688551691e-18
2.2872037209978267e-18
2.2872037643952437e-18
2.2872038037133566e-18
2.2872038172077187e-18
2.287203783239154e-18
2.2872036909990442e-18
2.2872035521224084e-18
2.287203407980932e-18
2.2872033265543198e-18
2.2872033843727612e-18
2.2872036337644053e-18
2.2872040630194692e-18
2.2872045649914337e-18
2.287204934506388e-18
2.287204912578384e-18
2.2872042828083217e-18
2.287203002748147e-18
2.287201325786616e-18
2.2871998479874916e-18
2.287199413237506e-18
2.287200841207531e-18
2.287204509347996e-18
2.2872099101958975e-18
2.2872153878307518e-18
2.287218287342474e-18
2.287215683375566e-18
2.2872056648234316e-18
2.287188865358497e-18
2.287169628215358e-18
2.2871560189094246e-18
2.287158010929136e-18
2.287183678063358e-18
2.287234112844617e-18
2.2872988359913306e-18
2.2873542441517187e-18
2.287367624454326e-18
2.2873079885676214e-18
2.2871623452984715e-18
2.2869525489889724e-18
2.2867447547217613e-18
2.2866425293965013e-18
2.2867575270273137e-18
2.2871591575945722e-18
2.2878158607782226e-18
2.2885520531743975e-18
2.2890510635775444e-18
2.288929302665449e-18
2.2878864615520204e-18
2.2859018480986274e-18
2.283406882609086e-18
2.2813349060116106e-18
2.280952542500589e-18
2.2834289316803417e-18
2.289202971899741e-18
2.2973431683821725e-18
2.305211272408247e-18
2.308771806116669e-18
2.3037698254173306e-18
2.2877004500143903e-18
2.2620591059436356e-18
2.2339264537899544e-18
2.215720751637436e-18
2.2221760151819638e-18
2.264424960194588e-18
2.3424222885005636e-18
2.4384789459999727e-18
2.5157386323892014e-18
2.5252160027993123e-18
2.4228974769658552e-18
2.194317710668213e-18
1.878839096543068e-18
1.5814965369401616e-18
1.4593526644961452e-18
1.674292983516491e-18
2.3160450480785055e-18
3.3160763555163626e-18
4.389509387139746e-18
5.0499411574333865e-18
4.732179960611815e-18
3.0250508654555547e-18
-3.657357561801052e-20
-3.7300593796511465e-18
-6.601940453559264e-18
-6.760015917451915e-18
-2.5512063731125764e-18
6.4849845212366745e-18
1.8697316779574812e-17
2.991085842914677e-17
3.401964003518603e-17
2.4874955203288903e-17
-7.092492158606683e-19
-3.966661152611904e-17
-8.056041948718823e-17
-1.0436142241636833e-16
-8.941885269999424e-17
-2.060871422253831e-17
9.94244925747137e-17
2.412576432120123e-16
3.4764610488358247e-16
3.45586482894608e-16
1.7314716789436555e-16
-1.835842159471067e-16
-6.557726837165066e-16
-1.0777299085860472e-15
-1.2123518074641736e-15
-8.265158933332179e-16
1.917206162512547e-16
1.7076168722024473e-15
3.2629683469282527e-15
4.114170142542796e-15
3.433023995969978e-15
6.657890663883151e-16
-4.034620757675526e-15
-9.473831338847915e-15
-1.3400122114119452e-14
-1.3000398933467797e-14
-5.960700177378119e-15
8.1037282332939e-15
2.633904706960449e-14
4.217946853290868e-14
4.642846773232347e-14
3.0264038637313576e-14
-1.0196276077708826e-14
-6.911497119555887e-14
-1.281696418000142e-13
-1.5833598002807502e-13
-1.2797977380783962e-13
-1.6931961466999532e-14
1.6691695355438e-13
3.752188472180685e-13
5.195119662913925e-13
4.915333202782698e-13
2.0507943060651225e-13
-3.4870697873776257e-13
-1.0520778187125655e-12
-1.6452223899720546e-12
-1.77184935124012e-12
-1.0987733170133588e-12
5.064738185531002e-13
2.793857622425235e-12
5.032046379509781e-12
6.089465007217021e-12
4.7596424971880435e-12
3.1231119167612365e-13
-6.870300644088821e-12
-1.483611085422152e-11
-2.0114013672428153e-11
-1.8542816359757458e-11
-6.921403963893844e-12
1.4856433211667706e-11
4.1953278570796634e-11
6.41026235291513e-11
6.751717927396727e-11
3.963993733292545e-11
-2.395341191543706e-11
-1.126536272696846e-10
-1.9732040783066685e-10
-2.338872700069047e-10
-1.7641470534298885e-10
1.3571430235730817e-12
2.816444581988686e-10
5.85819629534857e-10
7.778447674439283e-10
6.979909823037122e-10
2.278047402907423e-10
-6.275585518084779e-10
-1.6701287658817068e-09
-2.4947687470391025e-09
-2.568587221824624e-09
-1.4194050086485631e-09
1.0963071817948287e-09
4.53193627819163e-09
7.728289100304805e-09
8.971260583657583e-09
6.51448835298462e-09
-5.787307917579776e-10
-1.1503864959426809e-08
-2.310096852464024e-08
-3.0044806550028315e-08
-2.621242787587009e-08
-7.23764930478671e-09
2.6317526111142094e-08
6.63794025051516e-08
9.69814382836926e-08
9.755160038345591e-08
5.0377472077268986e-08
-4.900493100939838e-08
-1.8192142619295063e-07
-3.023325365015136e-07
-3.436389301800534e-07
-2.395692243635547e-07
4.296990180836169e-08
4.683271318327874e-07
9.097746204827211e-07
1.1590981757008758e-06
9.81911855788289e-07
2.1797679494491985e-07
-1.096792863081998e-06
-2.6341758294198666e-06
-3.7657330484204615e-06
-3.698258355674855e-06
-1.7690491507207106e-06
2.151753281541582e-06
7.287888022311924e-06
1.1813590535451824e-05
1.3144199059448027e-05
8.769436642922074e-06
-2.4663022895431583e-06
-1.900815477713628e-05
-3.5783815679204565e-05
-4.466163530141511e-05
-3.668232007481069e-05
-5.993875002405979e-06
4.54607964704712e-05
0.00010437688339033086
0.00014604953129997768
0.0001399316036854493
6.129638021757328e-05
-9.319887186794844e-05
-0.0002914540713947725
-0.0004611734674806478
-0.000502161020361515
-0.0003194967395377949
0.0001266422815993268
0.0007694192319050208
0.0014064528143158414
0.0017210379256201475
0.0013721365008159366
0.00014874671795918305
-0.0018500477695811348
-0.004083276101763052
-0.005577879131168855
-0.0051585236204256535
-0.0019142798513442753
0.00418539987930299
0.011732917766818418
0.01767508396835583
0.01773461487873455
0.007578452881906689
-0.015458136016104877
-0.05065814129039653
-0.09304547405775257
0.0659359548924082
0.036073450021028935
0.025134571423915654
0.036073450021029116
0.06593595489240857
-0.09304547405775218
-0.05065814129039629
-0.015458136016104808
0.007578452881906574
0.01773461487873434
0.01767508396835563
0.011732917766818297
0.004185399879302966
-0.0019142798513442259
-0.005158523620425566
-0.005577879131168767
-0.00408327610176299
-0.0018500477695811044
0.00014874671795918868
0.0013721365008159238
0.0017210379256201273
0.001406452814315822
0.0007694192319050087
0.00012664228159932312
-0.00031949673953779196
-0.0005021610203615088
-0.0004611734674806417
-0.0002914540713947686
-9.319887186794736e-05
6.12963802175719e-05
0.00013993160368544656
0.00014604953129997478
0.00010437688339032867
4.5460796470470145e-05
-5.993875002405897e-06
-3.668232007480989e-05
-4.466163530141412e-05
-3.5783815679203806e-05
-1.9008154777135947e-05
-2.4663022895432058e-06
8.769436642921822e-06
1.314419905944773e-05
1.1813590535451594e-05
7.287888022311802e-06
2.1517532815415634e-06
-1.769049150720659e-06
-3.6982583556747736e-06
-3.765733048420387e-06
-2.6341758294198175e-06
-1.0967928630819785e-06
2.1797679494491477e-07
9.819118557882717e-07
1.159098175700857e-06
9.09774620482708e-07
4.6832713183278255e-07
4.2969901808364337e-08
-2.3956922436354777e-07
-3.436389301800454e-07
-3.023325365015072e-07
-1.8192142619294692e-07
-4.900493100939764e-08
5.0377472077267424e-08
9.75516003834532e-08
9.698143828368974e-08
6.637940250514919e-08
2.6317526111140294e-08
-7.237649304787689e-09
-2.6212427875869936e-08
-3.004480655002671e-08
-2.3100968524637056e-08
-1.1503864959422455e-08
-5.787307917536167e-10
6.5144883529870474e-09
8.971260583655864e-09
7.728289100297392e-09
4.531936278178815e-09
1.096307181779716e-09
-1.4194050086599265e-09
-2.568587221824502e-09
-2.494768747020898e-09
-1.6701287658438786e-09
-6.275585517582507e-10
2.2780474033583936e-10
6.979909823184967e-10
7.778447674035282e-10
5.858196294271508e-10
2.8164445803786264e-10
1.3571428576705327e-12
-1.7641470543487564e-10
-2.338872699365338e-10
-1.973204075385388e-10
-1.1265362677104916e-10
-2.395341133616483e-11
3.963993775416465e-11
6.7517179237853e-11
6.41026227880195e-11
4.195327708067628e-11
1.4856431272180684e-11
-6.921405657759729e-12
-1.8542816830668295e-11
-2.0114011978469653e-11
-1.4836106573650425e-11
-6.870294385099314e-12
3.1231749287402214e-13
4.7596457597468765e-12
6.089461859567326e-12
5.03203465218774e-12
2.7938381149639076e-12
5.064516287556203e-13
-1.098788810516121e-12
-1.7718466262269266e-12
-1.6451922147884095e-12
-1.05201913131647e-12
-3.486321519899463e-13
2.0514288848288098e-13
4.915475372244731e-13
5.194413549717097e-13
3.7504896924006267e-13
1.6667391047752434e-13
-1.7170860817226874e-14
-1.2809439027247194e-13
-1.5819769085775024e-13
-1.276998041823528e-13
-6.835268878997138e-14
-9.347471711679204e-15
3.083127852472968e-14
4.6271168098787706e-14
4.0954604347670006e-14
2.4030606468048692e-14
5.2204120369117314e-15
-8.331616113643067e-15
-1.3393070459171355e-14
-1.0472799078310908e-14
-2.7421248464620586e-15
5.39214199085064e-15
9.70621948666731e-15
7.407591767516259e-15
-1.8762488293325123e-15
-1.5524235443004674e-14
-2.8045341304967625e-14
-3.222904843341743e-14
-2.148602222520151e-14
6.897392244115152e-15
4.8503197518121394e-14
9.003310168919701e-14
1.1078041158745217e-13
8.849546697754724e-14
9.357429503137344e-15
-1.2042644928337474e-13
-2.661308529477988e-13
-3.6510720687801547e-13
-3.4144780780471804e-13
-1.3567323719882534e-13
2.5645128880898905e-13
7.497890979996181e-13
1.1599291249201823e-12
1.2364474213909379e-12
7.47998851047821e-13
-3.926070867841925e-13
-2.001773837074301e-12
-3.5584297104656337e-12
-4.264942301353524e-12
-3.2796809100845172e-12
-1.0624713507713234e-13
4.9615099920542686e-12
1.0525626049858088e-11
1.4132101947178938e-11
1.2867324623913667e-11
4.527174501234467e-12
-1.0884932502114031e-11
-2.987840703045025e-11
-4.517164998778593e-11
-4.70801395314171e-11
-2.6894411278856983e-11
1.8261803475555886e-11
8.062833207263484e-11
1.394591967730077e-10
1.6370925198361301e-10
1.2135584904601772e-10
-5.387184280274268e-12
-2.030408975735323e-10
-4.1535664722997853e-10
-5.462116112398288e-10
-4.83835681945621e-10
-1.4681166958461854e-10
4.5818302873353697e-10
1.1885343449418158e-09
1.7570725292768095e-09
1.789690108035764e-09
9.592476057339908e-10
-8.259443980853698e-10
-3.2402765194992324e-09
-5.459093727479467e-09
-6.275439010789782e-09
-4.47296416351979e-09
5.800822969317777e-10
8.280198274762642e-09
1.6369065610028705e-08
2.1085984438129482e-08
1.8149186625121134e-08
4.5635260024969926e-09
-1.9156663021344885e-08
-4.720402765273939e-08
-6.826793548729475e-08
-6.791428897453348e-08
-3.388595926569545e-08
3.6593094225366356e-08
1.2994662226262603e-07
2.134453362764574e-07
2.402194885135794e-07
1.6414958849033569e-07
-3.6969587828744987e-08
-3.3660527210279374e-07
-6.442735004664982e-07
-8.130120259389198e-07
-6.790242818092241e-07
-1.3263019390911872e-07
7.962705632615546e-07
1.8719172651472553e-06
2.6493872409003374e-06
2.5724579043282987e-06
1.1831215951175835e-06
-1.5956927989427027e-06
-5.201030386253838e-06
-8.335853883811444e-06
-9.18216331377512e-06
-5.994556952850157e-06
1.9974644155226453e-06
1.364391803188835e-05
2.5326365307504344e-05
3.130837791323297e-05
2.533320999218694e-05
3.4052308182970343e-06
-3.2928533475796775e-05
-7.412367774467598e-05
-0.00010270016606226999
-9.725077037568245e-05
-4.071157290247062e-05
6.870744840254101e-05
0.0002077744858408983
0.00032516093903042656
0.0003504279227359847
0.00021764633615523364
-9.949596396543275e-05
-0.0005517331072001521
-0.0009946307861117291
-0.0012045180499954341
-0.0009426976784300203
-6.429356105603873e-05
0.0013560337236905382
0.0029337258050702686
0.003984459721592149
0.003688223317600836
0.0014159267715650769
-0.0028480902840528114
-0.008140629576580636
-0.012425900303795976
-0.012980921100631305
-0.007356068940574005
0.00521298659138088
0.022346382632896237
0.03765506090084807
0.04115993671127616
0.021419870226216987
-0.030820056832804196
-0.118456051399711
-0.03494660480170029
0.03608557696413954
-0.08216116135403843
0.034492504812932444
0.20431276704780507
0.03408944116215612
-0.08297914987350863
0.03489787724456633
-0.03630279786881839
-0.11956003010337397
-0.031071989484912455
0.022614089499784204
0.044076805760470524
0.041908290407007616
0.026671091851592475
0.007567909532256885
-0.009232035591782112
-0.020570313227193774
-0.02523294542687177
-0.022773136469776047
-0.013012935610731776
0.0034386169371670512
0.02389440681779277
0.04227168755608185
0.048720353169919184
0.030971292013153347
-0.022473116704308464
-0.11812395563777149
-0.05389960117599505
-0.017918319401341285
0.00931188201714882
0.04975161649055033
0.12154165869256428
0.03396991427678573
-0.014353425748439359
-0.033471882530381934
-0.0371285703280115
-0.0368639265603257
-0.03732884853152965
-0.034403123676384144
-0.01672970617270115
0.029822190916041925
0.11625089999124472
0.04517834275879364
0.00827180906917816
-0.01261914317695178
-0.04100803491518065
-0.09964134562638753
-0.0048232955872833565
0.03708195544914898
0.030273777267874006
-0.012374895819479563
-0.07281273014354148
0.06799423383329113
0.02593902566128771
0.010523367430138637
0.02328254697313681
0.05836379446528357
-0.09490075331805366
-0.04828464109648695
-0.011130344450450502
0.011803128061658324
0.020581467956703136
0.018764516732201125
0.011371437207746882
0.003018792165266538
-0.0032265650148426968
-0.0061538620488276255
-0.006062380573635784
-0.004093530383282356
-0.0015570683781826443
0.0005422125843283864
0.0017064788700617481
0.0019137077329627462
0.0014493985680412707
0.0007042359482207153
1.3366943624599266e-05
-0.0004278797329137286
-0.0005736518210863972
-0.0004870284283939832
-0.00028037117133603614
-6.219984009580577e-05
9.523086398085575e-05
0.00016514184471560573
0.00015787842129654444
0.00010405032968342007
3.754485155397335e-05
-1.624352904909631e-05
-4.521250013230514e-05
-4.944391097587946e-05
-3.670341207305423e-05
-1.719693072880368e-05
5.080321469590037e-07
1.1552243198452242e-05
1.4938068814118903e-05
1.2422347516228082e-05
6.956952305719442e-06
1.3294316889926806e-06
-2.6458689220336235e-06
-4.336146596566176e-06
-4.053530309578752e-06
-2.6107144614700327e-06
-8.837019353754849e-07
4.846065457513336e-07
1.1992757783478602e-06
1.2775101137351827e-06
9.286519538374369e-07
4.18338628271062e-07
-3.500500504914806e-08
-3.109376606951634e-07
-3.885727078260713e-07
-3.165285886368291e-07
-1.7224183789555153e-07
-2.7236639930722613e-08
7.300684911417315e-08
1.136694062223123e-07
1.039531797815137e-07
6.539010847534475e-08
2.0599463040375917e-08
-1.416475090321093e-08
-3.174448908907763e-08
-3.296913460326229e-08
-2.346340299205667e-08
-1.0132273712531079e-08
1.4623488558721015e-09
8.342718883801988e-09
1.009472457471452e-08
8.055495396151478e-09
4.2532882188054576e-09
5.212010993076203e-10
-2.0027589229391038e-09
-2.9752553162768553e-09
-2.6628314446877415e-09
-1.63481036001972e-09
-4.745662020300856e-10
4.075470722822091e-10
8.38610856984947e-10
8.498615087321846e-10
5.919718596521142e-10
2.442032236469831e-10
-5.1992264782983384e-11
-2.2319416332183428e-10
-2.619226703217347e-10
-2.0475357311565614e-10
-1.0473308190731873e-10
-8.78773709213186e-12
5.4660942591752566e-11
7.776281314786758e-11
6.813189392103231e-11
4.079273218924727e-11
1.0773788574980467e-11
-1.1580208175822397e-11
-2.2113789675675696e-11
-2.1883387195451764e-11
-1.49137497930509e-11
-5.852816431140583e-12
1.706372107069174e-12
5.95844006749572e-12
6.791864193623181e-12
5.2015075353014835e-12
2.572108746738044e-12
1.0364046941828697e-13
-1.4943749548582148e-12
-2.0431918723114746e-12
-1.7549924325432726e-12
-1.023047849850906e-12
-2.3339724682356816e-13
3.5100412842028725e-13
6.244678939269341e-13
6.112775822227979e-13
4.0930148274182577e-13
1.3413308783361043e-13
-1.1824112420227265e-13
-2.8592916488977255e-13
-3.3895786289723645e-13
-2.7123204274354704e-13
-9.599056801601139e-14
1.5161645270615529e-13
4.0838810744160063e-13
5.824037924098122e-13
5.679329162868417e-13
2.8123023632408247e-13
-2.8770721722850396e-13
-1.0251650980961798e-12
-1.6735403336786792e-12
-1.8703790715524383e-12
-1.2631207642666185e-12
3.126202766281714e-13
2.6425056268821607e-12
5.018099042636523e-12
6.297846945325532e-12
5.217212457828475e-12
9.399530622160684e-13
-6.281198994032145e-12
-1.4596720708498157e-11
-2.0544544924337244e-11
-1.9819909545307844e-11
-8.907490813157882e-12
1.2728016834336668e-11
4.064833405452611e-11
6.474192382774402e-11
7.091409592357357e-11
4.572110891772746e-11
-1.6626703771225177e-11
-1.069690070165225e-10
-1.9703237048633934e-10
-2.422700691511756e-10
-1.9436998076845796e-10
-2.2878125774094086e-11
2.5942762983981905e-10
5.777416318026572e-10
7.960931839981451e-10
7.488533234572995e-10
3.0514524953820534e-10
-5.464859407505376e-10
-1.6231118923691403e-09
-2.524745392875155e-09
-2.7054737658928127e-09
-1.6577950553914984e-09
8.149808662841843e-10
4.321394952084763e-09
7.733377216300884e-09
9.314628634898993e-09
7.223266382633826e-09
3.5825359269743577e-10
-1.0667979385420563e-08
-2.283680249060867e-08
-3.081438969694514e-08
-2.8236515482547673e-08
-1.0246886891465284e-08
2.3234334815959777e-08
6.469878608478888e-08
9.834573347636826e-08
1.030558184006046e-07
5.971197215658963e-08
-3.821714846084818e-08
-1.741532494458538e-07
-3.0316493931326083e-07
-3.5765373202355065e-07
-2.675111450619565e-07
6.7874253310144155e-09
4.3695241818491273e-07
9.014602825173955e-07
1.1913266295136447e-06
1.0623326171438747e-06
3.349293365215072e-07
-9.797407360113387e-07
-2.5746517641818737e-06
-3.8264626737573315e-06
-3.919111959960602e-06
-2.134126919620322e-06
1.7386562391104789e-06
7.002481682729711e-06
1.1870644054752415e-05
1.371436972521543e-05
9.869562915130133e-06
-1.070780298656933e-06
-1.7833519253186083e-05
-3.5537158065603665e-05
-4.600314018670586e-05
-3.987268784220064e-05
-1.0533970843747671e-05
4.1024991624589766e-05
0.00010229194990442045
0.00014870748181534707
0.00014877546878019494
7.555823816778099e-05
-7.74027535048547e-05
-0.0002810177725470648
-0.0004643511828884211
-0.0005252886908679444
-0.00036275616861381523
7.288507245934503e-05
0.00072556356936941
0.0013998587076513517
0.0017765826466016891
0.0014985133425260036
0.00032478670413381915
-0.001682277107939335
-0.004011260356819855
-0.005692697763992842
-0.005512052492755561
-0.0024708727926032906
0.0035821449925112687
0.011353179994641553
0.0178357375451479
0.018670241361925344
0.009278124822998052
-0.013387659346432627
-0.049019944504282015
-0.09289359648991244
0.06367189225275291
0.031120829325457542
0.01839603298492578
0.029865727424952818
0.06366565889460594
-0.08794479991166154
-0.03645059822517501
0.0059397765415073285
0.029181445629367968
0.0275205913859267
0.0007412405537280004
-0.04544257786721538
-0.10004849314197456
0.05108969698017313
0.021755511447434962
0.02100071050162898
0.04940758087895828
0.09747654281642831
-0.05290673046521885
-0.024004282582676523
-0.03599403219014518
-0.10100070906209077
-0.019435651489326845
0.020112997228996884
0.0375047294885151
0.0555244995896836
0.0942426792732792
-0.03290734799234337
-0.12045844271580951
0.0300227035074133
0.012060949158299165
0.01663949558600141
0.03447366360879152
0.0582647642286416
-0.11514583789157806
-0.08332929154287663
-0.038524846785529226
0.029710540736643764
0.12989362894485965
0.06379666106078921
0.023696996706937
-0.006769435964375748
-0.048233505950372124
-0.11937132263955205
-0.03129905350330055
0.01527187648113825
0.02920023222582714
0.02498021665963689
0.01732502838671762
0.016126912526468182
0.023272264320922217
0.032159063319949055
0.030097794327083458
0.0030943981716045643
-0.058213726626927975
-0.15335884496062782
-0.0697138434132618
0.015466740157023696
0.12875850062433902
0.09214028232622629
0.11574448271704177
-0.005288812140051985
-0.08877962717886112
-0.1595647526682517
-0.04250276018700774
0.04271309352476118
0.08357822043873687
0.07423234213847686
0.014059379974717729
-0.0931303159646552
-0.03907168025638012
-0.010953981447728073
0.007776552828606713
0.03542753595904697
0.08944905148747773
-0.015831938667937227
-0.07046126648271149
-0.06918341082220483
-0.011545811013839986
0.09763205049135344
0.047632529266772985
0.022008595644845284
0.00046402993384531447
-0.03749818802639327
-0.10818225214222471
-0.020188667766081202
0.026821313292974498
0.04067135021915652
0.033285931150581254
0.01682886719961849
0.0007218626971759687
-0.009746797548323038
-0.01325382231362174
-0.011243188741020033
-0.006386563141676929
-0.0012684338605994966
0.0023985548664825986
0.003989604003356567
0.00376212805412285
0.0024498652517368704
0.0008577241812406392
-0.00041635486710531785
-0.0010924796062995654
-0.0011796467839414518
-0.0008670382430448468
-0.0003989534872243251
2.156659189465395e-05
0.00028088244237844896
0.00035735250123756335
0.00029429392266347833
0.00016261958801337678
2.859221283541502e-05
-6.512913328732668e-05
-0.00010412176975426744
-9.63261859917687e-05
-6.135661985966013e-05
-2.0097395069286392e-05
1.227585679111139e-05
2.893178913638563e-05
3.04490052429336e-05
2.1914250280076236e-05
9.680569037062972e-06
-1.0787984970038814e-06
-7.550269146871745e-06
-9.290653548181933e-06
-7.494800662759803e-06
-4.021425943342718e-06
-5.697044734734982e-07
1.7919818448399153e-06
2.727526960083511e-06
2.4689705336676243e-06
1.5354842029890404e-06
4.6602826084628003e-07
-3.559774376535762e-07
-7.650895402770616e-07
-7.853763164405478e-07
-5.533122928596503e-07
-2.3393957673213355e-07
4.108822339698223e-08
2.022966315790401e-07
2.412182248381379e-07
1.9062746651295174e-07
9.917425241709647e-08
1.0383208970767822e-08
-4.9036076567456965e-08
-7.134227123885225e-08
-6.320993636712039e-08
-3.8353831321849593e-08
-1.066671208021571e-08
1.0178153684402608e-08
2.019370242903501e-08
2.0234020081079222e-08
1.3950049986410814e-08
5.623958947021482e-09
-1.3979748808955369e-09
-5.405100790793453e-09
-6.255117290161411e-09
-4.842451489424148e-09
-2.438603846227107e-09
-1.5717766219269687e-10
1.335381169685125e-09
1.863375327257999e-09
1.6164100277975887e-09
9.561078608808496e-10
2.4017038566648017e-10
-2.877222449367122e-10
-5.320212968826019e-10
-5.20701049873488e-10
-3.511704963276988e-10
-1.3439807064252418e-10
4.4670980068592016e-11
1.440453712381396e-10
1.6200640422343424e-10
1.2285334161277168e-10
5.97708930225454e-11
1.2181010047718074e-12
-3.62103560102546e-11
-4.860148463486178e-11
-4.128665614687015e-11
-2.378405318452129e-11
-5.293005604909467e-12
8.05749162217394e-12
1.3992339592838117e-11
1.3384382487276857e-11
8.826115240263204e-12
3.1897168575174296e-12
-1.371284952176451e-12
-3.8296055916737265e-12
-4.190911562233008e-12
-3.1126906374195406e-12
-1.4598418327689653e-12
4.119614597769211e-14
9.781158147977206e-13
1.2659406301938708e-12
1.053306874294108e-12
5.903181640243431e-13
1.1329178434592556e-13
-2.2386784977086103e-13
-3.6739344315373276e-13
-3.4364434721879853e-13
-2.2145963672330385e-13
-7.509118588300814e-14
4.0937860452215234e-14
1.0158918922040473e-13
1.0828826526957175e-13
7.876071624532483e-14
3.551861486722121e-14
-2.9172318935081606e-15
-2.6326703076868872e-14
-3.2928736688443025e-14
-2.6837371018050282e-14
-1.461384151402067e-14
-2.321860581437536e-15
6.1804808206105835e-15
9.633724594536525e-15
8.815399439978424e-15
5.549461455492728e-15
1.7532261780449978e-15
-1.1947863285445647e-15
-2.6868303157615753e-15
-2.792369383019717e-15
-1.9877032430337237e-15
-8.58030269381444e-16
1.2502645185917918e-16
7.08771364499364e-16
8.578297366427471e-16
6.853648910061498e-16
3.6323874560112053e-16
4.6863191960771574e-17
-1.6721981762533145e-16
-2.498218543890536e-16
-2.23473369100536e-16
-1.3640378796944232e-16
-3.8064117613370936e-17
3.674177208040394e-17
7.333055216747098e-17
7.432857485622795e-17
5.249573588463393e-17
2.3024957982781315e-17
-2.0889041883271587e-18
-1.661483759488398e-17
-1.9911823291959078e-17
-1.5075734411248433e-17
-6.601548905953917e-18
1.5321355025781643e-18
6.914082572548785e-18
8.876671086867842e-18
8.063713922178168e-18
5.748061997177944e-18
3.2036758033954683e-18
1.307964710603787e-18
4.138263160697701e-19
4.3223685023070378e-19
1.0223116205022751e-18
1.790100250580317e-18
2.430919366227162e-18
2.7915762918242873e-18
2.862501755071377e-18
2.7279865243135075e-18
2.5054262573558695e-18
2.2965564162991873e-18
2.1614799526132978e-18
2.1152156886433584e-18
2.1395727195783118e-18
2.2010194434132418e-18
2.266773607854601e-18
2.3147494409314326e-18
2.3365161525615654e-18
2.334911923589881e-18
2.3190202331531407e-18
2.299043743719882e-18
2.282711819550717e-18
2.2737786613746283e-18
2.2723125747444898e-18
2.2760283569449867e-18
2.281864233444242e-18
2.2872218015485444e-18
2.290606099762481e-18
2.2916865235520513e-18
2.290972293080021e-18
2.2893452304123993e-18
2.2876479428086665e-18
2.2864354784851924e-18
2.285907857785491e-18
2.2859780897293288e-18
2.286404706131847e-18
2.286923790992375e-18
2.287339520408827e-18
2.2875602178505503e-18
2.2875886919363366e-18
2.2874866599058137e-18
2.2873338677676527e-18
2.2871966022040614e-18
2.2871119637905867e-18
2.2870870170204765e-18
2.287107618504356e-18
2.287150616070313e-18
2.2871943767746365e-18
2.2872249746487393e-18
2.2872377026963665e-18
2.2872351548835006e-18
2.2872237359137757e-18
2.287210264543337e-18
2.287199695254313e-18
2.287194257997156e-18
2.2871937634503304e-18
2.287196550560316e-18
2.28720054501029e-18
2.2872040578203023e-18
2.287206170494772e-18
2.2872067384636876e-18
2.2872061519303627e-18
2.28720501779465e-18
2.2872038908219427e-18
2.2872031198002197e-18
2.28720281442662e-18
2.287202898909886e-18
2.287203203726689e-18
2.2872035529074583e-18
2.28720382127561e-18
2.2872039548264885e-18
2.287203961428696e-18
2.28720388564682e-18
2.2872037813680487e-18
2.287203691574952e-18
2.287203638947269e-18
2.2872036262462304e-18
2.287203642768835e-18
2.2872036726302054e-18
2.2872037016199974e-18
2.2872037210185555e-18
2.2872037282994058e-18
2.287203725642558e-18
2.2872037175262163e-18
2.2872037084863213e-18
2.2872037016809277e-18
2.2872036984114837e-18
2.2872036983988677e-18
2.2872037004509075e-18
2.2872037031694566e-18
2.2872037054620197e-18
2.2872037067701656e-18
2.287203707047519e-18
2.287203706586165e-18
2.2872037058012634e-18
2.2872037050563934e-18
2.287203704569122e-18
2.2872037043967867e-18
2.2872037044774623e-18
2.2872037046930714e-18
2.2872037049268253e-18
2.28720370509917e-18
2.287203705178917e-18
2.287203705175207e-18
2.287203705119847e-18
2.287203705049069e-18
2.287203704990606e-18
2.287203704958165e-18
2.2872037049523054e-18
2.2872037049650916e-18
2.287203704985689e-18
2.2872037050048062e-18
2.287203705017025e-18
2.2872037050210696e-18
2.2872037050186802e-18
2.2872037050129652e-18
2.287203705006928e-18
2.287203705002569e-18
2.287203705000632e-18
2.2872037050008307e-18
2.287203705002319e-18
2.2872037050041595e-18
2.2872037050056486e-18
2.287203705006451e-18
2.287203705006569e-18
2.2872037050062168e-18
2.287203705005677e-18
2.287203705005187e-18
2.2872037050048813e-18
2.2872037050047874e-18
2.2872037050048567e-18
2.287203705005008e-18
2.2872037050051637e-18
2.287203705005274e-18
2.2872037050053205e-18
2.2872037050053128e-18
2.287203705005273e-18
2.2872037050052253e-18
2.287203705005187e-18
2.2872037050051675e-18
2.2872037050051652e-18
2.287203705005175e-18
2.287203705005189e-18
2.2872037050052014e-18
2.287203705005209e-18
2.2872037050052114e-18
2.2872037050052095e-18
2.2872037050052053e-18
2.2872037050052014e-18
2.2872037050051987e-18
2.2872037050051976e-18
2.287203705005198e-18
2.2872037050051987e-18
2.2872037050052003e-18
2.287203705005201e-18
2.2872037050052014e-18
2.2872037050052014e-18
2.2872037050052014e-18
2.287203705005201e-18
2.2872037050052007e-18
2.2872037050052003e-18
2.2872037050052003e-18
2.2872037050052003e-18
2.2872037050052007e-18
2.2872037050052007e-18
2.2872037050052007e-18
2.2872037050052007e-18
2.2872037050052007e-18
2.2872037050052007e-18
2.2872037050052007e-18
2.2872037050052007e-18
2.2872037050052007e-18
2.2872037050052007e-18
2.2872037050052007e-18
2.2872037050052007e-18
