0
0.001963226125783815
0.04672007898172787
0.1283741037121356
0.0742152196351141
0.09395775022495255
-0.021567562989459894
-0.0959256909444932
-0.15895083351939704
-0.03831940118243637
0.04623364328204576
0.08486066358342159
0.07654813467243778
0.026988440948416723
-0.05306135092482602
-0.14868409905907148
-0.0419308549888053
0.08567994558207438
0.04915061870619518
0.055756658036171906
0.10255170583045305
-0.022909155663307316
-0.13859059820156588
-0.06225918124219897
-0.006370069296441795
0.024513612790062332
0.03321306485913842
0.02718028602565227
0.015006203038032405
0.0035445115784548563
-0.003597904435673591
-0.00610484418057058
-0.005894575286757099
-0.005542897635457963
-0.0067729767531130225
-0.009484489749502613
-0.011621528591380261
-0.009972978787472914
-0.0017588301932048554
0.013414483950008731
0.03190091798697768
0.045470471618146054
0.042560194554025016
0.011525508420096326
-0.0547261878628525
-0.15426201314351573
-0.07389115235027426
0.009146592655021265
0.12139505709674568
0.08510693249658523
0.11099241177496114
-0.005323170310150901
-0.08191265772964577
-0.14519000835834883
-0.023052513505257298
0.060953823474007976
0.09120303441845491
0.06162866469064264
-0.02354283520539204
-0.14953181046974504
-0.09195521316029158
-0.020287924736111657
0.09563167998564247
0.07727557247160861
0.13006692308177586
0.040058507991579013
-0.023527481489039687
-0.10024015672292173
-0.027227336101456272
-0.02842807920549415
-0.10739108011302138
-0.0458225470983433
-0.00839009963696589
0.04740263457283692
0.1590652323213589
0.1484881532128836
0.016387055039616703
-0.056335343661579274
-0.10111599806864295
-0.1513011344567392
-0.03279048153281864
0.04116394178532355
0.07008764908720286
0.06261235820986727
0.031420072150742336
-0.011012910555483474
-0.05483422516515998
-0.09359680114741183
0.07575654873250974
0.0530742439363634
0.03541462952259276
0.018218958775776187
-0.002565426150213818
-0.22810250826548736
-0.05544223158023431
0.12132849128079497
0.10769443938295785
0.10495552240628152
0.10869827645039613
-0.0889989269624334
-0.294465900001521
-0.10742662403109779
0.08052381622546068
0.08240807909705915
0.10883295812725484
0.16114048910562237
0.028480978029587545
-0.10938731654804475
-0.07452635041384263
-0.08167465641115076
-0.13145441240952413
-0.008844008606392851
0.11232489572385257
0.0604730177318109
0.056287646841966195
0.10525286140256032
-0.004785543905643939
-0.10037862699116572
-0.01480500293887336
0.0215437133477396
-0.00999142318564245
-0.11044648669027651
-0.06175287117198684
-0.030342248057080308
0.024581675382142294
0.13999929400000244
0.13844283942592578
0.02124533720735111
-0.032009810936038254
-0.057725738183030124
-0.09829571308855581
0.008910223693524141
0.04059489778148096
-0.007252375917374977
-0.11870309648797041
-0.06181870988546972
0.0033293977323194
0.11391713130402609
0.09350794159224478
0.14449798526315435
0.04683633022712568
-0.03588545143132253
-0.1445362045066647
-0.1106457664320256
-0.14558001999998577
-0.03665187785356289
0.04836446709794463
0.14994943123966764
0.1029099013583847
0.12482076928866719
0.010791315801921773
-0.06399642821201244
-0.13540813100092988
-0.03864744413348744
0.0022512807511943433
-0.01930256953657338
-0.0917055289269628
0.010389934066635803
0.11795885331724429
0.058260202664134834
0.047137936768946974
0.08537411882518207
-0.0399083995002903
-0.14963346188550913
-0.06531241556140248
-0.0026302927744163646
0.03181322650696811
0.04015257572504196
0.03035950598526054
0.01249875958983406
-0.004440801197874885
-0.01444365662152774
-0.015096997711119687
-0.007349846335335377
0.005161349212103056
0.016984382431368242
0.02192780224209461
0.014452576465250864
-0.008645582112324727
-0.0466181225469044
-0.09389551493796472
0.05931120385827843
0.024688456707103842
0.01233841305595222
0.027337124098218132
0.0675875087942761
-0.07627045263609106
-0.018864062924773994
0.023374974702441098
0.03623743546863818
0.01151858928386723
-0.05011729503020312
-0.137965865576023
-0.03269101622709431
0.0892452331227253
0.04887588578331256
0.057819604134437805
0.11378252103381399
0.0004095475907014066
-0.10815102303267209
-0.03939073656885519
-0.013945962352021212
-0.039267084708873516
-0.10740188685992874
0.002469380592362713
0.11749563624041784
0.06265788088128196
0.053170670377143056
0.09042031624469729
-0.03725338012792907
-0.14951379745321264
-0.06694382606275207
-0.004788703043894221
0.0303141329742325
0.040088314613996694
0.0318637686066407
0.014991301979953455
-0.0021453461579054632
-0.013820308983949257
-0.017389572541791604
-0.01291830819740551
-0.002552762781911141
0.010034851941967295
0.020121522417120466
0.022562659164911236
0.01283139083883634
-0.011512159940460764
-0.049307375743270786
-0.0949772774369198
0.06083734615848406
0.02896113916893503
0.018308640848866135
0.032720376995654075
0.06928697134241092
-0.08115729657852234
-0.031546628745770175
0.004992301977588882
0.01863449468145447
0.0053691598836227835
-0.03190763468304942
-0.08388001213228069
0.06309458805248334
0.023554924688136525
0.008949870847925557
0.024258538642832166
0.06628853994296621
-0.07580048199208009
-0.01789725843936886
0.022996832172917807
0.03305399511418245
0.00538317652590464
-0.057450186358037454
-0.1429234228186143
-0.03086104846321508
0.10125409219353848
0.07107932407023158
0.08480527501554301
0.13402833983942586
-0.002048199840352841
-0.14933732944643258
-0.1290658948145153
-0.14941648800766782
-0.002240410404011511
0.13368749779066225
0.08432910994293512
0.07057452956677727
0.10093081012616535
-0.030735929421084957
-0.14213436445356248
-0.055979490473962994
0.00722416088665937
0.0345841005346807
0.023287132930653032
-0.019705440767874623
-0.08002619451067021
0.06034157588622154
0.01855112779003891
0.006471940454450468
0.027431870919836485
0.07507609230393289
-0.0651966264470831
-0.012459351750992368
0.014932987591829502
0.004614701277597516
-0.045797110700715606
-0.12713191706732113
-0.020302495616946636
0.09878922166898851
0.05219976984978959
0.053000977362772275
0.10098077806410359
-0.017354305008796492
-0.1244438037840692
-0.044619187394638805
0.003127667612237802
0.010227775302125559
-0.019772011117668915
-0.07297075480729479
0.07038715824997528
0.02987929896349862
0.01892321425782619
0.04055000791571757
0.08626664761503712
-0.061488644619886526
-0.02385464707296968
-0.018585808856859613
-0.05378947361711099
-0.12446002171370087
-0.013174850760989081
0.10493996961083195
0.05439678302707863
0.05132650143758525
0.0980979011206676
-0.017563070418693878
-0.11878675887929092
-0.03259999799116165
0.0177758550897828
0.019081569728890205
-0.02875113886673799
-0.11276227498881213
-0.01041083772844352
0.10433307714210899
0.053703277885829674
0.04986129770939487
0.09181025858115738
-0.03337126845476783
-0.14550211029708185
-0.06452120923862695
-0.00463558227084944
0.02857977950760497
0.03765635212374406
0.0302899489495883
0.015645536909570677
0.0013456338487470322
-0.00811523267962872
-0.011504434789947083
-0.009982726518507463
-0.005843001930238509
-0.0013740366778140286
0.0018557421337949862
0.0032336350262937887
0.0029633222663055956
0.001728612227491881
0.0003278996721726368
-0.0006098757388825735
-0.0007828133577034149
-0.0002508821173128045
0.0006260633533444073
0.0013195936875495644
0.001311028335589925
0.00029263710212755034
-0.0016473954446698596
-0.00391821951492032
-0.005474647049734501
-0.0050838479922023245
-0.0018165334206757789
0.0043305958278713535
0.01188965660878115
0.01774250085745246
0.017578858287365537
0.007097889089842175
-0.016252483681656067
-0.051578876291324266
-0.09372120591132818
0.06597885415342204
0.037231052246139325
0.02748123975327329
0.03913710328915335
0.06861466579040999
-0.0923029692159928
-0.0533443823882303
-0.02223202946416332
-0.0022941786263156504
0.007873319991583751
0.012752845685436132
0.017101269277634522
0.023163152805785653
0.028981115490916937
0.028522005505312528
0.013785005956264187
-0.02162705557397847
-0.07869404753608485
-0.15061665454333673
-0.023468616245143813
0.11961490713495543
0.0919440645995932
0.09726551420204375
0.1273076831053841
-0.03542321495943874
-0.21034911102472548
-0.21016810781143064
-0.03501363405288555
0.1275966355354777
0.09701236427039674
0.09085971650676597
0.11775199939489235
-0.025581316065670233
-0.15200283068367856
-0.07818637053947573
-0.01835072000538481
0.01980781078864687
0.03587039559143878
0.034740723809299975
0.023524734517059068
0.00877575413641121
-0.004985910419049988
-0.015350509270062604
-0.02118008304517418
-0.021627797918606195
-0.01572512706176855
-0.0028988606436966815
0.015722072260348805
0.035841311315930525
0.049302378940495314
0.045043087506799466
0.012065971319365567
-0.05610438103685139
-0.15701492115324486
-0.07706499911873081
0.006773289366409296
0.12107467843280408
0.08774302209128156
0.11664839142943141
0.002124288525855742
-0.07534822459086618
-0.14320234509766003
-0.02917668632250186
0.04516943678712115
0.0681978366454832
0.03917931403852496
-0.03257520786117105
-0.12972308702380275
-0.030002156618241852
0.089359391701824
0.04638524597501456
0.049685012035972816
0.09620389937269762
-0.027466150429565978
-0.1404920256491442
-0.06164662852173745
-0.004010472722924014
0.02759066940135669
0.035963590207002454
0.02869150736572449
0.014614168514020606
0.0009944703921618062
-0.00794131030440594
-0.011083178334890741
-0.009577002334061635
-0.00561005914173185
-0.0013348469354958422
0.0017930967678257725
0.0032135798017632437
0.0031070019518028855
0.002065329989096921
0.0007557164465365342
-0.0003155863848215232
-0.0009022666934248585
-0.0009994471104470628
-0.0007566172502001387
-0.0003743656237969986
-2.30818718575482e-05
0.00019907758301270165
0.00027026699959910425
0.0002237375485570131
0.00011723444441066435
5.995453531134668e-06
-7.355227228029773e-05
-0.00010824238180109048
-0.00010373194948529532
-7.582423880614811e-05
-4.18144894301218e-05
-1.4548853055814349e-05
-5.2604558240097363e-08
1.843651599559844e-06
-4.823901965867149e-06
-1.483100094264577e-05
-2.3830694343788128e-05
-2.9386631427813295e-05
-3.103108865354133e-05
-2.968781756335215e-05
-2.6872960933423944e-05
-2.4004718752562224e-05
-2.1997088117440356e-05
-2.116002993505422e-05
-2.1324654316789126e-05
-2.207174805203665e-05
-2.2954429964826632e-05
-2.3647661168219456e-05
-2.4004852486265996e-05
-2.4038037020219378e-05
-2.385586211312238e-05
-2.359422768950626e-05
-2.3363900396157996e-05
-2.3225204230259307e-05
-2.318773561548691e-05
-2.322600126359525e-05
-2.3300254718208555e-05
-2.337412494370303e-05
-2.342471807545931e-05
-2.3444806665395317e-05
-2.343932971653304e-05
-2.341938431107446e-05
-2.3396503635133063e-05
-2.3378900474749384e-05
-2.337012571504929e-05
-2.336967321956136e-05
-2.3374627643054456e-05
-2.338145831903727e-05
-2.3387346194744074e-05
-2.339080153516823e-05
-2.3391640253375162e-05
-2.339056179959039e-05
-2.3388606565955734e-05
-2.338670625113329e-05
-2.3385433251931337e-05
-2.3384954133094912e-05
-2.3385126734567306e-05
-2.338565788324458e-05
-2.3386250273018858e-05
-2.3386696690255084e-05
-2.338691154078747e-05
-2.338691287423814e-05
-2.338677869134453e-05
-2.338660060363221e-05
-2.3386450267903264e-05
-2.3386364370423895e-05
-2.338634603053738e-05
-2.338637615580237e-05
-2.338642755302716e-05
-2.3386476382887886e-05
-2.338650836188877e-05
-2.3386519706833415e-05
-2.3386514458168746e-05
-2.3386500346750515e-05
-2.338648502782239e-05
-2.338647372168622e-05
-2.3386468480139196e-05
-2.3386468710340284e-05
-2.338647233094613e-05
-2.3386476967795862e-05
-2.3386480801775176e-05
-2.3386482932215244e-05
-2.33864833204347e-05
-2.3386482485226918e-05
-2.3386481136348227e-05
-2.3386479883064617e-05
-2.3386479081073335e-05
-2.338647881471344e-05
-2.338647897032607e-05
-2.3386479344413123e-05
-2.338647974008759e-05
-2.3386480026039913e-05
-2.3386480153399597e-05
-2.3386480140697582e-05
-2.338648004333391e-05
-2.3386479922761985e-05
-2.338647982510268e-05
-2.3386479772393732e-05
-2.33864797645626e-05
-2.338647978756935e-05
-2.3386479822914338e-05
-2.3386479855044744e-05
-2.338647987512208e-05
-2.3386479881312353e-05
-2.3386479876785457e-05
-2.338647986688899e-05
-2.3386479856680964e-05
-2.3386479849458917e-05
-2.3386479846378235e-05
-2.338647984687859e-05
-2.3386479849488783e-05
-2.3386479852620027e-05
-2.3386479855104558e-05
-2.3386479856405153e-05
-2.3386479856551063e-05
-2.338647985592086e-05
-2.3386479854996097e-05
-2.3386479854173316e-05
-2.338647985367163e-05
-2.3386479853529547e-05
-2.338647985365931e-05
-2.3386479853920612e-05
-2.3386479854183667e-05
-2.33864798543658e-05
-2.3386479854439942e-05
-2.338647985442263e-05
-2.338647985435285e-05
-2.3386479854271633e-05
-2.3386479854208505e-05
-2.3386479854176504e-05
-2.338647985417418e-05
-2.3386479854191358e-05
-2.338647985421552e-05
-2.3386479854236566e-05
-2.3386479854249075e-05
-2.3386479854252287e-05
-2.338647985424861e-05
-2.3386479854241722e-05
-2.3386479854234953e-05
-2.3386479854230365e-05
-2.3386479854228593e-05
-2.3386479854229153e-05
-2.3386479854231013e-05
-2.3386479854233117e-05
-2.338647985423472e-05
-2.3386479854235502e-05
-2.3386479854235526e-05
-2.3386479854235058e-05
-2.3386479854234428e-05
-2.3386479854233892e-05
-2.338647985423358e-05
-2.338647985423351e-05
-2.338647985423361e-05
-2.3386479854233794e-05
-2.3386479854233967e-05
-2.3386479854234082e-05
-2.3386479854234126e-05
-2.3386479854234106e-05
-2.338647985423406e-05
-2.3386479854234004e-05
-2.3386479854233964e-05
-2.3386479854233943e-05
-2.3386479854233943e-05
-2.3386479854233957e-05
-2.3386479854233974e-05
-2.3386479854233987e-05
-2.3386479854233994e-05
-2.3386479854233998e-05
-2.3386479854233994e-05
-2.3386479854233987e-05
-2.3386479854233984e-05
-2.338647985423398e-05
-2.338647985423398e-05
-2.338647985423398e-05
-2.338647985423398e-05
-2.3386479854233984e-05
-2.3386479854233984e-05
-2.3386479854233984e-05
-2.3386479854233984e-05
-2.3386479854233984e-05
-2.3386479854233984e-05
-2.3386479854233984e-05
-2.3386479854233984e-05
-2.3386479854233984e-05
-2.3386479854233984e-05
-2.3386479854233984e-05
-2.3386479854233984e-05
-2.3386479854233984e-05
-2.3386479854233984e-05
-2.3386479854233984e-05
-2.3386479854233984e-05
-2.3386479854233984e-05
-2.3386479854233984e-05
-2.3386479854233984e-05
-2.3386479854233984e-05
-2.3386479854233984e-05
-2.3386479854233984e-05
-2.3386479854233984e-05
-2.3386479854233984e-05
-2.3386479854233984e-05
-2.3386479854233984e-05
-2.3386479854233984e-05
-2.3386479854233984e-05
-2.3386479854233984e-05
-2.3386479854233984e-05
-2.3386479854233984e-05
-2.3386479854233984e-05
-2.3386479854233984e-05
-2.3386479854233984e-05
-2.3386479854233984e-05
-2.3386479854233984e-05
-2.3386479854233984e-05
-2.3386479854233984e-05
-2.3386479854233984e-05
-2.3386479854233984e-05
-2.3386479854233984e-05
-2.3386479854233984e-05
-2.3386479854233984e-05
-2.3386479854233984e-05
-2.3386479854233984e-05
-2.3386479854233984e-05
-2.3386479854233984e-05
-2.3386479854233984e-05
-2.3386479854233984e-05
-2.3386479854233984e-05
-2.3386479854233984e-05
-2.3386479854233984e-05
-2.3386479854233984e-05
-2.3386479854233984e-05
-2.3386479854233984e-05
-2.3386479854233984e-05
-2.3386479854233984e-05
-2.3386479854233984e-05
-2.3386479854233984e-05
-2.3386479854233984e-05
-2.3386479854233984e-05
-2.3386479854233984e-05
-2.3386479854233984e-05
-2.3386479854233984e-05
-2.3386479854233984e-05
-2.3386479854233984e-05
-2.3386479854233984e-05
-2.3386479854233984e-05
-2.3386479854233984e-05
-2.3386479854233984e-05
-2.3386479854233984e-05
-2.3386479854233984e-05
-2.3386479854233984e-05
-2.3386479854233984e-05
-2.3386479854233984e-05
-2.3386479854233984e-05
-2.3386479854233984e-05
-2.3386479854233984e-05
-2.338647985423398e-05
-2.338647985423398e-05
-2.338647985423398e-05
-2.338647985423398e-05
-2.3386479854233984e-05
-2.338647985423399e-05
-2.3386479854233994e-05
-2.3386479854233998e-05
-2.3386479854233994e-05
-2.3386479854233984e-05
-2.338647985423397e-05
-2.3386479854233957e-05
-2.3386479854233943e-05
-2.3386479854233947e-05
-2.3386479854233967e-05
-2.338647985423401e-05
-2.3386479854234065e-05
-2.338647985423411e-05
-2.338647985423412e-05
-2.338647985423407e-05
-2.3386479854233947e-05
-2.3386479854233774e-05
-2.33864798542336e-05
-2.3386479854233516e-05
-2.3386479854233615e-05
-2.3386479854233953e-05
-2.3386479854234502e-05
-2.3386479854235116e-05
-2.3386479854235526e-05
-2.3386479854235417e-05
-2.3386479854234536e-05
-2.3386479854232876e-05
-2.3386479854230796e-05
-2.3386479854229078e-05
-2.3386479854228783e-05
-2.338647985423088e-05
-2.3386479854235722e-05
-2.338647985424252e-05
-2.3386479854249054e-05
-2.3386479854251955e-05
-2.3386479854247682e-05
-2.338647985423418e-05
-2.3386479854212744e-05
-2.3386479854189332e-05
-2.3386479854174336e-05
-2.338647985418003e-05
-2.338647985421562e-05
-2.338647985428092e-05
-2.3386479854360988e-05
-2.338647985442494e-05
-2.3386479854431905e-05
-2.3386479854345376e-05
-2.3386479854153723e-05
-2.3386479853890387e-05
-2.338647985364353e-05
-2.338647985354438e-05
-2.3386479853727526e-05
-2.338647985426657e-05
-2.3386479855102433e-05
-2.3386479855995467e-05
-2.3386479856538754e-05
-2.3386479856261547e-05
-2.3386479854824224e-05
-2.338647985226175e-05
-2.3386479849183892e-05
-2.3386479846808327e-05
-2.338647984671341e-05
-2.338647985026968e-05
-2.33864798578438e-05
-2.3386479868035193e-05
-2.3386479877340494e-05
-2.3386479880659565e-05
-2.3386479872882112e-05
-2.3386479851400245e-05
-2.3386479818846154e-05
-2.3386479784836436e-05
-2.3386479765286817e-05
-2.3386479778224798e-05
-2.3386479836131115e-05
-2.338647993656948e-05
-2.3386480054728932e-05
-2.338648014266418e-05
-2.3386480139496046e-05
-2.338647999390661e-05
-2.3386479694979308e-05
-2.338647930102898e-05
-2.338647895104731e-05
-2.3386478843032506e-05
-2.3386479170661323e-05
-2.338648002533329e-05
-2.3386481291762462e-05
-2.3386482584825795e-05
-2.3386483282737095e-05
-2.3386482696108093e-05
-2.33864803684534e-05
-2.3386476436338948e-05
-2.3386471906305187e-05
-2.338646866378551e-05
-2.3386469054066576e-05
-2.338647499340082e-05
-2.3386486775617094e-05
-2.338650198561147e-05
-2.3386515117206488e-05
-2.3386518492542205e-05
-2.3386504785355553e-05
-2.3386470835575802e-05
-2.3386421624852913e-05
-2.33863725472155e-05
-2.3386347866276538e-05
-2.3386373905858508e-05
-2.3386467272936953e-05
-2.3386621033457156e-05
-2.338679446562072e-05
-2.3386913516886162e-05
-2.3386887952232517e-05
-2.33866464308314e-05
-2.338618263089971e-05
-2.3385596104260226e-05
-2.3385104667687282e-05
-2.3385005703421436e-05
-2.3385575785972202e-05
-2.3386922303640168e-05
-2.3388832334659725e-05
-2.3390691661086804e-05
-2.3391554542004466e-05
-2.3390417365903e-05
-2.3386679659080084e-05
-2.3380674003849013e-05
-2.337404371046438e-05
-2.3369693750604306e-05
-2.3371091441076086e-05
-2.3380884088604665e-05
-2.3399118388922158e-05
-2.3421707939022594e-05
-2.344004811341488e-05
-2.344263406609571e-05
-2.3419047153244922e-05
-2.3365719898717154e-05
-2.329167074223747e-05
-2.3221364841429976e-05
-2.3191622944175585e-05
-2.324064701162505e-05
-2.338999528525312e-05
-2.3624297456572346e-05
-2.387739496401954e-05
-2.403546607762741e-05
-2.3965454169334792e-05
-2.3569475945580454e-05
-2.2853475835789102e-05
-2.1984561296738982e-05
-2.1302193188780376e-05
-2.1250932453264987e-05
-2.2222355616158196e-05
-2.4331324847696e-05
-2.7198768172158227e-05
-2.9851798440709012e-05
-3.08585013289907e-05
-2.8767175505833415e-05
-2.2810272757705734e-05
-1.3679763394832502e-05
-4.033269940468609e-06
1.6747334193406619e-06
-1.654779621945135e-06
-1.7626610254788638e-05
-4.570752677124388e-05
-7.908720943302215e-05
-0.00010439109092584888
-0.00010446151376148084
-6.46175571735234e-05
1.8672275707842716e-05
0.00012957803640507824
0.0002294713426881345
0.0002627287433881076
0.0001742787559462157
-6.293852640427893e-05
-0.0004183780522215691
-0.0007855074763773619
-0.000990200137787528
-0.0008373036411705084
-0.00019458297243625405
0.0009056550047549784
0.0021871060722264465
0.0031242559362891246
0.0030571415864519766
0.001439247803399537
-0.001826301924427368
-0.006076783331334949
-0.009774613151944006
-0.010758057111859074
-0.006950224255741293
0.0025497110910628748
0.01629464437310909
0.029741786951490018
0.03550019314443588
0.024962874167491808
-0.008765390142195692
-0.06742348340922245
-0.14504440808127916
-0.02785417807526465
0.10256268217876616
0.06352967130878417
0.06517214352818597
0.10661184525455944
-0.02376230585429509
-0.14397162631126925
-0.07192512928118573
-0.01950956315868156
0.010326956446406644
0.022644854401909442
0.02655252865996681
0.03003097534679089
0.035516511895874785
0.03777306971892497
0.02481569114986168
-0.018287189299466156
-0.10385775572279111
-0.03613545136059048
-0.007833224118206592
8.492849569604817e-07
0.014718908553008772
0.06640981505365959
-0.018578794642588395
-0.023375620961932738
0.055545591895958396
0.0069734619622949445
0.006262500460677312
0.019219653999504024
0.008046007113852461
-0.061661229068553154
-0.014211339247995372
-0.05890028289065592
0.011954031858593764
0.021538552007197002
0.004001318720021212
-0.0021428958116414135
0.03861075238879573
-0.04823077298316067
-0.05281818166826501
0.015508260816300834
0.12774407820848538
0.23904017866929783
0.09791318962446134
-0.13949557986182037
-0.2932756785305012
-0.34770546536541547
-0.2499015380346038
0.07731046854000592
0.5108475234135506
0.5000080669384666
0.24805821746637316
-0.08841938191555489
-0.3815342226716172
-0.5034304271747031
-0.2999184700550467
0.022135082521088388
0.2891873516681672
0.3414056373654192
0.20926624065306665
0.09718634219649606
-0.019265951752919386
-0.18248796069960677
-0.23377452479063843
-0.19430923722965754
-0.05378819156200628
0.029234066332440176
0.11592808293521491
0.26943506958494795
0.1374311958329034
-0.059155486214173734
-0.128522154471964
-0.10249310513631629
-0.026709182735937538
0.04970501703902271
0.08272035281042446
0.03969900535228986
-0.09635045611281454
-0.12467415457752713
-0.02761429125952876
0.02489825840174881
0.06764656454220504
0.13122106762394217
0.03474826802057667
-0.017360927035096757
-0.03380133672256681
-0.030860245022787315
-0.025159095689942318
-0.02705590080469699
-0.03662620790383036
-0.04331725711212049
-0.029444417012032834
0.023285482955759322
0.12603260847094086
0.07641581503596892
0.05601981246114221
0.03338969104092101
-0.027780139813121323
-0.15760255308391924
-0.16987505389399865
-0.056810502461570496
0.00891086259715537
0.06504426949818694
0.14682493534214675
0.2751194143329284
0.05047398023114175
-0.14440265586295048
-0.13479760954601983
-0.14120828635819155
-0.16932347218492683
-0.007090552896316813
0.17007759300711495
0.1884954582686757
0.06465942338895904
-0.002195074775443729
-0.030807237165655168
-0.0522665715458275
-0.10069256028932189
-0.0036189710136197923
0.025079921502596827
-0.01183842874594865
-0.09637234383548035
-0.00037494804812962973
0.10690051500351481
0.05068037637333462
0.04426996990929897
0.08638248926337691
-0.03696468602276626
-0.1467881770362891
-0.06392957344658037
-0.0030281651077880773
0.030340465898810228
0.0389782469490437
0.030935561411807935
0.015671653927307384
0.000971679474510773
-0.00864048135364705
-0.011992331736301395
-0.010335567308932276
-0.0060368392465358625
-0.0014186397064224348
0.001952437390961
0.003477064289456112
0.0033542160193331394
0.0022251589756208416
0.0008104136299626543
-0.0003444665850213888
-0.0009750240957343658
-0.0010772797201217689
-0.0008133909237300828
-0.0004001109826251693
-2.11663274457256e-05
0.00021789795791957913
0.0002939150579726516
0.000243066211670888
0.00012780289457106438
7.725467926851138e-06
-7.795414074197579e-05
-0.00011515151594990926
-0.00011007308458852104
-7.982865214654653e-05
-4.309169065673151e-05
-1.3702177676706012e-05
1.8739150623932094e-06
3.85269287011784e-06
-3.3891160757575e-06
-1.4206971342774795e-05
-2.3914249958419507e-05
-2.9891848898139346e-05
-3.164556831723118e-05
-3.0179821311878974e-05
-2.7134050172208454e-05
-2.4038285176741755e-05
-2.1876225168150112e-05
-2.0979141663324385e-05
-2.1162191245841075e-05
-2.1971603426348352e-05
-2.292494427116898e-05
-2.3672078509035647e-05
-2.4055762421871265e-05
-2.408983483906995e-05
-2.389206985637751e-05
-2.3609280494338856e-05
-2.3360873804378636e-05
-2.3211681871024523e-05
-2.3171788791850548e-05
-2.321349301179811e-05
-2.3293822574902482e-05
-2.337354309578112e-05
-2.342801937131532e-05
-2.3449535548522838e-05
-2.3443487302437814e-05
-2.3421883972503342e-05
-2.3397174803953518e-05
-2.3378205397359076e-05
-2.3368782904905657e-05
-2.336833928995733e-05
-2.337371529146242e-05
-2.3381097216627372e-05
-2.3387446493330303e-05
-2.339116250187599e-05
-2.3392053585711435e-05
-2.3390879360017025e-05
-2.3388764483254987e-05
-2.338671389801734e-05
-2.338534343365433e-05
-2.338483067939398e-05
-2.338502054870075e-05
-2.3385595805573207e-05
-2.3386235523561502e-05
-2.338671650381148e-05
-2.3386946983820593e-05
-2.3386946998755326e-05
-2.3386801112547437e-05
-2.3386608398228392e-05
-2.3386446257617613e-05
-2.33863542552003e-05
-2.3386335633443716e-05
-2.3386369533276757e-05
-2.3386426193355773e-05
-2.3386479343627673e-05
-2.338651303624323e-05
-2.3386522910518416e-05
-2.338651359451047e-05
-2.338649445022978e-05
-2.338647546787539e-05
-2.338646429885636e-05
-2.3386464647262885e-05
-2.3386475795373088e-05
-2.3386492974626093e-05
-2.3386508472935163e-05
-2.3386513556194338e-05
-2.3386501252599153e-05
-2.3386469695126796e-05
-2.3386425116565674e-05
-2.3386383012523684e-05
-2.3386365826712848e-05
-2.3386396146343217e-05
-2.338648598337465e-05
-2.3386625010436827e-05
-2.3386772863647893e-05
-2.3386861652055766e-05
-2.3386813392283543e-05
-2.338657248926521e-05
-2.3386146035522358e-05
-2.3385636636482817e-05
-2.3385247256586293e-05
-2.33852394521168e-05
-2.338583850474279e-05
-2.338710137259679e-05
-2.3388790942626495e-05
-2.339032220774329e-05
-2.33908486415323e-05
-2.338952758209313e-05
-2.338593774586366e-05
-2.338053141747064e-05
-2.3374918597082606e-05
-2.3371745535412208e-05
-2.33739920857269e-05
-2.338369681284237e-05
-2.340040600015861e-05
-2.3419950653838846e-05
-2.343434459853816e-05
-2.3433504601440873e-05
-2.3409002377785993e-05
-2.335917878763992e-05
-2.329389051158953e-05
-2.3236336635403502e-05
-2.321937005764716e-05
-2.3274910346899244e-05
-2.341767145546321e-05
-2.362792373916945e-05
-2.3841224959528386e-05
-2.395422603337809e-05
-2.3853020631107208e-05
-2.3463152566433044e-05
-2.2809207266128537e-05
-2.2060182440060044e-05
-2.153002425460758e-05
-2.1607041441796536e-05
-2.260570192390804e-05
-2.456879771935181e-05
-2.708866712792419e-05
-2.9246640635714305e-05
-2.9769173419220345e-05
-2.744949107091774e-05
-2.178106582407124e-05
-1.3613687442301927e-05
-5.521919512083957e-06
-1.537418584398665e-06
-6.0078004849369234e-06
-2.1637446549527745e-05
-4.7200949678873907e-05
-7.586604749135762e-05
-9.530630024731968e-05
-9.058681332680824e-05
-5.001043992755679e-05
2.7238276703794815e-05
0.0001243749980494664
0.0002050714593990456
0.00022001431021723394
0.00012366993163160454
-0.00010108290993493405
-0.0004180250269874177
-0.0007244861201897907
-0.0008633696710356537
-0.00066897211534103
-4.362153069579744e-05
0.0009547622685570149
0.0020510291656266654
0.0027625532194268405
0.0025170819594301157
0.0008834261811900235
-0.0021331471494472004
-0.005838922955559455
-0.008793009099797239
-0.009084418504740694
-0.00500675215337932
0.003963930102972537
0.016179692286332155
0.027274715587934713
0.030545548584003622
0.018541055402639638
-0.014308609250161234
-0.06880704237880882
-0.139142937938742
-0.013377114539513362
0.12325535583442532
0.08322904689380864
0.07208732426274767
0.08667140733947759
-0.08271691707902344
-0.2472337885937297
-0.014180320653784115
0.015635760008977734
0.04647259713399602
0.08309839622617031
0.12571138455127756
-0.03290024759037353
-0.006384394353932237
-0.010271722532790949
-0.05565685082257075
-0.1437009076682259
-0.06336859698122037
0.006248486432111923
0.08946728511803262
0.2058392398662225
0.16387354366691845
-0.04028958762213034
-0.21858970709629447
-0.183588853523353
-0.142220555396251
0.10557189884653985
0.162666313923782
0.2279201891887387
0.09127074987606272
-0.06568541565130094
-0.26334533573602253
-0.11514526470455443
-0.02070200034547142
0.0354636346991284
0.0791446461794982
0.13799738996521646
0.03310007460341203
-0.026357365582106704
-0.04388963170873005
-0.03260696243624778
-0.009935750810559378
0.007938711497697716
0.010569301318932914
-0.003992859639169969
-0.0284493772671446
-0.04765645879840374
-0.042213664888675
0.006076116181978397
0.10788104928223316
0.06092638656337609
0.047584954457421204
0.03698521993001926
-0.00825841318696806
-0.12227899426241
-0.1260458121538972
-0.020562969380815692
0.014449887453944234
0.015890859879339907
0.02812481252418706
0.09213847003804713
0.03606515836040801
0.06955466323720615
-0.016739802973198867
-0.04682059220040127
-0.05185704033405834
-0.06212409855940445
-0.10092214583617022
0.017876586298750573
0.0885245169879308
0.10981703459606167
0.08169796267208489
0.004257298351126876
-0.12018674595225734
-0.08320841478235189
-0.06719360754347067
-0.04553374275725838
0.012896235554899577
0.13601160240476173
0.14026461644641336
0.025151232338956227
-0.02715577646637337
-0.04674895906768817
-0.06738883075920939
-0.11749463598896356
-0.013736986518646433
0.040990816662432074
0.055226016456523176
0.04378631276828896
0.022085375655438153
0.0018440474509712468
-0.010847797286571507
-0.015191163732707765
-0.013818851429500232
-0.010415967518679998
-0.00770001895600441
-0.006326747620545376
-0.004923474858858765
-0.0011217639221610895
0.006803382543612806
0.018269382449682698
0.029365852627837936
0.03307721310717481
0.02105457040672953
-0.013292635308252145
-0.07130113710940386
-0.14664440532632902
-0.025544863374800476
0.10969636648333006
0.07474899445565168
0.07728309426035435
0.11376544225237208
-0.029283107223595443
-0.16992851655157576
-0.12375807963546706
-0.09846739861373889
0.10734419668527644
0.10089684716516507
0.08963599928822079
0.07661106662937793
0.059373714653149896
-0.1671239829828376
-0.20544136753431574
-0.0515379006081479
0.10563425953096205
0.08027170041450664
0.08358859226107408
0.11868378987927355
-0.02097492090517357
-0.14881495718234336
-0.07970857479783036
-0.024591385980031653
0.012374629674206968
0.03317499275440477
0.04269684920683196
0.04474858351243972
0.03929197064449648
0.022147371781194754
-0.012647437671678695
-0.06878500399049839
-0.14376328500419733
-0.02710427916276558
0.09802966022885774
0.050122143511580196
0.04332939051773797
0.08265939997323227
-0.03795563446766519
-0.1343603173360706
-0.02864541511747786
0.05508311230876864
0.09461352695448137
0.07319370802293539
-0.016825343184257782
-0.1705062946370928
-0.16847004435980859
0.021297532977779865
0.036944722703436
0.1128177487070748
0.2695500867627548
0.10829418657936056
-0.18830679095779276
-0.2489676351908256
-0.10408682618181254
0.021821286349364262
0.11284589434656601
0.16014052436148712
0.15914198611768776
-0.09135133235878863
-0.1871951303901847
-0.1156709010710704
-0.05416736178836164
0.026844446811741453
0.15664123833128638
0.15553707312770548
0.028394205918802866
-0.036795047211260944
-0.06476479922275248
-0.08524252119050986
-0.12491147433305942
-0.0020605946506112105
0.0746520776667316
0.10395684303337764
0.088462213185778
0.03236747380317376
-0.058275930671317054
-0.1733587439667216
-0.09674196538437799
-0.006924353366895953
0.11864010273942031
0.0968300852895687
0.13273438332999815
0.0171961857557065
-0.07051028522162484
-0.15582540028492267
-0.060760913130620244
0.002208305270609465
0.03210309442744926
0.03715441887442671
0.02983404533621998
0.021389975666481285
0.017769120891796008
0.01803276239956686
0.015514939200877004
0.0012162938255972043
-0.031699517690739
-0.08389981207814425
-0.14810451870011482
-0.010814142874402946
0.14246148677558307
0.12031807682556618
0.1201828429823503
0.12782102080330154
-0.07714199869469567
-0.3114559487600405
-0.1786497837893558
-0.0647174736689089
0.0578723825547173
0.21884945832051647
0.23635129707560892
0.10706071985193856
0.005097312079867965
-0.1093838625574367
-0.2752460091428891
-0.11519025052280644
-0.026455158739781583
0.019109715543841173
0.06596853804034733
0.16050420065410725
0.13654296276916345
0.005589367009272476
-0.04549596891395296
-0.04944227210606036
-0.04858010787189065
-0.08343862761993118
0.016858354001532357
0.04036140000893134
-0.006422568769882176
-0.10134696337625199
-0.012651771264157974
0.09296363038518961
0.041840174995890454
0.04654614280037116
0.10280952011678597
-0.008667626699343288
-0.11590022534941688
-0.04676300022298361
-0.02047373393854786
-0.04216681371064381
-0.10219742874677949
0.019705786386918802
0.1468344322798876
0.09710680376691622
0.07711303958671625
0.08109060342692198
-0.10470433846675517
-0.2942703343175203
-0.09457972859521525
0.09756107116753349
0.09304485823832605
0.10405413273951923
0.13739259514054614
-0.008976875051793088
-0.14475120957078008
-0.08255865811823024
-0.03245452454043637
0.0015683657156610488
0.02167449072143894
0.033306310406809
0.04097800764151162
0.04472011563131462
0.0387421526974282
0.012995559087826168
-0.042795917466820634
-0.13413903169414781
-0.057935794761303304
-0.0017005184276307807
