0
8.952689310902615e-08
2.0289367480645634e-07
2.820027024806311e-07
2.6798332412754165e-07
1.1368993494239131e-07
-1.8625821717709259e-07
-5.685836826334908e-07
-8.92683757562408e-07
-9.65040118649453e-07
-6.03874361119732e-07
2.6445403355426017e-07
1.5063897087815313e-06
2.7267370702625003e-06
3.3115558684903073e-06
2.6037561125246446e-06
2.0187870444873658e-07
-3.693682007335742e-06
-8.03010185927982e-06
-1.0926201351043286e-05
-1.0118722470514778e-05
-3.855933702243022e-06
7.942178737756329e-06
2.2674162268774823e-05
3.478273632057354e-05
3.677786966513916e-05
2.1806179014606664e-05
-1.2602065860759902e-05
-6.0771405868093885e-05
-0.00010695044872333048
-0.0001272260795135974
-9.657101215810007e-05
-5.310940562529624e-07
0.00015151425578687337
0.00031714030177542723
0.00042260355476831003
0.00038100460021616247
0.00012747630422324386
-0.0003360617246935571
-0.000903084824713898
-0.0013542423062193314
-0.0013999591396600289
-0.000782353449903265
0.0005793492341351386
0.002446357991453892
0.004192797041777075
0.004889985117902961
0.0035891985183735646
-0.00022113557999559446
-0.006107933857654736
-0.012357029554480928
-0.016074467553818986
-0.013933513971543268
-0.0035824192119915635
0.014580602427518869
0.03589591580107242
0.05103952644452467
0.04748777882852387
0.013096852747706726
-0.058866989116625246
-0.16494632865886302
-0.08927886359947765
-0.005855748138896731
0.11449329359318985
0.09439406773228212
0.14114801399090549
0.04255733232893756
-0.030625043983056318
-0.11617359977648131
-0.048682892821282894
-0.048682892821282804
-0.11617359977648105
-0.030625043983055916
0.04255733232893803
0.141148013990906
0.0943940677322827
0.11449329359319038
-0.005855748138896396
-0.08927886359947743
-0.1649463286588629
-0.05886698911662527
0.013096852747706608
0.04748777882852377
0.05103952644452463
0.03589591580107245
0.014580602427518966
-0.003582419211991442
-0.01393351397154316
-0.01607446755381892
-0.012357029554480894
-0.006107933857654715
-0.00022113557999558405
0.003589198518373574
0.004889985117902971
0.0041927970417770825
0.0024463579914538957
0.0005793492341351369
-0.0007823534499032698
-0.001399959139660034
-0.0013542423062193362
-0.0009030848247139011
-0.00033606172469355903
0.00012747630422324266
0.00038100460021616177
0.0004226035547683096
0.0003171403017754269
0.00015151425578687305
-5.310940562533419e-07
-9.65710121581006e-05
-0.00012722607951359797
-0.00010695044872333088
-6.077140586809413e-05
-1.2602065860759943e-05
2.180617901460678e-05
3.6777869665139365e-05
3.478273632057375e-05
2.2674162268774965e-05
7.942178737756396e-06
-3.855933702243015e-06
-1.0118722470514805e-05
-1.0926201351043316e-05
-8.030101859279847e-06
-3.693682007335761e-06
2.0187870444873234e-07
2.6037561125246514e-06
3.3115558684903217e-06
2.7267370702625155e-06
1.5063897087815414e-06
2.644540335542657e-07
-6.038743611197296e-07
-9.650401186494531e-07
-8.926837575624094e-07
-5.685836826334931e-07
-1.8625821717709534e-07
1.136899349423892e-07
2.6798332412754086e-07
2.820027024806314e-07
2.0289367480645708e-07
8.952689310902679e-08
-1.0165460772009272e-08
-7.01188693620124e-08
-8.623291233909867e-08
-6.958332075263945e-08
-3.739467150703987e-08
-5.41109488123027e-09
1.6469433981106023e-08
2.51344687624127e-08
2.2735570163514878e-08
1.4084129137231913e-08
4.174200693400889e-09
-3.4418545348209796e-09
-7.231608014509064e-09
-7.418570693668887e-09
-5.267608165561314e-09
-2.308074333067944e-09
2.402162216610603e-10
1.7336755763580111e-09
2.09400380683998e-09
1.6249965366728428e-09
7.774848847594596e-10
-4.524554504891895e-11
-5.957477201387712e-10
-8.023399778833309e-10
-7.269063840943587e-10
-4.96546201138793e-10
-2.3999010262379917e-10
-4.68595304288482e-11
4.591624020357009e-11
4.626379656667791e-11
-1.1979940684283932e-11
-8.913478787384979e-11
-1.5419658977806714e-10
-1.9131873287068673e-10
-1.9918674426271312e-10
-1.8609108617454234e-10
-1.6381445948986005e-10
-1.426750949994603e-10
-1.288471104031258e-10
-1.2395723579868082e-10
-1.2624763704016753e-10
-1.3236707215658968e-10
-1.3900109047413849e-10
-1.4389205038138609e-10
-1.461549842702441e-10
-1.4604942396933097e-10
-1.4447814189287825e-10
-1.4246940639186245e-10
-1.408102518139439e-10
-1.3988965712430433e-10
-1.397234426992607e-10
-1.400863838054837e-10
-1.4067096790195232e-10
-1.4121350596898098e-10
-1.415602627529103e-10
-1.4167501356440413e-10
-1.4160718298361557e-10
-1.414449773684847e-10
-1.412736368327133e-10
-1.411499446028868e-10
-1.4109497167899778e-10
-1.411006220776912e-10
-1.411428692667172e-10
-1.4119509891966606e-10
-1.4123735833434424e-10
-1.4126013163520966e-10
-1.4126347402315443e-10
-1.4125347947738312e-10
-1.4123816268912898e-10
-1.4122425447463985e-10
-1.412155744534399e-10
-1.4121290916370873e-10
-1.4121488073284097e-10
-1.4121917143718527e-10
-1.4122359159789043e-10
-1.4122671535242212e-10
-1.4122804475456974e-10
-1.4122782425904631e-10
-1.4122669183926031e-10
-1.4122533552687948e-10
-1.412242604816418e-10
-1.4122369863147894e-10
-1.4122363669891135e-10
-1.4122391039569955e-10
-1.4122431111245504e-10
-1.4122466724579058e-10
-1.4122488411780417e-10
-1.4122494524741655e-10
-1.4122488877106438e-10
-1.4122477549199891e-10
-1.4122466159564842e-10
-1.4122458282536337e-10
-1.4122455084398014e-10
-1.4122455844044543e-10
-1.4122458870965183e-10
-1.4122462388399597e-10
-1.4122465119088613e-10
-1.4122466500204104e-10
-1.4122466596613259e-10
-1.4122465850270725e-10
-1.412246480399841e-10
-1.4122463895113332e-10
-1.4122463357550063e-10
-1.412246322316588e-10
-1.4122463385507116e-10
-1.4122463683425026e-10
-1.4122463971443546e-10
-1.4122464160022602e-10
-1.4122464224257972e-10
-1.412246418963193e-10
-1.4122464107069873e-10
-1.412246402814037e-10
-1.4122463987241287e-10
-1.4122463993383684e-10
-1.4122464031147108e-10
-1.4122464068856476e-10
-1.4122464071513827e-10
-1.4122464015703786e-10
-1.4122463903034784e-10
-1.4122463767764235e-10
-1.412246367385037e-10
-1.4122463697910085e-10
-1.4122463898334082e-10
-1.4122464277052953e-10
-1.4122464747595466e-10
-1.4122465128035077e-10
-1.4122465176284941e-10
-1.4122464674822587e-10
-1.412246355193409e-10
-1.4122462001192382e-10
-1.4122460539521854e-10
-1.4122459939758597e-10
-1.4122460998157635e-10
-1.4122464155596356e-10
-1.4122469074159305e-10
-1.4122474351792387e-10
-1.4122477595729685e-10
-1.412247602672111e-10
-1.4122467624380142e-10
-1.412245256330474e-10
-1.4122434401022605e-10
-1.4122420288291021e-10
-1.4122419530667313e-10
-1.412244025326324e-10
-1.4122484711378843e-10
-1.4122544772041375e-10
-1.4122599892422357e-10
-1.4122620040667336e-10
-1.4122574988427526e-10
-1.4122449093896203e-10
-1.412225747685757e-10
-1.4122056422354581e-10
-1.4121939535969212e-10
-1.412201327525892e-10
-1.4122351945191108e-10
-1.4122942416923995e-10
-1.412363984865066e-10
-1.412416261602997e-10
-1.4124151709040964e-10
-1.412330274170412e-10
-1.4121547664599784e-10
-1.4119225477943112e-10
-1.411715143024183e-10
-1.4116491678046324e-10
-1.4118392260370185e-10
-1.412340263265827e-10
-1.413085860940226e-10
-1.4138505252198946e-10
-1.4142684822752317e-10
-1.4139325155316645e-10
-1.4125705948640616e-10
-1.410258404471393e-10
-1.4075838684769048e-10
-1.4056547309917648e-10
-1.4058543589929115e-10
-1.4093199735840827e-10
-1.4162393357404793e-10
-1.4252071181456667e-10
-1.432992798623414e-10
-1.4350733214564357e-10
-1.4271119162429015e-10
-1.407203464209585e-10
-1.3782247818998027e-10
-1.3491924563277327e-10
-1.3343830174697837e-10
-1.3493502345713646e-10
-1.4040012806874625e-10
-1.4944368353980772e-10
-1.596859025176013e-10
-1.6677497179632496e-10
-1.6538708130281862e-10
-1.5128591890780095e-10
-1.2404162078972442e-10
-8.945199684301275e-11
-6.029999774395856e-11
-5.410843300584531e-11
-8.7255567833874e-11
-1.6623928257933605e-10
-2.787399156931475e-10
-3.8876933587899513e-10
-4.4066864435225125e-10
-3.7512038488145344e-10
-1.5625774150915254e-10
1.9704815371647897e-10
5.887166614886151e-10
8.479931575155214e-10
7.702569693325543e-10
1.9820531843255844e-10
-8.7316019326949e-10
-2.2056680974859228e-09
-3.2942090300085154e-09
-3.4607239248343716e-09
-2.0879786762705172e-09
1.0409468029449179e-09
5.403401692705844e-09
9.565466363979019e-09
1.1359685791056389e-08
8.527464734969525e-09
-2.2075541741487986e-10
-1.4007519461360598e-08
-2.8962982516872974e-08
-3.8395165334271657e-08
-3.444983099052969e-08
-1.1306587513062771e-08
3.0772208821637986e-08
8.204013188792324e-08
1.225650563965671e-07
1.2613998182870893e-07
6.955619418933839e-08
-5.4218752706193124e-08
-2.2318611066641566e-07
-3.803067214617193e-07
-4.4127242731555e-07
-3.2022691550303374e-07
2.8821302238034017e-08
5.661946550734433e-07
1.1363753752549474e-06
1.4774102849370237e-06
1.2882277483572813e-06
3.543057681452755e-07
-1.2963715196488259e-06
-3.2663468659430353e-06
-4.77011052726902e-06
-4.795976261149127e-06
-2.473379102684133e-06
2.416183051791987e-06
8.952990207965786e-06
1.487169610679297e-05
1.6896689843306494e-05
1.1769988956565147e-05
-2.1329340761698224e-06
-2.3054446661528222e-05
-4.475784044463299e-05
-5.7001106379478873e-05
-4.825959714460685e-05
-1.0661130309782477e-05
5.401439494484227e-05
0.00012960969103487045
0.0001852074213228427
0.0001817993372995507
8.68135961361933e-05
-0.00010609790585105413
-0.0003587104626885639
-0.0005811927034835881
-0.0006464205723760913
-0.00043097269669930123
0.00012191570244181626
0.0009357312099731929
0.0017611156915250197
0.0021985871560608254
0.00180854406372445
0.00030504388945227834
-0.002213505898717222
-0.005089108712053393
-0.007103330756583968
-0.006753532731529034
-0.002833264508090265
0.00478774119047072
0.014443167244595743
0.02238242168946997
0.023281756461712592
0.011726630668524082
-0.015550105933615246
-0.05737790774991869
-0.10687979624782096
0.047752422836709794
0.020086187843575336
0.020621965701529833
0.05199438528487001
0.10614784405538567
-0.035067876126432605
0.004495120063025509
0.00252892307876058
-0.05372438988648125
-0.16140484834269914
-0.10047858233152276
-0.03827120393045723
0.060290411119854774
0.21962220203909838
0.2424956273111269
0.10621052317685056
-0.031194785003884264
-0.21589374084836893
-0.2797565489048152
-0.2258998236176298
-0.024665118197888327
0.177800424530243
0.24154604009780067
0.21255262630759023
0.10802781255423792
-0.08771276827688838
-0.21648418133753
-0.13260634611990915
-0.08835501621724412
0.07662433865632817
0.14006561135357176
0.09714725196190702
-0.04156733630304363
-0.052383957265222866
-0.10074776706334394
-0.14474274394830444
0.05895082638021087
0.14679771795593363
0.1399145801963711
0.03851521795838626
0.021820437574755592
-0.14622877753873875
-0.10758770304957417
-0.10057007493996531
0.046715855303804385
0.11869492836210387
0.1113804551614655
0.03037430236112385
-0.11039074734612245
-0.08901073272918877
-0.0764895182275201
-0.039881459490839044
0.051713800410355636
0.21961895667037884
0.06931863102501339
-0.011616190238852256
-0.05006115338937239
-0.07939716538243752
-0.13007416433024777
-0.02209465794762448
0.03824065717164525
0.0569024399148143
0.047413393343147356
0.02514624952271972
0.00271784239043216
-0.012405251748303977
-0.018046879306432537
-0.015902183565761386
-0.009512818978729236
-0.002452209294145136
0.0028121432740343265
0.0052846959462048
0.005211135697556371
0.0035444925736364875
0.001386861631990022
-0.00040996718328542705
-0.0014188105958984152
-0.0016147210933474985
-0.0012352389977435545
-0.0006100199908102358
-2.4256052023686455e-05
0.00035390592949831367
0.00048280439087498
0.0004138002698095197
0.0002410987713664386
5.664000909256e-05
-7.773734846513974e-05
-0.00013852314500436107
-0.00013378978827957574
-8.907577011149928e-05
-3.300737081506648e-05
1.2761829896826307e-05
3.774231406459689e-05
4.1779407116288666e-05
3.1305925110228276e-05
1.4916929595189725e-05
-1.0454049226555266e-07
-9.576651103317869e-06
-1.2583823516970196e-05
-1.0562666638527124e-05
-5.99013894264034e-06
-1.2290901281850735e-06
2.1666275324849895e-06
3.639576329371995e-06
3.436611898787812e-06
2.236521624211141e-06
7.797297388429114e-07
-3.8522255207607864e-07
-1.002254937591645e-06
-1.0801907946687455e-06
-7.927169866535011e-07
-3.6367593099575414e-07
2.1154332772450414e-08
2.5801087761310915e-07
3.273808315007792e-07
2.6914420858659885e-07
1.4832560654014036e-07
2.5583258818114876e-08
-6.010214291789946e-08
-9.562129478869383e-08
-8.832253545958067e-08
-5.6207149400874e-08
-1.8403698822627285e-08
1.1210747062459108e-08
2.6409157361685982e-08
2.7746717093120694e-08
1.9896859839665816e-08
8.681505886558579e-09
-1.1661390537069323e-09
-7.077651734345923e-09
-8.65522698674016e-09
-6.9985275074680706e-09
-3.811830728680345e-09
-6.505834286603665e-10
1.5088944599012685e-09
2.3610784510753933e-09
2.120095221260944e-09
1.2621143149626793e-09
2.807389073374567e-10
-4.730989060661679e-10
-8.478941396692125e-10
-8.653354418087074e-10
-6.498808030137946e-10
-3.5246362295554067e-10
-9.432914724878636e-11
5.897386933919788e-11
9.669517383667472e-11
4.568293064356424e-11
-5.1293027999599206e-11
-1.529992279407273e-10
-2.2922446742308653e-10
-2.63019431617003e-10
-2.490079884976197e-10
-1.9137364781203806e-10
-1.0353830832137889e-10
-9.08041224905293e-12
5.87131450212413e-11
6.201969316997707e-11
-2.956614484601596e-11
-2.2155658970817238e-10
-4.772360726082174e-10
-7.098737364647753e-10
-7.947313773717543e-10
-6.070926573780201e-10
-8.298922747621865e-11
7.141285937442209e-10
1.550380334433758e-09
2.0372938737142314e-09
1.7330670549046121e-09
3.2905658372312625e-10
-2.1209159368077817e-09
-5.016639169321882e-09
-7.190026112803699e-09
-7.151011905553129e-09
-3.634896973722663e-09
3.6436205586823037e-09
1.3281363242056163e-08
2.1898103551850397e-08
2.4654817029912614e-08
1.6791676744743914e-08
-3.980265885795894e-09
-3.491687273374442e-08
-6.667191252112196e-08
-8.40709836343265e-08
-7.020687711274905e-08
-1.3765979239052208e-08
8.214947667470545e-08
1.9318284190320367e-07
2.7338973342718346e-07
2.6535008053424825e-07
1.2180494864602607e-07
-1.651555476858094e-07
-5.373546991964475e-07
-8.608410497267586e-07
-9.479201347298333e-07
-6.184596710304999e-07
2.0694860318636413e-07
1.4093917261063982e-06
2.615126229697288e-06
3.231854297107395e-06
2.613763345379728e-06
3.4873276323284204e-07
-3.402923374957996e-06
-7.655203201580076e-06
-1.0603082170944645e-05
-1.0036676280528274e-05
-4.19532061505539e-06
7.104002026083835e-06
2.1460751663351432e-05
3.3574285597715264e-05
3.617280453425977e-05
2.2452910456499334e-05
-1.0295677498474865e-05
-5.6978675028126226e-05
-0.00010267778395232192
-0.00012430056041088587
-9.721631378440189e-05
-6.501815222326491e-06
0.00014006955737188017
0.0003026845170971795
0.000410513030418311
0.0003786106344198911
0.00014158686093022538
-0.00030282086667770446
-0.0008559915733896114
-0.0013084647452291788
-0.0013788209635360032
-0.0008105733423561884
0.0004870298245614924
0.002298230996649343
0.004029470997482151
0.004783130690820127
0.003624258252755597
2.0940023655606163e-05
-0.005657969808829872
-0.011800243449801791
-0.015623228182226685
-0.013871447295461848
-0.004166022209626423
0.013264044233412865
0.034069411854544235
0.049306296815489994
0.04675414930850779
0.014300682141753954
-0.05520148008098491
-0.15920865038157367
-0.08311221077773681
-0.0020747778910212935
0.11261523113142977
0.08449136685888578
0.12350565699802565
0.02162061115513553
-0.045800354141435684
-0.11328447845861506
-0.015621259637664097
0.021560620609007843
-0.011571501081443376
-0.10663579775375925
-0.03921557173512548
0.02482702247607574
0.12032898527479918
0.07354215246960781
0.0954598895576784
-0.020120459460789733
-0.09346190732304248
-0.15233448463401217
-0.024860270567033698
0.06575615983830754
0.10372540915097564
0.08128445063340586
-0.0009830126013118429
-0.1332817579466874
-0.09588817112394656
-0.06031391443197254
0.006257155762175814
0.13349199569837775
0.13954305269571793
0.02494273498259043
-0.02869817819970961
-0.05454894224675096
-0.0924348180639961
0.020636629650746575
0.05879654414376522
0.012923914925210996
-0.10712298814427493
-0.07397830447209332
-0.04818216025094746
0.012779377969258612
0.1434032687351199
0.1600735669546885
0.05547918887200451
6.066429513560492e-05
-0.049380774554236034
-0.1364754791546199
-0.09182589419455378
-0.12380463711615255
-0.01666647369113482
0.0635026280926112
0.15722547852103017
0.09865448523917349
0.1057326458189835
-0.023382447158760557
-0.1071428083377691
-0.17286050904910488
-0.04806295530508792
0.0457176188725939
0.09531248271375704
0.0953158739491345
0.04664206433903818
-0.044021530253624375
-0.16368255266967946
-0.09282940053649248
-0.007401495860961172
0.11626965646853277
0.09476738555115291
0.13194082867642373
0.017141751701468203
-0.07140588447657609
-0.15923802986456542
-0.0673151201155351
-0.006142813839079259
0.025506371552768168
0.03726437641964661
0.04104565396970656
0.04473675785945681
0.04807202250650272
0.04218230392572222
0.013091371176605469
-0.051881924774085125
-0.15703769793136652
-0.09339247961158166
-0.038446582989752634
0.038502858223079695
0.16698488042054813
0.16540922244504785
0.03461072962014805
-0.04240415436418755
-0.0944876381099581
-0.15280091582215194
-0.041613216951332285
0.027230453246086254
0.054837864435028374
0.051671817417622085
0.03205934098417974
0.009130208642235887
-0.008329808397389945
-0.01673514742170656
-0.016757017214138196
-0.011477007629223296
-0.004508520957096304
0.0013374406919229634
0.004637266836493121
0.005288816589558412
0.004056694756105415
0.0020142866183501186
9.473685311562259e-05
-0.001149115852624092
-0.001577807945527946
-0.0013571160176715665
-0.0007943592437907893
-0.0001906325395543906
0.0002507773384161885
0.0004518541520759492
0.00043817152675709904
0.0002928746710695348
0.00010961090592948536
-4.0528010543740715e-05
-0.00012288964054001772
-0.00013668319451571044
-0.00010278978493324268
-4.929176004616626e-05
-7.109623141831853e-08
3.109500214098776e-05
4.111906970111248e-05
3.4640134539095726e-05
1.9739414792726186e-05
4.15612086923861e-06
-7.000248408841846e-06
-1.1877308433253555e-05
-1.1260991835984591e-05
-7.361216742416661e-06
-2.599489417335371e-06
1.224062332211645e-06
3.2636676077416723e-06
3.540586122665957e-06
2.6171007646255937e-06
1.2213868876947835e-06
-4.1269461315297276e-08
-8.319985692022748e-07
-1.0847431277682674e-06
-9.238154658364098e-07
-5.515299429859972e-07
-1.532695414466686e-07
1.5495301218489015e-07
3.339117743667697e-07
3.97003135994814e-07
3.7482102194443307e-07
2.873659211303718e-07
1.3562391509674885e-07
-8.557704994007625e-08
-3.61189333183318e-07
-6.308532065943782e-07
-7.822438189684605e-07
-6.760682932467291e-07
-2.0518915318744812e-07
6.25690296924713e-07
1.6304463036958232e-06
2.4239380469202885e-06
2.4954042658265817e-06
1.3886267895340755e-06
-1.039210712461893e-06
-4.3629684385045e-06
-7.467915814829952e-06
-8.698292859683797e-06
-6.359501652010411e-06
4.686592790958666e-07
1.1028310337271221e-05
2.228245180022069e-05
2.9088535463134868e-05
2.551069000387589e-05
7.284725549383664e-06
-2.510988378678598e-05
-6.393274626029332e-05
-9.378260425769591e-05
-9.474075243942732e-05
-4.956535772064018e-05
4.6257550850987214e-05
0.00017490162089888744
0.0002920179276289603
0.000333195802326247
0.00023406019252279346
-3.798377529073518e-05
-0.0004492427449190792
-0.0008778649472966823
-0.0011227190381009435
-0.0009564887188232631
-0.00022247042405944162
0.001047283871795944
0.0025383493567277694
0.003645268965353961
0.003601521321593476
0.0017646420311805864
-0.0019938619843808745
-0.006925175298265705
-0.011261362400127258
-0.012495059393030613
-0.008191268505345073
0.0027516658567505806
0.018736008916424116
0.03457496637711934
0.04174144041381421
0.030209989691779494
-0.008207701030099698
-0.07594227465138825
-0.16682530907667212
-0.06618834793653643
0.045084456002888434
0.183426676756269
0.15533387389534667
0.15381223890025889
-0.03887709493370028
-0.24263684048076514
-0.2689315281965618
-0.11367764599268307
0.042132023734589345
0.22369262963594963
0.24954330904763505
0.12100700341236366
0.019364996548530872
-0.08749356105468137
-0.23172656207427228
-0.2314430851180263
-0.082252386911258
0.04156969619846437
0.17656236114972979
0.15460246653881562
0.1889965945742429
0.06796557503886241
-0.0417303830432504
-0.18237160792802015
-0.18889673776574434
-0.07489365160641104
-0.02623834476690254
-0.004622583338000201
0.040366084738368155
0.1547203598983583
0.16446385040340128
0.06619791702305558
0.02701903965975529
-0.005894199570538977
-0.08890202459281
-0.2639535425532508
-0.1450829882026927
-0.11422382393524742
0.07186693548848581
0.26598308036863466
0.31220221773619333
0.03230774762803376
0.02220665623157967
-0.14087741910289048
-0.284466648431912
-0.22696656026874593
0.029716051169450478
0.0980111323023702
0.19457507863619525
0.12748758397805127
0.08696217068616144
0.04391870259721998
-0.04267778219501058
-0.21230094329095586
-0.08811485030026014
-0.06644336055767244
-0.11443111869732023
0.022972804060838316
0.20872620855565716
0.09658045171976912
0.1166067302678245
0.06785524356445792
-0.07999428288614324
-0.17732770212153792
-0.08140210278304183
-0.0437147869168249
0.09885562800984274
0.1282659173227723
0.04597754772890922
-0.12835596553390083
-0.15960921502911754
-0.002000747955538781
-0.006824251908566313
0.06745831278187125
0.24523634226981822
0.12742354436442405
-0.10836039564896084
-0.10063069223134506
-0.0923864118216029
-0.11928421793368194
-0.001676836950494889
0.0574295242985196
0.06893781052981385
0.05104069913491746
0.02230344301404372
-0.003314079333263807
-0.018549335106581844
-0.022325460154019764
-0.017651974360591734
-0.009108078253687757
-0.0008053712401969834
0.0047340566034433495
0.006782671353598092
0.005974345745034154
0.003605022793622309
0.000983965264938888
-0.0009804602302523418
-0.0019174745478642828
-0.0019124604949340256
-0.0013130185392128085
-0.0005243790219847991
0.00013807624675566947
0.0005141410795349183
0.0005917454625768044
0.0004563141739713509
0.00022832436830105197
1.2865811717930118e-05
-0.0001274764365541067
-0.00017652653039553935
-0.0001525171011788698
-8.976669675667951e-05
-2.2070516207110146e-05
2.7645651403109913e-05
5.048238582116367e-05
4.9190370016308556e-05
3.3034029039467116e-05
1.2510402074713229e-05
-4.3767932088905324e-06
-1.3697223718186472e-05
-1.5323523196376582e-05
-1.1574326613365288e-05
-5.592939938820605e-06
-6.430813071802545e-08
3.4538804900654806e-06
4.60292328952349e-06
3.89461495153694e-06
2.231957013971627e-06
4.839039849954919e-07
-7.730945569861991e-07
-1.327419847132781e-06
-1.264283826241231e-06
-8.301434925657458e-07
-2.966303042718223e-07
1.3339700111173047e-07
3.6385135369059126e-07
3.961666450808083e-07
2.930349386185733e-07
1.3635974392983048e-07
-5.339193565490798e-09
-9.337674967979706e-08
-1.2000832530749915e-07
-9.948155425570044e-08
-5.551663566774009e-08
-1.0430868557640209e-08
2.1305217240049495e-08
3.469832535424201e-08
3.230880912415364e-08
2.0678125981522663e-08
6.8269400238349666e-09
-4.110093128342205e-09
-9.792784429466396e-09
-1.0378842537862777e-08
-7.557315330268677e-09
-3.4595004462664893e-09
1.6806855159833752e-10
2.3669267189315855e-09
2.976124375812128e-09
2.3895188802850177e-09
1.2292008126076337e-09
6.768914612981482e-11
-7.323889606690361e-10
-1.0542893878748841e-09
-9.732515300477613e-10
-6.625286474996001e-10
-3.0336641501834957e-10
-2.5550619916134304e-11
1.1416411769799164e-10
1.2293036025846332e-10
4.610687336816587e-11
-6.09170440034609e-11
-1.5367717351834642e-10
-2.0848709015153143e-10
-2.2219331279726794e-10
-2.0561768588719855e-10
-1.7505025890555583e-10
-1.4516137622230584e-10
-1.250219465037882e-10
-1.1733135884924355e-10
-1.199157567749542e-10
-1.2819565585472225e-10
-1.374974369311679e-10
-1.445452711366426e-10
-1.4796925226684939e-10
-1.4803259682098415e-10
-1.4594978380612102e-10
-1.4315848756418374e-10
-1.407893034616432e-10
-1.3942597777522217e-10
-1.39124217254612e-10
-1.3958824677918246e-10
-1.403921251980357e-10
-1.4116036951700495e-10
-1.4166650869571045e-10
-1.4184897675170088e-10
-1.4176974736458808e-10
-1.415496375855477e-10
-1.4130902312892133e-10
-1.4113046425740653e-10
-1.4104684954666715e-10
-1.4104938287705868e-10
-1.4110563545833823e-10
-1.4117833731205475e-10
-1.4123877697669885e-10
-1.4127261125832035e-10
-1.4127906089488703e-10
-1.4126617204394051e-10
-1.412450660523617e-10
-1.4122534214060406e-10
-1.4121264314028932e-10
-1.4120834894433208e-10
-1.4121071183334763e-10
-1.4121655010955016e-10
-1.4122276687545553e-10
-1.4122728458119927e-10
-1.4122931849043802e-10
-1.412291465807897e-10
-1.4122763256974972e-10
-1.4122574146613603e-10
-1.4122420145549144e-10
-1.4122336380936515e-10
-1.4122323177582297e-10
-1.412235873821426e-10
-1.4122414065005034e-10
-1.4122464646314715e-10
-1.4122496452439208e-10
-1.4122506460819404e-10
-1.4122499556054409e-10
-1.4122484102767185e-10
-1.4122468059225208e-10
-1.412245664498944e-10
-1.4122451719143492e-10
-1.4122452434757184e-10
-1.4122456496794742e-10
-1.412246140959816e-10
-1.4122465328777445e-10
-1.412246739715269e-10
-1.412246764948056e-10
-1.412246667404258e-10
-1.412246522591582e-10
-1.412246393026318e-10
-1.4122463135104188e-10
-1.412246290457768e-10
-1.4122463103200062e-10
-1.4122463511426096e-10
-1.4122463924981266e-10
-1.412246421295139e-10
-1.41224643316626e-10
-1.412246430625996e-10
-1.4122464197592088e-10
-1.4122464070124469e-10
-1.4122463970509157e-10
-1.4122463919579662e-10
-1.412246391533668e-10
-1.4122463941957137e-10
-1.4122463979805153e-10
-1.412246401295531e-10
-1.412246403279589e-10
-1.412246403802819e-10
-1.41224640323857e-10
-1.4122464021621777e-10
-1.4122464010973794e-10
-1.4122464003719477e-10
-1.4122464000874547e-10
-1.412246400170673e-10
-1.4122464004606064e-10
-1.4122464007909283e-10
-1.412246401043803e-10
-1.4122464011688204e-10
-1.4122464011739546e-10
-1.4122464011016326e-10
-1.4122464010028533e-10
-1.412246400918135e-10
-1.4122464008687311e-10
-1.4122464008570775e-10
-1.4122464008729436e-10
-1.4122464009012753e-10
-1.4122464009286596e-10
-1.4122464009469056e-10
-1.4122464009536797e-10
-1.412246400951083e-10
-1.4122464009433666e-10
-1.412246400934817e-10
-1.412246400928406e-10
-1.4122464009253475e-10
-1.4122464009253638e-10
-1.4122464009273209e-10
-1.4122464009298952e-10
-1.4122464009320578e-10
-1.4122464009332853e-10
-1.4122464009335384e-10
-1.4122464009330959e-10
-1.4122464009323514e-10
-1.412246400931648e-10
-1.41224640093119e-10
-1.4122464009310297e-10
-1.4122464009311083e-10
-1.412246400931313e-10
-1.412246400931534e-10
-1.4122464009316964e-10
-1.412246400931771e-10
-1.4122464009317667e-10
-1.412246400931714e-10
-1.412246400931647e-10
-1.412246400931592e-10
-1.4122464009315614e-10
-1.412246400931556e-10
-1.4122464009315684e-10
-1.4122464009315878e-10
-1.412246400931606e-10
-1.4122464009316175e-10
-1.4122464009316212e-10
-1.4122464009316188e-10
-1.4122464009316134e-10
-1.4122464009316077e-10
-1.4122464009316036e-10
-1.4122464009316018e-10
-1.412246400931602e-10
-1.4122464009316036e-10
-1.4122464009316051e-10
-1.4122464009316067e-10
-1.4122464009316075e-10
-1.4122464009316075e-10
-1.4122464009316072e-10
-1.4122464009316067e-10
-1.4122464009316062e-10
-1.412246400931606e-10
-1.4122464009316056e-10
-1.412246400931606e-10
-1.412246400931606e-10
-1.4122464009316062e-10
-1.4122464009316062e-10
-1.4122464009316062e-10
-1.4122464009316062e-10
-1.4122464009316062e-10
-1.4122464009316062e-10
-1.4122464009316062e-10
-1.4122464009316062e-10
-1.4122464009316062e-10
-1.4122464009316062e-10
-1.4122464009316062e-10
-1.4122464009316062e-10
-1.4122464009316062e-10
-1.4122464009316062e-10
-1.4122464009316062e-10
-1.4122464009316062e-10
-1.4122464009316062e-10
-1.4122464009316062e-10
-1.4122464009316062e-10
-1.4122464009316062e-10
-1.4122464009316062e-10
-1.4122464009316062e-10
-1.4122464009316062e-10
-1.4122464009316062e-10
-1.4122464009316062e-10
-1.4122464009316062e-10
-1.4122464009316062e-10
-1.4122464009316062e-10
-1.4122464009316062e-10
-1.4122464009316062e-10
-1.4122464009316062e-10
-1.4122464009316062e-10
-1.4122464009316062e-10
-1.4122464009316062e-10
-1.4122464009316062e-10
-1.4122464009316062e-10
-1.4122464009316062e-10
-1.4122464009316062e-10
-1.4122464009316062e-10
-1.4122464009316062e-10
-1.4122464009316062e-10
-1.4122464009316062e-10
-1.4122464009316062e-10
-1.4122464009316062e-10
-1.4122464009316062e-10
-1.4122464009316062e-10
-1.4122464009316062e-10
-1.4122464009316062e-10
-1.4122464009316062e-10
-1.4122464009316062e-10
-1.4122464009316062e-10
-1.4122464009316062e-10
-1.4122464009316062e-10
-1.4122464009316062e-10
-1.4122464009316062e-10
-1.4122464009316062e-10
-1.4122464009316062e-10
-1.4122464009316062e-10
-1.4122464009316062e-10
-1.4122464009316062e-10
-1.4122464009316062e-10
-1.4122464009316062e-10
-1.4122464009316062e-10
-1.4122464009316062e-10
-1.4122464009316062e-10
-1.4122464009316062e-10
-1.4122464009316062e-10
-1.4122464009316062e-10
-1.4122464009316062e-10
-1.4122464009316062e-10
-1.4122464009316062e-10
-1.4122464009316062e-10
-1.4122464009316062e-10
-1.4122464009316062e-10
-1.4122464009316062e-10
-1.4122464009316062e-10
-1.4122464009316062e-10
-1.4122464009316062e-10
-1.4122464009316062e-10
-1.4122464009316062e-10
-1.4122464009316062e-10
-1.4122464009316062e-10
-1.4122464009316062e-10
-1.4122464009316062e-10
-1.4122464009316062e-10
-1.4122464009316062e-10
-1.4122464009316062e-10
-1.4122464009316062e-10
-1.4122464009316062e-10
-1.4122464009316062e-10
-1.4122464009316062e-10
-1.4122464009316062e-10
-1.4122464009316062e-10
-1.4122464009316062e-10
-1.4122464009316062e-10
-1.4122464009316062e-10
-1.4122464009316062e-10
-1.4122464009316062e-10
-1.4122464009316062e-10
-1.4122464009316062e-10
-1.4122464009316062e-10
-1.4122464009316062e-10
-1.4122464009316062e-10
-1.4122464009316062e-10
-1.4122464009316062e-10
-1.4122464009316062e-10
-1.4122464009316062e-10
-1.4122464009316062e-10
-1.4122464009316062e-10
-1.4122464009316062e-10
-1.4122464009316062e-10
-1.4122464009316062e-10
-1.4122464009316062e-10
-1.4122464009316062e-10
-1.4122464009316062e-10
-1.4122464009316062e-10
-1.4122464009316062e-10
-1.4122464009316062e-10
-1.4122464009316062e-10
-1.4122464009316062e-10
-1.4122464009316062e-10
-1.4122464009316062e-10
-1.4122464009316062e-10
-1.4122464009316062e-10
-1.4122464009316062e-10
-1.4122464009316062e-10
-1.4122464009316062e-10
-1.4122464009316062e-10
-1.4122464009316062e-10
-1.4122464009316062e-10
-1.4122464009316062e-10
-1.4122464009316062e-10
-1.4122464009316062e-10
-1.4122464009316062e-10
-1.4122464009316062e-10
-1.4122464009316062e-10
-1.4122464009316062e-10
-1.4122464009316062e-10
-1.4122464009316062e-10
-1.4122464009316062e-10
-1.4122464009316062e-10
-1.4122464009316062e-10
-1.4122464009316062e-10
-1.4122464009316062e-10
-1.4122464009316062e-10
-1.4122464009316062e-10
-1.4122464009316062e-10
-1.4122464009316062e-10
-1.4122464009316062e-10
-1.4122464009316062e-10
-1.4122464009316062e-10
-1.4122464009316062e-10
-1.4122464009316062e-10
-1.4122464009316062e-10
-1.4122464009316062e-10
-1.4122464009316062e-10
-1.4122464009316062e-10
-1.4122464009316062e-10
-1.4122464009316062e-10
-1.4122464009316062e-10
-1.4122464009316062e-10
-1.4122464009316062e-10
-1.4122464009316062e-10
-1.4122464009316062e-10
-1.4122464009316062e-10
-1.4122464009316062e-10
-1.4122464009316062e-10
-1.4122464009316062e-10
-1.4122464009316062e-10
-1.4122464009316062e-10
-1.4122464009316062e-10
-1.4122464009316062e-10
-1.4122464009316062e-10
-1.4122464009316062e-10
-1.4122464009316062e-10
-1.4122464009316062e-10
-1.4122464009316062e-10
-1.4122464009316062e-10
-1.4122464009316062e-10
-1.4122464009316062e-10
-1.4122464009316062e-10
-1.4122464009316062e-10
-1.4122464009316062e-10
-1.4122464009316062e-10
-1.4122464009316062e-10
-1.4122464009316062e-10
-1.4122464009316062e-10
-1.4122464009316062e-10
-1.4122464009316062e-10
-1.4122464009316062e-10
-1.4122464009316062e-10
-1.4122464009316062e-10
-1.4122464009316062e-10
-1.4122464009316062e-10
-1.4122464009316062e-10
-1.4122464009316062e-10
-1.4122464009316062e-10
-1.4122464009316062e-10
-1.4122464009316062e-10
-1.4122464009316062e-10
-1.4122464009316062e-10
-1.4122464009316062e-10
-1.4122464009316062e-10
-1.4122464009316062e-10
-1.4122464009316062e-10
-1.4122464009316062e-10
-1.4122464009316062e-10
-1.4122464009316062e-10
-1.4122464009316062e-10
-1.4122464009316062e-10
-1.4122464009316062e-10
-1.4122464009316062e-10
-1.4122464009316062e-10
-1.4122464009316062e-10
-1.4122464009316062e-10
-1.4122464009316062e-10
-1.4122464009316062e-10
-1.4122464009316062e-10
-1.4122464009316062e-10
-1.4122464009316062e-10
-1.4122464009316062e-10
-1.4122464009316062e-10
-1.4122464009316062e-10
-1.4122464009316062e-10
-1.4122464009316062e-10
-1.4122464009316062e-10
-1.4122464009316062e-10
-1.4122464009316062e-10
-1.4122464009316062e-10
-1.4122464009316062e-10
-1.4122464009316062e-10
-1.4122464009316062e-10
-1.4122464009316062e-10
-1.4122464009316062e-10
-1.4122464009316062e-10
-1.4122464009316062e-10
-1.4122464009316062e-10
-1.4122464009316062e-10
-1.4122464009316062e-10
-1.4122464009316062e-10
-1.4122464009316062e-10
-1.4122464009316062e-10
-1.4122464009316062e-10
-1.4122464009316062e-10
-1.4122464009316062e-10
-1.4122464009316062e-10
-1.4122464009316062e-10
-1.4122464009316062e-10
-1.4122464009316062e-10
-1.4122464009316062e-10
-1.4122464009316062e-10
-1.4122464009316062e-10
-1.4122464009316062e-10
-1.4122464009316062e-10
-1.4122464009316062e-10
-1.4122464009316062e-10
-1.4122464009316062e-10
-1.4122464009316062e-10
-1.4122464009316062e-10
-1.4122464009316062e-10
-1.4122464009316062e-10
-1.4122464009316062e-10
-1.4122464009316062e-10
-1.4122464009316062e-10
-1.4122464009316062e-10
-1.4122464009316062e-10
-1.4122464009316062e-10
-1.4122464009316062e-10
-1.4122464009316062e-10
-1.4122464009316062e-10
-1.4122464009316062e-10
-1.4122464009316062e-10
-1.4122464009316062e-10
-1.4122464009316062e-10
-1.4122464009316062e-10
-1.4122464009316062e-10
-1.4122464009316062e-10
-1.4122464009316062e-10
-1.4122464009316062e-10
-1.4122464009316062e-10
-1.4122464009316062e-10
-1.4122464009316062e-10
-1.4122464009316062e-10
-1.4122464009316062e-10
-1.4122464009316062e-10
-1.4122464009316062e-10
-1.4122464009316062e-10
-1.4122464009316062e-10
-1.4122464009316062e-10
-1.4122464009316062e-10
-1.4122464009316062e-10
-1.4122464009316062e-10
-1.4122464009316062e-10
-1.4122464009316062e-10
-1.4122464009316062e-10
-1.4122464009316062e-10
-1.4122464009316062e-10
-1.4122464009316062e-10
-1.4122464009316062e-10
-1.4122464009316062e-10
-1.4122464009316062e-10
-1.4122464009316062e-10
-1.4122464009316062e-10
-1.4122464009316062e-10
-1.4122464009316062e-10
-1.4122464009316062e-10
-1.4122464009316062e-10
-1.4122464009316062e-10
