0
-0.00012432436766388006
0.12052219608486124
0.2797311784834876
0.10274329422915297
-0.006417539266722206
-0.0646057112567472
-0.10192112771939921
-0.15057706686156055
-0.034862104764447156
0.034425033707123256
0.0600324456179595
0.05405705535002039
0.032004373849975044
0.0075519025267691215
-0.010514115120291401
-0.018913750973477833
-0.018657984723798027
-0.013006416060559217
-0.005529876405019288
0.0011388193634508889
0.005704852256656587
0.007942353797164807
0.008118806810393515
0.006489201387738927
0.0031182019529456236
-0.0019036057007724193
-0.007987235259188156
-0.013610896434345359
-0.016275174699470533
-0.013120029602542372
-0.0022515128307067367
0.015505022908649746
0.03504861550655362
0.04646595676294363
0.03623375259480238
-0.00962088733945939
-0.10100468284692335
-0.039305641002694125
-0.014743230004564073
-0.006777357798822186
0.012261684311045462
0.07129669582195702
-0.005957428049280767
-0.006308520537068196
0.0700358926873539
0.009646923400433707
-0.010965500188375728
-0.01995914632065133
-0.04390636149011761
-0.10240970085155686
-0.005133733699248153
0.04800313370452029
0.06394343199101758
0.05244771110888569
0.02274465036521702
-0.01790677881064126
-0.06371189282900798
-0.10893422337700086
0.0529796652358582
0.02881969335513691
0.023728025714578025
0.039084717654652996
0.071435174755927
-0.08680926275701722
-0.04507439647605471
-0.011704412903535757
0.008359966234169555
0.014521991987245193
0.010041200638608107
0.0005887259796711103
-0.007580554106257597
-0.009421218126974634
-0.002610930644105676
0.01141008749516274
0.02713500084987595
0.035746188926874006
0.027150888481449073
-0.00686815775142088
-0.0691801644632275
-0.1549221920350691
-0.051759813523780326
0.05642909050834754
0.18335931306577372
0.13432508099011997
0.1036521258999462
-0.12245880191326898
-0.15857350352093738
-0.21171261675604358
-0.07655275432741304
0.06298382790652153
0.22623306179642108
0.22617467565264726
0.06282442082352797
-0.07676627172992032
-0.21190542213581315
-0.15865430211891646
-0.12234418926006763
0.10400075819934987
0.1348611062237141
0.18392487577407435
0.05676608009405693
-0.05194409472106349
-0.1558339245984306
-0.07078927645134478
-0.008787108227793751
0.025683055000293043
0.035704905328421986
0.02935267721196018
0.01608106252926826
0.0036025221058972223
-0.0038699756991063578
-0.005836695337054249
-0.004505828359623559
-0.003130166842970504
-0.004272486620415457
-0.008497991965778877
-0.01386237507762943
-0.016411357013331136
-0.011706270282623114
0.0028895852452900713
0.02577141196744986
0.049416106812946836
0.0604861893182978
0.04243948156883841
-0.019414491694148973
-0.1316132076931897
-0.08724831999718193
-0.0642394799475518
-0.02884028827224915
0.05587124752191442
0.2189172904623663
0.0715718677762035
0.0024598828162552444
-0.020411511716237014
-0.041307171275323205
-0.10492152609173842
-0.04479898708065815
-0.07538827088766942
0.010247282075643967
0.03685514660452768
0.039072321067653036
0.0518011392395863
0.10176549732499247
0.002500708689248649
-0.04623685143279809
-0.055173927969462196
-0.0400925333465729
-0.016426699777649385
0.004468259261959162
0.01673608648215652
0.01944479075613915
0.01487616095926874
0.006610123975190446
-0.0019363095190802668
-0.008263719107082101
-0.010946367638466657
-0.009493703356723686
-0.004222706477716844
0.0037068562528145715
0.012164060760457042
0.018081155257357897
0.01796272690668807
0.009052749690733589
-0.008964341626480228
-0.03224997932828293
-0.05193203979817129
-0.05495733769096644
-0.027182384919630757
0.04165204469739712
0.15252474353194478
0.09361395006314206
0.04086035990745162
-0.03653338799726518
-0.16701483823650898
-0.16731476277443832
-0.03668427800963898
0.04270217713096366
0.09930066623597016
0.162505785334721
0.05379008214343673
-0.017923533085451422
-0.055398276257451376
-0.06791899303391209
-0.06461007141864254
-0.04921945147352802
-0.01836319681872639
0.03636931910916691
0.12363779362326634
0.04712795549532367
0.0021764781453387926
-0.024435271850477197
-0.05171446876048484
-0.10015589673933949
0.012286805795359769
0.07273962201852516
0.07435597240016083
0.016462053765238086
-0.09529216996533889
-0.04876183343040902
-0.02592683632731055
-0.0051721957134423825
0.034708252276385174
0.1098144201087666
0.02744699006938031
-0.015048822838310539
-0.02833143374851167
-0.02668999357824356
-0.02282450465903106
-0.023518050838723194
-0.027510931079256444
-0.026179378018621663
-0.006845814198147205
0.04221787694801616
0.12668841940878478
0.042876613572433005
-0.022329047803573483
-0.08799004982854829
0.026670509648050296
-0.09178969818225427
-0.04707198875922289
-0.032474647179126834
0.1663634877177989
-0.03358338913646663
-0.018250977596398328
0.019226110463262034
0.0764643990822805
-0.05768174349479014
-0.00029437649706102277
0.030150992469765783
0.01906668277158856
-0.03940300587040258
-0.13925344109877383
-0.06247777359823296
0.01730485693577982
0.12792826856921313
0.09056273677184914
0.11345270448549277
-0.009957465286320012
-0.09785532594387289
-0.17349414218250608
-0.058359349452353486
0.03198822440044918
0.0882304517031484
0.10489875227952922
0.077799706059322
0.0035581271844651948
-0.11801979276012892
-0.08004937249069317
-0.06569135945306
-0.04871445288509844
0.0015306054839627878
0.11177314054301189
0.09589992838137405
0.1489848951195709
0.04718672922360358
-0.04553917973839968
-0.16566768678436145
-0.13736268090788484
-0.16370705344161057
-0.02561137632257362
0.11085648029111962
0.28149662551866095
0.11062232989855815
0.002734498923172853
-0.05776772200564946
-0.0994975041897206
-0.1532341951671851
-0.0419213045107091
0.024954616650984467
0.05135603773188308
0.05016129625804811
0.036632445386018696
0.022548378378477306
0.0128527396192107
0.005495181048090286
-0.005932161245404888
-0.027944452093103284
-0.0629206377820011
-0.10653576005936782
0.05191145795616336
0.026054668985758783
0.026960278915156656
0.0576089774702094
0.1095817719582241
-0.036474229937057845
-0.0062571730280401505
-0.02420420831209951
-0.10514474347718993
-0.047932350326270405
-0.03332689591880797
-0.027203654975906776
0.011431236077002048
0.11967838072103305
0.12031990740291999
0.014936283827234456
-0.017231972385108006
-0.014336072898449535
-0.022461627226942553
-0.08443287742515178
-0.02988129463572075
-0.06903965054014762
0.008356722073306556
0.029066785511220425
0.0285998972829029
0.04202073632273611
0.09583086303814209
0.002978756228023891
-0.03798604033069443
-0.03990320190651387
-0.021530860395919456
-0.001459117053569901
0.007026186456914379
-0.0007928219678949825
-0.020030721716071037
-0.03743532307614165
-0.03475914390295636
0.006159161488846278
0.09754621753284527
0.040595536642984625
0.02283894319805349
0.019196348224277612
-0.00320327792903699
-0.0775682197542799
-0.029364545314696115
-0.06985721832114399
0.006949885448878605
0.023231817155056747
0.012591662019572021
0.013048705634621176
0.05954815752277206
-0.02238768628146999
-0.020746917506505376
0.06165760276191811
0.008643230099264586
-0.00548491325000807
-0.010383057265453799
-0.03353980163588698
-0.09498660223191917
-0.004189656329964555
0.040132785428457426
0.04751526116367871
0.03175318194598244
0.006938571324777488
-0.015357604058168568
-0.0274478371286157
-0.025825870411901652
-0.011051719407380298
0.012332399752802786
0.03589220299660874
0.04788028812314703
0.03490506550986351
-0.015074226532408296
-0.10895135373830134
-0.04517661635487429
-0.01250765769463967
0.008251186671146955
0.03979852491400394
0.10261596382807774
0.009928946805883972
-0.03506269011004082
-0.039110412965306145
-0.01651561258416144
0.014526783315873253
0.035911916193941636
0.033470423234165665
0.00046135808353350724
-0.0597074590236178
-0.13242772435288358
0.0063568533496607274
-0.01504902324423647
0.027886265950717335
0.1471880486153392
0.13594952428310178
-0.033002701311602156
-0.002057023910435086
-0.018327230163145213
-0.12069657219790984
-0.12835452321203847
-0.03448586590250148
-0.00732008541326929
0.0014663475448184128
0.04328174088098708
0.15798151758382795
0.1624872790221185
0.04636691315634959
-0.023942792898380277
-0.09351887371287228
-0.20397680198099158
-0.18058749783045797
-0.026241022942297472
0.07568526377367603
0.15118650536583705
0.22291983977588894
0.10062409477692287
-0.021192096251445733
-0.1575654485713271
-0.12233225602024707
-0.11745411712988571
-0.12734883134744526
0.07913872417977237
0.13975618821194918
0.08636956886653843
0.13387655984747168
0.07471630712165998
-0.11913695183655217
-0.08773293155397698
-0.07162147874314019
-0.10142746828792258
0.008195910979312077
0.05897472627271513
0.06468436890776146
0.04444164346307564
0.016277714329855107
-0.007108758504407917
-0.019771449380115613
-0.02157028559893394
-0.01591894079524133
-0.0073383728964383456
0.0003916805987812492
0.005150041665074945
0.006528437987590059
0.005328681684927454
0.0028665536506984044
0.000371264656297892
-0.0013672365617742636
-0.002084269958010109
-0.0019309673528136568
-0.0012752411290500843
-0.0005079654415070334
8.736575615131583e-05
0.00038439100168662733
0.0003971406446572312
0.00022610512383123502
-3.151384419997473e-06
-0.00018796787632299706
-0.00027407251252288675
-0.00025927889504549285
-0.00018154578930341828
-9.879809767069096e-05
-6.661081432625194e-05
-0.00011805350861152238
-0.00024907611300933766
-0.00041299766484879415
-0.0005279796523452501
-0.0005002366479402534
-0.0002618314991050053
0.00018488758464514545
0.0007320495296728453
0.0011614187725518348
0.0011893726197762776
0.0005685920976945889
-0.0007701768920580947
-0.0025822868722413586
-0.004249246563447813
-0.004868157639313515
-0.003533307741525267
0.00021711587222883607
0.005913639909819165
0.011845265698226082
0.01518581793354451
0.012756801116283073
0.002438527782961484
-0.015054738457271481
-0.03463731770509456
-0.04634678796376189
-0.03656939886657622
0.008790930664765087
0.09979387501637782
0.037995655106498424
0.013758253380014022
0.006589366955672895
-0.011305792263192907
-0.06919631630623475
0.008664733992009725
0.008498148490177307
-0.06986954479206794
-0.012877964078299033
0.003842277549271519
0.01008059759781129
0.034427917991156305
0.09811875552587364
0.01102034787985176
-0.029138771738245153
-0.03426209075072105
-0.02113497033197878
-0.006035368951020039
-0.00019659341028427667
-0.00708829032924299
-0.021933782089465174
-0.033488272019766945
-0.027789903568088824
0.006804765469243849
0.07454758955849765
0.16897397310282558
0.07318198126048957
-0.035334953321174575
-0.17629271095881976
-0.15782543670060273
-0.17150762250605742
0.005677740288228949
0.20229810311969493
0.23979640620503725
0.12184850276753141
0.030920529441557584
-0.06594873682570328
-0.20430665933642844
-0.20773004122248695
-0.0776678499790236
0.008088165568545636
0.08774507386104698
0.2019090634366529
0.17959463803366882
0.029297141874142847
-0.06178964198036155
-0.12089989152049145
-0.17877631446738912
-0.05957892137999688
0.0245155974994484
0.07275001604102364
0.09078444423849816
0.0844932024873943
0.055831474467505325
0.002653344032024566
-0.07771620131980911
-0.18329130231575685
-0.10377546226822416
-0.0211355066093218
0.08492693074686143
0.22866983318689793
0.21126627242187473
0.019133026622592232
-0.17062235361110428
-0.1796196070530755
-0.2175006842421936
-0.07659377455306567
0.06500869716725104
0.23303845139638435
0.2441156635541129
0.09654772935519089
-0.030522311179965834
-0.1689636716063989
-0.14809875633497802
-0.18177216359387954
-0.061703605808941304
0.04000782006439801
0.1602185109348177
0.1302318444397856
0.16326166122777508
0.04882435893764531
-0.04376325590625325
-0.15415310693640866
-0.11631421485404511
-0.14598032991524723
-0.0347714883851925
0.04707346119476981
0.1406510957176632
0.08490748191307831
0.104547489353032
0.003267068222665912
-0.03599162039228868
-0.04459218717486515
-0.05827520413781174
-0.1071853190279453
-0.008850412250870417
0.034181510946845316
0.032001721103014795
0.0016843947001306332
-0.03957402870517669
0.11958366405270858
0.08133734201320852
0.039133935161512916
-0.0178944117151802
-0.09783037316075996
-0.198981511525486
-0.10640412368566214
0.005614970614287875
0.1651414883226058
0.19121661780009705
0.0843389027005538
0.023201794744596563
-0.030459005793703274
-0.12038182414437319
-0.0816930287014481
-0.12914814099624924
-0.05177812428736544
-0.015882233407580312
0.02439803948148598
0.1121994270018268
0.2736589615755386
0.10933832378910116
-0.0051770353229324
-0.1093241291412995
-0.2419055886561799
-0.2259682627474731
-0.0604084591761982
0.07833988827813329
0.22558879860215528
0.21361821011087725
0.05929697347921071
-0.041028367332815605
-0.10819291346548747
-0.170993762312117
-0.05568704188835218
0.021565429392609185
0.05719659930510276
0.05811895546749331
0.037098315629809274
0.007986002338998446
-0.017635316753260466
-0.032007576210463594
-0.03147403738346325
-0.016322330888002095
0.009207079982199141
0.03673439638242162
0.05394211427077464
0.045963899247505206
-0.001556553148395245
-0.09807145697021973
-0.04368708783037978
-0.02647741668473396
-0.02302928824770413
-0.0026350721141035096
0.06572053028086977
0.005402665303038783
0.025431232147282525
0.11709259109416362
0.05520689916431806
0.004286800122020676
-0.07166526926125534
-0.1985605421682523
-0.18462911692011105
-0.019112020335512132
0.12177922469453371
0.2639881210305151
0.22481576531470265
0.007409929482480559
-0.1969334618597367
-0.20037248203678115
-0.20906018339927962
-0.018052602761738083
0.18670065042502157
0.22069755251089596
0.09207318677593918
-0.0035048749795326332
-0.08177157284978474
-0.16361987141745402
-0.06713327066821735
-0.0017125648706684603
0.03342318959877851
0.04639577821758171
0.047358758522326565
0.04327369588426237
0.03491323123404993
0.01716807284388555
-0.017547816360519525
-0.07418030981046475
-0.15038324827775137
-0.034574719505951874
0.09197561825666316
0.04943680654253103
0.052216774854074215
0.10314373351631775
-0.008691872813715217
-0.10565122003171555
-0.015683013162634173
0.035167574357742946
0.029788025174038224
-0.03500400801712362
-0.14657182011608172
-0.0785245452633761
0.0029023179989657454
0.12906161922353973
0.11838534983461112
0.16901018836185286
0.05796895464059799
-0.05180747525384372
-0.1985802536891163
-0.20762697297203825
-0.08140004704428308
0.0018865966034937328
0.0805620307710567
0.19575272298986565
0.17701815493296802
0.03284884784637119
-0.050700066845380164
-0.10341625934655113
-0.15966240968354908
-0.04712303160797577
0.02045075334646667
0.044696705352560144
0.03892770733259699
0.02146197640989387
0.008551468651062585
0.008907455196669464
0.020973159668929407
0.033345846003949554
0.02816849241172227
-0.013237559607845447
-0.10383641449593685
-0.04529910514221621
-0.02530699769166183
-0.01897740522539805
0.005626242559343146
0.07928943575774385
0.02306872042838732
0.04191856381405883
0.1226362237917578
0.037168613592191056
-0.049178274338394265
-0.16680833121340372
-0.1317914242561558
-0.1406041911743788
0.027895295852613612
0.2036942791386061
0.21356154768480498
0.07083688812682024
-0.028648021665260898
-0.10325904869803652
-0.1770893519390617
-0.07064127379918131
0.005234576034907353
0.05011281808316437
0.07012015641523968
0.07198739091260654
0.058090498285182
0.02470337584025569
-0.035927126984461225
-0.13080053629416882
-0.06100735622133585
-0.01871191829521067
0.012206337631865545
0.052033925700025026
0.11935762460917367
0.025865249109366696
-0.026207485091999622
-0.043293334181280556
-0.03714444258020737
-0.020567445891162633
-0.003866212555310326
0.007056288064925658
0.010803800100775742
0.009263544411771366
0.0057681130824483425
0.003317848700324318
0.003341637624028427
0.005239876860254071
0.0067492392000507405
0.005002574625969946
-0.0019947889067117833
-0.01390363262102241
-0.027161731768223365
-0.035247923146525265
-0.030501449921214945
-0.007450537729343234
0.033079805523656754
0.08054650263323891
0.11387625129820353
0.1049722444949358
0.027089401740370212
-0.13341451764235499
-0.165774949313869
-0.22933968322954973
-0.2589730474550924
-0.18369717665557528
0.2438783225587555
0.41550046334207097
0.6452379739851977
0.5706340350628245
0.18479027834653516
-0.7038335390709709
-1.0000480040452944
-0.6640157057023011
-0.291009112512854
0.058633269991140054
0.5846287594595815
0.6483055855510605
0.4801012177560476
0.7205261117597554
0.011517642235081636
-0.36024521525375275
-0.38188803738779303
-0.6193934757826867
-0.9367434433217261
-0.051001978406045805
0.46737640190815744
0.5550786876997588
0.39563463731126286
0.1605551210184742
-0.031010734306163988
-0.12717954778622081
-0.13550969184564232
-0.10089681675525795
-0.07900799863468676
-0.1133909973194532
-0.02134548393352189
0.009589582616126649
0.015515696641296269
0.04353162776673398
0.13685801967527553
0.122155813967415
0.002554411788964359
-0.04195800484960599
-0.047499077379913164
-0.05533363490080124
-0.10058696157248885
-0.003825672283883821
0.03258562298753339
0.023056640731159476
-0.006669773965338638
-0.027238521278609415
-0.013908005479546744
0.046331512190946576
0.15032828679353252
0.07855243120012993
-4.800044236814361e-06
-0.11842939419458641
-0.10056841648136507
-0.15173379065707454
-0.05514749201614693
0.02402639852023442
0.12802190314610523
0.09272061968222894
0.13562395206867608
0.0498199852026912
0.006119905257578614
-0.03729081096277096
-0.12094836097766228
-0.27080878213939175
-0.09042714718787914
0.038329260652686006
0.14634184308232526
0.26401024974799536
0.20972367513566653
-0.014758106148493107
-0.22027520034070744
-0.2203404235678439
-0.22115094046099604
-0.01725826083871624
0.20468104240266044
0.2562685960955567
0.13737855504376248
0.03157537934866419
-0.09024222444582913
-0.259441905307919
-0.09725872621981345
-0.00585259274244982
0.033669237166996484
0.056013331282325086
0.10176035098266993
0.0064198136888828855
-0.008223618232453808
0.06151827360080036
0.0016825614092392705
-0.014700463418497553
-0.020189993035945958
-0.04471839107802981
-0.10875701860459833
-0.01973397005163966
0.027339291517152996
0.04543427294903887
0.04899434806820886
0.047773891391042024
0.04323610427224763
0.028756776029688656
-0.006438042320752706
-0.07100174423753054
-0.16528406002502613
-0.07796526237118777
0.012554256018164133
0.13197170126481964
0.1013394920708354
0.12940510524736787
0.009349962585441282
-0.07870576624734289
-0.1606497567379669
-0.05991376699090569
0.00895557470808056
0.04260577898610134
0.04708520730088421
0.033586221490043124
0.013838331759829778
-0.003252453557906851
-0.013060953706706624
-0.014983742574633021
-0.011132157145744271
-0.004732805865847823
0.0012006818634484264
0.004662924535604826
0.004924145106658391
0.0024243437837115126
-0.0015297251607830548
-0.005153499144858068
-0.006631821597234023
-0.004637871333134488
0.0010959904701493912
0.009272155213068418
0.016811477593335525
0.01919372444467258
0.01152467881680059
-0.009763699009230634
-0.045045705334817054
-0.09024409976825813
0.06304095667957249
0.02571612535487898
0.008167818532425514
0.017074692666004275
0.05311957597552851
-0.08980411439894766
-0.02388633295320381
0.034421826665242156
0.06698124609014453
0.05723223607883666
-0.005803790872866802
-0.12327287516230571
-0.08337767682264186
-0.06129115672421622
-0.02338385568668707
0.06459230997360205
0.22766896226364375
0.07371845666359353
-0.009328128422087474
-0.0497507745590687
-0.08314841698001088
-0.14182042467033423
-0.046364705474977806
-0.002315244844628326
-0.0024960578229133996
0.16652400302327475
0.11706080008756359
0.05544906736653423
-0.018171365783444065
-0.10560946505681153
-0.20446565347096624
-0.10377970098837788
0.015542032327536988
0.17500224798126246
0.18994542989167534
0.06238712476004595
-0.02105768330707989
-0.0850087278719717
-0.15683489263429576
-0.057641281774033
0.00358034243672592
0.030684706510043333
0.036328375686652405
0.03521026937576415
0.03727865499073442
0.04323883039965095
0.043802960519494304
0.02300071311654618
-0.035333366301228374
-0.1399144136176173
-0.08596533132181795
-0.05341668025185431
-0.010717293207894642
0.07648932684708203
0.23468225462826167
0.07377634871442104
-0.016083423233379697
-0.06093366674698136
-0.0941588837895644
-0.14605308791790833
-0.03578539224947131
0.031554163730791555
0.062445138808633026
0.06878789740529857
0.06113976696708568
0.04419953597335021
0.016180683643215087
-0.02797122411113682
-0.09114515023789414
-0.1690666667093711
-0.048442937380244674
0.09020396819945554
0.0655915186248806
0.08731748686028899
0.14976008346397052
0.031227834291570326
-0.10065200438882911
-0.07882318733316848
-0.1254844442522489
-0.043677383185844354
-0.014820493362340004
-0.003078781101850683
0.034830862120641966
0.13747897227856054
0.1279910156874765
0.00808951312863182
-0.04132285568562374
-0.05355520218663553
-0.06605286768156747
-0.11033651144538272
-0.0050131808199600425
0.04650187634461596
0.05370807479587011
0.033798631115596535
0.005657574312533117
-0.015176788506686325
-0.019730539918593318
-0.006924902515824733
0.01670859621807508
0.038707372515874715
0.0436889754269635
0.01757104140635955
-0.047574731827807575
-0.14932046980093575
-0.07311965651431308
0.005538430730446824
0.11494773079438594
0.07874897016128336
0.10829135698717211
-0.0013147475324011416
-0.07010992415530419
-0.1278986491733865
-0.0068086518880212865
0.06575355790623234
0.07228524274564191
0.008270507526085387
-0.1166002724779319
-0.07925910401030534
-0.04682009755538846
0.016792517213989
0.14212652891385094
0.14586732550324855
0.025943053627502655
-0.03782612980572911
-0.07758922687458893
-0.12811023056467546
-0.017560581380935948
0.03867087544195107
0.039868770533918386
-0.0020136874655512986
-0.06690589861654635
0.06772850208415988
0.02133985174233991
0.005883035468557241
0.02345502701656625
0.06651789488172984
-0.07936461257696185
-0.031033719440396318
-0.002780607208368257
-0.002358066405739099
-0.029022997605194063
-0.07404647219915979
0.07649580528179449
0.037432305548090385
0.02000725539664304
0.028668634670469165
0.060189162439707525
-0.09468574156069723
-0.04780572314952922
-0.009772507677451032
0.012929603718939808
0.019072585240170855
0.012167649600798355
-0.0011223126450729394
-0.013023941609062329
-0.016764310497010847
-0.008569217190895637
0.010632013664377318
0.03416121936972962
0.049775227670256446
0.04163242003724158
-0.005821924946621463
-0.10271560108477013
-0.048881602090262384
-0.031180312639158936
-0.024463137855432006
0.003573919958424932
0.08479377307641166
0.042458491619943244
0.08501115238609601
0.0037858758447200506
-0.0246038628201544
-0.031972698643824134
-0.050378117179475414
-0.10456992124695765
-0.007264884398448772
0.041620767970240675
0.05208037492493173
0.03900613575178149
0.017081902391115684
-0.0028102129615359714
-0.014996846438499477
-0.018484017069229558
-0.015295588481438738
-0.008590542043628219
-0.001238931350932925
0.004848865425195351
0.008712900879054884
0.009965561726425085
0.008420069022468585
0.0040060416331768895
-0.0029490625676403246
-0.01122850751077107
-0.018367080932420603
-0.020827972908939296
-0.015002176659821795
0.0009880892816511114
0.02513179268374786
0.049882645296131706
0.062083628343797374
0.04528983709474257
-0.015443976949711486
-0.1274022462292541
-0.08486716231386517
-0.06717607035720749
-0.041957397224097054
0.026522812496621938
0.16615852706463768
0.186834310472726
0.07547135279031632
-0.0010187977768496728
-0.08514200877463168
-0.21409776402132083
-0.2064488352819991
-0.05549953860365938
0.06783047845874003
0.20374116951867827
0.18849198017954763
0.04151346595035222
-0.040718750900046334
-0.08268540618004684
-0.12160422871537664
0.003351575858247254
0.06091971841874952
0.03463284337288234
-0.07390260013614072
-0.04528554284861093
-0.04609111141057388
-0.0359549141034409
0.02291251885944329
0.1557898371970443
0.1680171676767634
0.04298794479907486
-0.052971993887961
-0.15995843456485392
-0.1117259854434004
-0.12551448238117413
0.0018700716189920326
0.0906743265150242
0.16942623780073768
0.06464650191120071
-0.006961373949710934
-0.04147661602705351
-0.04587181098900753
-0.03306280392560581
-0.01628260060874969
-0.004713201958165966
-0.0013961284899823804
-0.0035657980537133842
-0.004939558896408055
0.0008440638567502119
0.01662188024726993
0.03900306955292115
0.0575975444127889
0.0569275703642549
0.021109513478377067
-0.05967671912806499
-0.18313526707732014
-0.13221717752513315
-0.07852891150808634
0.007501441773642385
0.14202182433176394
0.3139779520934336
0.27881816207566323
0.16508838543745474
-0.10484534779434919
-0.3847258840625326
-0.47521192078114977
-0.3078254811967395
-0.1511892890901393
0.15898346923786918
0.5740924965239981
0.5862475888644195
0.39822524073850096
-0.07841330814265739
-0.3957888596423369
-0.5230021468250562
-0.3976996705288145
-0.29306271703923753
0.1898579147841099
0.5051742225209421
0.3306053719648031
0.13548845046581898
-0.03994866592090581
-0.18930327346910325
-0.13126627244483308
-0.0943203340528216
-0.1021405527065889
0.0354247976043457
0.12429348550625369
-0.017615397521094305
0.03304995243435033
0.09863299119678882
-0.003869814132053374
-0.0643576318311072
-0.07891964066468654
-0.04823458471949233
0.023562201234005563
0.12906749420993713
0.05753662303001052
-0.004260620894106635
-0.06968304793263115
-0.1491229425876345
-0.04793648922707094
0.033049245237231226
0.09436091416888226
0.1337697713709522
0.14396359293954902
-0.08590982697979092
-0.1647940840533917
-0.09273745730641539
-0.05600733738048087
-0.027239313467006126
0.028689571853181904
0.144899028443012
0.14238701077332577
0.023357158472667713
-0.029485182839215293
-0.047484630366433446
-0.0665724595001949
-0.11720210005894444
-0.016970327130835433
0.03204523430941918
0.041005298150213886
0.0284892778712414
0.013386402831298098
0.008662890191224362
0.017514540483736747
0.03265170312653597
0.03881346943985025
0.01801477322374717
-0.0436417595220757
-0.14948551920937203
-0.0884799820072493
-0.03610536217332288
0.039538441772148956
0.16804335315634325
0.1669134382400625
0.0356444378797832
-0.04380223904819253
-0.10033384526074811
-0.16376305463199564
-0.05571297385665063
0.015140624396344893
0.052194147416951775
0.0656008442039094
0.06535495085815188
0.055877833200758883
0.03427030037460232
-0.007202073832795835
-0.07553417914461304
-0.17080492324121738
-0.08238447700538913
0.01024168739471584
0.1317664953926543
0.10259114647391929
0.1312273525383114
0.010952313703808648
-0.07783058149106317
-0.1606719833297386
-0.06070038729705735
0.007765617462954296
0.041508942661105865
0.04660260910051215
0.03412400592480475
0.015521657712043724
-0.0007360347450043494
-0.010535355179222947
-0.013683816251311518
-0.012361815864115167
-0.009294621544002114
-0.0063333154607371775
-0.0038377330399565817
-0.0009303478382470874
0.003588134618531988
0.010068792302681831
0.017098362081940356
0.021328516412851915
0.018380480205582358
0.004833573282885675
-0.019142948064626138
-0.047422698961312244
-0.06702196187859975
-0.059763659302199734
-0.006938504040141961
0.10377493873681201
0.0711649872278839
0.07592187329050554
0.08115762088380547
0.03909224003404379
-0.09710310275549651
-0.159406103810595
-0.153431773433764
-0.0536223348729277
-0.007553575988967053
0.05131327627784448
0.1861575433622098
0.2401606367565673
0.02615265017008197
-0.07419318252986377
-0.10191241278447812
-0.10670365034828984
-0.1325483835578742
-0.007614933897563187
0.059183317799956885
0.07532009240046961
0.05790368200699093
0.026195423509346775
-0.004082628737854622
-0.023519466890289567
-0.029089991819795095
-0.02256984273430905
-0.008473795806068964
0.007657238582691212
0.020364809615453526
0.02500683605131049
0.01854638492824469
0.0006757312466171323
-0.02485945521520845
-0.04935068885618052
-0.05952600091532343
-0.03999103559944149
0.022257325859953624
0.13230220874716592
0.08281901982057766
0.05293446884861545
0.011814702774724663
-0.07350353692435066
-0.22850822503980445
-0.06341333025243616
0.029721952602030005
0.07388496150860527
0.09958294306966853
0.13626276079838343
0.006089523069250363
-0.0780634846142558
-0.11083551852573847
-0.09104206867848026
-0.01942142950275612
0.101040080738458
0.06263439233197327
0.050261349305009535
0.04079778950722893
0.005778585939045472
-0.0829052228070938
-0.04600018372624225
-0.09100479285238149
-0.009593187043250802
0.02058305465499383
0.030193645009645394
0.05045061383393128
0.10571540467847292
0.008719786287261014
-0.04037489595707231
-0.05127903585000998
-0.038699209326883824
-0.017272426766896817
0.002075523332078441
0.013639343513788696
0.01650735559108238
0.012946983115934174
0.00647313115357081
0.00027086336396477513
-0.003696962661471807
-0.0048875831445860515
-0.0038781652680638834
-0.0018324119661943705
3.871135239408085e-05
0.0008825407908359892
0.0004235011844244103
-0.0010027058069160088
-0.0025770877164949567
-0.0032633703517227245
-0.002180752888894155
0.0009774117931744411
0.005590810471761989
0.009986598709320924
0.011711701918924922
0.008303359242705345
-0.0015089331507823806
-0.016474965845176423
-0.03190204706007943
-0.039767439108059154
-0.03032432781952295
0.0048364598648923535
0.0690584021231535
0.1577410461606389
0.05805310818077492
-0.047766114644898765
-0.17623981789415025
-0.13622818923162414
-0.12560305607660605
0.06682392414771092
0.25474553305572134
0.24665406592950018
0.041552818795782466
-0.16905785993238998
-0.19382069692795229
-0.2331803497762937
-0.07538097355729752
0.1001563327575015
0.3132164268400582
0.17180443174010662
0.06580736733747014
-0.030845574890786175
-0.14995463934554332
-0.3152678877914586
-0.13154714571761092
0.01827037912388859
0.16625396450560198
0.14591264121350359
0.1777917806950728
0.06029767873210271
-0.03066274301498073
-0.1333632194965505
-0.08671186878272298
-0.11659183027607022
-0.026796299443535336
0.0027333840761774347
0.010259981417709015
0.04134714545126258
0.13621963213506652
0.11920668188314641
-0.006683824128382135
-0.05876513072491092
-0.06820106049288012
-0.0708366762571712
-0.09866499947228054
0.0255487693571088
0.08964857171862319
0.09041656499210723
0.030851443268746594
-0.08178014339262403
-0.036485626022662095
-0.018336766551895735
-0.008674655613147751
0.013513627279969204
0.06909870159021679
-0.024156238525373797
-0.054279457181401404
-0.017035963700157353
0.08304044308459689
0.03274171896127573
0.011798395139217318
-0.003765716687130261
-0.036977836787313735
-0.10517047932791833
-0.016695392876426844
0.0297407434862505
0.04297077639848692
0.035473586378019166
0.019283568938777848
0.0031080241987556973
-0.008676516176117024
-0.015298293938462664
-0.017854031482223608
-0.01748385967843113
-0.014249825011145915
-0.007155932907332385
0.0047117349614399845
0.02039610944383109
0.03543068009547704
0.04124383507940905
0.026262248868433497
-0.021217413003125105
-0.10912498887101342
-0.038098279327322314
0.00013472948793078144
0.02166183526706826
0.04696205555645324
0.09652519368187325
-0.01286158996251377
-0.07012864621989535
-0.07026970280185008
-0.013884799400058857
0.09319892097845915
0.04009682344432147
0.011463405328962527
-0.010795701777352538
-0.04471331929326882
-0.10522840328677097
-0.0021577929044656326
0.06005284626271998
0.0810614858888022
0.06306853819587957
0.010332203490678114
-0.06975439232536836
-0.1649335840749134
-0.05757925555909383
0.07293566465207439
0.04484681835968734
0.06732770577867041
0.1354080226818076
0.029067455628925404
-0.08239584676851905
-0.03165827298649059
-0.043012010747911895
-0.12378716020396205
-0.060520767827216104
-0.021446480571766968
0.03504055625958778
0.14829065939555244
0.1434616902671442
0.023694531129303698
-0.031011379294971032
-0.05806598530300273
-0.10190698983223002
-0.0024130248101227806
0.014652441113360108
-0.0568870851357986
-0.0029124925584430718
0.00731048099831895
