0
-4.5243848450734926e-14
-3.780310419879823e-14
-7.427040187190036e-15
4.422682874566214e-14
1.0405281956719536e-13
1.4731093201922184e-13
1.4306625930126307e-13
6.583856565569457e-14
-8.867452276088189e-14
-2.891849411323379e-13
-4.635757284054501e-13
-5.107432406306452e-13
-3.335981246098629e-13
1.1075723710112645e-13
7.584334250129862e-13
1.4082573623897218e-12
1.7412304328036812e-12
1.4093472940946113e-12
1.9026293500248146e-13
-1.8301944462938953e-12
-4.121447880668609e-12
-5.7115037850846655e-12
-5.409756465930757e-12
-2.2668513471659356e-12
3.817425936448756e-12
1.1551894752048445e-11
1.8082688345913327e-11
1.949266062274773e-11
1.2114667794105566e-11
-5.5160863529693095e-12
-3.066186103694565e-11
-5.5292304968292044e-11
-6.69699665801093e-11
-5.242168224660619e-11
-3.5947632545808424e-12
7.534436504010468e-11
1.6297110203338308e-10
2.2114393087286782e-10
2.0409824599987022e-10
7.65753189515636e-11
-1.6270361242568028e-10
-4.606841207176695e-10
-7.045881232592444e-10
-7.428275433293496e-10
-4.3718319030594617e-10
2.6131855480986474e-10
1.2364697396096858e-09
2.168273761419771e-09
2.572360353510618e-09
1.9432846281418985e-09
-8.612711834882865e-12
-3.0892072770883633e-09
-6.435456029312481e-09
-8.552459711534316e-09
-7.68342787491427e-09
-2.5234478899151428e-09
6.8751461194753726e-09
1.834077641493359e-08
2.7422740576600844e-08
2.8261725241151667e-08
1.5659782481077103e-08
-1.197414846696857e-08
-4.974658796998984e-08
-8.492728489646798e-08
-9.867421438791685e-08
-7.17718127633094e-08
6.116051351801832e-09
1.2619834287673074e-07
2.5378724445416144e-07
3.303616583294426e-07
2.8857390939202425e-07
8.031670411375334e-08
-2.8840099298136603e-07
-7.290045345365627e-07
-1.0660811309570176e-06
-1.0734229633851465e-06
-5.560235652211482e-07
5.3570915739479e-07
1.9971100159198984e-06
3.3225405151847833e-06
3.7798826041410877e-06
2.6398842165271783e-06
-4.6278833582559277e-07
-5.138277659778552e-06
-9.995327866975277e-06
-1.2745678380218566e-05
-1.081111154445931e-05
-2.425745558731612e-06
1.2022201937866214e-05
2.8931429424793177e-05
4.139736718169109e-05
4.0697559207859184e-05
1.9535094842856047e-05
-2.3537907695333872e-05
-8.001180493416265e-05
-0.00012983349774877643
-0.00014458883366627012
-9.665271234206928e-05
2.6738556355949182e-05
0.0002085706507286705
0.00039315142783499633
0.000491106092207524
0.00040387061279683196
6.693009630118985e-05
-0.0004986256234127682
-0.001146806847247663
-0.0016061654802468357
-0.001540720401534163
-0.0006780054261214788
0.001019946947110018
0.003202100201587345
0.005076204461958233
0.00554413634985685
0.0035671012974483507
-0.0012858218508552952
-0.008270084134393611
-0.015149140207977398
-0.018434611425395046
-0.01439678405327282
-0.0008128609399916176
0.020945642420499594
0.04425692218097581
0.056991137340421244
0.043443435599064356
-0.011403769532622482
-0.11618373262159823
-0.06792035124939455
-0.04957379198831684
-0.03200551606746027
0.0195392424329056
0.13614162372329092
0.13613810166001128
0.019523558751226883
-0.03204514572345053
-0.04964643851155481
-0.06802091682885902
-0.11628480214964622
-0.011456371829494646
0.043496393825795295
0.05718918469927987
0.044590501632074536
0.021331324316539828
-0.000534304107022057
-0.014425484001561066
-0.018936063776870488
-0.016151943608271956
-0.00957200552030411
-0.0024193299912070865
0.0032584323560470698
0.006691840181301723
0.00796162097019704
0.0074154807019727546
0.005263359250601761
0.0015372027101645035
-0.0035931763513755485
-0.009339893097134046
-0.01396346366772676
-0.014908288955289726
-0.009606042825824794
0.003107010032689508
0.021340839143698644
0.03894530384764073
0.04552666375532399
0.02824099317460756
-0.024692956754716132
-0.1196809642596319
-0.05428795492170571
-0.016342673279600317
0.013519465221533512
0.05648544633002669
0.12932703430460576
0.03979093299449094
-0.01446235860284055
-0.04292802841608305
-0.05661019296552946
-0.062073990249050255
-0.05770591878607166
-0.0338205898884213
0.023196804894369864
0.12409595362452502
0.06989601900389375
0.04783519342947029
0.03216610334425501
-0.009913184901671847
-0.10883507451178623
-0.08281131183016929
-0.13105657687806707
-0.03279788969665624
0.047125005146124575
0.1476975187222264
0.09984080190786455
0.11746843622907412
-0.005358140919869046
-0.09046698322141172
-0.16679587721517306
-0.06053289505739004
0.012082990868929465
0.04721228145557779
0.05132239077321028
0.03644653601632385
0.015130178948205023
-0.00320436952023722
-0.01378171715167222
-0.01611314174314571
-0.012504188760389105
-0.006277882388880364
-0.000352538233809452
0.003523140808839995
0.0048858620797141185
0.0042291455371896046
0.0024969825548037256
0.0006232254123895323
-0.0007564259997262777
-0.0013934759145646945
-0.0013620944143798762
-0.0009175773266762166
-0.0003502584123215411
0.00011787743000102777
0.0003773084885822927
0.00042382138736731976
0.0003211423807795266
0.00015610254712345088
3.062134098839389e-06
-9.470715355342045e-05
-0.00012709676424089145
-0.00010811506050844243
-6.262400165564681e-05
-1.4550783799002906e-05
2.0273764910207098e-05
3.609115046212091e-05
3.526960731900125e-05
2.4472633535580647e-05
1.084394835220845e-05
-5.586297896313281e-07
-7.660389191675435e-06
-1.0844592778669442e-05
-1.1634438089784675e-05
-1.1302798832369085e-05
-9.997975163700367e-06
-6.706942095430456e-06
-5.504386120876208e-08
1.0375189402365761e-05
2.2774900781880214e-05
3.257595170967476e-05
3.3247355436029285e-05
1.8652030407192837e-05
-1.3426446596400968e-05
-5.7729966057668705e-05
-9.970631352722585e-05
-0.00011730817104054004
-8.758294025441498e-05
2.4561890930443494e-06
0.00014358058658471058
0.0002959674087532557
0.000391065467684608
0.0003487214603188584
0.0001099708741695744
-0.00032158430907191566
-0.0008452233279920243
-0.0012563677220386368
-0.001287112591914365
-0.0007014756668732309
0.0005698408400605864
0.0022986934676807154
0.003899570943445501
0.004511231164280212
0.0032619468965821396
-0.00030569531255787653
-0.0057672328424848915
-0.011512089211311216
-0.014848943538609414
-0.012710377609777637
-0.0029657738074094493
0.01393477512246859
0.03357266737505175
0.04720879678073603
0.043159078213317346
0.010107162638244826
-0.05828141148819472
-0.15902511397377472
-0.07788769397967647
0.008497339661291169
0.1263595238673122
0.09638112365253526
0.12650403326423218
0.009050863575774754
-0.07657450753478137
-0.1568071170314658
-0.05550472494767228
0.012472972725506272
0.04367544133265539
0.04446931663716277
0.026978833026113737
0.004506355856067505
-0.01213361379209298
-0.01678207600435053
-0.008692683525426112
0.007757677694689977
0.024107944193136433
0.02949282889972539
0.012912909413892868
-0.0341719105424139
-0.11560927283181836
-0.02965810023032979
0.029851942016513488
0.07053518579190471
0.09805484302967947
0.1143338230404112
-0.08116680084242624
-0.08722700124049432
-0.09564783420597833
-0.08794909834708886
-0.03637443180661053
0.09022182465555394
0.11726083503223148
0.0553692208156563
0.0948787065531166
0.006198319557543648
-0.053774170571694015
-0.1312106936884372
-0.06431124640215857
-0.07522276105306229
0.03275298556310667
0.07239370672818424
0.06593480910293259
0.037353832743128895
0.006151908463214506
-0.015885242892356932
-0.024834770454059695
-0.0225991807893081
-0.01398803935403195
-0.004066403184120833
0.003551718269485891
0.007307374315264247
0.007428660510245008
0.005200963154302046
0.0021752312204012204
-0.00041523065005654743
-0.0019240569882676337
-0.0022786518644529997
-0.0017925727760710883
-0.0009261811304309439
-8.92920714671078e-05
0.00046800181589140116
0.0006746373879837756
0.00059498537732612
0.00035903931906412523
9.778183866236828e-05
-9.802020288103108e-05
-0.00019134789630096164
-0.0001907331981227057
-0.00013086880703710972
-5.218196066698975e-05
1.3878034613596821e-05
5.134932230731315e-05
5.904689770948673e-05
4.550516755824724e-05
2.2747143988178993e-05
1.2541334216449972e-06
-1.2736393900696682e-05
-1.7617210570436956e-05
-1.5211998828433527e-05
-8.946640861514615e-06
-2.192516355849429e-06
2.764762332853673e-06
5.039301758230226e-06
4.907108927094421e-06
3.2933043348211435e-06
1.2452517241341151e-06
-4.389316954296475e-07
-1.3677098510454095e-06
-1.528897203570811e-06
-1.154137771553701e-06
-5.571235127899209e-07
-5.644190319442101e-09
3.4505817220328307e-07
4.593632722629815e-07
3.884474245874523e-07
2.2244845789790537e-07
4.804940118972084e-08
-7.728266925540727e-08
-1.32486435703977e-07
-1.2610336921450936e-07
-8.27423264406076e-08
-2.950495660657259e-08
1.338078608354791e-08
3.6343790123247566e-08
3.954045723439611e-08
2.923339426926461e-08
1.3596001451335299e-08
-5.379613391476484e-10
-9.313316429275841e-09
-1.1961693210748811e-08
-9.907461660036994e-09
-5.518269680252858e-09
-1.020321362354321e-09
2.1438633429947947e-09
3.4774471828517098e-09
3.236891244014589e-09
2.075328652078956e-09
6.93220306276649e-10
-3.9744840631122214e-10
-9.63600530527639e-10
-1.0213198547989155e-09
-7.393353042741627e-10
-3.30352242700755e-10
3.1423733130192e-11
2.504751062785853e-10
3.1087326445474927e-10
2.5203751398590845e-10
1.3613799929412604e-10
2.0365160073158536e-11
-5.908626866787628e-11
-9.063430889552907e-11
-8.195061590313283e-11
-5.05748019950521e-11
-1.487466284393122e-11
1.1996272079443003e-11
2.4392552655464033e-11
2.3386600151144537e-11
1.4229420572837443e-11
3.3993589600118787e-12
-3.822459560233909e-12
-4.8114869209090825e-12
-4.230350507655546e-14
7.34407092661657e-12
1.2665112748592886e-11
1.1331297131648727e-11
7.429808018066041e-13
-1.7967004602727916e-11
-3.897625155904331e-11
-5.2341354424472536e-11
-4.665061551089841e-11
-1.3719908614193277e-11
4.569210817315071e-11
1.1727214872947587e-10
1.724881955927935e-10
1.7446550680926277e-10
9.131183661592865e-11
-8.532298900128401e-11
-3.225296624825086e-10
-5.384603398236848e-10
-6.142871840735396e-10
-4.313031671845027e-10
7.051836551672983e-11
8.2889973012659e-10
1.6189779681302376e-09
2.069762484577831e-09
1.7621524269097354e-09
4.075504171194333e-10
-1.9341681389852174e-09
-4.6819036431024495e-09
-6.717178021212002e-09
-6.623431896133522e-09
-3.2111153633420466e-09
3.764317843395764e-09
1.2933385651692045e-08
2.1050652927841564e-08
2.3505281231257463e-08
1.580081283655167e-08
-4.162502067731551e-09
-3.366178681244744e-08
-6.369422069568266e-08
-7.976872138227424e-08
-6.586186080589806e-08
-1.1425085406598258e-08
8.023897514975439e-08
1.8556444893706047e-07
2.6057450488033245e-07
2.5070679395284156e-07
1.1155861966610156e-07
-1.6333361591519584e-07
-5.17288003081781e-07
-8.217594065827103e-07
-8.979772387444329e-07
-5.758944973127607e-07
2.1694649189042078e-07
1.3630617237622177e-06
2.5026757625897926e-06
3.0703922636498e-06
2.4544829832979597e-06
2.7146628381594827e-07
-3.3124246266774743e-06
-7.344092944345776e-06
-1.0096561929381874e-05
-9.470876973964237e-06
-3.8146015853854678e-06
7.004658679892499e-06
2.06517306942653e-05
3.204243819238771e-05
3.425357211980898e-05
2.0867345552478574e-05
-1.0572438645363257e-05
-5.5050499522500935e-05
-9.821502908606986e-05
-0.00011803133615287544
-9.118160921729629e-05
-3.8116972498954836e-06
0.0001361481163376134
0.0002902465902840976
0.00039074509262425447
0.0003570001894885206
0.00012771454736902686
-0.0002976270113484734
-0.000823224536494181
-0.001248268362606584
-0.0013049402490157428
-0.0007514752129393319
0.0004936405843568089
0.002218631545188909
0.0038528512073085063
0.004540220376385193
0.0033962949836609615
-7.104842152278934e-05
-0.0054897124196613585
-0.011303583773106404
-0.01485228152665119
-0.01304690371308442
-0.003663084841975705
0.013010840476787383
0.03274580710580635
0.0469427696671061
0.04391055521922433
0.012096808219549837
-0.055314135781888735
-0.15597180401054492
-0.07619597871129982
0.007217703693641846
0.12104082381083778
0.08734515768806272
0.11611687909191651
0.0017451304139231435
-0.07530162773687946
-0.14255095062712345
-0.027934040678926284
0.046687396725994305
0.06925890969549606
0.03850893589285561
-0.036983440454447465
-0.14097705713856223
-0.053033433545318115
0.04658337677201464
0.1712804288284749
0.12378752127964164
0.09556025456673345
-0.12880693563124126
-0.16342874082864076
-0.21289655637853544
-0.06826729956170619
0.0902076882505935
0.2845288127759647
0.12867290089641417
0.021711281077866726
-0.0523963878898581
-0.11858643104839985
-0.20145114917114965
-0.11753500479783949
0.1274621729520062
0.13602776232536032
0.1131239660646259
0.061225180584441444
-0.020953852474260903
-0.13550614986421414
-0.08006381110693953
-0.04332205309887641
-0.003988955266920866
0.0658913345624924
-0.005818468300648916
0.0006223834360035709
0.08999605117021249
0.048590382804989764
0.045360557047126826
0.03815490604879539
-0.015991669974648716
-0.14896031665107018
-0.17159633482722697
-0.06934959658575512
-0.005794936244498675
0.06633501501721771
0.1899256409319033
0.18930925539784663
0.06235332803339633
-0.018131459076976195
-0.09410953881728595
-0.20704661638873315
-0.18342805539399898
-0.026425029531530045
0.08354613370754886
0.18032119726466553
0.09956627908248436
0.06746759918537605
-0.10577867562154161
-0.026656050914123222
-0.11459881045970809
0.0037090945524869967
0.10004358253475026
0.14967254512792125
-0.06401944965565727
-0.14522430360003896
-0.0827532765163386
-0.05031570576194208
-0.011392066633029933
0.07178091469778658
0.2276767884850707
0.067119588648496
-0.019646575496331958
-0.05926291188255167
-0.0864489028288244
-0.1335497081233146
-0.022214381428697
0.040285083801649434
0.059680086955675636
0.04979228018268175
0.026539743801499392
0.0030681748337734044
-0.012805849810647774
-0.018782319338318747
-0.01661682717799735
-0.010008724238184004
-0.0026963676860911716
0.0027444813360698143
0.005292031009121083
0.005236130223624396
0.0036067422960650427
0.001567471407325486
-2.5853995361429538e-05
-0.0008199214203496473
-0.0009288514994427446
-0.000744631935052405
-0.0006877337427468851
-0.0009850950594342607
-0.0015420499679940928
-0.0019491747713441172
-0.0016354579760330375
-0.00014308454165569453
0.00254345919752359
0.005721769297863432
0.007876898948271227
0.006870005303635221
0.0004251625210357299
-0.013213321895735746
-0.03472937632114771
-0.06361723770904493
0.10135351573304019
0.06137465079983277
0.017233882459898733
-0.030048875530828814
-0.07773217288265027
-0.12006370099651788
0.051486426103491266
0.04588380885092836
0.06884678203355558
0.11965329188217845
-0.009722144498419925
-0.1324287511134391
-0.06243160727815279
-0.010113796704691605
0.020279813478932287
0.030599992512115336
0.026731174687884975
0.01579114794420386
0.0037954185421867973
-0.0055481923500734975
-0.010863406505170493
-0.012339870109152468
-0.010748911665709683
-0.006744965529656356
-0.0007260793196596246
0.006767635361999909
0.014401823742467247
0.01957879674857301
0.01857364280814619
0.00749185754911395
-0.016103195033040075
-0.05146996724999832
-0.09374028841259169
0.06549093219354843
0.03588822283440373
0.025158818074936914
0.03625473479734524
0.06624700387386973
-0.09261850945864684
-0.050155302682466193
-0.014987600209967235
0.007827064968999285
0.01753005410819493
0.016843000308499244
0.010290362564962404
0.0024585616624142395
-0.0032613029281420387
-0.005250911365917348
-0.003639745606788639
0.0001195466309359121
0.0038778032676352776
0.005488218281511255
0.0035032264857809406
-0.002208594509931951
-0.010066789817877269
-0.01682108607458863
-0.01826030184915773
-0.010697276241564448
0.006936100406574225
0.030922994076685358
0.051389868049443094
0.05266926506862237
0.01598492653997748
-0.07575983218644267
-0.03232548224118825
-0.051584141380944665
-0.1180550417917628
-0.005678910034040158
0.11547201250058972
0.07048360538733914
0.0719545001102071
0.1164382219923234
-0.013358000405441096
-0.14109607771317462
-0.08663979861446539
-0.05698111605920109
-0.04172743939913923
-0.01493856219452579
0.05710418386238524
0.004486686957115973
0.041996967664180075
0.16084192476268444
0.1268485905142044
0.08692834224737633
-0.01663693555980241
-0.22742904916026122
-0.35764635667701516
-0.17932917762861902
-0.029070010584051984
0.17354326544067405
0.299289867267083
0.3841205635302418
0.2153560231425962
-0.06469255390370045
-0.33845309357142517
-0.28382138986955785
-0.34733996276883083
-0.13016568414981292
0.2083463810169675
0.3320220241449064
0.30281176209599997
0.1598562050187208
-0.08965509430503585
-0.2662030804832058
-0.20461402775613782
-0.1391389705201662
0.10656012362755993
0.12184196016194182
0.10546942211627733
0.05983025185210904
-0.01336335677329771
-0.11424928435299055
-0.043439646169972104
9.701885334198487e-05
0.02022922016947947
0.023302580660534374
0.016647608147521996
0.006841701726716547
-0.0015249864643874119
-0.006253863124879716
-0.007193523244124613
-0.005464125143014397
-0.002611568054852338
4.0863386458591363e-05
0.0017250595202123052
0.0022625280814512127
0.0019017734706322997
0.001082516846046608
0.00022732528944760237
-0.00038449788403194213
-0.0006517611022533768
-0.0006177220987778495
-0.00040364562255780734
-0.0001423846421595857
6.728556896621623e-05
0.00017894782215668975
0.00019378792059937514
0.00014274353511185728
6.593180174736807e-05
-3.2303607970795207e-06
-4.59850211052559e-05
-5.869830888352806e-05
-4.84388176484066e-05
-2.6842709350118102e-05
-4.807711958486076e-06
1.0633896473318313e-05
1.708850989258909e-05
1.584397899225807e-05
1.0115969762926507e-05
3.3372242058398395e-06
-1.9925804427758773e-06
-4.743616810427038e-06
-5.005124031450543e-06
-3.609865192362016e-06
-1.6013833428178626e-06
1.6881291425979757e-07
1.2362445604194837e-06
1.5261575322111238e-06
1.2337020719850611e-06
6.639545513446279e-07
9.641531914212714e-08
-2.9275351388966074e-07
-4.4770776213235224e-07
-4.061466914614443e-07
-2.532025507318305e-07
-7.747388266040269e-08
5.787478421239275e-08
1.254683108089657e-07
1.2911315581601643e-07
9.115863410016248e-08
3.871776176582007e-08
-6.536792575510331e-09
-3.3132766955547815e-08
-3.962943463526526e-08
-3.138266550508535e-08
-1.6378703735151994e-08
-1.777819862551284e-09
8.01509508774257e-09
1.1712142335842194e-08
1.0399264515759855e-08
6.325801357194566e-09
1.7758178881921026e-09
-1.656878224193845e-09
-3.312221575124862e-09
-3.326786845474777e-09
-2.2986263530074898e-09
-9.312993378832301e-10
2.2426425180899708e-10
8.855028725354336e-10
1.0277719367313572e-09
7.973057276724195e-10
4.0286066079690367e-10
2.7657785179189072e-11
-2.183720369389973e-10
-3.059507185856972e-10
-2.659619625660474e-10
-1.5772584819623641e-10
-4.0057748231779304e-11
4.6886436807435976e-11
8.727900653453445e-11
8.562113504216792e-11
5.787328390743287e-11
2.2269774057930596e-11
-7.202237952177909e-12
-2.3604491214910036e-11
-2.662236043410085e-11
-2.0230360284138038e-11
-9.877557240012131e-12
-2.468679446368938e-13
5.923815046889666e-12
7.981035865682422e-12
6.794008312832923e-12
3.924358553776554e-12
8.848782166636649e-13
-1.3142640461464299e-12
-2.2959241289261168e-12
-2.2011039789506864e-12
-1.4546976634627448e-12
-5.287488836060022e-13
2.2204790183802296e-13
6.278464396274742e-13
6.88730914508896e-13
5.123057569146942e-13
2.4069409762952766e-13
-6.412539118883436e-15
-1.6080920604039455e-13
-2.0814529702797844e-13
-1.7268591330087258e-13
-9.568539275263199e-14
-1.643560039669436e-14
3.914126596700082e-14
6.164640597153252e-14
5.5222882830917815e-14
3.1646669933596323e-14
4.348592249788904e-15
-1.5906623627265914e-14
-2.3192420225545332e-14
-1.6813128289208182e-14
-5.958047004911802e-16
1.8393045496988692e-14
3.1534953811176257e-14
3.08390094758974e-14
1.1648715357253745e-14
-2.449686680715681e-14
-6.782439570703412e-14
-1.0055231736014587e-13
-1.0074990849326967e-13
-5.027932244452973e-14
5.450670984949892e-14
1.9285163352221732e-13
3.15769218110477e-13
3.537577207204435e-13
2.3901921230357926e-13
-6.027752569152368e-14
-5.035374169602528e-13
-9.557561076841637e-13
-1.1992543283863428e-12
-9.929355940271567e-13
-1.7746934200267014e-13
1.1987634959313155e-12
2.7829711713716135e-12
3.915128042867369e-12
3.774912192938041e-12
1.6929222687442171e-12
-2.4318415624610195e-12
-7.752292578150914e-12
-1.2340421250551846e-11
-1.3510051584974088e-11
-8.700571631350766e-12
3.188271966849625e-12
2.0406514032020916e-11
3.756203203541301e-11
4.61638625748203e-11
3.700804080082268e-11
4.299635044453453e-12
-4.951269621019332e-11
-1.101586137042176e-10
-1.5171711427610572e-10
-1.4262847327019766e-10
-5.7974570624995824e-11
1.0438600652074634e-10
3.0954232938720727e-10
4.812295505001012e-10
5.154105327151096e-10
3.1542737386659005e-10
-1.5608065743298371e-10
-8.243471476483804e-10
-1.4742427373781217e-09
-1.7748238381803501e-09
-1.375205576350738e-09
-6.590979848117085e-11
2.035823382724333e-09
4.354176272825477e-09
5.872354547183056e-09
5.377725767280914e-09
1.9457565290872126e-09
-4.437138792637104e-09
-1.233816047171437e-08
-1.8744706706796097e-08
-1.96320733330855e-08
-1.1359446777985382e-08
7.313013776308551e-09
3.321956093658313e-08
5.77918579280817e-08
6.814578286076942e-08
5.092594648265697e-08
-1.3860635433614287e-09
-8.337850787790642e-08
-1.718714397919519e-07
-2.270269926995384e-07
-2.0231344353150016e-07
-6.355158344322446e-08
1.8707135466067051e-07
4.909713947661836e-07
7.293046650328514e-07
7.46559140865309e-07
4.0591050960968463e-07
-3.3250135464522124e-07
-1.3356475654803732e-06
-2.2628191728351714e-06
-2.6129908734670904e-06
-1.8786829369001625e-06
2.076897960758072e-07
3.4027048310863066e-06
6.7752905716347215e-06
8.766442972311403e-06
7.59306043175102e-06
1.9966165435533218e-06
-7.83213453734156e-06
-1.9505957505279058e-05
-2.8342704445018632e-05
-2.834072899103037e-05
-1.4370741323715653e-05
1.479001484877398e-05
5.3587638027626995e-05
8.849514583181905e-05
0.00010005080594742722
6.900420101785025e-05
-1.4074651472431629e-05
-0.00013844860577630946
-0.00026679989370150756
-0.0003381929280151049
-0.0002843941925815406
-5.9256281506859025e-05
0.00032573825254772997
0.0007737261047911232
0.0011007249192957417
0.0010758944677426762
0.0005083789071169188
-0.0006349775888644328
-0.0021211007474007774
-0.0034102175392668145
-0.003743218984246509
-0.002388937598235909
0.0009754613430937433
0.005856407827282084
0.010683905362856117
0.012896776651582686
0.009503303205223844
-0.0019262605575344064
-0.022131126368781937
-0.04942998158203482
-0.079990206156199
0.09059163106927995
0.06476859023932152
0.04070345808244312
0.011451874363766972
-0.03362625113161286
-0.10566153325794977
-0.012600737151213022
0.04353258951920812
0.0677610345229114
0.07190271109337446
-0.126459095469413
-0.10566629605729838
-0.04290570483939768
0.0811300110997564
0.07644449550996188
0.1388061284715829
0.04817980819388683
-0.027962551787963315
-0.12698625791823562
-0.08169305286060277
-0.11276991573466802
-0.02606006737346573
-0.015656668492529408
0.1286809242880245
0.2133822590417041
0.23663096298568007
-0.008986082099760206
-0.12645167726799458
-0.3007276634767161
-0.28854883525073166
-0.21874607110484084
-0.006818421454936269
0.21853821847295182
0.48552672308099204
0.5583672013051368
0.33693027673500725
-0.11803074329450733
-0.5393020580262958
-0.8027960404469918
-0.6929509855083744
-0.30109177358756173
0.33807651128252736
0.9828187064370214
1.1179049195684396
0.5135091981181423
-0.17113507074977743
-0.5383181389807055
-0.9753399328918972
-0.9813689305348655
-0.32698163786441903
0.33764350867523074
0.6296267578338288
0.7568091151716602
0.647370483342413
0.3114122552912838
0.0468507561491798
-0.915240234966355
-0.7454059478564027
-0.5571181085180976
-0.17714597501808863
0.04558245455772808
0.9998206859413434
0.9608261164259437
0.3525643666895679
-0.2592919297769514
-0.5414916587358203
-0.7485262160928418
-0.6819430852441154
-0.07393393069486051
0.39633135463686936
0.6603865413514458
0.6105669600855563
0.2637906312542686
-0.04643321439464156
-0.4477591014403974
-0.4868064917713378
-0.2841134016454577
-0.10250602398902794
0.06193124689717098
0.2665108657138428
0.19408434975020403
0.12197970889659501
0.09808184368183145
0.13046656846482063
-0.007939438137155155
-0.16269515373401458
-0.1755461853929959
-0.26449681702610756
-0.2135530165196578
0.023817740035096097
0.30852884917280043
0.29317669003339997
0.2018749768161465
0.02071776099712115
-0.09760377585053828
-0.2173914724455128
-0.1985271970091834
-0.07811833624972309
-0.061302551104412406
0.07665186762539788
0.17900443348962508
0.09189555192622226
0.05007192521253033
0.0682947258291828
-0.05990717109682859
-0.15722376867751067
-0.054244834292768954
0.018776354603878068
0.03770503835414776
-0.012757227354052679
0.06141399541018303
0.06317956316599595
0.00424115089117974
-0.09468226764056577
-0.0037727082684696524
-0.08555093211612054
-0.09907126727607506
-0.007173308202443215
0.21443623093213326
0.16906571605852366
0.035374002268401615
-0.029398441681196742
-0.0795049474871928
-0.1671487643941318
-0.12994089514252868
0.016490178838829687
0.078753469654945
0.07964283265363822
0.048724609185750944
0.013063163702400626
-0.009325001682776328
-0.012219348700881042
-0.0003745764615612211
0.013936105090634802
0.01588316111605034
-0.006575626521610856
-0.058130841312033416
-0.13357890565175548
-0.018381298385249097
0.1073685833773639
0.06262590947403722
0.05903339625511935
0.09709029944759381
-0.03359293784552276
-0.15018266897029478
-0.07056909972710765
-0.008038848379779896
0.0312906667341279
0.047856014039784664
0.0459979574238241
0.031094152278724696
0.007949308567424422
-0.019032948773070706
-0.04441680188950525
-0.060284222775859375
-0.05615598461068837
-0.021143966289371128
0.05188862755436991
0.16166270306762034
0.09569211305150499
0.03155204689318425
-0.05713196105217104
-0.1916380969532263
-0.179626337775861
-0.011028867198322745
0.13948775383943376
0.10430457063508981
0.1122168356824926
-0.020651503418670628
-0.09581954548423977
-0.13297527706403342
0.03272833667907274
0.15536701928650296
0.18478804980307537
0.07567088722783094
-0.20101936168583
-0.246647223535201
-0.22826369121485135
-0.08138406024532212
0.07613537671715838
0.3222762789041529
0.3084918776868248
0.24555051439054684
-0.0962345402897404
-0.17188728542287565
-0.23751473644236937
-0.3265916155642665
-0.23635768424226025
0.0700764850941326
0.2466268035449301
0.33911606034662656
0.3627262347453519
0.09177269116895002
-0.13360104471378426
-0.3865038243017397
-0.32700899923046056
-0.18148780838876033
0.0643388595456053
0.2569120238157425
0.2558036087079032
0.11274636487467729
0.05677330760189542
-0.11037648626710943
-0.20928943105416775
-0.07253901029908266
0.06595856642306716
-0.02163747545016808
0.04610484764513532
0.05983548509178635
0.017774326608271135
-0.07620490744197511
-0.014216015679980919
0.014147400890643402
0.02018816569242545
0.014385296369641185
0.0049555294435229096
-0.0029043904966597305
-0.006960202584300298
-0.007240648655324368
-0.005042707800700269
-0.0019904462905661544
0.0006201166266454011
0.002113623668791761
0.0024189612687826405
0.001867843877476152
0.0009414006379922242
6.363700250419004e-05
-0.0005109148779125809
-0.0007150076869216282
-0.0006212523347406173
-0.00036831450046329826
-9.351419642981943e-05
0.00010945681377931259
0.00020371149609095459
0.00019980363693141258
0.0001350142323404345
5.191218417259984e-05
-1.686014667562091e-05
-5.511879350411991e-05
-6.213942760344877e-05
-4.7205024534907186e-05
-2.303564308422567e-05
-5.59549128589567e-07
1.383650031693317e-05
1.863091534718211e-05
1.5854964820092337e-05
9.154549360645256e-06
2.060324371257665e-06
-3.070924315960868e-06
-5.360070578195943e-06
-5.137095638572932e-06
-3.3941338912572647e-06
-1.232917384514417e-06
5.190229692631614e-07
1.4656989953650355e-06
1.6076554682580839e-06
1.1961690529874967e-06
5.628097672533359e-07
-1.343959299488375e-08
-3.7386411713575185e-07
-4.853383843119627e-07
-4.045316611846656e-07
-2.2725888135633999e-07
-4.422643372313615e-08
8.53762200064239e-08
1.4075837602784534e-07
1.3190878305572527e-07
8.517679827528784e-08
2.904737268973839e-08
-1.5525599801636687e-08
-3.888737283312739e-08
-4.154320379235782e-08
-3.0269426510740493e-08
-1.3697295409093779e-08
1.0596989115164325e-09
1.0066580679180066e-08
1.2626569002806458e-08
1.0309088464894572e-08
5.628093375026839e-09
9.112639293291148e-10
-2.357412253701428e-09
-3.6905295551420805e-09
-3.383243881084712e-09
-2.1338310750334208e-09
-6.778964853552043e-10
4.547151178296246e-10
1.0295707015857284e-09
1.0722578643437696e-09
7.649104828052602e-10
3.3192137476863216e-10
-4.554914224435908e-11
-2.7018601235361544e-10
-3.2807163185359833e-10
-2.6239706207197605e-10
-1.3902016377631084e-10
-1.7604809771609488e-11
6.470901234336627e-11
9.661424098644519e-11
8.66751375716495e-11
5.335876652239206e-11
1.5639580834304234e-11
-1.3103637739637755e-11
-2.720454917803987e-11
-2.7643683059706796e-11
-1.9301547219811708e-11
-8.004450904973253e-12
1.6396423851373283e-12
7.230543654760317e-12
8.513448285333127e-12
6.670474121835164e-12
3.4243212692819452e-12
3.025556153820631e-13
-1.767059727279461e-12
-2.525580198511692e-12
-2.2179941628613248e-12
-1.3317543098919982e-12
-3.557298020831618e-13
3.7275574431581586e-13
7.174535178146432e-13
7.118283711399353e-13
4.862943862330945e-13
1.919427649801799e-13
-5.4166143551707315e-14
-1.9300701676039412e-13
-2.20681137225666e-13
-1.693862481171562e-13
-8.411965058397449e-14
-3.9461229178228825e-15
4.8004682575989573e-14
6.589829817781902e-14
5.666292539462282e-14
3.314181271042008e-14
7.916037684724584e-15
-1.0522306902424869e-14
-1.891643747031314e-14
-1.8337701380612943e-14
-1.2261949063981e-14
-4.602595001405644e-15
1.6703844645558549e-15
5.110076848564001e-15
5.684455261401053e-15
4.266732614336264e-15
2.0306122250536343e-15
-2.6061113729062366e-17
-1.327868433874512e-15
-1.7461062016529866e-15
-1.4748580940694613e-15
-8.519275653548455e-16
-2.0071946367307757e-16
2.6531775330651916e-16
4.688679443013418e-16
4.4286029932097876e-16
2.7971234962080204e-16
8.066407754184978e-17
-7.903142167364043e-17
-1.6402978802765813e-16
-1.752597343395692e-16
-1.3631175752629182e-16
-7.7759229176825e-17
-2.5060303905735945e-17
7.501958166372297e-18
1.716923311290178e-17
9.335460032076923e-18
-7.129135924533465e-18
-2.3920709733737117e-17
-3.568313653198046e-17
-4.0595603926130896e-17
-3.9642004351804776e-17
-3.527407317739069e-17
-3.010779366776728e-17
-2.604734517484325e-17
-2.3952749686016446e-17
-2.3755173650676933e-17
-2.4819524633172137e-17
-2.6350454163159688e-17
-2.7699223385088045e-17
-2.851215226261233e-17
-2.8732542325871354e-17
-2.850928688378305e-17
-2.807493642923465e-17
-2.7642459459071167e-17
-2.7346025202962258e-17
-2.722810616876496e-17
-2.7259910786124688e-17
-2.737653387971342e-17
-2.7510458875182118e-17
-2.7613570244959268e-17
-2.7665031898198066e-17
-2.7667765723487823e-17
-2.7638815085680382e-17
-2.7598844002055942e-17
-2.756436385247155e-17
-2.7544109814991715e-17
-2.7539172913082805e-17
-2.7545467208270737e-17
-2.7556905196676454e-17
-2.7568031144443845e-17
-2.757549029930352e-17
-2.757830337838018e-17
-2.757729951567265e-17
-2.757419355568031e-17
-2.757072603428863e-17
-2.7568111000087006e-17
-2.7566850801587707e-17
-2.7566840822048572e-17
-2.756762501641854e-17
-2.7568667183735747e-17
-2.7569547606343166e-17
-2.757005114869983e-17
-2.7570159207023884e-17
-2.756998333193252e-17
-2.7569682643468665e-17
-2.7569396743031275e-17
-2.7569209350559306e-17
-2.7569142721623884e-17
-2.7569173281054715e-17
-2.7569255806129507e-17
-2.7569345478471806e-17
-2.7569411711056913e-17
-2.7569442459398518e-17
-2.756944116736997e-17
-2.7569420005043558e-17
-2.7569392868958953e-17
-2.7569370414765213e-17
-2.7569357924772535e-17
-2.75693556342129e-17
-2.7569360511484806e-17
-2.7569368403264706e-17
-2.7569375741583635e-17
-2.756938044143238e-17
-2.7569382006286648e-17
-2.7569381099547044e-17
-2.7569378911678526e-17
-2.7569376595422936e-17
-2.7569374920199104e-17
-2.756937417295821e-17
-2.7569374245896783e-17
-2.7569374815050626e-17
-2.7569375520702514e-17
-2.7569376092681856e-17
-2.756937640172373e-17
-2.756937644802777e-17
-2.7569376313648618e-17
-2.7569376106847028e-17
-2.756937591870693e-17
-2.7569375801041542e-17
-2.7569375764659286e-17
-2.756937579105293e-17
-2.7569375848937115e-17
-2.756937590869683e-17
-2.756937595100867e-17
-2.7569375969086658e-17
-2.7569375966193773e-17
-2.7569375950933878e-17
-2.7569375932607317e-17
-2.7569375918055046e-17
-2.756937591042868e-17
-2.75693759095627e-17
-2.756937591324431e-17
-2.7569375918655338e-17
-2.756937592347334e-17
-2.756937592641374e-17
-2.756937592724921e-17
-2.7569375926492295e-17
-2.7569375924963837e-17
-2.7569375923423808e-17
-2.7569375922356677e-17
-2.7569375921921527e-17
-2.7569375922021944e-17
-2.7569375922429924e-17
-2.7569375922905292e-17
-2.7569375923275068e-17
-2.7569375923462724e-17
-2.7569375923476634e-17
-2.7569375923376267e-17
-2.756937592323489e-17
-2.756937592311165e-17
-2.7569375923038317e-17
-2.7569375923019425e-17
-2.7569375923040875e-17
-2.756937592308116e-17
-2.7569375923120802e-17
-2.7569375923147676e-17
-2.7569375923158088e-17
-2.756937592315484e-17
-2.7569375923143963e-17
-2.7569375923131646e-17
-2.7569375923122263e-17
-2.756937592311766e-17
-2.7569375923117518e-17
-2.7569375923120242e-17
-2.756937592312393e-17
-2.756937592312708e-17
-2.7569375923128904e-17
-2.7569375923129323e-17
-2.7569375923128722e-17
-2.7569375923127662e-17
-2.7569375923126642e-17
-2.7569375923125967e-17
-2.7569375923125717e-17
-2.756937592312582e-17
-2.756937592312611e-17
-2.7569375923126426e-17
-2.7569375923126667e-17
-2.7569375923126777e-17
-2.7569375923126774e-17
-2.75693759231267e-17
