0
-1.1481762599126106e-17
-1.1481762599126126e-17
-1.1481762599126148e-17
-1.1481762599126163e-17
-1.1481762599126159e-17
-1.1481762599126125e-17
-1.1481762599126063e-17
-1.1481762599125986e-17
-1.1481762599125925e-17
-1.1481762599125917e-17
-1.1481762599125999e-17
-1.1481762599126179e-17
-1.148176259912643e-17
-1.1481762599126667e-17
-1.1481762599126764e-17
-1.1481762599126595e-17
-1.1481762599126086e-17
-1.1481762599125291e-17
-1.1481762599124438e-17
-1.148176259912391e-17
-1.1481762599124159e-17
-1.1481762599125512e-17
-1.1481762599127943e-17
-1.1481762599130881e-17
-1.1481762599133171e-17
-1.148176259913331e-17
-1.1481762599129978e-17
-1.1481762599122805e-17
-1.1481762599113095e-17
-1.1481762599104162e-17
-1.1481762599100858e-17
-1.148176259910808e-17
-1.1481762599128376e-17
-1.1481762599159336e-17
-1.1481762599191889e-17
-1.1481762599210918e-17
-1.1481762599199196e-17
-1.148176259914465e-17
-1.1481762599049303e-17
-1.1481762598936467e-17
-1.1481762598851594e-17
-1.1481762598852743e-17
-1.1481762598989276e-17
-1.1481762599272491e-17
-1.1481762599647952e-17
-1.1481762599984165e-17
-1.1481762600092661e-17
-1.1481762599787796e-17
-1.1481762598979884e-17
-1.1481762597775096e-17
-1.1481762596536815e-17
-1.1481762595855848e-17
-1.148176259639127e-17
-1.1481762598585248e-17
-1.1481762602319221e-17
-1.1481762606646883e-17
-1.1481762609780077e-17
-1.1481762609481399e-17
-1.1481762603906081e-17
-1.1481762592739016e-17
-1.1481762578237916e-17
-1.1481762565614015e-17
-1.1481762562178187e-17
-1.1481762574956716e-17
-1.1481762607063423e-17
-1.14817626538942e-17
-1.1481762700916283e-17
-1.1481762725067363e-17
-1.14817627011703e-17
-1.1481762613113379e-17
-1.1481762467052305e-17
-1.1481762301301266e-17
-1.1481762186116767e-17
-1.1481762207614244e-17
-1.1481762434533798e-17
-1.1481762874278625e-17
-1.1481763433664737e-17
-1.1481763906459839e-17
-1.1481764009401665e-17
-1.1481763477084278e-17
-1.148176220311938e-17
-1.1481760384865198e-17
-1.1481758602468598e-17
-1.1481757755140394e-17
-1.148175880320225e-17
-1.148176233029307e-17
-1.1481768037102609e-17
-1.1481774376386041e-17
-1.1481778591134873e-17
-1.1481777371097316e-17
-1.1481768163011936e-17
-1.1481750868282712e-17
-1.1481729316332856e-17
-1.1481711657338458e-17
-1.1481708853570076e-17
-1.1481730909210168e-17
-1.1481781384003181e-17
-1.1481851898396198e-17
-1.1481919333199102e-17
-1.1481948667806137e-17
-1.1481903331046627e-17
-1.1481762324137325e-17
-1.1481539607966909e-17
-1.1481297514589381e-17
-1.1481144104960379e-17
-1.1481206456974521e-17
-1.1481579077152974e-17
-1.1482258420649858e-17
-1.1483087726165216e-17
-1.1483745339229693e-17
-1.1483807520360733e-17
-1.148289801839908e-17
-1.1480901057723122e-17
-1.147816958268876e-17
-1.1475623379735832e-17
-1.1474624802359417e-17
-1.1476564257784799e-17
-1.1482191271864402e-17
-1.1490873121483148e-17
-1.150010435205069e-17
-1.1505654520398828e-17
-1.1502651798462794e-17
-1.1487611620447047e-17
-1.1460959151218822e-17
-1.1429089086068613e-17
-1.1404679127261842e-17
-1.140408903023033e-17
-1.1441435391759083e-17
-1.1520332731590956e-17
-1.1626016459320321e-17
-1.1721951332015749e-17
-1.1755200335134467e-17
-1.1672992924273243e-17
-1.144882794840473e-17
-1.1110781476641161e-17
-1.0759348703077327e-17
-1.0559952364041894e-17
-1.069910531667534e-17
-1.1304734918362509e-17
-1.2349133222635234e-17
-1.3572276412611944e-17
-1.4475126008063262e-17
-1.4426832725465813e-17
-1.2899123579255918e-17
-9.786183027539174e-18
-5.702008219620078e-18
-2.095621458548391e-18
-1.0216397315688684e-18
-4.479227440825146e-18
-1.3394684867812904e-17
-2.6542226699437232e-17
-3.9898934484220374e-17
-4.700378236675129e-17
-4.07265968401493e-17
-1.6393543887670775e-17
2.4483783726817297e-17
7.136309386717523e-17
1.0462513345461685e-16
9.997386922686397e-17
3.769547343500827e-17
-8.496668367674883e-17
-2.426110325169698e-16
-3.7785227507436907e-16
-4.1103757221540074e-16
-2.6657616272718867e-16
8.745035767572745e-17
5.982092676906908e-16
1.1049614810083217e-15
1.3556445376460795e-15
1.0780867224770141e-15
1.0246627772992135e-16
-1.4955902110599574e-15
-3.2898121668954222e-15
-4.509834392850917e-15
-4.221124085016574e-15
-1.6902478890311684e-15
3.136954244816427e-15
9.214406708824439e-15
1.427271273813014e-14
1.5227501529476318e-14
9.226426940851965e-15
-4.810469349809957e-15
-2.462978561386602e-14
-4.3820492567073567e-14
-5.256019109597061e-14
-4.04757071492735e-14
-1.4354966289587917e-15
6.096664295151014e-14
1.2953777254125538e-13
1.7406544616880448e-13
1.5865003690095494e-13
5.609571985784754e-14
-1.3363496656882012e-13
-3.676391031277631e-13
-5.56292812626157e-13
-5.803012696106279e-13
-3.322674553747262e-13
2.2347475208907407e-13
9.916488187681116e-13
1.7169864139658374e-12
2.0171641600303835e-12
1.4974729659935684e-12
-6.185109512061832e-14
-2.4957794690492152e-12
-5.11247475670606e-12
-6.728464778807685e-12
-5.966519456640539e-12
-1.8219121381230527e-12
5.626220018979514e-12
1.4624768150277204e-11
2.1638991044950117e-11
2.2060386255793823e-11
1.1854600908668268e-11
-1.0117110489849724e-11
-3.9855990970782874e-11
-6.72144767170788e-11
-7.732814583328747e-11
-5.5203369332709556e-11
6.9685474077147795e-12
1.017927371306835e-10
2.0149047929622854e-10
2.5975764631748095e-10
2.2383151229981297e-10
5.6744428101109226e-11
-2.35289886365775e-10
-5.808747730512245e-10
-8.40782029715904e-10
-8.371946084685104e-10
-4.18939978677919e-10
4.485439545301092e-10
1.5984917004017656e-09
2.6281385252527896e-09
2.9602290757886434e-09
2.026219713560149e-09
-4.4847613126782987e-10
-4.138544833632824e-09
-7.930892468636012e-09
-1.0015945950236236e-08
-8.37518597337018e-09
-1.6546317421437405e-09
9.782173541597955e-09
2.303641931886804e-08
3.2631067295365386e-08
3.1713553768946755e-08
1.4634461988842166e-08
-1.9569997158330567e-08
-6.398332856314481e-08
-1.0264336819928462e-07
-1.1315834572230042e-07
-7.401001961553614e-08
2.4334712803515233e-08
1.677691802758009e-07
3.117777082020894e-07
3.857234371048173e-07
3.124979261155127e-07
4.276531017296219e-08
-4.046040108187262e-07
-9.122440234338704e-07
-1.2649633328822392e-06
-1.199014573457328e-06
-5.038905915411342e-07
8.430314705929434e-07
2.556287341161467e-06
4.00418436077862e-06
4.3191495987798315e-06
2.6883735922052423e-06
-1.2138357202119322e-06
-6.782807867362789e-06
-1.2241491284609277e-05
-1.4835730616257616e-05
-1.1624423587312293e-05
-8.20439911990365e-07
1.665884826248052e-05
3.6073889703646346e-05
4.8980184956569254e-05
4.523942965981542e-05
1.7032725876551675e-05
-3.593986528379089e-05
-0.00010194728702550699
-0.00015602566078432034
-0.0001646003495551968
-9.703452712546075e-05
5.756658400062326e-05
0.0002735264522574425
0.00048002186686791205
0.0005697779988379102
0.00043077290485754073
-1.317126735286779e-06
-0.0006837361169229745
-0.0014255616104143418
-0.0018957619677291134
-0.0017049144832533894
-0.0005629952126199611
0.0015204959366205719
0.004068341617321202
0.0061010902052245465
0.006331234576655001
0.0036235260807108887
-0.002350976978257019
-0.010478409128920325
-0.017911909573442273
-0.020484369000412544
-0.014056788322893572
0.0032623132078938603
0.02850805561544881
0.05173528429822667
0.05541153928978704
0.016083299389404466
-0.09168445696238738
-0.09007747241474283
0.006860975272518946
-0.0036324044108698326
0.08795601013140845
0.10305650278149645
0.07455268079810808
-0.15316997373614186
-0.12451976130125356
-0.17552606014476044
-0.04137584541994685
0.13103246064012267
0.1681992376712959
0.25795074948613705
0.14572168649906458
-0.05757147531978251
-0.25708344399548894
-0.1503818697846815
-0.20624231065384613
-0.05263158766585767
0.12303774658476288
0.1628938978242415
0.12187939787552805
0.05148596134880308
-0.011287051169927646
-0.04786372388161906
-0.05583284805060698
-0.043092032855995
-0.021275820681161708
-0.0006151621269454056
0.012788622305067247
0.01736197611810673
0.014884566656628283
0.008696749011557222
0.0020790951398886983
-0.002752774215970883
-0.004950638594890541
-0.0047975575966593955
-0.0032049903031291004
-0.001198227342839452
0.00044492527223906884
0.0013457119171439407
0.0014959504955251255
0.0011244828959093224
0.0005387706666623335
1.5212983054910813e-07
-0.0003407058417132144
-0.00045014120060904363
-0.00037902018741605434
-0.0002158309118524222
-4.527289485169513e-05
7.676326614224702e-05
0.00013004372583705906
0.00012320552204365167
8.04601853824816e-05
2.8324062272641842e-05
-1.3496628245925176e-05
-3.574960223392517e-05
-3.868228616003542e-05
-2.8475790131896886e-05
-1.3138270490511275e-05
6.632189230769265e-07
9.189147952482669e-06
1.1718424414385928e-05
9.664693682968994e-06
5.351521891975204e-06
9.536704826084932e-07
-2.1263993767001235e-06
-3.4122138174227255e-06
-3.161783690465925e-06
-2.01740249203502e-06
-6.642308518905869e-07
3.9909736421042e-07
9.474576962151434e-07
9.989852117823767e-07
7.200797445615497e-07
3.1906630892909944e-07
-3.4163415516771945e-08
-2.470125455341797e-07
-3.0466567067025474e-07
-2.461425564055467e-07
-1.3235921995946186e-07
-1.909112732209979e-08
5.853108657170884e-08
8.939419522591533e-08
8.104710404379449e-08
5.0493033078537565e-08
1.54152787730453e-08
-1.1586652031735411e-08
-2.5058809173415383e-08
-2.5769193380964056e-08
-1.818319297435966e-08
-7.713255505099732e-09
1.3166687777860138e-09
6.6196814464499866e-09
7.910918713696196e-09
6.261109527751168e-09
3.264838505941529e-09
3.5092214366373274e-10
-1.6022522060575108e-09
-2.3384785157015878e-09
-2.0751205558977704e-09
-1.261408543226389e-09
-3.532022144524468e-10
3.3159256652872846e-10
6.614898139273236e-10
6.639592957203316e-10
4.584824812978271e-10
1.8550286047755706e-10
-4.506643548596419e-11
-1.7690371951227842e-10
-2.0515922068054184e-10
-1.5906372773537122e-10
-8.02972203115572e-11
-5.419889309278988e-12
4.364795808604525e-11
6.10845447602543e-11
5.306963582370635e-11
3.1449830204112184e-11
7.963282382775058e-12
-9.380724465875781e-12
-1.7429806324146083e-11
-1.7087720930957708e-11
-1.1542889592739785e-11
-4.43509813774397e-12
1.4452494048191855e-12
4.715304606057852e-12
5.314041192092052e-12
4.035830336830099e-12
1.968580908143265e-12
4.669648943461163e-14
-1.1839190487868204e-12
-1.5934072023993133e-12
-1.3556500208469602e-12
-7.824959939840055e-13
-1.758466954350463e-13
2.628316922882875e-13
4.584445971530969e-13
4.392723934614629e-13
2.901828145470768e-13
1.053801473047313e-13
-4.440307096303461e-14
-1.2534327707990152e-13
-1.3751396062038754e-13
-1.0240384840228237e-13
-4.833657132436624e-14
8.865413675720967e-16
3.175563375411511e-14
4.147877430723923e-14
3.488955571289131e-14
2.0093963204629846e-14
4.68848166363016e-15
-6.4593405132034084e-15
-1.1722508795510036e-14
-1.1963784961713908e-14
-9.216577480662847e-15
-5.4451554827332275e-15
-1.80500698991607e-15
1.4610354016661129e-15
4.60703007840485e-15
7.731753966268002e-15
1.023682316895287e-14
1.0700434887371948e-14
7.33336462381897e-15
-1.0339987146288414e-15
-1.3742429427524218e-14
-2.7407939599091553e-14
-3.5970373659884046e-14
-3.217780909022654e-14
-1.0560062868819616e-14
2.8753021366861496e-14
7.678630212653772e-14
1.14986532008006e-13
1.1881468930089077e-13
6.638981705934365e-14
-4.915724441532417e-14
-2.0756462496549153e-13
-3.556672969136002e-13
-4.1449982441094996e-13
-3.032429430233484e-13
2.2014931778354223e-14
5.252079304769628e-13
1.0616413051217647e-12
1.3862472895475936e-12
1.2161008361636018e-12
3.478791654293719e-13
-1.1957311215546547e-12
-3.0460300920384066e-12
-4.4691692388743985e-12
-4.5158622796534106e-12
-2.364164865887259e-12
2.201542144880568e-12
8.332361127807051e-12
1.3915351350305492e-11
1.5881135400184817e-11
1.1161399733842302e-11
-1.7983660278077251e-12
-2.1394119222263553e-11
-4.182044380902268e-11
-5.349295925712926e-11
-4.557825218809076e-11
-1.0607805236447553e-11
4.988828967066814e-11
1.2091231708964196e-10
1.7357306306749933e-10
1.7125972176255521e-10
8.320368628005036e-11
-9.696712027319176e-11
-3.339274654251779e-10
-5.438613234915814e-10
-6.076224015319169e-10
-4.089448506407392e-10
1.0658687760088472e-10
8.688212125046318e-10
1.6453088369280028e-09
2.0616553609996367e-09
1.7036404716797713e-09
2.9823715231861824e-10
-2.06988259597714e-09
-4.7924560833675186e-09
-6.733484753336447e-09
-6.48276099590881e-09
-2.8916850667426386e-09
4.2088384336607705e-09
1.3356532542898008e-08
2.1231485944741856e-08
2.3214038019046754e-08
1.49070181259947e-08
-5.568107418383784e-09
-3.5183564297146946e-08
-6.464964005574851e-08
-7.935820297108429e-08
-6.349488374839519e-08
-7.132551083055412e-09
8.545927930218903e-08
1.8967836689289437e-07
2.6091244116318147e-07
2.4491051072754956e-07
9.89241414214841e-08
-1.8054888516976104e-07
-5.332588937590156e-07
-8.278928929280807e-07
-8.855406910788151e-07
-5.402382527299723e-07
2.7172780933281497e-07
1.421071654221774e-06
2.5371999281244564e-06
3.050784652033729e-06
2.3589868263833507e-06
1.0309578743852057e-07
-3.512991897929817e-06
-7.496701741373635e-06
-1.0098167233877087e-05
-9.233040554867327e-06
-3.3155542243981635e-06
7.670592154156394e-06
2.1253231840712757e-05
3.2245677618523156e-05
3.3727226238326166e-05
1.9447333411797982e-05
-1.2705020426711427e-05
-5.725827275043385e-05
-9.945360576259472e-05
-0.0001171277710583502
-8.733783037708901e-05
2.78460140108078e-06
0.00014384380487228693
0.00029588721117740054
0.00039035801838849287
0.0003472775152033085
0.0001080291120155809
-0.0003233565630863396
-0.0008458264107985647
-0.0012547885592870732
-0.0012828312273974033
-0.0006950154782571734
0.0005765647740834845
0.002302514327996631
0.003896909972024542
0.004499627240856207
0.0032419211443228996
-0.000329164551121906
-0.005784577153930091
-0.011511203003151725
-0.014819678853829397
-0.012650682602914382
-0.0028874035916702694
0.014004037796401735
0.03359340161660973
0.04714261661579308
0.0429881517295605
0.00985493174273465
-0.05853782442924639
-0.15916175137111732
-0.07776766046271726
0.008963930851967814
0.12714397634061964
0.0972814714786683
0.12714397635869237
0.008963930880170586
-0.07776766043834914
-0.15916175136664493
-0.05853782445707212
0.009854931680515428
0.04298815164667491
0.04714261654323295
0.03359340159703803
0.014004037870069078
-0.0028874034077251776
-0.012650682336263394
-0.014819678588614334
-0.011511202871293818
-0.005784577297858484
-0.0003291650597935507
0.003241920310156918
0.004499626303605192
0.00389690933389789
0.0023025144771378616
0.0005765660939090476
-0.0006950129587578022
-0.0012828280536301936
-0.0012547859156397405
-0.0008458259078292544
-0.0003233596911782911
0.00010802178688407834
0.00034726716692458695
0.0003903479920757724
0.0002958826348712628
0.0001438500972143195
2.8049699040907773e-06
-8.730525345458346e-05
-0.00011709195408652919
-9.943031938526799e-05
-5.726626607075823e-05
-1.2758509893751874e-05
1.9348301023540094e-05
3.3605021397570755e-05
3.2147075119281505e-05
2.1240524346625116e-05
7.799898276131844e-06
-3.0255298272520672e-06
-8.831941393626097e-06
-9.719191146959798e-06
-7.339456061233772e-06
-3.783669400155968e-06
-7.104899037057444e-07
1.0883222593716234e-06
1.683945426212037e-06
1.6919669009457289e-06
1.816747670846426e-06
2.4335784828655876e-06
3.3475296366854746e-06
3.8139564143841645e-06
2.838487207265897e-06
-3.0650883884985127e-07
-5.501643494924877e-06
-1.136782255522471e-05
-1.528359070825603e-05
-1.4034179006893242e-05
-5.11120774192146e-06
1.161167190417076e-05
3.2432825393729897e-05
4.944219905801105e-05
5.2000261981727304e-05
3.0417134342083804e-05
-1.8709195512798188e-05
-8.716391011729288e-05
-0.0001524248132946624
-0.00018046400805931079
-0.00013584580206796703
1.6225118803021475e-06
0.00021808977108068883
0.0004527267478220302
0.0006004368810409933
0.0005379556822475924
0.00017405144539318817
-0.0004869229298329443
-0.0012916945586570426
-0.0019271598200593868
-0.0019818861431269877
-0.0010917207814006209
0.0008534828896496409
0.003508509199280943
0.005979273835357538
0.006946028893090583
0.005068545607087872
-0.000362646767578637
-0.008707434901265982
-0.017506259770088312
-0.022639537037630754
-0.019412945007337548
-0.004591807198686373
0.0210273377714537
0.05039241800224015
0.06949918563942528
0.05927688686433743
0.00040091756265245174
-0.1198444339149495
-0.10083325800566488
-0.12484016852862184
0.04149088617124938
0.04004666624549972
0.11042127761630803
0.07892579823047695
0.15120484948173202
-0.0890353641697313
-0.0749067332259429
-0.046827236897159966
-0.04197909087419234
-0.08602938782265931
0.010803021263962874
0.05290252786449621
0.054724338727151635
0.03463596178914097
0.009306389202072137
-0.009880835778060428
-0.01796650325525821
-0.015558931625164292
-0.006852426566176105
0.002633378815910188
0.008027522414209433
0.0065400885838043715
-0.0017155484835151681
-0.013556354760292206
-0.023334635013939755
-0.024457711772442024
-0.011824617311540686
0.015173899169768317
0.04993142449417674
0.07741066422621977
0.07567187525525722
0.02074573499356166
-0.10582917454149597
-0.10902243607524105
-0.1751295248321766
-0.07236842548332739
0.04163155583926945
0.20726564215832255
0.24987195861591588
0.1717394949883101
-0.04679106162449305
-0.2370426483637203
-0.22687635275045626
-0.22764940650044319
-0.02938099016802431
0.19364040529433035
0.2696171438425911
0.21482297734361422
0.024825008623626205
-0.12489654885783225
-0.26993255681019024
-0.04435904623964222
-0.07038350091559908
0.04594488441414386
0.11250573552150066
0.1447502279652394
-0.04126168537363126
-0.0336200336978965
-0.026112361085762634
-0.017246463543994485
-0.008168311495963284
-0.0006869025612009233
0.0039774261047549105
0.005630845483561085
0.004944765382242887
0.00301053984870923
0.0008847533765601182
-0.0007099516766189474
-0.0014809841909466611
-0.001497385999000824
-0.0010356414533674383
-0.0004179444490083023
0.00010440236988817693
0.00040282560091686775
0.00046618104449903974
0.0003609120615965097
0.00018173165122832547
1.1652946141674745e-05
-9.962442956007011e-05
-0.00013898759722913033
-0.00012056596905881543
-7.132090474267574e-05
-1.7925391502151396e-05
2.1447967678741048e-05
3.9672285783301547e-05
3.8832433088575626e-05
2.619202592529354e-05
1.0026623935691963e-05
-3.3283776740113467e-06
-1.0740703760558356e-05
-1.208152500971773e-05
-9.162575086232024e-06
-4.458510917232098e-06
-9.178587496450724e-08
2.6998338345576116e-06
3.6243242817953462e-06
3.0791294392601705e-06
1.7740129965484481e-06
3.95032967593126e-07
-6.006825103500869e-07
-1.0434023060108746e-06
-9.981690157708307e-07
-6.582937590708141e-07
-2.3796881924308108e-07
1.0219178355378261e-07
2.8555859995268974e-07
3.12537482778142e-07
2.321509541749406e-07
1.0889672352174602e-07
-3.047769907036143e-09
-7.292902159466365e-08
-9.440448184999656e-08
-7.855512689609016e-08
-4.403114427461104e-08
-8.456453671933306e-09
1.668996984838385e-08
2.7396731621261054e-08
2.562831938222467e-08
1.651781638358808e-08
5.602573636115828e-09
-3.0509484399769657e-09
-7.575004454201153e-09
-8.075471692588856e-09
-5.873999848112308e-09
-2.6493810849108473e-09
2.1710451120397569e-10
1.9631424506190614e-09
2.455770779645686e-09
2.001704217831412e-09
1.0902165437190488e-09
1.7352576128707882e-10
-4.606097944370724e-10
-7.182221479069915e-10
-6.572635997406434e-10
-4.1374130556386305e-10
-1.3064027508414232e-10
8.922567563197924e-11
2.0052055873169297e-10
2.0841374899418194e-10
1.4841938121576837e-10
6.417768880265016e-11
-9.137529154407897e-12
-5.267759836483995e-11
-6.38008796345688e-11
-5.0944283889989494e-11
-2.6923707069213517e-11
-3.3294758129353794e-12
1.2637708639941144e-11
1.8799995008452344e-11
1.6836794590062722e-11
1.034447421016472e-11
3.0108900823089093e-12
-2.5681871328416263e-12
-5.297427239225098e-12
-5.372444693411174e-12
-3.744686406023125e-12
-1.547147412787352e-12
3.2562329546733324e-13
1.4089222173501263e-12
1.6549565497255556e-12
1.294638273198788e-12
6.631968027063823e-13
5.727078817136859e-14
-3.435102539936969e-13
-4.896574885425337e-13
-4.2950477866893413e-13
-2.581615332283896e-13
-7.050182555240258e-14
6.862027669059962e-14
1.3389192301427236e-13
1.331340219577321e-13
9.264486761461929e-14
4.1761850496889927e-14
1.7312544433111905e-15
-1.9039007747494282e-14
-2.3800822804581985e-14
-2.235063572884625e-14
-2.4503343057254866e-14
-3.450989137104654e-14
-4.8212139108829866e-14
-5.3964550090015194e-14
-3.741655627834622e-14
1.088344570588342e-14
8.735473176943412e-14
1.7007973514792447e-13
2.2001612354492376e-13
1.9137670119072697e-13
5.1037457126071395e-14
-1.9746932771066335e-13
-4.944779386349736e-13
-7.212910916687943e-13
-7.247440033309823e-13
-3.729422591037577e-13
3.672566844893738e-13
1.3565780118328044e-12
2.2519581742004223e-12
2.557425803247004e-12
1.7798598790799997e-12
-3.2628420486437736e-13
-3.494250261841703e-12
-6.779102566363314e-12
-8.629799017960361e-12
-7.301798197064138e-12
-1.6045077034656823e-12
8.190433080499295e-12
1.9634299219249654e-11
2.804441661400407e-11
2.7515225537001578e-11
1.3118855442592201e-11
-1.609884498793731e-11
-5.434161445284668e-11
-8.800113677205593e-11
-9.782911418609206e-11
-6.514956605314189e-11
1.8605111094841123e-11
1.418046545982126e-10
2.6662907675334187e-10
3.325057257504693e-10
2.7275425634417263e-10
4.390284129465864e-11
-3.3941716598341e-10
-7.779569456883573e-10
-1.0876472628715966e-09
-1.0410787879335472e-09
-4.5441767977817976e-10
6.967051381629544e-10
2.172626155028794e-09
3.4345071792240035e-09
3.736234492541663e-09
2.3718083290593936e-09
-9.5344402108564e-10
-5.7389010860717675e-09
-1.047374932563526e-08
-1.2795193156868429e-08
-1.015836746706887e-08
-9.8481533956589e-10
1.39986859572363e-08
3.0780264857594005e-08
4.213330934258549e-08
3.931193979872882e-08
1.547931000217845e-08
-2.981500665463978e-08
-8.670616272020656e-08
-1.3388831089832429e-07
-1.4247380813135454e-07
-8.582887031471786e-08
4.5992597451740234e-08
2.3166132957415575e-07
4.10930967334359e-07
4.917398899648824e-07
3.7711431726824656e-07
1.0107609712989219e-08
-5.749023829682855e-07
-1.216147797024737e-06
-1.6302518331684725e-06
-1.4812964817518853e-06
-5.158725756915255e-07
1.2641448005894752e-06
3.454345492407008e-06
5.213441232768621e-06
5.4242904373667685e-06
3.0843323969365017e-06
-2.1338259771349255e-06
-9.329176515372382e-06
-1.6103340941135677e-05
-1.887341564008518e-05
-1.395015689545281e-05
7.056158707262345e-07
2.3520328293961204e-05
4.79861853989344e-05
6.30043621895487e-05
5.5689936922848795e-05
1.6685112645780064e-05
-5.318184660433769e-05
-0.00013739253504338017
-0.00020277204212001282
-0.0002061704470333923
-0.00010993857426867483
9.632408699832268e-05
0.00037482626703316054
0.0006302346085549514
0.0007232528464037268
0.0005137478023807162
-7.067922467391957e-05
-0.0009596940148874045
-0.001892020906161544
-0.0024333042208327126
-0.0020895325767417536
-0.0005154997395477739
0.002229429332272736
0.0054770775867132295
0.007928614974291983
0.007932049401894877
0.004096030734802975
-0.0038683516972760285
-0.014363925780720465
-0.023611259936700827
-0.02628975848916248
-0.017386503172244622
0.004877755670855094
0.03572377226831662
0.06127548749424509
0.05819820665952671
-0.0034205745183911703
0.04623237214701616
-0.014612533079198433
-0.19042122664721317
-0.06216567388507695
0.013457330659576137
-0.10202266187312176
0.05892308766101012
0.1541228169123072
0.01657395289195861
0.04415698164712114
0.19750603550507867
0.007481735348877304
-0.00863022937650981
-0.12552836583527294
-0.18836272884591126
-0.19763042724980193
-0.10584129921318915
-0.028265486776963538
0.1341890112399581
0.26606210661624063
0.21099947166206368
0.15637546596386595
0.034147394060334686
-0.061849713093784606
-0.2471842329410867
-0.21533438341329905
-0.21293861604819198
-0.029111226988160033
-0.0015973375096595803
0.16277637486183208
0.16019187223433348
0.26329737907797646
0.10409654639381881
0.07112604749939613
-0.0789405286075973
-0.19995781774778
-0.3333738822297603
-0.2926520662626789
-0.06160900174808519
0.19205056429436468
0.29322523604531114
0.4362019282053683
0.3731054236918479
0.021585719577599565
-0.30833832678198303
-0.47706884314582265
-0.6826428647094605
-0.2472631719818698
0.1686424745612215
0.5277913678015086
0.5666009805940753
0.5539062563770832
0.07375455277963573
-0.36186785954864675
-0.6770446467148585
-0.3886047175291393
-0.17312598639282178
0.1443644539547277
0.3792681299832066
0.36263129791371834
0.11567571068285619
0.03461986650554433
-0.10940909670729038
-0.1574431082283001
-0.1434464437799491
-0.0768216423970477
-0.13308732683275956
-0.055913105883273244
0.030026854224755626
0.19930370127113223
0.30541855302193405
0.1668682672899022
-0.035386650828753446
-0.14828817092480037
-0.229053637041858
-0.32698982564247714
-0.07213757749303563
0.12527745259230783
0.2659231799393561
0.3490293845116075
0.1643934462044135
-0.10594723353359295
-0.27648667391804316
-0.34324228880414326
-0.2735683036382307
-0.007717586292459844
0.32641718307451334
0.3905790438231223
0.21495172657457165
-0.012382533019396428
-0.14110160387682633
-0.24179552240397653
-0.1838289561117751
-0.016193331525904697
0.04284111541762052
0.005620090040549047
0.10659531995886193
-0.01056126666612457
0.09403579968646214
0.046731188458756255
0.05581680507694328
-0.08731888640981846
-0.0025194088162054902
-0.11300429987436315
-0.03807328739713792
0.011448049599921151
0.03411981340559424
0.03568451976262587
0.025245924646591065
0.011510566793815189
0.00029382642804604594
-0.006258481823433197
-0.008948829384985025
-0.009928173631045615
-0.010963054287419807
-0.012222984819755303
-0.012014941629326224
-0.0075914567541939095
0.003176859623289968
0.01980466871566612
0.03766744612117403
0.04781541923152343
0.038751461918193814
0.00017717103948086872
-0.07221460934934998
-0.17274844581487742
-0.08481232069150006
0.015531115641637576
0.15174234228285655
0.13751368577832965
0.17008263087029257
0.029664325961220577
-0.11399756218333605
-0.2902991808076929
-0.11647674758100542
0.0086937947763701
0.10367118721667004
0.19655149193461174
0.1150006790515018
-0.12203107383697581
-0.10844836919705403
-0.05120805996467945
0.03177056759227413
0.11468876103471289
0.16794490809987503
-0.03609160613406636
-0.11567327810053729
-0.27250933170962593
-0.08808697248106818
0.07382882344550694
0.2584763590926574
0.10832288288632626
0.05295083347332652
-0.0958568860842026
-0.14328848558565904
-0.10714229262000038
-0.013045915861927089
0.10882298591986087
0.22583629855333895
0.10582785455843298
-0.07738116157584028
-0.13621749777620312
-0.2625757507829147
-0.2267891682294967
0.01401160960730845
0.09822092486952773
0.23759929242681943
0.3990825774871396
0.299578925817414
0.019547187500537085
-0.1652067238334489
-0.3414751212983058
-0.5197595945646256
-0.4129575456787534
-0.04260240437642193
0.22613403696819254
0.42962477726100784
0.5476748979530708
0.46037368109509413
-0.0668453592467589
-0.3666786064277967
-0.4296991266612215
-0.25544244510367703
-0.21055356782122947
0.19579975628087676
0.3173122481930595
0.16173290793994144
-0.024276721244239973
-0.17035945103273567
-0.1954249709933153
-0.019124293423293772
0.2270671072425846
0.1899855007047035
0.0888746571213506
-0.08401458072088631
-0.15629392916508011
-0.16484953354106974
-0.14640001088455346
0.06722140451175096
0.2484584250565841
0.170712363895549
0.006460895784098616
-0.07018291012366373
-0.07653560925711735
-0.2130758128725318
-0.05807056434355287
0.03172143398723653
0.11365623742197402
0.04728379143610817
0.08171211407749371
0.04598086985597685
-0.05526905494020438
-0.04043977206066096
0.0549024163441674
-0.01351169653462241
-0.08962068371493909
-0.009192524228435311
0.00541043531114803
-0.05296767818508654
0.022085530214679495
0.04628837169778171
0.039169498958427335
0.018919782774105224
-0.0011267265281846306
-0.013812727380845493
-0.017507725513698853
-0.014255790983210963
-0.00762328844543472
-0.0009523165455463643
0.003629173836709813
0.0054342483399666885
0.004902728516809004
0.003048299979895322
0.0009294104451096393
-0.0006990092326966161
-0.0015106907163985447
-0.001553073894805195
-0.001095681292865096
-0.00046472931824299694
7.931080312638233e-05
0.00039874328043745805
0.00047647737935648134
0.000377059120865558
0.00019656288148021386
2.1055762381172492e-05
-9.656320633194571e-05
-0.00014087563910906813
-0.00012498558732541601
-7.595766937147079e-05
-2.125018304640035e-05
1.9991812335939437e-05
3.985334644986065e-05
3.999327726480659e-05
2.7610930101613497e-05
1.1166367933014931e-05
-2.72069213416885e-06
-1.0659188618269951e-05
-1.2358376097330309e-05
-9.5798621693609e-06
-4.834544486529396e-06
-3.2446436337310174e-07
2.6304144179298236e-06
3.679850842427687e-06
3.1963990996464566e-06
1.893782084015372e-06
4.790364603625355e-07
-5.65503707163569e-07
-1.0500863995105667e-06
-1.0292570982802773e-06
-6.95129125117392e-07
-2.669545039284874e-07
8.721137383128654e-08
2.8411114564538235e-07
3.2010420879833557e-07
2.4306180538116926e-07
1.1852125261330665e-07
2.7616811033777737e-09
-7.134505263763658e-08
-9.598806101514952e-08
-8.164913650880559e-08
-4.711607117311676e-08
-1.057367514828191e-08
1.584525647965955e-08
2.762058654484591e-08
2.645849527265395e-08
1.747276517210846e-08
6.338693825385184e-09
-2.6828305391749182e-09
-7.554524374950477e-09
-8.281341757041658e-09
-6.15889492183881e-09
-2.895440838024103e-09
7.234504368118997e-11
1.9276192769931853e-09
2.500442673296311e-09
2.083188812103808e-09
1.1695849984800984e-09
2.268061550743471e-10
-4.404505072650769e-10
-7.253060470186466e-10
-6.793763802491579e-10
-4.3846811616992664e-10
-1.493106364616293e-10
8.020935789737477e-11
2.0042424642340442e-10
2.1399150308814483e-10
1.5584805118317654e-10
7.046105504288793e-11
-5.53815740361328e-12
-5.18988729899897e-11
-6.504971492680294e-11
-5.3086615450301324e-11
-2.8963348825037258e-11
-4.668119066416035e-12
1.2160049621671301e-11
1.9016069307520372e-11
1.7424442650350586e-11
1.0983972002022944e-11
3.483751751630309e-12
-2.3482542875812724e-12
-5.306149085788721e-12
-5.523135590341479e-12
-3.938181194412352e-12
-1.7072978666301687e-12
2.3664375237004637e-13
1.392855921747503e-12
1.690104831709404e-12
1.351164616803355e-12
7.153730182133738e-13
9.000797887364334e-14
-3.3375509213670047e-13
-4.978167040150754e-13
-4.463965566066619e-13
-2.746668470214382e-13
-8.036228916077885e-14
6.763716184130317e-14
1.4018759303099378e-13
1.4237543802645574e-13
9.935991961124115e-14
4.115580920147514e-14
-8.509194770304293e-15
-3.728436699669116e-14
-4.386890380292153e-14
-3.435933916640609e-14
-1.763173564630449e-14
-1.5530899401532879e-15
9.101205463316385e-15
1.3001024482337007e-14
1.1410961789691824e-14
6.843059844565741e-15
1.8153511633387335e-15
-1.935527997164063e-15
-3.7088883357145e-15
-3.678017072313179e-15
-2.515164925894978e-15
-9.986713535733704e-16
2.687037104288683e-16
9.832521419860017e-16
1.1251913940710964e-15
8.605583464692316e-16
4.2119052862589063e-16
8.267272063955692e-18
-2.5916354073156693e-16
-3.511439302568728e-16
-3.034282124842843e-16
-1.8220031937992316e-16
-5.2260352853512646e-17
4.267350338457074e-17
8.58548515614614e-17
8.282534072917698e-17
5.1501105061394804e-17
1.2041390484720891e-17
-2.02614174114224e-17
-3.796293804577565e-17
-4.090587472260937e-17
-3.359280050667565e-17
-2.207075235383189e-17
-1.1478389949862758e-17
-4.777243026149594e-18
-2.627806654013419e-18
-4.028662896824118e-18
-7.239104498089156e-18
-1.059344383997973e-17
-1.2992864784795867e-17
-1.4039871510877513e-17
-1.390467004527042e-17
-1.3063598841479876e-17
-1.2038163804262033e-17
-1.121583126938516e-17
-1.0778433707098001e-17
-1.0720991087933499e-17
-1.0921872766350202e-17
-1.122356624688669e-17
-1.1494971586603842e-17
-1.1662581376336324e-17
-1.1712250711695529e-17
-1.1671806387840292e-17
-1.1586955221960901e-17
-1.150046486998535e-17
-1.1439907226697981e-17
-1.1414641623246155e-17
-1.1419585118422506e-17
-1.1442101575025769e-17
-1.146871592379696e-17
-1.1489624138970139e-17
-1.1500402150291941e-17
-1.150140953137437e-17
-1.1495920528702645e-17
-1.1488032622261686e-17
-1.1481086485627428e-17
-1.1476902224854775e-17
-1.1475770268711303e-17
-1.1476922596748698e-17
-1.1479160954893821e-17
-1.148138850957931e-17
-1.1482914620450468e-17
-1.1483521020534317e-17
-1.1483356392999097e-17
-1.1482755241419683e-17
-1.1482065338452387e-17
-1.1481534408281623e-17
-1.1481269623858968e-17
-1.1481255806674168e-17
-1.1481405094745155e-17
-1.1481611034032012e-17
-1.148178860164813e-17
-1.1481892847321362e-17
-1.1481918192912164e-17
-1.1481885711962019e-17
-1.14818267703002e-17
-1.1481769465424654e-17
-1.1481731065320844e-17
-1.1481716601125756e-17
-1.148172179241153e-17
-1.148173780170797e-17
-1.1481755663874765e-17
-1.1481769128547881e-17
-1.1481775612129586e-17
-1.1481775656758726e-17
-1.1481771613296295e-17
-1.1481766243993875e-17
-1.1481761710065731e-17
-1.1481759118505084e-17
-1.1481758564070039e-17
-1.1481759471490296e-17
-1.1481761020926465e-17
-1.148176249343751e-17
-1.1481763458108756e-17
-1.14817638006411e-17
-1.1481763642711754e-17
-1.1481763217367259e-17
-1.1481762755452024e-17
-1.148176241443395e-17
-1.1481762256250286e-17
-1.1481762263078721e-17
-1.1481762372187435e-17
-1.1481762511989984e-17
-1.1481762627619733e-17
-1.1481762691898126e-17
-1.148176270364089e-17
-1.1481762678480632e-17
-1.1481762637816007e-17
-1.148176260002143e-17
-1.1481762575828149e-17
-1.1481762567785017e-17
-1.1481762572468762e-17
-1.1481762583744784e-17
-1.1481762595675848e-17
-1.1481762604300972e-17
-1.148176260814477e-17
-1.148176260776464e-17
-1.1481762604830404e-17
-1.1481762601195054e-17
-1.1481762598249677e-17
-1.1481762596659315e-17
-1.148176259642224e-17
-1.1481762597115368e-17
-1.1481762598180936e-17
-1.148176259914989e-17
-1.1481762599755568e-17
-1.1481762599942524e-17
-1.1481762599806237e-17
-1.1481762599507921e-17
-1.1481762599200105e-17
-1.1481762598982264e-17
-1.148176259888928e-17
-1.1481762598904296e-17
-1.1481762598982964e-17
-1.1481762599077376e-17
-1.148176259915231e-17
-1.1481762599191553e-17
-1.1481762599195975e-17
-1.1481762599176983e-17
-1.14817625991491e-17
-1.1481762599124287e-17
-1.1481762599109154e-17
-1.1481762599104867e-17
-1.1481762599108784e-17
-1.1481762599116671e-17
-1.148176259912461e-17
-1.1481762599130102e-17
