0
1.6225460136241797e-09
2.7887785267858924e-09
3.256890189279818e-09
2.3909759491367612e-09
-1.5653564705682313e-10
-4.106235065740432e-09
-8.325510766337404e-09
-1.0891496194799531e-08
-9.580005427704743e-09
-2.7867579684995836e-09
9.32218987347384e-09
2.3864722245130008e-08
3.508653852334229e-08
3.552987386417941e-08
1.8720080009675757e-08
-1.7072917143609106e-08
-6.522810717936879e-08
-1.091891230692438e-07
-1.2485673567037164e-07
-8.808728793007137e-08
1.3434652389343863e-08
1.672615519755991e-07
3.279440935236402e-07
4.2027418030908805e-07
3.590759571894862e-07
8.539644903199768e-08
-3.892207521444087e-07
-9.475059899676613e-07
-1.3628895114791279e-06
-1.3477180620638692e-06
-6.595609645132148e-07
7.530669794899491e-07
2.6145019568064876e-06
4.267895932127776e-06
4.77767235017046e-06
3.228812866796869e-06
-8.102720843111898e-07
-6.79445091357674e-06
-1.2903602495949835e-05
-1.6199561888670366e-05
-1.3425154699662818e-05
-2.4242292561091913e-06
1.615668529278144e-05
3.7560239244552994e-05
5.287672678897364e-05
5.102480025588415e-05
2.2952076983039948e-05
-3.272600657787493e-05
-0.00010459322942908164
-0.0001666287794400361
-0.00018255393421159227
-0.00011775709727963776
4.26808768778298e-05
0.0002752033331482129
0.0005070530379508233
0.000623568578266637
0.0005003661378514341
5.8991651241640135e-05
-0.0006677580964526744
-0.0014874192698577679
-0.002050009834601847
-0.0019290085505662066
-0.0007869633334453666
0.0014068494493157894
0.004183907506050612
0.006518738319394769
0.0070129643617021075
0.00437091462848307
-0.0018984900450909996
-0.010769298201809066
-0.019324140226798174
-0.02310755758215236
-0.01747473575642972
0.0001127008767126265
0.027354539752626694
0.05491551945138126
0.06596875856239903
0.038453133391685254
-0.04977735551308188
-0.013923638833159384
-0.05546486164803263
-0.15831070895848603
-0.09022235101237716
-0.01055289058259441
0.1167588106753907
0.1083974918562276
0.15018030897600831
0.19392566423071023
0.1657889859227962
-0.21429382081163556
-0.20654606468330086
-0.22656128290224034
-0.23064609143138223
-0.1178137569397779
0.05004062100761743
0.21415389538425456
0.2803586041813438
0.2874992125220826
0.19296630040823395
0.08081878976463405
-0.2087173186276013
-0.23620230334949321
-0.31865091142115515
-0.29690141107515816
-0.12434851948936335
0.11965224850582228
0.19579173215127943
0.2603480989589108
0.22309987255429892
0.11914842255029384
0.10170138031209126
0.05691216973224543
-0.16388360922358425
-0.30360218215963214
-0.2618471545878565
-0.2710586814834314
-0.0932552325865567
0.16205628258625496
0.4051147341136673
0.32962798089575324
0.18537206234686682
-0.031611390419532086
-0.16940654695580332
-0.2964869178490462
-0.07348506519808785
-0.13038746798438794
-0.055948523403257934
-0.0014557044845407568
0.10341154120760887
0.12801074096948395
0.11830816190158916
0.08112131216196367
0.17959934188950208
0.5414019041217624
-1.1228211466407705
-0.29710290834660824
0.15729813439563767
0.2080592884577129
-0.15315928247452232
1.0799235911994798
0.1231854827583294
-0.5934018252664511
-0.6140699606458926
-0.4479602249499352
0.026576780414312814
0.3393380366550552
0.5931294550789595
0.42994621125579896
0.013029480645690553
-0.16715039444268287
-0.26486084936376914
-0.23913295214103836
-0.2151144088231207
-0.057886914702480724
0.035499526949370225
0.12610656694873962
0.11039306795055416
0.09210642017909824
-0.044054751785142524
-0.051777687602684405
0.0674355288710274
0.2660059228324901
0.6634488199161093
-0.8303949975982727
-0.28691693865779516
-0.13393083238776604
-0.14421110311918423
-0.4428143942646256
1.0688117286876853
0.2807323343778838
-0.15373024570949262
-0.23310396343231532
-0.20712413044111738
0.03616794386161591
0.39047451766042657
0.3553246358170748
-0.13732373974552647
-0.4971764137459605
-0.45772329668687634
-0.47621775306006103
-0.15844873168196907
0.4933474972506226
0.8218756885168368
0.6655434554323088
0.3384697187185667
-0.14975196135739482
-0.6391034687244468
-0.7476838477946341
-0.6092398722106269
-0.24174596086899577
0.24309498423151726
0.5953712665806575
0.7664222272885967
0.4561723101806951
0.08751103226089475
-0.3853960436545363
-0.6423312151900062
-0.5533913427281638
-0.14584402482958164
0.2060129093655798
0.36699506959245026
0.41254431449575807
0.19955653039931043
-0.05187542763457527
-0.3611584358872908
-0.17716041429744572
0.03745895085979149
0.020769716537344357
0.1215851837404922
0.10512427047061894
-0.043997086369660335
-0.12037775194623261
-0.09853621455151836
-0.1372058487167703
0.011800060654647924
0.19116523644633115
0.225524140314943
0.11357009236918819
0.02868433819170635
-0.07118523979216827
-0.2276412849682266
-0.2661042429603148
-0.18682469628849874
0.033231591600482294
0.2281719717016134
0.4261915334549189
0.23622406538442836
0.04550058161938893
-0.16979671580218467
-0.42536737627623766
-0.5107570747235136
-0.18265919375891548
0.22501628461592063
0.5772037432098274
0.5105374359123078
0.2163430728970409
-0.1573452136757431
-0.4853294504136551
-0.6363297917835966
-0.2497750788175157
0.2708168213621307
0.34595437007943425
0.39744976396162085
0.22743049833753629
0.0097386910473682
-0.30248712059512306
-0.15702638082465553
-0.17958704303403114
-0.1571904137144083
-0.034297432917764305
0.07693755477137565
0.07569464479186676
0.24753373033160903
0.2433285696794083
0.06863714086382444
-0.11346223647624408
-0.16773047845106862
-0.16605338653054263
-0.16806048067438206
-0.009164168947915344
0.10136637803289328
0.17366797574127968
0.02609368504180863
0.07444424201497186
-0.0749165363367117
-0.02695803960556728
0.004224818004886395
-8.288308954992875e-05
-0.05818106114571578
0.01631734133355462
0.01722152775422566
-0.05334475893867259
0.014206149115554081
0.03474159091963334
0.025522702000828543
0.0033486319121166785
-0.017690347435384314
-0.02767474684940589
-0.021750400560670295
-0.0007672311095331326
0.028297065607823423
0.0525294384198904
0.054575645234622945
0.0159574292216877
-0.0779628285484092
-0.032525071707569526
-0.03971477503646814
-0.07742361086283243
-0.11316800068356783
0.08795006228657391
0.1529015233022415
0.09132592492316687
0.09083914869171658
0.11967698344815186
-0.06323001325581838
-0.29364543191001363
-0.18810260986682792
-0.13637783546788526
0.09604013650012554
0.15602907540160252
0.2861978176338012
0.11032826726109261
0.026560446157755754
-0.18971848032510716
-0.17571908659282184
-0.16916715675234043
0.00030571386641592435
0.11347167146033679
0.15834313978308434
0.12510668521725055
0.003230297843127783
-0.01691985510737478
-0.1384420884078512
-0.1511008209950384
-0.02703591800103819
0.07837532408716287
0.02008974957461042
0.05319568353547896
0.02184176757702193
-0.04996546122485416
0.036182607902947216
0.05241536847430024
0.14915088543459648
0.06486511564942428
-0.060024195638744976
-0.26797787580865945
-0.17237412607762256
-0.15355359446823436
0.03444888855837811
0.24784120949351784
0.3331844183006352
0.11125308167399241
-0.02912609397959743
-0.1253453976075364
-0.2265721753380783
-0.177041700502252
-0.0036324433890110586
0.08845897308078617
0.11205980005938622
0.08965871116241514
0.04469707105815239
-0.0041506000827397915
-0.0445141151567046
-0.06857524183547867
-0.07014669523533161
-0.04278958055754866
0.01974221180481631
0.12090919087023959
0.05816560936020548
0.02115656554287576
-0.00724143090727925
-0.04703757348727253
-0.11582789283260571
-0.024198115410660394
0.02639578442769347
0.04266476189884126
0.0361980254623922
0.019418878708442958
0.002302493877767771
-0.009296967370379482
-0.01365957731011369
-0.012063810319390994
-0.007213881825783062
-0.0018420921272736899
0.0021642189671050877
0.004043003883563713
0.003980915347398675
0.002705063713116046
0.0010563777411483448
-0.0003154276090592969
-0.0010848604548950739
-0.001233443532291785
-0.000942920081886756
-0.0004651474821058024
-1.785648636156335e-05
0.0002706915398319
0.0003688357553600543
0.0003159105134800798
0.0001839073482834027
4.3033854144668066e-05
-5.952256275423977e-05
-0.00010585376031652277
-0.00010216149017502263
-6.796865521625793e-05
-2.513910043630214e-05
9.799888849624285e-06
2.88513300020495e-05
3.1909365983737215e-05
2.3894172145209222e-05
1.1371852807996254e-05
-9.752500113026129e-08
-7.324225740096285e-06
-9.612957083782148e-06
-8.063568095026354e-06
-4.568801078907693e-06
-9.328838020239125e-07
1.6585718306816237e-06
2.781084971812331e-06
2.6241376836561354e-06
1.7066009234640508e-06
5.93954456092746e-07
-2.951788414906843e-07
-7.656534885980867e-07
-8.245888380893103e-07
-6.048587716775592e-07
-2.77443457479454e-07
1.593433787131434e-08
1.9631959623360638e-07
2.4914055867519837e-07
2.0510714527996983e-07
1.1392966316266153e-07
2.1683210027845044e-08
-4.2433005798628335e-08
-6.919042254291842e-08
-6.493662944051399e-08
-4.372903203062215e-08
-1.9673956101988693e-08
-1.8421635845622938e-09
7.39964484073343e-09
1.1048401411283661e-08
1.4271844489628472e-08
2.079121901702078e-08
3.0184899603390676e-08
3.71359172229285e-08
3.3133250505497785e-08
1.0437688148214497e-08
-3.27255255065467e-08
-8.762926667551743e-08
-1.3357336595804842e-07
-1.4169098226753047e-07
-8.496220877778692e-08
4.705181445137251e-08
2.3331688814568354e-07
4.134799064791424e-07
4.949421845132864e-07
3.7994293160062984e-07
1.0863644488424768e-08
-5.780197293595435e-07
-1.224092494084439e-06
-1.6420879273510664e-06
-1.4935310100460418e-06
-5.227028782731038e-07
1.2692788737363003e-06
3.4759308585595237e-06
5.250448517992198e-06
5.467465542794505e-06
3.115982840056986e-06
-2.1360014832318193e-06
-9.38376152715242e-06
-1.6213875717721325e-05
-1.9017915742941967e-05
-1.407713179313146e-05
6.689101737442854e-07
2.3644369970103594e-05
4.8303131472140136e-05
6.346995043443113e-05
5.61609360401484e-05
1.6932462093458234e-05
-5.3409957294294057e-05
-0.0001382597244022368
-0.00020422177718919815
-0.0002078258066179744
-0.00011110138381576765
9.651690784875897e-05
0.0003770753284447689
0.0006346421834280338
0.0007289307128091733
0.000518687145075811
-6.926187969023035e-05
-0.0009644360153964543
-0.0019040551659187256
-0.002450916119611176
-0.002107576705734859
-0.0005264407637485312
0.002232190691526823
0.005493545843666825
0.007945148145960392
0.007915044921981884
0.00398966255948754
-0.00413586953702495
-0.01485935136132275
-0.024350462144059157
-0.027147487187381962
-0.01792290637369178
0.005747246261227951
0.040340367869364034
0.07431686584944701
0.0884481249112681
0.05952941256312535
-0.03271388863109272
-0.19740933526381135
-0.22639831498369928
-0.09384469969811433
0.03647215766394476
0.19772407596685374
0.40566906387277685
0.250290481236106
-0.10132313519740557
-0.29057406772389066
-0.3471091159530057
-0.27202942680983794
-0.03282386748127632
0.22700528123560634
0.36748392639082766
0.22964018948711942
0.02027438539875294
-0.09039401390103953
-0.15852699713907076
-0.249155410959164
-0.01843574678416722
0.09866942079647334
0.09298382648508331
-0.02109038050317112
-0.0121089978789721
-0.040229582479789375
-0.0666681368521035
-0.06313321124940595
0.17998299461919218
0.24875331365872955
0.10676466186113108
-0.096416031735507
-0.21067486590719675
-0.2692876759360004
-0.07749822854841308
-0.010335750559844337
0.17972296400264698
0.34900032716361246
0.14897107209548535
-0.18188345823887686
-0.2189906461786581
-0.14794868318377397
-0.16084700806930327
0.1439773252815717
0.35905302536777783
0.2655428910505098
0.03628527342439254
-0.15408969041394505
-0.5153138813181324
-0.4315300192440804
-0.06309423260443996
0.23691713369824666
0.49658854368609395
0.7013646385849678
0.38586975914586813
-0.3511735340205631
-0.612498298049592
-1.0628740784339732
-0.3037914655592419
-0.07565091458669675
1.313174522022463
1.9461168543585794
-0.930647082513923
-0.9115178212993621
-0.6125044856505724
-0.8484144172551775
-0.6251586023866813
3.447610333493035
-0.26419893924608967
-0.22745893133337514
-0.5256806302228744
-1.024933749725657
-1.5423495595987797
1.5633853357781635
1.1746549884274116
0.18306700007088278
-0.13695784499665486
-0.5366045513131105
-0.5853696724812495
-0.46041518416354876
0.45570772093882894
0.5660141365368276
0.44574110663155114
0.03619356450395629
-0.14640848301914272
-0.38814578965231644
-0.34992469261120046
-0.24758981233738922
-0.04888226553365333
0.11058382156462014
0.29806012973552504
0.3525456748996947
0.4647928195475033
0.37824651009285
-0.18659802726272806
-0.6916559962633098
-0.7406067017631817
-0.6577518572980733
-0.3009243048098928
0.49017638040923905
1.225295080574237
1.50205291271646
-0.21968489451916118
-0.19125513532041766
-0.5019119202841227
-0.9843612368178597
-1.333695202592331
0.33058160355370375
0.24568323422913174
0.3366708294247677
0.5212731732830422
0.6189687748692243
0.4913109850843053
0.22984273503536692
-0.20616250771716194
-0.5143104422752783
-0.759256028661998
-0.4957337834195356
-0.327191015925191
0.08909536891539412
0.39459477727200853
0.657018142882853
0.49672351861874725
0.2345141257802541
0.0744442331679706
-0.2774439351854502
-0.5693833632552568
-0.5531781446500276
-0.14479498742643804
-0.007979485077812501
0.4380066412423909
0.5955900547721085
0.4653313771642312
-0.3660234130512529
-0.3215082984188284
-0.4191199556613296
-0.25699285501695174
-0.007951079130276692
0.7739772402211966
0.34011885266104613
-0.06456848924478588
-0.40563187069373696
-0.45680641919341625
-0.39802447785529455
0.17979769924548278
0.6630706055759042
1.2047337710907886
-0.4744797414396709
-0.46661421799495584
-0.44413455859051626
-0.6296973887665724
-0.7842818660791604
0.9785123685443313
0.9576886091442038
1.0267697048282705
-0.7882130566595466
-0.5050306718107405
-0.3618189401494764
-0.39033366094229605
-0.601599801382949
1.2098965362608065
0.6491112631381395
0.10372090225650475
-0.25988330439790297
-0.48465946563691437
-0.4026327474229629
-0.21892070278257
0.09041104458113176
0.3654334230738221
0.44153295306207335
0.3320950301178001
0.024341430714716575
-0.30882534665731265
-0.48657437279162824
-0.2989662452382664
-0.2985688192870386
0.18897802757803422
0.43808134841341
0.490547313976818
0.13104634500023432
0.0816722317886656
-0.18107875680819616
-0.19221134217229058
-0.25826163535497715
-0.22427298572202517
-0.25803670591682587
-0.056621064867958384
0.12640164029656667
0.441016935972857
0.40048796270422116
0.25360744234003196
-0.021907016010024295
-0.30410476153350624
-0.49703751827006126
-0.2988974468039889
0.020301227004567532
0.22576711406544742
0.7118811380960618
-0.3092620795667881
-0.016834301796213598
0.01571656538891586
-0.17813742481529762
-0.5570894107617186
0.5247422633019911
0.10944805903078171
0.024579750685456647
0.07476508413655628
0.03942067467470679
-0.12264510301347473
-0.06369947704461379
-0.03601710097796118
-0.08267207706079031
-0.03243714465525342
0.10071347427972654
0.11470914192448027
0.01537478963637108
0.013533250947212833
-0.07573299290343118
-0.032185000656934665
-0.029454401609378213
-0.03560038157315309
-0.01605459191634715
0.061255240777788406
0.019780482027192015
0.06897341150484464
0.0013710398535018101
-0.0067856495082499815
0.00869421941970197
0.006989756611688956
-0.04933846603313875
0.013706991380750697
-0.012407948698865084
-0.11621230139555468
-0.06823120355797203
-0.027813865208791443
0.04616651381544889
0.18329577102162475
0.1921039742844054
0.056846677615216806
-0.05747012686937758
-0.19306281203288206
-0.1846329466581918
-0.04746241151986137
0.02739417135395245
0.06963550447946432
0.11999288354542646
0.01816180633771966
-0.007700652809321418
0.05268037502492861
-0.00959806035419293
-0.019348786955735067
-0.010809505425199664
-0.01973554212789673
-0.07595311766094144
0.0020203670558971987
0.009291428234324309
-0.04632164353507941
0.05225815950411956
0.12668032722730235
-0.0012398213585455148
-0.11251533938611084
0.007640312503307066
-0.03064417056913237
-0.022366333698033855
0.03151709341211678
0.12337165341247608
0.03926863225409487
-0.03873136441759681
-0.1285425095669446
-0.043603359688340754
0.0101255168547583
0.03449086251146133
0.03693132534009516
0.026968934938058686
0.012958263875784134
0.00019431458948320293
-0.009288554219658907
-0.015590047471848016
-0.019268528380752308
-0.019981769550437303
-0.016108551118191414
-0.005612265428120033
0.012097935180666373
0.03403947411998356
0.05231258114014514
0.05458095245182486
0.026953150712311552
-0.0410765404544506
-0.15110914433027833
-0.09207651747845867
-0.0404874655204293
0.034390521871884655
0.16166125902680378
0.15943167511936787
0.02872767218748501
-0.04676749861651856
-0.09515849690756112
-0.1474761628338182
-0.029162016748509004
0.04513345976986749
0.07241909225228803
0.058903463749977236
0.01624016886803141
-0.04178538607491003
-0.10148691161551512
0.049216257131324465
0.019407473112041156
0.013768044736009306
0.03165326012883843
0.06732016769444728
-0.08840231580837642
-0.04539113717714387
-0.011433981361478829
0.009563558469562892
0.01781139553570168
0.01652071354750163
0.010159530622641359
0.002837448180969036
-0.0026993309796596943
-0.005342659514794113
-0.005324409853077584
-0.003631976786173592
-0.0014143124200432346
0.0004387544780338244
0.0014795019409975696
0.0016793578982576946
0.0012834623459296122
0.000633331926308559
2.4703595045092126e-05
-0.00036804114476051406
-0.0005017833622608727
-0.0004299586465238618
-0.0002504609291944513
-5.880129343515149e-05
8.07946599322274e-05
0.0001439224646552289
0.00013898379665396084
9.251848739143209e-05
3.42676461604909e-05
-1.3275790805146226e-05
-3.9218760512567536e-05
-4.3404503406487224e-05
-3.251834948418465e-05
-1.5490193196963472e-05
1.1443282635382593e-07
9.952413116879586e-06
1.307387691664142e-05
1.097218553548584e-05
6.220959975375836e-06
1.2748228498712613e-06
-2.2523119996960383e-06
-3.7817392689145752e-06
-3.570225384266134e-06
-2.3231059456616463e-06
-8.096021870047026e-07
4.005044054545788e-07
1.0412979180734043e-06
1.1220492944279832e-06
8.232599612291992e-07
3.7749059159917925e-07
-2.2276552300030704e-08
-2.68278767623157e-07
-3.4027821623016205e-07
-2.797281085374644e-07
-1.5418981265808482e-07
-2.6676993477699278e-08
6.232345063318791e-08
9.920302192583442e-08
9.160370476694974e-08
5.823052495135058e-08
1.8955824621550005e-08
-1.180614568088865e-08
-2.758940935146459e-08
-2.8973427640019962e-08
-2.081489719881424e-08
-9.162453432513893e-09
1.0671920581656982e-09
7.206689305990673e-09
8.84369489274443e-09
7.121285593389248e-09
3.810294090620831e-09
5.265957271075601e-10
-1.7158288333965595e-09
-2.6000200933786904e-09
-2.3489122610970305e-09
-1.4575968673688734e-09
-4.390775454418832e-10
3.421869260328356e-10
7.293313075106258e-10
7.458061286051353e-10
5.220135550564751e-10
2.1564615267467301e-10
-4.719322924782153e-11
-1.9949753103322633e-10
-2.3259702461531501e-10
-1.7788212843783065e-10
-8.315028148829883e-11
7.256782620740722e-12
6.412226478628068e-11
7.674212704644044e-11
5.0517547044900846e-11
1.820925820594871e-12
-4.765794473208967e-11
-7.625746039776983e-11
-6.755290006075786e-11
-1.5676240018489773e-11
6.987540383817884e-11
1.6188501615807599e-10
2.1836683702200602e-10
1.932604285660641e-10
5.499448068376962e-11
-1.9098139402927223e-10
-4.84172180590906e-10
-7.07018768986658e-10
-7.093755212632086e-10
-3.630719488534143e-10
3.6263994045099334e-10
1.3296813915551631e-09
2.2012943626887456e-09
2.4926167172527912e-09
1.7235219523301327e-09
-3.421669049441557e-10
-3.4387954205363952e-09
-6.638564238012713e-09
-8.42442920002685e-09
-7.095674563356244e-09
-1.4994024562109065e-09
8.083363852283397e-09
1.9243900335320046e-08
2.739786465045067e-08
2.6781739194801356e-08
1.260875557478607e-08
-1.6005174116559406e-08
-5.334053313120601e-08
-8.605994883657261e-08
-9.535945469408309e-08
-6.306244785422829e-08
1.9058407825370806e-08
1.3945173850398553e-07
2.6100001549390017e-07
3.24472369914708e-07
2.6487938963457483e-07
4.0158663549509194e-08
-3.3478854439767213e-07
-7.623774312579326e-07
-1.0624391595260884e-06
-1.013077054312509e-06
-4.358012528140276e-07
6.913135348958671e-07
2.1319479052986713e-06
3.3581071002911206e-06
3.641029154790989e-06
2.29380073955114e-06
-9.658290149063019e-07
-5.641471420131066e-06
-1.0250781142600128e-05
-1.2483703405519831e-05
-9.86048309629734e-06
-8.552339027063712e-07
1.3798422874497931e-05
3.015741412382272e-05
4.1149571783750266e-05
3.82427080019568e-05
1.4801997832390107e-05
-2.953896810703892e-05
-8.505923956794849e-05
-0.00013088619704877436
-0.0001388093008104748
-8.292385864126966e-05
4.626377114389451e-05
0.00022763110178676744
0.0004020768549345152
0.0004796004194206132
0.00036571703440685117
5.414286215080341e-06
-0.0005668290688296671
-0.0011920875237919528
-0.001593052596235578
-0.0014419074271019127
-0.0004923828858443138
0.001251932949775909
0.00339510396963687
0.005117636551815363
0.005336855497342334
0.0030913481444258817
-0.001909928533117774
-0.008749983018437081
-0.015052969337405128
-0.017320120203327613
-0.012049370867947405
0.002413707288276397
0.023697776847027507
0.04363825430330548
0.04779636066329923
0.016913464687018168
-0.06969036059850776
-0.029621630999109326
-0.07330989602207523
-0.0017769337389004318
-0.007020809218316253
0.12538129735781295
0.012821378692631016
0.07301643418406585
-0.07678506732145411
-0.018926244513768304
-0.13412834652108557
-0.0016942874630735474
-0.0022910807571723145
0.07687506457152062
0.036107026656679565
0.05889069723197297
-0.08858448937506168
0.14726524810108607
0.7174433082150335
-0.81563921005219
-0.4640770522058489
-0.0067569143567720175
0.0057891660413174235
-0.3672697093374103
1.1165820928675725
0.6606884460496062
-0.17755418259318423
-0.47191456632824974
-0.49572988724828543
-0.28707265496796186
-0.025535819202873913
0.3709126068649375
0.22965876064402752
-0.1052375986176954
-0.3059290217336358
-0.2920565603981808
0.14332593085385137
0.7179223621630826
1.462069030005769
-0.8541590159110228
-0.46832936687506366
-0.359837747007049
-0.7930651316898285
-1.0915874495063331
1.3448584061174909
0.38469397308295644
-0.11161103734252371
0.236426467112933
0.4823394218498366
1.3430508797017457
-1.170961139472049
-0.29379869267335573
-0.4296282528948084
-0.6906766521732774
-1.469553276345051
1.5444669896806709
0.7123165613847012
0.5773650053845151
0.21090080946340078
-0.008753466177170363
-0.17891737121899887
-0.42745237011968434
-0.6588081045924706
-0.11103701092213565
-0.13798569519262552
0.17892350900356407
0.39524011611361576
0.4573837728988149
-0.1394309763253352
-0.17824932019350304
-0.12792935364688904
0.26777266165533387
0.41641373787332864
0.11524554442538766
-0.20242781866957804
-0.42089020717417636
-0.7080622693982024
-0.5074112098094695
0.0359765618583405
0.6176562833254569
0.6992425331382419
0.43964776586699506
0.05375642305127791
0.01060067831323834
-0.13004605736797653
-0.25480020028903094
-0.22558248855727242
-0.41907457722979996
-0.6920704378127005
-0.18136256651515548
0.4628115654277891
1.6217489044407776
-0.7482073316046247
0.646391070384843
0.22745622923784098
-0.6363649972961275
-1.7974478628720687
1.0998727349455943
0.03207171296103188
0.1906659006045007
0.36638297835838673
0.13532125773388926
-0.14463701636456272
-0.12559769870020285
-0.25382657685137144
-0.1533783073430503
0.1844948612607498
0.20316242911658455
-0.025698512519954156
-0.21418716670632218
-0.27425753439838063
-0.13705181668835953
0.22615545331179127
0.5863040679828592
0.8503050408494892
-0.3262449529556654
-0.5063366263500713
-0.6278486559554324
-0.5652799712893599
-0.31233650098407006
1.008828001863321
0.9190184078177464
0.35032323423619577
-0.5734859999451098
-0.7402218489463815
-0.6448651436841344
-0.19145608908969725
0.4906291900033128
1.2206199964137858
0.5457475602767454
-0.057608005058101694
-0.5548730264956705
-0.9057513590394763
-0.8189652899466711
-0.1301848351595874
0.5871954868157082
0.9854599533962894
0.7003213292585675
0.12549742139634917
-0.3831563052715148
-0.6773472488197387
-0.776795759080757
-0.2414860162032621
0.22982704349643587
0.5736442224625669
0.5199051378665369
0.15204630505693412
-0.11617893416248036
-0.14113542802348145
-0.23047217946043996
-0.1140855550794241
0.085485712926493
0.07642353930156841
-0.1884405562722707
-0.10779962472551935
-0.03757544456938011
0.09551598178827457
0.17592171922569333
0.28174713261359674
0.07288433474185534
-0.21239718650948083
-0.15348515891593112
-0.34070043404984524
0.02862020112518686
0.1480479066422455
0.19516201240886574
0.12473444991258058
0.2678974129748094
-0.05897967629400715
-0.13617072388758822
-0.21813734255381823
-0.31453036389067746
-0.18239751388433545
0.06595268361767344
0.1404877719736786
0.34305476215233116
0.339060862632721
0.14074041714719776
-0.292858743291068
-0.24053314186525324
-0.19515285663301057
-0.04023996523018071
0.1667270658811476
0.20247286640113607
0.07943421181745784
-0.15660155312894206
-0.231664975881677
-0.25281906433733914
0.07686277865130618
0.23816741993812174
0.274899478157055
0.1793559055795419
0.09038740753636475
-0.09377463837160653
-0.291214438982806
-0.20817262786311985
-0.1160026399546824
-0.04008334011545524
0.037016160602606984
0.16076335584540088
0.18444392226394368
0.1508230410369866
0.08169503690075144
-0.021931159315006384
-0.17035038319512436
-0.17121018352799158
-0.21754034277109482
-0.08331134203151018
0.07112845399895434
0.28573426898956944
0.1852744873718756
0.16868934047708006
0.008427882500813562
-0.1394264926406701
-0.31819289124600997
-0.15379131520814196
-0.04505070259031846
0.03506159593268515
0.12816979126242392
0.27409648850539625
0.09599563818131744
-0.007401643398683155
-0.06007686803977803
-0.09910128306441546
-0.1614895777969536
-0.07267588316844266
-0.04047770662586238
0.1441610623528102
0.10114555199316001
0.05325492143059388
0.019663362752190473
0.012947040419196122
-0.16051420253510534
-0.09846051423771314
-0.001186489344468189
0.1282195003652906
0.08226028124191165
0.04784454240409935
0.007348289750574123
-0.057604949721998144
-0.16093973360370156
-0.1078929567605554
0.10610484867343224
0.0928463628997109
0.06647554638912072
0.038852951302129096
0.017210473914688457
-0.19544577819376566
0.0016722533068355833
0.008945976387358216
0.02674898543248289
0.05450808965298716
0.08951908346169342
-0.07327726611896095
-0.040074859374873546
-0.016047992224518436
-0.0033678789837057813
-0.0003595172778563105
-0.002155090505087956
-0.002595481498146609
0.003222725032586032
0.016507444290641538
0.033231385659435286
0.04421112610069569
0.03724296528343072
0.0011567036352105615
-0.0691933394643849
-0.16883004380792607
-0.08163117510137764
0.016123441958742588
0.1479817917493419
0.12792486497258002
0.1532916337217622
0.0034246082251403673
-0.15490915373982594
-0.15726736106312178
-0.030466342016193554
0.015249200516283094
-0.011420035886693929
0.11428988774157843
0.02696064889277558
-0.0362850840020434
-0.04233234114493317
0.03292383821504277
0.0013064203283015066
0.06090965970352118
-0.0033065178165373587
-0.0167873672944796
-0.01088037809823602
-0.017431806485369378
-0.06360308854110416
0.03211973780719533
0.06221552243723043
0.030754797146574142
-0.04733298406207197
-0.1482862515574122
-0.043187793327296
0.09648288783402875
0.09222678416865139
0.15293774135297294
0.07283598737591811
-0.1657960286239549
-0.1860934379469975
-0.009311996350964052
-0.05005443664445487
0.08434546121316791
0.19113279462460464
0.0687043717812701
-0.08499287713549253
-0.07129783819689899
-0.08810826682692467
-0.12802054551342767
0.020680085033351996
0.1699834589596002
0.12697693666499643
0.09060825969229813
0.052848552766663545
-0.1955917775354072
-0.25764968250017173
-0.12473698985394482
0.02232783818186722
0.20566954397032497
0.23924077709015873
0.11986516682042626
0.02543466315185288
-0.07806931233160026
-0.2233111863338283
-0.22775716491324255
-0.08545346124587912
0.03161987946294453
0.16274390264095795
0.1423991977013691
0.18537074504170992
0.0789638778618924
-0.014519803906460006
-0.14579657153008685
-0.16137806404649008
-0.08724326954701417
-0.11908861983690879
-0.02240034923414151
0.05780950280754489
0.18098152692129008
0.19418116414241876
0.12020966931075068
-0.04547536428011793
-0.12863571253677716
-0.16417167994750806
-0.18346252509402747
-0.006160240742365736
0.16109889581603543
0.12006032245867884
0.07385918599040382
0.02165474462043423
-0.042773476640908394
-0.1286036446188282
-0.043737089719733904
0.008743517003531279
0.03177729706629745
0.033034011848317814
0.022159142079705547
0.007942114817582908
-0.0035716379604564686
-0.009660420073809173
-0.010401657205444519
-0.007547834357535173
-0.003334636572365138
0.0004040331158203168
0.002662289578652961
0.0032707853726919086
0.002640623501612314
0.001420549474478909
0.00020636398029888058
-0.0006260567363025695
-0.0009575677427689642
-0.00086881807565496
-0.0005418238282265945
-0.0001660270260310044
0.00012348705249350193
0.0002681446339768366
0.0002760483021981322
0.000194964048348697
8.286120330051345e-05
-1.3910060917134986e-05
-7.080388837337574e-05
-8.472443455881664e-05
-6.711322268211029e-05
-3.5042245733755136e-05
-3.822570933200213e-06
1.7123346288891203e-05
2.503717378239291e-05
2.2237348798196073e-05
1.353162941916772e-05
3.8036814387323514e-06
-3.537651583640732e-06
-7.079668025530248e-06
-7.1132194233093125e-06
-4.916366903925803e-06
-1.9932856919136406e-06
4.778177272494113e-07
1.8923845599504418e-06
2.197341909790031e-06
1.7051128714652513e-06
8.61962586703133e-07
5.968646398449551e-08
-4.66556945494807e-07
-6.540477060315083e-07
-5.687321493967761e-07
-3.3740500697912905e-07
-8.582433985806186e-08
1.0012228544549146e-07
1.8655683259000958e-07
1.8307374354992096e-07
1.2378239341928656e-07
4.7667538245654515e-08
-1.5357658933870187e-08
-5.044766678864831e-08
-5.692004226875279e-08
-4.326668075831472e-08
-2.1136449115399453e-08
-5.433403922446108e-10
1.2655717446430272e-08
1.7060471464448282e-08
1.4527214282248291e-08
8.393942106255775e-09
1.8953106056594104e-09
-2.808059792343317e-09
-4.908868670085851e-09
-4.70785042415368e-09
-3.1130594498753764e-09
-1.133670674879997e-09
4.718444268556877e-10
1.340154823980629e-09
1.4712460022318198e-09
1.094992427719187e-09
5.15047553867052e-10
-1.2939186583226726e-11
-3.434103439173734e-10
-4.458564413265505e-10
-3.7207694615436276e-10
-2.097990000518543e-10
-4.2127030234195594e-11
7.667357494109595e-11
1.275063301234922e-10
1.1948224765682082e-10
7.671927320344975e-11
2.5310234160177422e-11
-1.5538863141791454e-11
-3.6968491097179535e-11
-3.942836596361406e-11
-2.9118290788349685e-11
-1.3943115762948409e-11
-4.216077778135773e-13
7.837211797287969e-12
1.0190814856251133e-11
8.074045219046213e-12
3.7887598168520395e-12
-5.32368960739429e-13
-3.5287396868071025e-12
-4.752540215948988e-12
-4.4731547752875855e-12
-3.3297647248009367e-12
-1.9962234569216363e-12
-9.5819812596986e-13
-4.3083981688552875e-13
-3.910440384525791e-13
-6.721573201386229e-13
-1.0686639623070378e-12
-1.4145436328383635e-12
-1.6205356009539527e-12
-1.673781673063213e-12
-1.613776015601194e-12
-1.5008228813421665e-12
-1.3895894765150728e-12
-1.3141296079468564e-12
-1.2848353443660455e-12
-1.2938865443053242e-12
-1.3243780128467356e-12
-1.3589275578447517e-12
-1.3852713808631388e-12
-1.3982084531104738e-12
-1.3986284468208198e-12
-1.3909974346764236e-12
-1.3806517819308391e-12
-1.371814507681342e-12
-1.3666873292632026e-12
-1.365506456669507e-12
-1.3671907908836197e-12
-1.3701628344685241e-12
-1.3730229031593521e-12
-1.3749202790358056e-12
-1.3756168719032957e-12
-1.3753364674560238e-12
-1.3745253161254207e-12
-1.3736312782098752e-12
-1.3729635784333707e-12
-1.3726472973023823e-12
-1.3726519968592543e-12
-1.3728583279081973e-12
-1.3731278997700654e-12
-1.3733534272040873e-12
-1.3734807608460259e-12
-1.37350625760714e-12
-1.3734593676860328e-12
-1.37338129736932e-12
-1.373307842311525e-12
-1.3732602126575966e-12
-1.3732437758736684e-12
-1.3732522014361252e-12
-1.3732737310667682e-12
-1.3732968386651796e-12
-1.3733137391685954e-12
-1.3733214421936079e-12
-1.373320923614245e-12
-1.3733153646085648e-12
-1.3733083497662128e-12
-1.3733026011674292e-12
-1.373299446337199e-12
-1.3732989164548125e-12
-1.3733002127252867e-12
-1.3733022602746345e-12
-1.373304144707766e-12
-1.3733053382957866e-12
-1.373305722526881e-12
-1.373305474780362e-12
-1.373304904365346e-12
-1.3733043076444588e-12
-1.373303880400606e-12
-1.373303693736589e-12
-1.3733037176757769e-12
