0
1.4250481134051296e-15
-2.1629340484071618e-14
-4.745289745499614e-14
-6.492660818882298e-14
-6.059259578560962e-14
-2.3928863156250325e-14
4.57611968601502e-14
1.3330253977091923e-13
2.0591461303561887e-13
2.1914743517070023e-13
1.3201406924031028e-13
-7.080019931411469e-14
-3.564895349413413e-13
-6.323642147938011e-13
-7.567713715826998e-13
-5.804844158686236e-13
-1.584863205527346e-14
8.842827350276643e-13
1.8710403599573533e-12
2.5084124275228213e-12
2.2794960056406923e-12
7.94284644599508e-13
-1.9444745906620032e-12
-5.314668611598424e-12
-8.021907887460745e-12
-8.34721542558936e-12
-4.747726655166563e-12
3.2807373116141825e-12
1.43523156483922e-11
2.477704799103949e-11
2.9041984261213374e-11
2.1469948540219768e-11
-1.077965564464435e-12
-3.61821935754595e-11
-7.383079742501971e-11
-9.694668447027778e-11
-8.57026794145233e-11
-2.5696489235363895e-11
8.18028110272875e-11
2.1138405413013167e-10
3.1200425451938794e-10
3.172660324291711e-10
1.6922730249592021e-10
-1.4813608160193568e-10
-5.767028608496198e-10
-9.69813309284747e-10
-1.1131553848861782e-09
-7.911141605090671e-10
1.0772539311668666e-10
1.4751901730354066e-09
2.9093728887867536e-09
3.742206970546424e-09
3.2142150167301586e-09
7.957356029071633e-10
-3.4186574705812217e-09
-8.394437421332132e-09
-1.2121380543483408e-08
-1.2037916837145321e-08
-5.973500531427825e-09
6.5547422933991735e-09
2.312446746915451e-08
3.7915610054418097e-08
4.2606477369074954e-08
2.9022810548268522e-08
-6.7482145769458965e-09
-5.995620668941211e-08
-1.1450024076895134e-07
-1.4427548971046917e-07
-1.2023159036340875e-07
-2.2979518552888494e-08
1.4204540115318265e-07
3.3285330232892643e-07
4.7037576920235115e-07
4.559106728315782e-07
2.083683873190827e-07
-2.855429024197058e-07
-9.254147980321949e-07
-1.480626672904323e-06
-1.6284205631033106e-06
-1.0594828868690873e-06
3.618165726514947e-07
2.4297723814001922e-06
4.500597096711964e-06
5.55541522868437e-06
4.484671167475083e-06
5.823051316341284e-07
-5.872086022598063e-06
-1.317893356337269e-05
-1.8232079891269775e-05
-1.7233122254755465e-05
-7.161534583708269e-06
1.228525890001243e-05
3.6965188062819314e-05
5.775301811004024e-05
6.214505423394003e-05
3.846023371864303e-05
-1.7925750092187797e-05
-9.820555747828428e-05
-0.00017668452328623924
-0.0002136416501495506
-0.00016676378568349288
-1.0494270329954068e-05
0.00024164532600431054
0.0005210350151019134
0.0007057901314173462
0.0006499081561612416
0.000241218401749798
-0.0005237038340334976
-0.0014747249130693208
-0.00225123227080459
-0.00236921274636154
-0.0013879713098044412
0.0008479385057891479
0.003967311368610286
0.006950935953620854
0.008260091616311653
0.006296873696517991
0.00016202592901287845
-0.009491706079328593
-0.01987980439031356
-0.026234435548856884
-0.023053011115718988
-0.0065150267759462015
0.02236208108193688
0.05480981683410499
0.07298553020276005
0.051490701194119234
-0.03774008093523929
-0.017880579220109348
-0.09896720601271643
-0.07168409455419757
-0.10568502584539849
0.04623839219256719
0.03870443065532107
0.1214929114262331
0.12818035687455867
0.06919335314938961
-0.06874347475199624
-0.11721059052620393
-0.11743190623588075
-0.11197615838934212
0.060423568417650106
0.16641702843404182
0.17780786377027902
0.07247882400111678
-0.16163961699869503
-0.120328184612971
-0.17792466202013915
-0.08737758434697511
0.012022632061372543
0.1799942131237292
0.05768765089416256
0.05296798775645924
0.1340810650718766
0.6352782013090097
-0.5251138537595862
-0.2177734348830192
-0.07449332128191662
-0.26940022228639776
-0.7176140222429789
0.5056263941287781
0.3295119103524243
0.44693942681935206
0.6830309374762447
-0.6154049401306616
-0.16623180136927693
-0.12054914100447077
-0.225446358457051
-0.3924290744298995
0.721789102471008
0.1212480804478633
-0.13340579420151102
-0.3356641521045638
-0.34961143986070126
-0.033227635869748195
0.3320905959392169
0.4113428979726026
0.3948722078861638
0.1960939204506311
-0.12784903757670438
-0.5369791835908362
-0.36311406644401
-0.2734778449556243
-0.05533895122043958
0.1742259196737472
0.3383148907691818
0.16110177865449052
0.13245638722732378
0.08627836648252833
-0.002772597312202486
-0.004957125361600518
-0.00855401390605699
-0.08791658087550687
-0.2750816109779263
-0.34323305400240567
-0.20837091311516703
-0.15136909620110087
0.3436529042354396
0.5454996180750145
0.6419463497361008
0.7302261752029067
-0.760973827665626
-0.8234432285545462
-0.4127012981246406
-0.2044102320809573
-0.3796524960776048
0.9582725629057556
0.5457586529444417
0.11666411211414497
-0.2284802415316515
-0.23466691043330037
-0.08846088394420813
-0.005599156771212073
-0.017517927860509527
0.0390254519006992
-0.0718485618338049
0.017542045749261607
0.07898503442261592
0.0884225412179473
0.02709094507702496
0.08467392486176696
-0.1359814969816669
-0.21467013549622085
-0.11326184470470525
0.018620367772292333
0.03132685486782042
0.15911451944815083
0.20553030387173007
0.13599338385421886
0.08157964219710633
-0.24546848358865528
0.07201397591700627
-0.21832001170753423
-0.11823473401300101
-0.1703008819225405
0.13593757615028068
-0.25681003618303977
-0.005291936777257448
-0.0017181873171359923
0.3949649527204187
0.943111623896164
1.5273597100048595
-2.0042691394786667
-0.9849079516490423
-0.4782975609008767
-0.6597184871702
-0.8425594074710271
2.8576327352966895
1.4506230296845346
0.2282249765630804
-0.2222681333722313
-0.9471701063754411
-1.3257767181088158
-1.182589439478757
-0.1499903011553598
0.3016698008031541
0.9764182387995273
1.0391802213577492
0.9166777299708452
0.24553494208269097
-0.5189075262195365
-1.04273530049479
-0.8298671812942128
-0.34706352901026694
0.01907133770899351
0.7673491745556569
0.861172406446083
0.5024585745090928
-0.08143705370940106
-0.6317754006550611
-1.04233850069246
-0.5511965098931121
0.04366741621719307
0.7412728816910003
0.679494466910432
0.6848639195879914
0.25282186190503464
-0.03015618342950223
-0.6272105275177161
-0.7733460345535934
-0.4049581587104144
-0.11949124067636384
-0.177135411220096
0.25776493981894366
0.6501100700260857
0.6235554276324826
0.10737722953902885
0.11502895722574268
-0.2427319820827148
-0.31878496133263656
-0.6806132765739712
-0.06836874601290381
0.0277813248810434
0.16764040102121178
0.34394016996804655
0.3594093684490095
0.009321662683203074
-0.12344366889149111
-0.060298176029719944
-0.21093726940670354
-0.15721937249988824
-0.04401001372065014
0.018936717925280892
-0.05614893705519379
0.043822982406086536
0.20920760361066806
0.28798823022697245
0.07588830232240737
-0.08049187386074251
-0.06835882172835318
-0.1862907054000502
-0.32214865253566904
-0.13838217555456125
0.13133963243255228
0.2750614062600098
0.29053158944880364
0.1757308727394471
-0.07253436965594443
-0.2514569474623794
-0.34135238657414124
-0.29882519450072476
-0.06037282224661307
0.4423538634907206
0.46096586487279795
0.212054312591567
-0.12898642351758102
-0.2190345672727446
-0.32752400635087314
-0.1147362111324051
-0.016512607656875553
0.16042633378210558
0.23358863815199998
0.0347386195045805
-0.20028491126267073
-0.03916013379763415
0.14225762481866225
-0.04251289936143003
0.008812561593780863
0.08864382592332727
-0.01717925074431338
-0.12478796985376471
-0.04768068629623823
0.006376956996366952
0.03598761024927649
0.04449481620672979
0.037328719548837055
0.019832653090883456
-0.003445591544950362
-0.02793233171175099
-0.04746297316968383
-0.053208532226341955
-0.03419883617131399
0.020154454164034163
0.11618117454845286
0.05230534598066804
0.01747256877881186
-0.007210794520616551
-0.043874348094319254
-0.11189553468834512
-0.022724783558071456
0.02263338193570036
0.03277597760069427
0.022310099579103994
0.006969670644578459
-0.001021744056184026
0.0037701477939915727
0.0186666690620947
0.033726415115493444
0.0347065843653591
0.007713768838133182
-0.05542823646435054
-0.1526963601113694
-0.07018003779521546
0.015444720564580423
0.1304571232523814
0.09576822625137157
0.12003341229302907
-0.002918681540287805
-0.09136879101628681
-0.1691475862763308
-0.058337488177305497
0.025665367900020976
0.07526080892484019
0.08867392266685227
0.06710495047135177
0.013162591171089888
-0.0685619374266133
-0.16965105354957408
-0.07677354249259256
0.02679210317953261
0.1567445829430352
0.12227641502007174
0.12253630937723921
-0.05261995190809356
-0.21755012533993803
-0.18395746974495567
0.0440477157995974
0.07036022905022929
0.10290343121152405
0.14788901931411724
0.005633477419041995
-0.13002378497875416
-0.0688938786324048
-0.02018020766474176
0.010886429948655461
0.024196104456549152
0.023767844555356354
0.015591609568617609
0.0054249053488769124
-0.002691150462503797
-0.006939559565272927
-0.0074161735468893444
-0.005369438552917978
-0.0023766618235810215
0.0002720369634256047
0.0018708407917993547
0.0023030308724200834
0.001860203351179215
0.0010007261947055069
0.00014511452383887983
-0.00044146670217769593
-0.0006749870813068785
-0.0006123101328259409
-0.0003817556825812336
-0.00011686021957059218
8.7172838224988e-05
0.0001890802181822793
0.0001945958537823392
0.0001374033578376834
5.836845535686396e-05
-9.841204148316673e-06
-4.993149482914155e-05
-5.972827485445732e-05
-4.730225270541714e-05
-2.4689747441123104e-05
-2.683020056376094e-06
1.2078142871768842e-05
1.7651843527730542e-05
1.5674254032113178e-05
9.535329743705017e-06
2.6776380447212875e-06
-2.496444339262572e-06
-4.9918320136107796e-06
-5.014180511723316e-06
-3.464772301210623e-06
-1.4039974055349617e-06
3.37737028209007e-07
1.3344849032970319e-06
1.5490391551979655e-06
1.2017652347513906e-06
6.072894091378326e-07
4.177222387360373e-08
-3.2907822858671983e-07
-4.611134520980921e-07
-4.00867423660606e-07
-2.3774266538992573e-07
-6.038917903138408e-08
7.066180952968613e-08
1.3154600413791962e-07
1.2904211258890821e-07
8.720614201492837e-08
3.352767639216743e-08
-1.0900427264079734e-08
-3.560896949738258e-08
-4.0117254957746145e-08
-3.042036807557323e-08
-1.4750433155080053e-08
-1.976791204073896e-10
9.075196278037968e-09
1.2058784432621148e-08
1.0069011532141267e-08
5.510304552175988e-09
7.592100763593476e-10
-2.540719784529885e-09
-3.720929449488164e-09
-2.9761820371902167e-09
-1.0679953267257637e-09
1.0113284505598094e-09
2.3323862791188306e-09
2.2588555765904392e-09
6.208511712334134e-10
-2.1732923234781187e-09
-5.126822295510325e-09
-6.814736186961073e-09
-5.772754827514523e-09
-1.1040182603838207e-09
6.830320163552172e-09
1.5907246476780847e-08
2.227829780160057e-08
2.1250947048727892e-08
9.085050417037925e-09
-1.4637078259481085e-08
-4.4894043540934764e-08
-7.054993571079964e-08
-7.629124468930297e-08
-4.7741778191439075e-08
2.0916479602942458e-08
1.191148720777535e-07
2.1559821538601825e-07
2.618209576319476e-07
2.0583369918162963e-07
1.5906712822862236e-08
-2.9209899965906654e-07
-6.349263721691697e-07
-8.638344144553406e-07
-7.998912343911403e-07
-3.0463055438618915e-07
6.282227193386823e-07
1.7929325979936321e-06
2.7500848652403784e-06
2.9075043670441914e-06
1.7234224913156052e-06
-9.972719429116872e-07
-4.8056677227492405e-06
-8.456252467884164e-06
-1.0058352062543985e-05
-7.633417726109726e-06
-3.908588426889459e-08
1.1982496692075318e-05
2.5076589161976054e-05
3.341270556948228e-05
3.0120988546469044e-05
1.007452038896128e-05
-2.657238025730664e-05
-7.139481988690299e-05
-0.00010704879085737888
-0.00011064173123737221
-6.179394832295433e-05
4.5859139066273006e-05
0.00019339521693743534
0.00033125234043710345
0.00038586862737771216
0.00028200288524069363
-2.1162045969164383e-05
-0.0004899249897834593
-0.0009894216778866996
-0.0012913616669967944
-0.0011322784806506757
-0.0003228824665044668
0.0011157556616832784
0.0028408032123232226
0.004170442907562553
0.004224134405227688
0.0022428087051687643
-0.001964301502686343
-0.007593230579390243
-0.01266262741470863
-0.014310179438782336
-0.00970882763645455
0.0024708947549972765
0.020421407588537405
0.03802505955340305
0.04489530360545079
0.028166756240716132
-0.024022070520032093
-0.11825119060045812
-0.0523601149714935
-0.01449862086339263
0.014455254120156512
0.0556940402668394
0.12638798712112326
0.035089806451938814
-0.019555435021130885
-0.04643149915226928
-0.05717814506754831
-0.061327854168998934
-0.06363575807658681
-0.06491880957804926
0.13381329094074784
0.12578042040414603
0.09432951677257484
0.013048490677923944
0.05119280135413712
-0.2169325629190557
-0.2021093899483856
-0.09405565447468509
0.13809990744368542
0.1387601719246397
0.15534166878156117
0.02874364335655541
-0.011915565788316417
-0.1497770855025953
-0.1780826769209534
-0.09867189563703999
0.0765295682239099
0.1212998349711827
0.19131852436440308
0.22535533216424522
0.15507081236118012
-0.07625711125423945
-0.29041610434393617
-0.4549317113967002
-0.47796838235189704
-0.22499770208560302
0.24251723988735405
0.6160219138045019
0.8943415246189981
0.9640336482958819
-0.5807423739473612
-0.5798593026276716
-0.6280341969398907
-0.602698410564447
-0.6253193984633015
0.5292164671355629
0.17681664468677574
0.038060366757306965
0.145922128453046
0.572483208753139
1.795842292043852
0.3208998400502297
-1.2452992921303407
-0.8816096587049724
-0.839246610850178
-1.566362686612781
0.10192260726650555
1.6850344566113593
0.9529601202437327
0.4158906926435195
0.045110464003224174
-0.1543143284134848
-0.3200549300342744
-0.2746937055126937
-0.25579386593978337
-0.2542143291165735
-0.17477573419382456
-0.02548767837490898
0.06624248917552646
0.2184932424688252
0.35305539259070007
0.36024572778320973
0.28090467721905243
-0.08986906068688971
-0.380813930836655
-0.6155959152835709
-0.5918259381053997
-0.28032665168998083
0.35216255906767824
0.9062740087056537
1.1192185463311222
1.8619756182633918
-2.023659770216108
-1.457060735223101
-1.0499158641730366
-0.4738697710182511
-0.8878102448107433
2.7805802251564766
1.9320873826330351
0.2179510769446701
-0.47737045412682605
-0.7853596788795297
-0.9586350702086527
-0.9732357509305067
-0.0660139141133169
0.07208376385981756
0.04799020254160215
0.6832787828530688
1.5252240453766526
-0.8181814895789463
1.1014168600811645
-0.7974209688574064
0.7439979249994294
-2.386862833212667
0.8075595141768964
-0.9141186661235124
0.9757416007713683
-1.0597418967135313
1.3159483736135358
0.240646403305159
-0.01015169138474546
-0.0649523506722753
-0.0706010796147201
-0.08199252036247616
0.1656713976719146
-0.10585219257427501
-0.07817616892423258
-0.10061172530000752
-0.264317470841723
-0.190779328899269
0.16358749102324963
0.28885951252182107
0.09500824862439756
0.084935734240054
-0.06668996132348727
-0.12621704053126218
-0.10623038414729216
-0.06555679368824126
0.09425037614560268
0.4362075649318727
0.0008708616642136933
-0.17347652851699283
-0.024597496898595014
-0.03868614928039331
-0.42792366192765646
0.08085686161219187
0.24307774473722588
0.07907763468786307
-0.15451201847241006
-0.20104604399564646
-0.24510004397783303
-0.35612795317747276
0.0705067579449974
0.8852358503018135
1.5839509219487877
1.7511353439891304
-2.2482217908779445
-1.1440294791815038
-1.0428043406581824
-1.363200179169272
-1.4587801259227358
2.6694732433633925
1.6030290912069804
0.9344382324715889
0.5531674062186859
0.024983990135434023
-0.33312237680228496
-0.7109538627979598
-1.4420144381174247
-1.2681354900921984
-0.269710329120063
0.7229367681864604
1.848883573244759
-0.7000474729342238
0.4074863746161872
0.562600552501884
0.18409763386356115
-0.4655511042214723
0.3743207503669925
-0.3610839247930959
-0.6846849458868071
-0.9000629195111995
-0.9801114651206747
1.6125310945743714
1.2731185818976352
0.19380200521434135
-0.28102320166909306
-0.6705697512498956
-0.7497638305395408
-0.1326719620748544
1.7400567390924953
-1.193218297800383
-0.01158665160355486
0.7957400590953716
1.1428822170410504
-3.034669216169968
1.0369780337586407
0.37767414972697244
-0.1544726011058085
-1.0842436366361632
1.6540137406941313
0.49406486195299865
-0.17099330441143193
-0.579234132049127
-0.5763878450184526
-0.19069995489762406
0.18104580928673158
0.3709933364359033
0.22506213675739487
-0.01590938518662187
-0.1307898837025559
-0.12515699047244358
-0.03149458404503305
0.09508589717853408
0.18420821368843016
0.1607553612154998
-0.041237436581680456
-0.26292053170080265
-0.30748671367745667
-0.13527485745153084
-0.07129726601779168
0.1751101969439723
0.48423460315660294
0.30286744897409135
0.033148890720078567
-0.16225035133054674
-0.3412614060754051
-0.35832226036610526
-0.04508088129958894
0.19734251846868017
0.19382213524951222
0.18310571752697052
0.004789046341301494
-0.10970454489550463
-0.14089678980973125
-0.08157568180248173
0.063684609849795
0.07841244111308628
0.1341603998668106
-0.007720131379268526
0.00897493235413239
-0.05653370794842331
-0.03265647501662878
-0.12782549221750772
-0.127486265907591
0.002562379278536586
0.10668687180751596
0.02629879056616495
0.18732706060296067
0.1928183292822147
0.023801275028331247
-0.15126530019384962
-0.161564186130731
-0.2192441844553012
-0.11112347902219392
-0.0006114832804826037
0.16036323541800146
0.2137295668404523
0.17867830976105045
0.04249623209958875
-0.03768011722491089
-0.12287311704420661
-0.07433474325868632
-0.13571362665697564
-0.12091149252407508
-0.011132600400136874
0.038308978588979914
0.08384757840945373
0.1768327491587566
0.14939444912436958
0.007357645192329234
-0.06801117812552827
-0.11085475845680381
-0.15814459243073484
-0.0384265880492919
0.03453942428696011
0.06211140632954235
0.05636863442500867
0.03365764891928463
0.008724228353830266
-0.00891756790957172
-0.015966441971244354
-0.014194585008949734
-0.008157088531492855
-0.0027141010992356527
-0.0010697644491599288
-0.003711581783582172
-0.008373548108588801
-0.010969641531165062
-0.007304873737038075
0.0047910006243575545
0.02346212549230047
0.04168615384598377
0.04773393010378425
0.02766535387523567
-0.03038221034072635
-0.1312721558272226
-0.06921092656443188
-0.02725323571401365
0.019170944425509484
0.09559813407261512
0.22122007449178638
0.003913270726002173
-0.1604174284347591
-0.0843754114956116
0.016309629022817823
-0.07263807575234511
0.03811648827620583
0.14131903730298945
0.031835482005285604
-0.09426852974382767
-0.039591859590246706
-0.004620511079859219
0.012750913268029606
0.016813088534979377
0.012878975757621319
0.005925344634149557
-0.00041869632160288286
-0.004270703015054551
-0.005314627842775208
-0.004262595099157141
-0.002227994901250318
-0.00022057919153020602
0.0011331298023828538
0.001644317258262533
0.0014590252076753093
0.0008886529420286445
0.00025138651952686763
-0.00022999690474731125
-0.0004628460381126614
-0.00046589620621346973
-0.0003226012080818656
-0.00013138033657185823
3.0551285825879525e-05
0.0001234673064179556
0.0001437486216852589
0.00011175167727704904
5.6656420121048106e-05
4.12749513977121e-06
-3.039706202896832e-05
-4.276361602889899e-05
-3.725361995215593e-05
-2.215056269780409e-05
-5.687121867153121e-06
6.5033566750320584e-06
1.2188854542231143e-05
1.1985507881689519e-05
8.119463942514341e-06
3.1414165921409752e-06
-9.87958863803919e-07
-3.292703629438367e-06
-3.724256342891673e-06
-2.8359988769980744e-06
-1.3896275706284934e-06
-4.1131240748366794e-08
8.249404583728372e-07
1.1157002749067711e-06
9.517716621347265e-07
5.51261121502869e-07
1.259453240711905e-07
-1.8244151379111566e-07
-3.2068005663499045e-07
-3.081528815859101e-07
-2.041366135385443e-07
-7.466643207052757e-08
3.053750048582259e-08
8.758211485608229e-08
9.636652993730455e-08
7.187548739629575e-08
3.396633592730985e-08
-6.124557828053016e-10
-2.230195922882833e-08
-2.9072807237332858e-08
-2.4292414467900742e-08
-1.3692740519586838e-08
-2.714603339882627e-09
5.081536512556876e-09
8.43444932869067e-09
7.930062367399167e-09
5.139645924738917e-09
1.7679585490414004e-09
-9.262608926521641e-10
-2.356666263987354e-09
-2.5420830938585948e-09
-1.875558655323972e-09
-8.633910909729252e-10
7.190578765682202e-11
6.859653250446734e-10
9.13374400028801e-10
8.119990352924007e-10
4.93811444750517e-10
7.424006218878663e-11
-3.4720644486846507e-10
-6.813190512212398e-10
-8.371881224225342e-10
-7.246299178902883e-10
-2.83575018352826e-10
4.631049815758131e-10
1.3553470673367705e-09
2.075825145156074e-09
2.200526406161242e-09
1.3388256544466205e-09
-6.546332835346993e-10
-3.461542760033049e-09
-6.181860609449323e-09
-7.434814691914562e-09
-5.7575535584134345e-09
-2.7783952453825925e-10
8.512295132946293e-09
1.8205486773279085e-08
2.4552124519814234e-08
2.2484300062148102e-08
8.138035118859274e-09
-1.854350631037503e-08
-5.1571763092772786e-08
-7.83546149780103e-08
-8.206873373937714e-08
-4.749433595797583e-08
3.055347104563501e-08
1.3884479808840833e-07
2.4156624632761805e-07
2.8486211775697167e-07
2.1290311894631309e-07
-5.745480446164309e-09
-3.4847284408921755e-07
-7.183958406139248e-07
-9.489948570503939e-07
-8.457585410611443e-07
-2.657953060672312e-07
7.817853383475046e-07
2.052135960330564e-06
3.0485069307819025e-06
3.1208419601922985e-06
1.697153899955753e-06
-1.3892756772504498e-06
-5.58250401943553e-06
-9.458451074182812e-06
-1.0922818576128687e-05
-7.85418334994244e-06
8.662705730853025e-07
1.4221434967396307e-05
2.8319771345984733e-05
3.664472585843741e-05
3.174256885815161e-05
8.35176656451769e-06
-3.2731618654761204e-05
-8.153022947256523e-05
-0.00011847334665862845
-0.0001184734585813006
-6.0087830913790066e-05
6.17983718929743e-05
0.00022397379014619563
0.0003698977539228551
0.00041821805145180455
0.000288459693893377
-5.8808551452137375e-05
-0.0005787206181455032
-0.0011152947474686288
-0.0014138009452663452
-0.0011889524377610488
-0.0002476940776263749
0.0013622771959977144
0.003236589709945293
0.004607033776499529
0.004509968828536465
0.0021493789792287553
-0.002611295456688653
-0.00879650698850156
-0.014152304109282685
-0.015518282131680102
-0.009875519587136087
0.004035631120137058
0.02395999229515415
0.042958176786104044
0.04963914821400139
0.030344042533491624
-0.026852648100139532
-0.12740930718912868
-0.06673501483922713
-0.02972606421927921
0.005563113619166107
0.060787975036127234
0.1490264391514953
0.06842369404716737
0.00036813035368102147
-0.08684874367228215
-0.030023077505653112
-0.061322821219890064
0.00020294790618708737
-0.0462555982990422
0.01758305437466557
0.025951692713375767
0.023025760553674016
0.05558218067177054
-0.03421716547228673
-0.014957409020567015
-0.07069819950446977
-0.0043614702873641855
-0.039682147505552566
0.17904835867608518
0.19096249352287337
0.1278938156564288
-0.07086339520748429
-0.2409933045504633
-0.37858926138063764
-0.23565556123027523
-0.13062665656732575
0.22663650342854308
0.5027836138224121
0.7143639162943981
0.21946290118196107
-0.26562088172189124
-0.4284953920894832
-0.5158792152661955
-0.7010761348239731
-0.279628890820246
0.30124507789450483
0.5873943729510313
0.6562537691164108
0.6734339342388228
0.48690245694297346
-0.13456697254692057
-0.8286178128122005
-1.156827930074078
-0.943879827565834
-0.46424354488120523
0.5151933043851292
2.2512275386309564
-0.06772692581550409
1.4151670623359645
-1.1855068559309534
-0.45561455648756777
-0.608701172677243
-0.413400447377959
-1.547881259537215
1.6058965823903932
0.9330813743778436
0.5415515183617995
-0.2740394888365024
-0.0452888584645495
-0.5217541746839626
-0.8554676916534895
-1.3952562348819035
1.8991779347185815
1.0274003336981816
0.3200672646725088
-0.16722058872071904
-0.6290081709068281
-0.6623091221990737
-0.21545868093270185
0.04803427162973485
0.361693620340804
0.4465862763830159
0.08912984836894629
-0.48487582132179036
-0.2359659339734291
-0.13740166212737842
0.1959856655454196
0.2782851525378172
0.32870269636517807
0.06154727832773005
0.09548223145173822
-0.4180377779247769
-0.15285922043655445
0.2384778152403725
0.3677310199828864
-0.2556891730871365
-0.6058268545814735
-0.3412590946491503
-0.23132211306165032
-0.00798972212610209
0.16480721981929283
1.2216293423985527
0.7478308450893797
0.17313982512020112
-0.3854407151932172
-0.24022982973265092
-0.632866519684819
-0.6485049799574313
-0.5721040715721669
-0.7041204352382028
-0.4374091101602637
0.4209148697252456
1.9166379113244298
3.8508292420399277
0.5615625930380488
-2.9953340538948563
-1.4896954444480104
-1.8473364644328358
-2.9404860626724583
1.0148199201449128
4.356846886399112
1.6224343401708219
0.010778885107095697
-0.4759216322286345
-1.0010354664503933
-0.7994690454683081
-0.6687447185623239
-0.2884758071681658
-0.3934829114765404
-0.004389351282426885
0.49911452941461165
1.290240160745365
2.2256137541486147
-1.3778132156622067
-0.5094584646359118
-0.5897709529386811
-0.7851944660679926
-1.5476834645647697
1.6000807192923592
0.6328949887048644
0.1621299559908185
-0.0286558418148765
-0.030655793181693827
0.3701766431720763
0.09972042302429605
-0.17708045282722365
-0.6178996827940696
-0.5657215066022016
-0.1240069793407119
0.450129102197616
1.9387660835266973
-1.2467005882511546
-0.26819008697166297
-0.0556714597873071
-0.10260161491261378
-1.2723632821742243
1.3796664236010456
0.3722117937899936
-0.2369239699484346
-0.2745121265594965
0.14409406113466064
1.632831399043082
-1.027225157268452
-0.43602131877279
-0.32104536467531697
-0.4995826327417736
-1.271893122841739
1.5496887751521888
0.7847525967346278
0.42246597247514506
-0.22424662182541336
-0.13433765912552945
-0.36504426216910907
-0.2208107680219175
-0.21911679895913824
0.1361931641899504
0.1699960107613692
0.24125822520188586
0.14362852664934397
-0.09446790146931523
-0.2094131752627106
-0.30477169582886954
-0.2614753611833424
-0.15924421072463288
0.29220162330155264
0.5198635829431291
0.6645354703305222
0.38057385363158414
-0.13576540824504776
-0.8949602826461149
-0.8567612321267692
-0.4886129161858086
0.043418417032484016
0.6488031808439825
1.2655172494586062
0.6150629332688128
-0.4197827757525333
-0.5875521809106151
-0.6412946802229101
-0.713401401207784
-0.3116544552862752
0.4556389859153805
0.6334385132789945
0.9735809016675353
1.313137756412055
-0.8051512738426869
-0.6703034713408947
-0.7179481131835903
-1.0542153382911343
-1.018134204354958
1.4032996916730216
1.114849409241903
0.633162311969614
0.2180580962501836
-0.5650196081326622
-0.8506611856994967
-0.8621304747772703
-0.3015206623942207
0.6490855995246061
1.5219777643358248
1.5734429031027053
-0.17084164679254885
-0.8295655422987913
-1.3587069056267111
-1.8640974900589231
-1.3769521995954035
0.6828718958740363
1.5644335227817354
1.6065994258895917
1.6833033681187652
0.5275727076236539
-0.6402964776358188
-1.393399364585385
-1.33235696182409
-1.1303248195870825
-0.2365433275141575
0.7401097591162124
0.9767059070251154
0.7426562657812231
0.30526763069081264
-0.13620010998658835
-0.2762277783307157
-0.2935249080557001
-0.22105172398553516
-0.11172377813384692
-0.011596334663912173
0.054157706304139526
0.08293835780448745
0.08816018526136865
0.08973661212577484
0.10616696631441802
-0.04915762110843396
-0.1672438245683265
-0.04032644393155063
-0.05915678149711267
-0.013023445284091098
0.10703286362830582
0.10325509803922646
-0.0330672021655671
0.07712576573516644
0.0033281812687302997
-0.0885110586867314
-0.028435358533945868
-0.0358054990946988
-0.11571523349312923
-0.059766805540576465
0.14899555594409494
0.12884905281213363
0.09290722902731173
0.046346695429578866
-0.011396412215270164
-0.2807932456197849
-0.1562183734985044
-0.0236652817481217
0.1357390628596221
0.13760940200605468
0.18558246029138736
0.06667677957055322
-0.046448588117661734
-0.1868392520575598
-0.1817915431627584
-0.04351883953368396
0.03425448146692879
0.07285141273243272
0.10048448962663883
0.14323473527000238
0.018847999340418184
-0.064695170841786
-0.10629837249686973
-0.10703289734636069
-0.06671402436370003
0.016102306147891397
0.14067196838076085
0.0992484810844332
0.07403365176226996
0.038432382099821985
-0.036814219185858116
-0.17445176132322793
-0.1821004172551536
-0.048102965352833496
0.05583870359554177
0.16582187226008574
0.11411851905937723
0.11942074506515184
-0.01739782166646924
-0.11099718063929932
-0.18466190302256133
-0.06242733492785828
0.03632332664521197
0.09834575540905244
0.11516117265913052
0.08137582365775754
-0.005045660274521654
-0.1400471232915036
-0.10990472145788784
-0.08966106853703287
-0.045996710377965204
0.054992562776673644
0.23719599083958084
0.1050553160112901
0.039517948992627325
0.0018196060067597487
-0.05550540786743034
-0.1738906091025061
-0.17535821734437904
-0.05529887717196853
0.01585670783330504
0.08256696475470612
0.18934706248466424
0.16656671408891846
0.02190515665101575
-0.05986068711158301
-0.1094200187842256
-0.16140618998282472
-0.043480207496699036
0.030241430506205584
0.060014945665032654
0.05661501380876956
0.035318012448956604
0.0103090669819833
-0.008833676857132539
-0.018146380387567017
-0.018302313388870655
-0.012625336781838801
-0.005047668337211696
0.0013518100268619087
0.004997349744608504
0.005755340502190563
0.004445081570214616
0.0022321177756243196
0.0001367225166750371
-0.0012314879140630484
-0.0017131806785000959
-0.0014838117228845294
-0.0008760576322234554
-0.00021838363410424974
0.0002658143826689167
0.0004892760455874218
0.0004780881225525073
0.00032192277231273697
0.00012272417476423764
-4.158633030130106e-05
-0.00013258476753148516
-0.00014881982877366803
-0.00011268656150478707
-5.468505580319209e-05
-9.330119222628427e-07
3.336896752803104e-05
4.4667895489842846e-05
3.788859770458473e-05
2.1784455407124653e-05
4.801798244961992e-06
-7.4411083329181294e-06
-1.2867343190540867e-05
-1.2288368285817707e-05
-8.090203480789922e-06
-2.911131159582524e-06
1.2736332859873544e-06
3.524344887361011e-06
3.849477279799788e-06
2.8548364929768314e-06
1.3352782489584428e-06
-4.257882889687956e-08
-9.011252970098482e-07
-1.1633672320557914e-06
-9.66530469595541e-07
-5.405955006375982e-07
-1.0251853483633067e-07
2.0663763495186984e-07
3.378178813137002e-07
3.1548052889596337e-07
2.0297198933412987e-07
6.849165774172342e-08
-3.795670093362211e-08
-9.347484492129917e-08
-9.945550099777697e-08
-7.222694652526636e-08
-3.2476190114687705e-08
2.8025552241380803e-09
2.4250878137077894e-08
3.026002520112268e-08
2.4626402316446888e-08
1.3382653724342996e-08
2.0952469399052396e-09
-5.700084369101358e-09
-8.855062049261205e-09
-8.090105918315937e-09
-5.083388322037094e-09
-1.595792085335155e-09
1.108553762583604e-09
2.4740230817983384e-09
2.566545317564548e-09
1.8247737726757665e-09
7.864153686587325e-10
-1.15818561302026e-10
-6.505818339881718e-10
-7.860794154447474e-10
-6.266945229954784e-10
-3.304263017598225e-10
-3.9930633657164076e-11
1.5632859925958245e-10
2.317621775679528e-10
2.0722257416191537e-10
1.2707813115404308e-10
3.67414190164221e-11
-3.187505921696589e-11
-6.535194469979394e-11
-6.615570474663254e-11
-4.6035278077694404e-11
-1.894936609507052e-11
4.09780434592947e-12
1.740281407174854e-11
2.0394741311506493e-11
1.5928222393295654e-11
8.135229135136863e-12
6.674994628576539e-13
-4.265795811854197e-12
-6.057129539987559e-12
-5.301839023490909e-12
-3.1707192952861518e-12
-8.3359623330205e-13
9.050988844322293e-13
1.7229761924833478e-12
1.7031814634597022e-12
1.159531639408369e-12
4.5394217810431355e-13
-1.3409208455413883e-13
-4.643806158632891e-13
-5.285910833851466e-13
-4.0442118572934304e-13
-1.9977504650200655e-13
-8.022323787178681e-15
1.157788719387918e-13
1.5798014782056635e-13
1.353905607882021e-13
7.884928752070071e-14
1.8456468297822024e-14
-2.5541360740618097e-14
-4.544580450670143e-14
-4.389871837146567e-14
-2.926083779370253e-14
-1.0904366155905207e-14
4.080988878372676e-15
1.226049389142229e-14
1.3583096452717235e-14
1.0154649803332284e-14
4.7891066325973956e-15
-1.2900019134203841e-16
-3.2304062048603955e-15
-4.2152180444260424e-15
-3.553689298968645e-15
-2.056738436849408e-15
-4.979708854662104e-16
6.138471229700923e-16
1.0961696221049036e-15
1.029785372912416e-15
6.369133200912924e-16
1.5996734120050376e-16
-2.2145132555445354e-16
-4.234896904752538e-16
-4.490260150263277e-16
-3.5491949323899385e-16
-2.1445526322767553e-16
-8.845980981043448e-17
-1.0909278964555247e-17
1.1804393977350452e-17
-7.263297292644476e-18
-4.682190011557682e-17
-8.700855701332048e-17
-1.1505726791523477e-16
-1.2667402984989196e-16
-1.2426628848292246e-16
-1.1373381018578461e-16
-1.0134913452302438e-16
