0
-7.48801054795824e-18
-7.466473825798698e-18
-7.449962920186886e-18
-7.449531850018343e-18
-7.474726289518196e-18
-7.528003793703051e-18
-7.59940850579987e-18
-7.66427245836468e-18
-7.686833038153033e-18
-7.631417786062335e-18
-7.480076772007324e-18
-7.251715357102589e-18
-7.014169235916946e-18
-6.87917443558403e-18
-6.972782851886468e-18
-7.381550921068908e-18
-8.086958620722465e-18
-8.913546845396416e-18
-9.524294585887044e-18
-9.492933569871612e-18
-8.462219260771546e-18
-6.360051078309915e-18
-3.600511286237533e-18
-1.1619931977043085e-18
-4.325745062049361e-19
-2.763740476786434e-18
-8.78310766959302e-18
-1.766496707606932e-17
-2.6693653561068233e-17
-3.150488667724066e-17
-2.7279661239659028e-17
-1.085520574274728e-17
1.6755016071726792e-17
4.843674248258904e-17
7.093986110481338e-17
6.784687105987046e-17
2.5825280139648393e-17
-5.70112621671252e-17
-1.6352964089352163e-16
-2.549813037798296e-16
-2.7755199363081153e-16
-1.8013780595595876e-16
5.889669043295149e-17
4.0395169810655616e-16
7.465153279264755e-16
9.163198239900852e-16
7.294076389212995e-16
7.084313111763915e-17
-1.0085825750819321e-15
-2.221189441792904e-15
-3.0466848851195743e-15
-2.853558037335655e-15
-1.1457454256120146e-15
2.1142819214683787e-15
6.220875866854301e-15
9.641604569818539e-15
1.029257230908237e-14
6.245315049158369e-15
-3.232599501540307e-15
-1.6622401836275424e-14
-2.959593101067304e-14
-3.5517974417823115e-14
-2.737713880300508e-14
-1.022847432917097e-15
4.1128672460530405e-14
8.747357452177627e-14
1.1760620413710644e-13
1.0726653953930899e-13
3.805878438801611e-14
-9.007906587511456e-14
-2.4820316602926075e-13
-3.7579198826440177e-13
-3.922437830266859e-13
-2.249434266033864e-13
1.5031581972790125e-13
6.693050547603332e-13
1.1596821395268261e-12
1.3631728119014065e-12
1.0129753448391823e-12
-3.970424039494512e-14
-1.683828398926786e-12
-3.45243514516776e-12
-4.546175965546362e-12
-4.034322084594035e-12
-1.2371876173440187e-12
3.793195599926592e-12
9.874008614514405e-12
1.461821648947596e-11
1.4911978920574294e-11
8.027347879715346e-12
-6.809365381371784e-12
-2.6901989569869788e-11
-4.539920203970683e-11
-5.225920848223475e-11
-3.7346675964088826e-11
4.6266805487520496e-12
6.86825568313152e-11
1.3607041303856898e-10
1.755142535875581e-10
1.5135585262514758e-10
3.858420396112211e-11
-1.586586168946217e-10
-3.921973918181764e-10
-5.680071964464561e-10
-5.659380286713119e-10
-2.837631436465825e-10
3.020385044612461e-10
1.0790074295295101e-09
1.7751984095948877e-09
2.000629649972947e-09
1.3709609282134578e-09
-2.9982190319225324e-10
-2.7926211087451645e-09
-5.356062986789591e-09
-6.767839236840886e-09
-5.663738024944442e-09
-1.127587559538525e-09
6.597181202913557e-09
1.5554432451948617e-08
2.2045238392397912e-08
2.143920868507316e-08
9.915782585194707e-09
-1.3182877970145608e-08
-4.319195134301003e-08
-6.933342977792073e-08
-7.647943796278986e-08
-5.008273139834661e-08
1.6317136745609954e-08
1.1321616010953949e-07
2.1056336554299805e-07
2.6064439125455895e-07
2.1134362721136822e-07
2.927312929453701e-08
-2.7290306751046655e-07
-6.159800234097332e-07
-8.546231473276818e-07
-8.106080681999817e-07
-3.415626489514498e-07
5.680596467070469e-07
1.7257046235003144e-06
2.704823501916153e-06
2.9192663229029547e-06
1.8195099995198172e-06
-8.152671847724694e-07
-4.577572084647039e-06
-8.267723394592286e-06
-1.002526612730329e-05
-7.86230452972504e-06
-5.692029861048448e-07
1.1237557391676828e-05
2.435925811773645e-05
3.309252155090481e-05
3.0586260678932265e-05
1.155185712640708e-05
-2.4223604042951097e-05
-6.88263139867425e-05
-0.0001053988244730831
-0.00011125658706450636
-6.568518709684133e-05
3.870747726673899e-05
0.0001846151519290721
0.00032422567318139434
0.00038507595231611217
0.0002914532428681603
-1.806051903079514e-07
-0.0004610595306385096
-0.0009623215367527985
-0.0012804069862451973
-0.0011522393078524946
-0.00038186608503030953
0.0010241675082909376
0.002742822546077803
0.004110647050231287
0.004254157979708908
0.0023999947256883257
-0.001683598110444234
-0.0072556342207524835
-0.01240145929999651
-0.014298464007177884
-0.010097069485035486
0.0016419367317987842
0.01930445260653408
0.037003207817902554
0.044526662637795526
0.029010385734692674
-0.021682210545541876
-0.11470772565750681
-0.048675650689420494
-0.012433083497000291
0.012902626587873233
0.049128695423482034
0.11506536818818999
0.021780179788618736
-0.029379542359299887
-0.045505956286648615
-0.038529924849710614
-0.020996792733555515
-0.002790236522220099
0.010370727747295297
0.016697749662096344
0.01699835875537132
0.013081063225784152
0.006598110333191594
-0.0013284426952376068
-0.00975777960984017
-0.017248409526584824
-0.021395597984285034
-0.0190877634639483
-0.007711089806067546
0.012903995557821691
0.03848331180514348
0.0592930461331381
0.0611466369292621
0.028966463812310612
-0.047591608280054085
-0.16821887497100504
-0.1184516668816341
-0.07117908496251948
0.005834967437893873
0.1380846441624749
0.3324048514013755
0.1704980952674286
0.0121415713620064
-0.19143828867798487
-0.2783260360842322
-0.2584965512107115
-0.10591379122774243
0.03572662576794806
0.2350875516375757
0.3497418101600993
0.20625038799043338
-0.008597545306699532
-0.14250473770146782
-0.2613623998400888
-0.2291623874575975
-0.09203920654085306
0.12853957593944154
0.23321911903695708
0.2368454040845701
-0.03928782456190958
-0.17130557093241
-0.1326699655269541
-0.09308547047916259
-0.01981124851404327
0.11714219171029883
0.13725563357047788
0.042433171842072154
0.01399389723083632
0.015571349712683945
0.0015787580212982468
-0.07094620638452047
-0.03035121834839985
-0.08172289008416095
-0.20459762449913044
-0.15879213244580526
0.10204404392552294
0.21256451999121184
0.3799758716345541
0.37808007614627626
0.15660677380033877
-0.3345324320250349
-0.7141437278643954
-0.545781387886132
-0.33502743521005546
0.04515470509422983
0.706566933864303
1.0930085569633032
0.5457599807879029
0.10579932498662163
-0.4429805930102776
-0.9030757798124083
-0.9917007884196618
-0.4966065272594689
0.12240575579144401
0.6863739002247099
1.0230607457158019
0.6948731003261827
0.15559932395797232
-0.4508764975706382
-0.6550516550260481
-0.8090105452113668
-0.24009036095377567
0.1721693488629389
0.5926615186540664
0.6111247191898244
0.42303241984704876
-0.17529700445070023
-0.37375788841711965
-0.5256641048718003
-0.5301115806959217
-0.23367319955546595
0.14242963307258805
0.5551090599272466
0.6877580656292277
0.514046934701966
0.0930762589097348
-0.19925932138381386
-0.6115077921287192
-0.7498593687616497
-0.3257196633889717
0.06565548728174012
0.33080213982786244
0.4362718102103598
0.35601813338691984
0.025288248846876964
-0.08730622479210344
-0.18622497346354805
-0.13760417262075314
0.15312815059124957
0.16825711621535677
0.005024433431004344
-0.20017587706124526
-0.2545359984185121
-0.3032954625386175
-0.0397160024619851
0.06948069258872604
0.34880099735458814
0.47908873993595247
0.2746836563340437
-0.11908957974981715
-0.20700968081642127
-0.31054170402938247
-0.33193232575660586
-0.12786608954490983
0.09985193425038742
0.19597413769446023
0.23140574211024567
0.07937983679172204
-0.0038621170332777195
0.01057253861137326
-0.07680464735063013
-0.08819581074148772
-0.06001674130614972
-0.03512178287025277
-0.05794667787320719
0.027089956756470267
0.1753755645823147
0.14275360807460108
0.08980783944092492
-0.008890219770093771
-0.15198899247163852
-0.2993373972142804
-0.166550956656481
-0.030929955871435953
0.050097521566591884
0.21160921014000045
0.3523442998142462
0.1129986387867973
-0.1318413021198235
-0.06620973448703447
-0.012721077944204164
0.09395207160745049
-0.46659996071868853
0.019860102869634376
0.11273670035983119
0.01601268912819164
-0.23168062136884787
0.42753755173716623
0.05447719173878229
-0.10027399455486638
-0.0037574042684084337
-0.04202734947551462
-0.01715094011246824
0.05795317438803225
-0.034942167181538815
-0.11462738396521091
0.0026912097224421334
0.1045446240710896
-0.018346963082148768
0.026662124359721928
0.03329574155213186
-0.0034425316931886306
-0.08613247199573983
-0.013567065085274513
0.01996784694857514
0.0242154451156105
0.011355015068490487
-0.006163012843435089
-0.017791302161711372
-0.01676042008209651
-0.0015363751026349945
0.023309869033177603
0.04721610343796918
0.05527348326489872
0.03176099899448868
-0.034734461067431006
-0.14590759796212258
-0.09015938488029447
-0.04298641449891822
0.027742530908302428
0.15276943839378418
0.15174958082821147
0.026594220295127848
-0.0395172608479385
-0.07719005242723936
-0.12204626877600465
-0.005426962003473806
0.05258208488828551
0.04644038426468627
-0.015100796686698864
-0.11195266492145224
-0.017571394554348904
0.09488379991874613
0.04615549654460524
0.045900368984977534
0.09080746300474105
-0.033350096650867196
-0.14637352144929183
-0.06703125118055456
-0.007763567435342519
0.02742053331680456
0.041572190818342396
0.04120863945005343
0.03243213323172673
0.01842896921442116
-0.000842400449315163
-0.026977581819552877
-0.06050071781180469
-0.09872301347910513
0.06468729366198629
0.038030374382550546
0.02851730934730322
0.03930752588122045
0.06806939727913573
-0.09227289947266754
-0.050987264512898214
-0.016381658024193335
0.006566787132034515
0.0169825994420523
0.017321820662860435
0.011742090993794245
0.004421023904995546
-0.0016088547152995883
-0.004904177069448375
-0.005435166262493649
-0.004055700860600086
-0.0019039237001960165
6.013320897592322e-05
0.0012891751059487505
0.0016675223396053665
0.0013882562858290282
0.0007792446081239748
0.000151134421255724
-0.0002933616285379999
-0.000483135921613595
-0.00045257965414524485
-0.0002921403041922893
-9.954296420469587e-05
5.335058992299346e-05
0.00013345005594585937
0.00014251557739488233
0.00010380996249313013
4.6948012247369926e-05
-3.6706793142487782e-06
-3.45545989302257e-05
-4.332107546599283e-05
-3.535934279916319e-05
-1.9295685461699863e-05
-3.1146842891137134e-06
8.094912783052e-06
1.2663467043912043e-05
1.160537954672165e-05
7.317032126594767e-06
2.3219876348187554e-06
-1.5626288169503881e-06
-3.533308057057993e-06
-3.6784503235754402e-06
-2.623238291697705e-06
-1.1375533820329278e-06
1.5723114823450784e-07
9.274662378000247e-07
1.1255979665571297e-06
8.999298993985287e-07
4.7645782319717843e-07
5.987826320702576e-08
-2.2240784642056757e-07
-3.3163235265092806e-07
-2.97210401991755e-07
-1.8255725460908888e-07
-5.286953859164861e-08
4.581773606259096e-08
9.393015199207981e-08
9.47660453627813e-08
6.51520320669136e-08
2.5362046726320846e-08
-8.323280295906701e-09
-2.713153490094595e-08
-2.9810639212238315e-08
-2.047909664248353e-08
-5.778297243416614e-09
7.621683196037838e-09
1.4708139521366988e-08
1.303140301517864e-08
3.0647577463969458e-09
-1.1817825043292622e-08
-2.5805696106399695e-08
-3.180132081703324e-08
-2.3468724393563223e-08
1.9403109122089184e-09
4.068024879900823e-08
8.082249619025969e-08
1.0335756241877647e-07
8.726988799287455e-08
1.850496454820232e-08
-9.924554242271786e-08
-2.3615998564368992e-07
-3.3583035826221963e-07
-3.275860729534271e-07
-1.5297710732911796e-07
1.9838739460706615e-07
6.558604590388617e-07
1.0555477827976937e-06
1.166945554159963e-06
7.678561973471286e-07
-2.413063826302276e-07
-1.7172847727154327e-06
-3.2036295718925672e-06
-3.973858462211263e-06
-3.2327392021150572e-06
-4.682834059405831e-07
4.13153872240666e-06
9.365160499916679e-06
1.3021253144456043e-05
1.2382413191951289e-05
5.270604521207992e-06
-8.566413592900285e-06
-2.6213026146291232e-05
-4.1184006153036655e-05
-4.454884973874778e-05
-2.7913994037288187e-05
1.212825779094366e-05
6.942510273746664e-05
0.0001257441994691381
0.00015274474350260439
0.00012007398441887214
9.156412906374026e-06
-0.0001708105813025327
-0.000371245109488379
-0.0005051962286764411
-0.0004677694941547006
-0.00017708243984777578
0.00037264772374603645
0.0010651950352284184
0.0016506192031322065
0.0017935691111468461
0.0011924856156756978
-0.00024899299659208405
-0.0022560423155370945
-0.0041155080483907345
-0.004816460617230638
-0.0034862142859191383
-0.00014549657497047532
0.00328985431110401
0.0019329940404230628
-0.012982021282243463
-0.054561816095015994
0.060078243406290366
0.11145793029763183
0.08134470101165306
-0.0413349144223025
-0.053065564886640305
-0.12911349833274327
-0.22102363014565235
-0.06117129363750381
0.024775805761826843
0.29985936235529126
0.1977224058863472
0.11096866940359201
-0.009202424989676307
-0.04135553837824662
-0.2739124191663111
-0.18361417565828056
-0.019244301854630143
0.004862646353832525
0.10489495983875503
0.11622814661169777
0.0796032237472581
0.02953323121356726
-0.012123537713820891
-0.03684034182758083
-0.04575462857966943
-0.0441185700928573
-0.036371221259320775
-0.023616770521314476
-0.004178856190256989
0.023273967015234494
0.0555057844376071
0.08141280557675643
0.08159433263369038
0.031940864201966686
-0.08908790283201656
-0.09156915966371608
-0.16697328286778607
-0.08620816390312049
-0.004804457305525115
0.12546968363333919
0.14210685592527672
0.2597519018249181
0.06545785128525211
-0.07625059698275966
-0.2099812086552033
-0.17284935370646173
-0.18126700546019442
-0.02639566931845371
0.12018384166563227
0.293360505756854
0.11975267362759824
0.007483237693811601
-0.05587542421458599
-0.09741764132988143
-0.1485065450022978
-0.03444211514028215
0.03216006462327796
0.052803303263134885
0.04009289779208804
0.012280460869101319
-0.012555068462573392
-0.02132417948198989
-0.009170340874089432
0.01900184112890793
0.04883915615365266
0.05894380606869138
0.025510455324450183
-0.07123973137824649
-0.04018933264813313
-0.07416762842725545
-0.14874664595812903
-0.026355915961254313
0.13465292544749807
0.16847189122216275
0.09186593648240371
0.09974328582892886
-0.031733892780780065
-0.13558978547247302
-0.24193073322506436
-0.1684702820590231
0.08216312419759919
0.11729584415676425
0.14401475130358604
0.15916387294134
0.1447315162730183
-0.1286041716394793
-0.09063145591329733
-0.1576278008657253
-0.12102582661643416
-0.14378201284270278
0.033151827783126774
0.07543890206052246
0.23558892440431106
0.135352624509396
0.15662376872810638
0.04467564783113198
-0.07649309216025041
-0.28115578599543695
-0.21859100850267574
-0.09739745581075884
-0.08276705203226951
0.0924864303270537
0.30724021573936144
0.2291500984929601
0.09744062203108254
-0.08333265818169128
-0.13801565444683656
-0.308119673151103
-0.0378745315988516
0.03566935739405403
0.28660934011908823
0.09999487661666431
0.07090380387836102
-0.19498891155129358
-0.2801283433686524
-0.15628982825039422
0.008655860891470891
0.2383798873877143
0.33428225079008234
0.26702358101090157
-0.020715328411673277
-0.19885923190130622
-0.3265148335282839
-0.2293403186714479
-0.08687079649752269
-0.03521985734436135
0.2153162222098901
0.15366367268395215
0.24129800635598622
0.09417819472246501
0.07890571206202596
-0.07594602240051335
-0.057103697807497474
-0.3396670148475429
-0.16445692035654036
-0.12683073145426632
0.01952972142356941
0.14542349186613607
0.321783192706806
0.1969373401026623
0.1835245027929186
-0.14074066726187917
-0.21982188529272123
-0.3000004758066543
-0.21292754302334363
0.03208739541856811
0.24450966496945956
0.24121023876640518
0.2342474555453063
0.024458887459983626
-0.1962534536416555
-0.23621283014729097
-0.29488768293147527
-0.15992542893337602
0.1864724034662417
0.35405610311080105
0.3310448375172498
0.2793481962536013
-0.055923743115629865
-0.3237539089060012
-0.5395621307634967
-0.2648910481552286
-0.20529142273722123
0.1694532908689605
0.3877833809208896
0.5341114981305923
0.21722255816883318
0.16134507145960125
-0.17620210875645798
-0.36642995998371514
-0.36200535551601953
-0.25760828025778
-0.06929731347140848
0.06218372090020934
0.2472881891165533
0.21205013726269017
0.26278457141362693
0.061436279450012475
0.017415616984796534
-0.10396612893223052
-0.16138736020974442
-0.21358431366020353
-0.09967335499250275
-0.029553983670521186
0.013613434860982161
0.06095293981601883
0.1406342391016438
0.2624304704692685
0.21011908410562374
-0.05471704142696676
-0.1780636589702665
-0.19315246434745492
-0.30254439022069923
-0.2705228336485916
0.16986290520824734
0.29647091635295364
0.17142096615230287
0.217996389283685
0.20973006838016403
-0.1243268411103345
-0.2800799110794535
-0.15152059227522333
-0.2056569784654838
-0.06704883482015922
0.08440895680193918
0.30381556193903403
0.06484394637942385
0.04283000712282941
-0.098106430150499
-0.11264751368101333
-0.17801038462498756
0.1040149163100985
0.10586837039925713
0.17516990522787895
0.24044890996411572
0.023516132949114393
-0.34259587923148194
-0.2950056324465845
-0.22895994401918576
-0.09866213697283756
0.16752011075051534
0.4422591533082072
0.37447514097736256
0.17485513821354115
-0.18217695057673838
-0.34129379118138425
-0.3421457028589491
-0.19953258697070322
-0.09673033166833132
0.20550931867477254
0.3490061977912343
0.35699582159186666
0.22227464313235504
0.11120891178801477
-0.41703298812932055
-0.5842370498883143
-0.37261998684093756
-0.12156512208683914
0.05399844011956607
0.6294022159780027
0.8346047843321212
0.43412653019630637
-0.2658143326377899
-0.5832939142669954
-0.6132287533858314
-0.5871501178766799
-0.2583182171837674
0.48072091245183224
0.7552242792709106
0.4580032691581383
0.21247803439996116
-0.03703692491386446
-0.40607901389919565
-0.43154967884509743
-0.22970528905817883
-0.06533663610521852
0.05951247775601654
0.19711702170806206
0.23220757129123434
0.05568489230829959
-0.05808678578457175
-0.06576896230705681
0.03968940461365817
0.03178076536652153
0.059308860032834386
0.059624088978261984
-0.025804323269063748
-0.2363459272433239
-0.18143286826290286
-0.03767268436302292
0.04440112110484527
0.1254898443092852
0.2593464864924677
0.07741094187953308
-0.018678929966091364
-0.05475020824279584
-0.07361429474895878
-0.12067000228275546
-0.03046533915587154
-0.01806518077598791
-0.07712223875568223
0.015561546622660898
0.09098037696890746
0.17761252556674628
0.09350512451060228
0.04357035907337125
-0.17728387865669978
-0.177322264068831
-0.16144382136566748
0.07133036966073815
0.12504526983310568
0.20061200666831178
0.09021368289605973
-0.024053443173288912
-0.16616231719551142
-0.15865896851152955
-0.015346843997750416
0.06265538831412212
0.08645719150711574
0.07581345165224135
0.05469759984147684
-0.15230622242952296
-0.12263578195861599
-0.03841975267907207
0.10995180432451084
0.11993947125279035
0.17482652072249566
0.046020156707789715
-0.09944243403782542
-0.28808267935091375
-0.13011876396761224
-0.015121263556722248
0.08451060537767965
0.20364564781626915
0.17248521153586815
0.007653721337009137
-0.09051806375302915
-0.13461127136275383
-0.14349893474102382
0.06382755380661034
0.07158520306786971
0.06755266957500751
0.042027971965265254
-0.012804020308019498
-0.10230206149095449
-0.02809547119807785
0.01273520073489497
0.027164827877202345
0.024436292853008135
0.013738907558018303
0.0022727103798810626
-0.005724475047213241
-0.00891215320617975
-0.008048534514850972
-0.004911753071486572
-0.0013409376205886683
0.0013698143909354284
0.0026765814002290868
0.0026785810893966196
0.0018493144429835055
0.000749991702709334
-0.00017870675305725085
-0.000710423284009624
-0.0008253651539252419
-0.0006408111141514799
-0.00032429774678820536
-2.296355597757604e-05
0.00017482397407156993
0.0002454343295471205
0.00021356706479079278
0.00012680143988921184
3.2358616793835323e-05
-3.74904644568506e-05
-6.999660366242537e-05
-6.87378381551074e-05
-4.650710877245224e-05
-1.7938690254591084e-05
5.731459079007884e-06
1.8921310723115278e-05
2.136692435652572e-05
1.6251625676150363e-05
7.947316979246064e-06
2.1468778393206765e-07
-4.744989955974835e-06
-6.403561533702957e-06
-5.4562109982308426e-06
-3.1554005831765932e-06
-7.156547273746167e-07
1.0512262900012488e-06
1.8414012816211243e-06
1.7671798785856552e-06
1.1691655057395755e-06
4.2620315323924985e-07
-1.7679875291691702e-07
-5.032108092149031e-07
-5.528300854835023e-07
-4.1183933382661567e-07
-1.9420696899151615e-07
4.055777437629054e-09
1.2823872544894143e-07
1.6682470808319628e-07
1.3921807370878155e-07
7.833788250772586e-08
1.5389539427068324e-08
-2.9236733104466443e-08
-4.835270302763625e-08
-4.536591489193746e-08
-2.932660158910508e-08
-1.0033696110367953e-08
5.2961687943477375e-09
1.3332307161004999e-08
1.4244203217070977e-08
1.0366325982711827e-08
4.677217371383025e-09
-3.6631185342450263e-10
-3.408057792336361e-09
-4.219527047085807e-09
-3.3676495072258167e-09
-1.7547528813710301e-09
-2.15770110855402e-10
7.277426492276958e-10
9.39592400578209e-10
6.045112082278069e-10
8.633632969986034e-11
-2.3569704653838853e-10
-1.1163392865829865e-10
4.808465199999754e-10
1.30416359710233e-09
1.9103094555573327e-09
1.779312265733686e-09
5.336376224460234e-10
-1.8183788845754553e-09
-4.696035026236715e-09
-6.928290097214572e-09
-7.004186187763519e-09
-3.6235025685790685e-09
3.5458607021468164e-09
1.3151933486188667e-08
2.185659111580313e-08
2.483377160604287e-08
1.7286292604202283e-08
-3.174252918162588e-09
-3.395496992543707e-08
-6.587105193524559e-08
-8.384818136238472e-08
-7.093394751340557e-08
-1.5562152701547928e-08
7.96215091712455e-08
1.9081514561280904e-07
2.7251167995182543e-07
2.673276131799428e-07
1.2738929824263844e-07
-1.565543878261962e-07
-5.281554625984407e-07
-8.551606447972613e-07
-9.505305748671945e-07
-6.328167766728039e-07
1.8117209003966206e-07
1.378340583496367e-06
2.591111143218795e-06
3.230863842862705e-06
2.649719342226905e-06
4.254297871480928e-07
-3.2995661581911224e-06
-7.5605781705215625e-06
-1.0568821117116744e-05
-1.0114631182047819e-05
-4.4121378442112315e-06
6.774643629528139e-06
2.11159132300013e-05
3.337499438235977e-05
3.6301824635758615e-05
2.3037290037328633e-05
-9.279557146003764e-06
-5.57809114671067e-05
-0.00010178315625292603
-0.00012432583749696636
-9.868291032498972e-05
-9.523482291485733e-06
0.00013607941151720117
0.0002991302444811287
0.0004093993062297613
0.0003819029624198995
0.0001502202009840464
-0.00029000102295294355
-0.000842873030365882
-0.0013013391089823027
-0.001384678259922427
-0.0008340625835186787
0.00044725055980048066
0.0022523105615319034
0.00399647543511848
0.004786822895669869
0.003684113239964907
0.00014005816550464914
-0.005503895652742376
-0.011666858207625197
-0.015588283063405747
-0.014009316764673855
-0.004509095178109768
0.012765691112669455
0.03357118481101299
0.04905372989944198
0.047014246048294336
0.015242885690661878
-0.05364519927446276
-0.15744764140932285
-0.08189261988557808
-0.00230569942765466
0.11021789684808213
0.0798739551956945
0.11769294483351518
0.016841952887201257
-0.04651024857123829
-0.10713026515480564
-0.0016232357479609237
0.04087440682022012
0.0058834505769609835
-0.10273172840500576
-0.06326743143384704
-0.04110701685353644
0.0024567788325200175
0.09932322642300753
0.26477809969404775
0.09245748502078183
-0.04335528903010468
-0.1782962677544764
-0.14479813105261402
-0.1606283206075168
-0.02381785115669277
0.08412356343376443
0.18842918632747643
0.10918496387006654
0.05243360867842404
0.007794664314413312
-0.04678499102969305
-0.13537355435518791
-0.07341237135695196
-0.06014568976579759
-0.07687338772088073
0.10841471318138586
0.13175461291886897
0.022579681053470323
-0.004698066093345
0.04555190498393966
-0.04821766246589456
0.0814468289556269
6.173818055454859e-05
-0.11905983852931189
-0.08697096274809499
-0.09573692783452614
-0.12135393968008173
0.06711430161912305
0.29473098146903187
0.16889872611910672
0.07375057592366346
-0.026133405509726385
-0.17342237636146723
-0.20172702232497883
-0.12176357259841622
-0.11559623639270325
0.05859853543136316
0.25291926003059806
0.11236860239692283
0.060138020973739985
0.0906801855388088
-0.027434935165963924
-0.1403838830449051
-0.09378946759656213
-0.1184418166959461
-0.021547389500968024
0.014093931780800237
0.023255558000466504
0.04632530126475442
0.11599254709838756
0.046459167179401385
0.02818049173883963
0.029564963548233063
0.0051867259836542645
-0.09162415495586497
-0.09509060909998025
-0.015830070038347896
-0.035283135834038505
-0.10739492767981276
0.032534195239216725
0.05360094576606995
0.012844000410456378
0.14066829635689726
0.2322638170085279
0.048036677588886786
-0.07624101820138186
-0.21205481438282883
-0.21896859894844328
-0.13010637459851318
0.052979942049239954
0.15519459766844163
0.21577950845203556
0.07476868146188424
-0.03688261074581197
-0.10112559422702748
-0.11149565156496645
-0.06953262452867312
0.018210858889918823
0.14135163126536457
0.08579684294035166
0.03460293196892858
-0.029122065435770658
-0.11763191495278873
-0.23433353918460098
0.027423775945038052
0.08110885098961308
0.14030532839377763
0.2118048280725589
0.09230800881199061
-0.22919150512654235
-0.16444388208525956
-0.11826902246592601
-0.08459391770712323
0.15146153952319602
0.20652943194921114
0.09074520824621868
0.0025655304755571105
-0.07095890696912352
-0.1490356152273085
-0.04995825123134067
0.014786957246677827
0.04308351120931467
0.04127588008701239
0.021057733899799737
-0.00423091966622459
-0.022785943829450945
-0.02663660701462918
-0.013186222666559397
0.013840951174737458
0.0442032738961419
0.0622231958085979
0.04973684817135197
-0.008983098225064106
-0.12121352760776585
-0.08062273439878148
-0.06537372342989638
-0.04123085040717188
0.0302899675267875
0.18075127100989716
0.02418063885476831
0.15092327898379726
0.12870858554154105
-0.0886955282528518
-0.3477569059557204
-0.0812638753181655
-0.09961914339217867
0.009362584455292512
0.2727676835236762
0.3212589692119575
-0.020252390679132044
-0.13603120603214636
-0.21710048083759279
-0.2567960465317724
-0.04914983391069903
0.20740267280674493
0.3027603657647227
0.20959966495032922
0.08517460512093894
-0.11711549342511586
-0.22921202885608882
-0.45022896243791255
-0.13729804081302457
-0.011426320176126839
0.2214942636858685
0.24093663905407883
0.48389756723397737
0.1296027131797845
-0.09697438731468032
-0.3035984999673935
-0.1989468511193389
-0.2617432940211567
-0.12105376395384598
0.04681759499878184
0.30554006057194627
0.13593921314531876
0.011368852174559567
-0.021536386963067568
0.04721757726116715
-0.009033447420882253
-0.04528689583653179
0.06929865213721718
0.06859655545302408
-0.09328567558404702
-0.2280941362481176
-0.10631857675355218
-0.059759602295023466
0.0055064640630905
0.18829371086922148
0.16907982602903104
0.19111422181883447
0.051470577421818604
-0.09556077442220895
-0.124470004705298
-0.11902215228099065
-0.15367426028043651
-0.08128141304016849
0.07033392343523535
0.09380344119466041
0.1933689668356145
0.17681215051951527
0.052311889762499265
-0.168462489835621
-0.2634049132374702
-0.1943165269033481
-0.10784821488020384
0.05454094674148138
0.33990311557600655
0.36690411503730996
0.11663989752838247
-0.06341617125944982
-0.2425175423061781
-0.2829106991834058
-0.21857057512982275
-0.04469921367411172
0.07821880405352744
0.2077893750817148
0.1970642543687791
0.07410291957789968
0.030458981666942567
0.021704408049801713
-0.020895215986737443
-0.17149668510105132
-0.08910756663604187
-0.0008976150359499216
-0.09362169653238196
-0.11513068313718393
0.014512940954903679
0.18505462769555248
0.07580277343813806
0.13864771605964543
0.189173270042116
0.008274198600133946
-0.24677800380003526
-0.226326830947725
-0.17389735707687975
-0.11913201939781679
0.11967609814196599
0.32613963689446873
0.47605264942378767
0.13483558408542304
-0.33376912843684003
-0.3501283409434661
-0.3007302161395664
-0.33007405091976555
0.05103801570102124
0.5417893566196558
0.4207457658518664
0.1207118229112963
0.01933058833126505
-0.15121259977405133
-0.2799832224468212
-0.24835883252158236
-0.10685992798019019
-0.06505092088904704
0.1035866395902217
0.24534180353035828
0.20565768251397537
0.012035488986410374
0.06604681849187709
-0.053980351254168356
-0.1820511355275395
-0.15037354951527213
0.022511808570341803
-0.06262922443682784
0.012431749543965951
0.07554152063284048
0.15363068812281136
0.06338742837295738
0.006336048508946124
-0.0303042177958675
-0.06787440733360646
-0.12828180915146312
-0.02692283822404517
0.031089259939767286
0.05064970986006143
0.04330070186001564
0.022696905659969326
0.0007205839731748287
-0.014737316995483123
-0.02025128767921896
-0.016145712178086413
-0.005324089390628458
0.007818782128182994
0.018232438310698065
0.02094310972955512
0.011935221352673851
-0.010728601417466607
-0.04580636467942355
-0.08836978197259103
0.06952614228258343
0.03688544115823177
0.021155841955257295
0.026059893434676983
0.050792993247862676
-0.10921616152150916
-0.06061795246249162
-0.010634393395840165
0.033395982418923435
0.06344647468897817
0.07019711648000145
0.043701571462939855
-0.023997857176677944
-0.1349039603018592
-0.08157014386684829
-0.04629869094893862
-0.004390667609421924
0.06902828553505687
0.19100616389962569
0.1650245282073757
-0.019567243975944358
-0.18220230068762397
-0.1420411219513298
-0.1094897708546534
-0.0824002424774795
0.15131859106446197
0.206206223129938
0.09080232779668779
0.002470849705316087
-0.07221971279422079
-0.15225820322699268
-0.055056012341673045
0.009198299077689515
0.03961674104459482
0.04305201893640393
0.030357134535713114
0.012368585768651026
-0.0029564225520029128
-0.01167649170037552
-0.013470056358056738
-0.010333863145597314
-0.0050774876852537855
-0.00013720088756342835
0.00304939274413665
0.004124360455520376
0.0035231822999262914
0.0020463016442418586
0.0004745619681279016
-0.0006676796191457339
-0.0011822149950729722
-0.001139201777466297
-0.0007568234047719396
-0.0002789349765221731
0.00011038667601149434
0.00032228255607087046
0.00035584933437236507
0.00026611922823976264
0.00012635779925092926
-1.4775212043654404e-06
-8.190361302053954e-05
-0.00010725279570249368
-8.984803362646333e-05
-5.0818407774342145e-05
-1.0276325236173091e-05
1.8580682077500635e-05
3.1045727674002636e-05
2.9252015207265762e-05
1.899555157608214e-05
6.582598452753971e-06
-3.3241778180556256e-06
-8.556015781901935e-06
-9.198419669103568e-06
-6.736592962812886e-06
-3.078259209470068e-06
1.963897124172133e-07
2.2071477821538694e-06
2.791187730449883e-06
2.290369319784638e-06
1.2592868306392317e-06
2.1420336387353803e-07
-5.138555314192804e-07
-8.142934519665275e-07
-7.504748290815788e-07
-4.760772254802807e-07
-1.5400226378833828e-07
9.780887039935343e-08
2.2664025709620841e-07
2.3748469300276242e-07
1.7029263792570508e-07
7.467605463647515e-08
-9.110154623991604e-09
-5.9284162266683726e-08
-7.254489793389245e-08
-5.831414075014346e-08
-3.1125960577002137e-08
-4.2170803492356965e-09
1.4124204648368167e-08
2.1325161946967075e-08
1.923176062810157e-08
1.191023368119357e-08
3.5637066264488172e-09
-2.828718938391335e-09
-5.991388269094699e-09
-6.124265029753221e-09
-4.298640152945086e-09
-1.8030714523889777e-09
3.3821508089553334e-10
1.5876260947917694e-09
1.883114827369116e-09
1.4828790461360674e-09
7.67235043248631e-10
7.517597323612556e-11
-3.861584247412177e-10
-5.576486065634695e-10
-4.922681208935105e-10
-2.9739766862067714e-10
-8.135944052469937e-11
8.070626179758786e-11
1.5808525700775693e-10
1.577509541886726e-10
1.0834867708102509e-10
4.330407209867611e-11
-1.1355483041976057e-11
-4.2399778709647325e-11
-4.88213848680611e-11
-3.7660840523406536e-11
-1.8855528274236982e-11
-1.0770481101351939e-12
1.0507934545813262e-11
1.456155965349681e-11
1.2585779560420823e-11
7.411059241685634e-12
1.8258543830336912e-12
-2.277471440641868e-12
-4.1636338518819376e-12
-4.0587576851071166e-12
-2.7267772205666223e-12
-1.0337055545328963e-12
3.5989983719023456e-13
1.1294597941431826e-12
1.2641936837823621e-12
9.552350499740279e-13
4.618760823150675e-13
5.681708726845297e-15
-2.8474420874918275e-13
-3.7971982652562314e-13
-3.2141065118703716e-13
-1.842945205852489e-13
-4.007045930621375e-14
6.367834531039978e-14
1.0946537629118456e-13
1.0430018703104836e-13
6.850618840851635e-14
2.4493630480825866e-14
-1.0994896906652858e-14
-3.002371651519662e-14
-3.2704171792153386e-14
-2.4204548665339808e-14
-1.128125417822873e-14
4.1125778066385905e-16
7.67898389968326e-15
9.880714628471275e-15
8.190437547890615e-15
4.564606970832397e-15
8.4470245466672e-16
-1.7747652157192573e-15
-2.8811261579612204e-15
-2.6850926820911392e-15
-1.726110295306685e-15
-5.834147982475398e-16
3.1920066985714574e-16
7.884464875841135e-16
8.371544501690962e-16
6.045775442239076e-16
2.66540308567292e-16
-3.281595492480224e-17
-2.1434172067541465e-16
-2.646910613200916e-16
-2.1631974910353154e-16
-1.2055115428328885e-16
-2.465318081576574e-17
4.140238455392723e-17
6.79304002950164e-17
