0
-1.1171962944426957e-17
-1.1241660668645378e-17
-1.1310468075646333e-17
-1.1343958836869255e-17
-1.1305129210853759e-17
-1.1171138160053974e-17
-1.095278430827647e-17
-1.0708709681557202e-17
-1.0544269628334355e-17
-1.0586725618317283e-17
-1.0935243431812584e-17
-1.1595714822917263e-17
-1.2423714818457052e-17
-1.3108428524323992e-17
-1.3229248577820944e-17
-1.2399331271666925e-17
-1.0475837748983637e-17
-7.771955607901277e-18
-5.1672461585092425e-18
-4.002921223345313e-18
-5.688825449055482e-18
-1.1048475446988504e-17
-1.9572892634143356e-17
-2.8898015766838e-17
-3.4893006504752503e-17
-3.267051064207149e-17
-1.8556131259472617e-17
7.396722613439886e-18
3.9269422838225636e-17
6.479057645179307e-17
6.769625312920614e-17
3.34277579641166e-17
-4.2703803331959084e-17
-1.474780125405437e-16
-2.4588528510098844e-16
-2.8573313241226663e-16
-2.1339409397743738e-16
5.985618781940546e-19
3.330054525992573e-16
6.887416159666858e-16
9.06034734146142e-16
7.974421112310337e-16
2.273260122465086e-16
-7.912323511835344e-16
-2.016558397352236e-15
-2.964803194152369e-15
-3.007827649006946e-15
-1.5990105722726249e-15
1.4100507884173529e-15
5.465266807432768e-15
9.175372731232526e-15
1.051164724925106e-14
7.437704276957325e-15
-1.0913872476598408e-15
-1.4038670814555944e-14
-2.7587941584615985e-14
-3.541128073616823e-14
-3.032969407343583e-14
-7.357062416151263e-15
3.256979416149322e-14
7.961494103922571e-14
1.1472533736362651e-13
1.1367063229584442e-13
5.5979258186266095e-14
-6.279108856820228e-14
-2.195603165922292e-13
-3.59125383685679e-13
-4.027202191582162e-13
-2.731563859853129e-13
6.622132449119189e-14
5.69943786745924e-13
1.0851580568156737e-12
1.3646272292744732e-12
1.1337899733463185e-12
2.102094837053807e-13
-1.3530463627884248e-12
-3.1568636198198925e-12
-4.451917130489486e-12
-4.3046783611810254e-12
-1.9505581533869507e-12
2.731231969551285e-12
8.784471140185194e-12
1.4022042843988118e-11
1.5389336342548787e-11
9.966094720149607e-12
-3.5164454561304284e-12
-2.3091706080710743e-11
-4.2649041008905134e-11
-5.253982978853391e-11
-4.2278946054538164e-11
-5.226487473590787e-12
5.5908070554798833e-11
1.249744857917821e-10
1.7253944911488576e-10
1.626819590776136e-10
6.693019707289326e-11
-1.1738329805452365e-10
-3.508294070196444e-10
-5.468796681573984e-10
-5.872111831116581e-10
-3.6156384971784846e-10
1.7324152663607374e-10
9.330878905900917e-10
1.6741296860743641e-09
2.0202530768989553e-09
1.5716591815744905e-09
8.814481087824025e-11
-2.299886678153452e-09
-4.9405790383714346e-09
-6.679202509245883e-09
-6.135342593795494e-09
-2.2521993990012447e-09
4.994765914180642e-09
1.3986581627137823e-08
2.130468015621918e-08
2.237109007092853e-08
1.3031591028922096e-08
-8.151051456606123e-09
-3.7611767516567485e-08
-6.563662269984394e-08
-7.758103267270096e-08
-5.822498280568725e-08
1.0602651252410013e-09
9.423399027190708e-08
1.9504838277958599e-07
2.5825512843144475e-07
2.3087613185383966e-07
7.382549570342176e-08
-2.1076476500306238e-07
-5.566712654172575e-07
-8.290147403996927e-07
-8.508810364936811e-07
-4.6610932214485546e-07
3.7170309878785413e-07
1.5126256567577962e-06
2.5703251558855065e-06
2.9752424941058843e-06
2.1489319105291476e-06
-2.1602835243254866e-07
-3.84722218959715e-06
-7.690091427455937e-06
-9.973662005853325e-06
-8.667482579758025e-06
-2.3316595148129936e-06
8.830759426157714e-06
2.2120237488381013e-05
3.2222092188270104e-05
3.2307759112987734e-05
1.6521332465037268e-05
-1.656997446046936e-05
-6.07024138444692e-05
-0.00010053530249981193
-0.00011394270237829085
-7.897921886035202e-05
1.519990341239235e-05
0.00015655073292415646
0.0003027901141051905
0.0003846806452877331
0.00032450534807054493
6.944404062854741e-05
-0.00036794693575716616
-0.0008779755450397797
-0.0012514831568017956
-0.0012251599153811357
-0.0005798062027753019
0.0007261959717506096
0.0024336142700951474
0.003936083312182343
0.00437845503309832
0.0029354256476527953
-0.0007621751998806097
-0.006178146294686175
-0.011608198629756265
-0.014345306599189957
-0.011448874388182073
-0.0011073241129389607
0.01569816563770828
0.033812116475034557
0.04354879783690614
0.03198267035906642
-0.0139839928994261
-0.10341919240183012
-0.03740029224012504
-0.006888519718682716
0.00653437111829843
0.027152652138476816
0.07995615955268329
-0.014565239231886577
-0.0442916279164827
-0.007295080460850181
0.0884548763689555
0.027283558282739963
-0.010419819748791654
-0.043532419388608926
-0.08596292749524466
-0.14464120859677582
-0.02116798985598543
0.08282088714687355
0.15854743723990106
0.1849063169414034
0.1290724388086422
-0.045075340222624244
-0.1620883356469063
-0.21852664205531663
-0.1717928898615153
-0.1402729293421135
-0.01750525447757356
0.10162017218854635
0.2891394520996267
0.15607762748515142
0.2376715081942012
0.198235821892416
0.05703993164301864
-0.3694786053486597
-0.21927740798851364
-0.34323447626851894
-0.28300362138156426
-0.07568759099738272
0.3146440393198864
0.14618023172100691
0.24215335836171625
0.14112892525144283
0.06588103975729576
0.11680623844112602
0.09038338485436835
-0.08148047742807231
-0.07899589681860282
-0.13917926480689607
-0.40890170297092854
-0.3164469358932517
0.031789636573423874
0.22865260218207895
0.12353753778066244
0.1705785572901602
0.1799127684774228
0.0818952089731604
-0.09015497580556295
0.002326212957617024
0.022293057270301276
0.1882956703863533
-0.08792523668350676
-0.16370548497778445
-0.33463756209868367
-0.21789528583798082
-0.15500989657139955
-0.03480245842941761
0.269043377716641
0.6569907009691739
0.7732218467758857
-0.40262829292752705
-0.3380984470023377
-0.3122931235837822
-0.3772892096357803
-0.5323522271409673
0.4795619365674562
0.3531179256348855
0.1884168910500168
0.05797728787115326
-0.016429313692241803
-0.07202565120930624
0.0012405139713261737
0.07798262811334468
0.02126903104114754
-0.09126724040636758
-0.14353542174052783
-0.16383825531976642
-0.11834142996051775
0.08302266694643749
0.16958000703859646
0.08629697831494086
0.16942955807752688
-0.07346422997763125
-0.17660701520141334
-0.12245170599541115
0.0567388798052894
0.080988525705925
0.22908259635377368
0.15157073375628993
0.09194895594546712
-0.08501721739455913
-0.26273326958160786
-0.44814617044154625
-0.16197873550517297
-0.04987337050209141
0.085606372214043
0.23926368992184127
0.5562484719926534
0.29750532240628036
0.028211229040345464
-0.16747317139376075
-0.2507144808472967
-0.3834399976448564
-0.28899824847788436
-0.029139721972633963
0.19814837015423672
0.24290012085548612
0.17793403376076145
0.07399167422505228
-0.017360612053505305
-0.07020303193874507
-0.08147868564655286
-0.06279254432194348
-0.031041335590970758
-0.0010395375683380545
0.018398498020273376
0.025023526895059822
0.02144451502331525
0.012526069831739716
0.0030326515143708098
-0.0038365948876573812
-0.006891224696211518
-0.006603316003349772
-0.004361439779745309
-0.0016947598908557454
0.000286463462940334
0.001137637996927484
0.0010383444337597923
0.0005553761352097747
0.00032287671886722556
0.0007417351445383481
0.0017787394681226226
0.002922949620489797
0.003330635062264821
0.0021522039468288238
-0.001021811562364749
-0.005728338951808671
-0.010406235742871979
-0.012585937576658652
-0.00963362201375754
-1.771911995156947e-05
0.01518493625620677
0.03107665199274113
0.038678426635031446
0.026146384848049747
-0.018469036670713326
-0.10354875750546463
-0.030558255183650972
0.007627482195838119
0.026010267177891132
0.044699621927341976
0.08524259894416707
-0.032688712714043465
-0.09362430939357314
-0.08793860298897871
-0.01361285960905639
0.12154194476387316
0.09808505442593067
0.08545513161270175
0.04647549494747731
-0.05403609500896812
-0.23866944465318551
-0.10866048078293253
-0.04093083864899858
0.006921880104542834
0.08460697905037053
0.233904349834056
0.07542230445388376
0.0019319396743505753
-0.019532462474532972
-0.03771724668776469
-0.10272202468398112
-0.0515502117750829
-0.09775236866826964
-0.027929612669826624
-0.005924967516346626
0.0165637049416776
0.08600915576213755
0.23385659355909663
0.06823447836512335
-0.026671548831586647
-0.08345735591772714
-0.13938917743694965
-0.22407307977989688
0.04850289414594376
0.08108345510918392
0.08803436663114515
0.08712972059532711
0.0921033980036196
-0.09127996185130229
-0.06496516089697314
-0.03541522747872479
-0.009648692719444112
0.0076708900986981595
0.015321863657435411
0.015014891148136134
0.01002664361555108
0.0037467665024812627
-0.0013445139886304129
-0.0040815712319380365
-0.004482906812953203
-0.003308910870699194
-0.001550343816140563
-2.5806599278337085e-05
0.0008289507719951844
0.0009819886242842834
0.0006910617943554099
0.0003266568059719831
0.00019703517022769546
0.0004216798514646925
0.0008805500473387018
0.0012507973391645728
0.0011277484940095785
0.00020835481514123707
-0.001509021899884297
-0.003579947701250508
-0.00510986237492541
-0.00496240693331886
-0.0021976267538354813
0.003336660086353024
0.010448831081158133
0.016355157210863343
0.01700885122411845
0.008137653341745918
-0.013159110610569295
-0.04675452058403301
-0.08853406916180204
0.06919013549998097
0.03575389131920046
0.019355231344050268
0.024562358727990393
0.05111110707312064
-0.10570608564012209
-0.05355855086652334
-0.0014668054897697721
0.04116451639503069
0.06488098147057662
0.060682186210838415
0.021621497881414865
-0.054311810993043025
-0.1610440123200687
-0.08292318480142903
0.0033419017002576717
0.12296382887388713
0.09529889701277716
0.1271690375250673
0.01028719704678099
-0.0759532412446535
-0.15748314498426721
-0.05734782813886205
0.010429479122153574
0.042939030379620165
0.046497003114112215
0.03240540088601136
0.012421882685231592
-0.004526499678811896
-0.013776859587469603
-0.0147155271531205
-0.009562718323234604
-0.00185949723761306
0.004847271557242252
0.007916651940117522
0.006140562193175236
-1.4811079360197105e-05
-0.008408809762627178
-0.015540151422820368
-0.017323013398992785
-0.010417192038548264
0.006017186203834298
0.028603730342649892
0.0488402437387104
0.05384012193907436
0.02924011858849708
-0.035996921304533955
-0.14421043386845528
-0.08526410230919092
-0.03651047351754046
0.032554989486926506
0.15201569087874087
0.14250287754133367
0.008829600630550497
-0.06143160387421916
-0.09441656504185976
-0.1235737093779492
0.01675627428525738
0.0958263590680941
0.0888279774091187
-0.02172889964928031
-0.04427018752385377
0.024363645965579456
0.0015428805438269758
-0.07962600480589897
0.0289519760956044
-0.013523169713963088
-0.14416213584898968
-0.10708488837541824
0.13381069559689246
0.1826311770487615
0.20384054640054333
0.12338171238033735
0.04074980174370424
-0.14967007168293234
-0.33388188480932157
-0.358688312818117
-0.2252773717318629
0.10011273521319657
0.26135113205826077
0.48310041753902533
0.5503429664116462
0.20828225973819997
-0.21308894858753247
-0.3558576341195069
-0.7879838192123703
-0.5735230686382831
-0.07501014164026899
0.20703501522543497
0.3663106495214869
0.8147066698769851
0.6222705542725466
0.09291971719551
-0.21594002207220847
-0.4363205923234893
-0.5134603178664717
-0.5336769377747673
-0.07583406339298883
0.20374164554561797
0.3548667651064879
0.29696770224804875
0.1773940207114562
-0.06292853606747052
-0.1102642833749475
-0.08552505047543024
-0.14280261686013745
-0.06424321565477108
0.1450466673554187
0.06095559306400033
0.044213059076439847
0.045851726649546516
0.015167478030424453
-0.09057516753378902
-0.09694586154137601
-0.20663596764715167
0.00028202726256380047
0.159480264852847
0.11087699122515825
0.08659223269811087
0.10270259695572305
-0.04259159180636363
-0.1645276447421199
-0.08365722137908187
-0.017711021939064594
0.023550845559036717
0.03939032531970829
0.035837232234786985
0.02192060144517768
0.006133719343523614
-0.005791121558868459
-0.011528318357037208
-0.01156304826833181
-0.00797138512073347
-0.0031744054924265673
0.0009399182247702482
0.0033904519129670982
0.0040454653563283685
0.003319922743507964
0.0018267678342155744
0.00012433117244870613
-0.001385302744382928
-0.0024329365719241184
-0.0028096952149514577
-0.002329637954099039
-0.0008817826392005493
0.0014307035008727382
0.004129555799054769
0.00629001622548984
0.006675139095664673
0.004139084687432043
-0.0017483153634885462
-0.010048519062477482
-0.01809351691812429
-0.021778900118628784
-0.01675930684329392
-0.0004987301116413556
0.025307360304217128
0.05285916261038321
0.06807486947044865
0.05303584508674679
-0.00880820626395458
-0.12578520996807868
-0.09185598336249781
-0.08408012339485567
-0.06589238450105751
0.003503473370041042
0.15575092612312885
0.20017095078377908
0.1158343054338853
0.05282967556723174
-0.056213971648429575
-0.07697701114215162
-0.25229790738255436
-0.18583228499016607
-0.036231153550883424
0.07561769735953773
0.04793684528161675
0.17325463160308074
0.11439820899664785
0.08767412186132513
0.05732803493282343
-0.05781932503933741
-0.16783138094390973
0.010268507241751702
-0.02542226583984687
-0.14383656907372813
0.030008654564253688
0.11822884165428346
-0.01370423980223746
-0.06602610420093892
0.08279347248793356
-0.03858073557056747
-0.1101638595833095
-0.036809137539620895
0.036479091898812356
0.1120988940932142
0.13329893617925148
0.18689676429708857
0.11754881996629034
-0.04682078218556414
-0.2624711679872134
-0.23755239427731892
-0.20884823960325308
-0.13466303287189973
0.09353666735528983
0.223829653788388
0.2087776162301196
0.17253200219684217
0.1886899048286913
-0.1266371939038194
-0.20732108561228016
-0.12051876061613502
-0.14807748291425005
-0.1723587240887704
0.13054192049655622
0.2913871843702538
0.24678560901569968
0.14214200395918253
-0.058156193827184455
-0.35483337356628086
-0.29845198271430085
-0.18323802216822369
-0.05642494686840942
0.055941816844654255
0.3122681700994673
0.41805051887984124
0.19944666237865039
-0.0036058552390154696
-0.12238045725424111
-0.12727865472492922
-0.3886426776081592
-0.24184987678673286
0.03433945502456927
0.22241282453727712
0.15593886672918386
0.10101873517444264
-0.06353375889502906
-0.06246750724469714
-0.03515857391667948
0.05814865874359716
0.03411295248608073
0.08771830185776436
-0.0027838167785492933
-0.0680668901569552
-0.1387359083102767
-0.03758837652314592
0.02466210563536433
0.049321861418259755
0.046154063871950216
0.028285998375836587
0.0076209664682156284
-0.007960289494246979
-0.01531287798187619
-0.015126672187574085
-0.010232469998085015
-0.0039014070047762002
0.0013490828682624766
0.004267010732975158
0.004791579717584358
0.0036337254659695945
0.0017699944928978673
3.969711435218105e-05
-0.001066964451717981
-0.001433933895322215
-0.0012183785639828019
-0.0007015625488658758
-0.000155701883613739
0.00023759563769218075
0.00041086029026157474
0.00039023352218714853
0.0002533866081958297
8.675528326034043e-05
-4.455139071595198e-05
-0.00010965233579419262
-0.00010998023092972506
-6.842918594227993e-05
-1.5762762167744247e-05
2.1196731687162507e-05
2.733957363668586e-05
2.525970808250869e-06
-3.9275242033728846e-05
-7.443562737565619e-05
-7.721906759867383e-05
-2.9600929841785957e-05
6.849825209276228e-05
0.00019184744538029683
0.00028975201326785865
0.0002970802497193451
0.0001577374087235025
-0.0001432887152254738
-0.0005496446996903831
-0.0009206939642575856
-0.001052258852358212
-0.0007403490129849518
0.00011847970113759652
0.0014182274627181609
0.0027746792362859894
0.0035539937909781732
0.0030412231088402
0.0007471315352602927
-0.0032175002660641077
-0.007845650284813882
-0.011208534143129058
-0.01087419987107603
-0.004830351771185314
0.007232726009449331
0.022667837062154896
0.03521829184365722
0.03553649789844349
0.01314664727459241
-0.04047064410900619
-0.12871356812275478
-0.048112293432493874
0.010770121239019428
0.059702942889904256
0.10787286280159387
0.1581703597116929
0.006937449285453363
-0.15214543566698638
-0.12164085480928295
-0.0947361054694955
-0.053771541412078246
0.025574255415741657
0.1656536997810402
0.1772562091296187
0.05329656148869891
-0.03116586592568937
-0.11222411249548105
-0.026249114781016516
-0.19898937956160703
-0.03860013216655794
0.0651583544927116
0.1357928423752038
0.0014936272411350427
0.08655826036406941
0.005682818064349451
-0.037630214382039756
-0.048998013965464576
-0.03901848364995152
-0.01899380924611355
0.0020194528977693594
0.018284821189235613
0.026934163602627337
0.02687506548491302
0.017996382925400272
0.0012500657544389324
-0.020405642220207146
-0.04080502736850954
-0.050065662227340664
-0.03564151409486703
0.014758861851445508
0.10900157485585504
0.04658584173336851
0.016703454604332636
-0.0005289114588138834
-0.029742417653652264
-0.09421784462719095
-0.009997175676611677
0.017972811573933625
-0.0033401274670812964
-0.05725341522791513
0.07820768430798779
0.024872702553240787
-0.0006801005766913615
0.009296656926245175
0.05238830064118696
-0.08297215922856206
-0.014605329813799316
0.03745104194633017
0.0553967571562622
0.02805760254420736
-0.04523957344413377
-0.15216003903892641
-0.06757121901838707
0.04235286060352135
0.012175239999620651
0.0672131806668428
0.214692424518269
0.039337946933837
-0.09454972795331998
-0.03474608536260952
-0.029012666795512187
-0.11306149030802977
-0.10216859834158636
0.011265085477891977
0.05378853523529442
0.062199277776778875
0.07313995019394982
0.11442854960512502
0.0006825037357279267
-0.06594127315380574
-0.09104403471879954
-0.08192403819587063
-0.04302273230462553
0.025303686774198097
0.12467350134231958
0.054856408735303466
0.010525746588149056
-0.01972964950375056
-0.051859571402970726
-0.10331778746331928
0.009908628347191455
0.07513467550905592
0.08368700479855254
0.03139038772300757
-0.0802699637927095
-0.04232652273764123
-0.036932575092552454
-0.037841366449414285
-0.013637422849991485
0.06652241453839282
0.02599525895359434
0.07454024150514536
0.004917313407604647
-0.006648446800932202
0.003889032195982428
-0.004386262518806733
-0.0689754378439125
-0.016339612908051627
-0.056726984678944936
0.017458660415073376
0.029571422218523196
0.013679132354556495
0.00793380489089528
0.047830541888916916
-0.03949311864997289
-0.03926984710348633
0.048780692368336105
0.010250093639271176
0.017830605404121045
0.03521495104400637
0.02299252044874332
-0.054093356456294456
-0.019783177168309657
-0.08054184168511301
-0.023104951539670224
-0.016422025045638357
-0.01799745459022611
0.016602566010810404
0.1233348613521072
0.12115345246223334
0.007938431689210629
-0.03776680484194191
-0.049789209590118
-0.06452555850585151
-0.11154389873013991
-0.007413398358098487
0.045781859338168876
0.05755458309666647
0.043519215541873296
0.0196125208811441
-0.0021069978413778773
-0.015258953363829942
-0.01874675050418368
-0.015005466139561996
-0.007873439290021971
-0.0008498124930718343
0.0038834682217773328
0.005663482407390835
0.004999920438171245
0.002991178072747229
0.000770624967481007
-0.0008587532672736903
-0.0015601432305734294
-0.001412819787237362
-0.0007580003645460859
-1.989467278834435e-05
0.00044448886086228667
0.0004430525368804686
-9.13542422189118e-06
-0.0006985299669196488
-0.0012699233368566722
-0.0013305912452599058
-0.0005947400891903712
0.000956867907920991
0.002952680656519388
0.004612172599729733
0.004901792144417011
0.0028931005528012705
-0.0017294159557417468
-0.00816802733358922
-0.014266178636794219
-0.01678653980410128
-0.012384002721665878
0.000792449665318597
0.021274907155958176
0.04296653289592135
0.05523754883253882
0.045113244258665294
0.0015749997300883612
-0.07904759925657134
-0.18868528144602964
-0.10671244826687572
-0.004531765182784719
0.1447431973903665
0.1545390166390745
0.21589490307002643
0.09598985398735174
-0.053815621331370196
-0.2823160178783969
-0.22067913098768555
-0.06948278651655541
0.004171114887558371
0.05823351989260764
0.15908350817288738
0.16256239135947326
0.09889671901626253
-0.034065221904590215
-0.06801789333599106
-0.053692031581797875
-0.04667513352761039
-0.0939613703477208
-0.02469795035679204
-0.046972972200045704
0.04932784453497396
0.0852440996505542
0.08384451174783426
0.06274214748255695
0.03018381811392716
-0.2148132489389827
-0.07956637506419796
0.025781582310526633
0.0908936233399643
0.10720680356444504
0.27082446632814217
-0.012314367632002051
-0.3197544243851579
-0.4081195667004455
-0.2165736472153526
-0.08211029315389981
0.23481609279829352
0.7228085682501588
0.7034474949009113
0.23894741802200148
-0.4320445394542887
-0.6386876463945248
-0.8216789861436222
-0.49953540364510723
-0.07377692417773225
0.5250385299512655
0.764360361569745
0.6342314227613524
0.19457343337922262
-0.03880075016177066
-0.26788151805887145
-0.5577034649308669
-0.3724459757968903
-0.1215649105632375
0.07135759318981647
0.1738554492658262
0.229184126318781
0.13007426812888057
-0.008608266491594251
-0.07171290543745866
0.042325221021553526
0.014965014007210078
-0.09370105150507042
-0.04330422464849802
-0.010741049422729309
0.011642316144959027
0.016725331341746596
-0.017386887687276212
0.07299602302696896
0.03898566835928877
0.023235167793932036
-0.033500349167316174
0.015889995675369726
-0.06678417944934499
-0.09864181553270505
-0.0732349776888571
0.03700446087972899
0.07376495484945338
0.08328577062997747
0.10713497467145591
-0.0240590579776843
-0.09277100284977878
-0.093324082986899
-0.029113813741981378
0.0898779614266958
0.048631324384848115
0.02831322815137182
0.0082056524369116
-0.031236807202277877
-0.10479772926812068
-0.019674296712254378
0.025361415847729125
0.038418139971920034
0.03123340434135893
0.01554319378600284
0.00032213729953767874
-0.009461442354611372
-0.01262406230332806
-0.010591938250501032
-0.005924816329079077
-0.0010705856691518238
0.002367730222536926
0.0038237012569622554
0.0035624824935742627
0.0022911073237608885
0.0007743164505902932
-0.0004261050008611825
-0.0010526013110888934
-0.0011207947810867036
-0.0008144894907308502
-0.0003667004346477983
3.10168787379119e-05
0.00027303473958317944
0.00034101525381995167
0.00027757526874451765
0.00015064220841292964
2.303261087187396e-05
-6.51916358561304e-05
-0.00010080611288047988
-9.168666838278003e-05
-5.667736260312971e-05
-1.5845787377242492e-05
1.6006529222959095e-05
3.182416157979319e-05
3.157604216370132e-05
1.984308234478796e-05
3.1468026158928718e-06
-1.2104942124118348e-05
-2.0842274953533596e-05
-1.9988214487555943e-05
-8.935936040467855e-06
9.961061040798669e-06
3.1082548368531605e-05
4.5961826709120177e-05
4.504775502026927e-05
2.106746173125599e-05
-2.6531463604988885e-05
-8.756909689753045e-05
-0.00013983966318817286
-0.00015286586626330316
-9.789296318648831e-05
3.710500272145446e-05
0.00023186358673799037
0.00042506686036348406
0.0005206824519009085
0.0004150677067197698
4.3571396580453725e-05
-0.0005650056428717229
-0.0012483659336530585
-0.0017131912662994265
-0.0016035977223264734
-0.0006401158606089303
0.001198398150737681
0.0035147213957301094
0.005446769799805772
0.0058236203974370605
0.0035648614376357565
-0.0017322601488998222
-0.009198619526405738
-0.016382114193508653
-0.019541219643957677
-0.014758352061875004
0.00018156397785831817
0.023594292197026284
0.04821797659872792
0.06108183541460204
0.04573860895690793
-0.013047857827675268
-0.12319122431123264
-0.07986623178468825
-0.06331336581900812
-0.0416558696444452
0.021230426153815877
0.1548428224967417
0.17180402958776272
0.06221178675355083
-0.0047593246550949675
-0.07202333850740258
-0.1814529277309959
-0.16119797200333974
-0.01804752374224405
0.06265615253329061
0.11016329196907762
0.15782399202932978
0.03326073442974581
-0.04750222124667457
-0.08096551169648691
-0.07344565128773249
-0.03717922530285779
0.01268034683755
0.05946267055176749
0.08552534014860053
0.07346225905036553
0.009198483848739381
-0.11304374199831668
-0.0854985737389329
-0.0839445582322218
-0.06951516048126724
0.00390651441255501
0.17806114793674743
0.0777901778745196
0.10181226742019442
0.020222875147356673
-0.02001208106495089
-0.08289511163880296
-0.027921547430496806
-0.095507365366709
-0.0971778258857293
-0.013070795761956192
0.0025627884974704527
0.009227113577970947
0.06454038669391673
0.20922636642679732
0.056881821016563625
-0.008513156478168435
-0.026625900204757646
-0.04826192683536995
-0.1202040099199161
-0.07192111399415908
-0.10795304404936598
-0.008030022681749863
0.06536427887953235
0.1546294820676286
0.09409981804857524
0.10082265240886905
-0.028173477916555098
-0.11197758715510554
-0.17768795045946206
-0.05188766384974959
0.04500260133534914
0.10026701147730586
0.107506160199891
0.06480739899197206
-0.02546675838909603
-0.15495554536854972
-0.1072357498597076
-0.057878560132497855
0.021707632636020272
0.15706968571551
0.1627307179348102
0.036974862846115605
-0.03801574820795542
-0.0904846318928922
-0.1502268870482164
-0.040139895003821896
0.02871559608378983
0.05734885586684396
0.05529843816372541
0.03553216511462967
0.010021524647156586
-0.012690784989675961
-0.02779854645107593
-0.03319385097372484
-0.028227724350489453
-0.013220707888246298
0.009919430089525724
0.03635545361679275
0.05723515457212364
0.060040043585717046
0.031170505046628615
-0.039370381059096786
-0.1525686319450275
-0.09661224978506336
-0.047089427149895204
0.02775973986057034
0.15788390486255766
0.1615533943891817
0.03872516431142499
-0.02953677723898394
-0.07526917438434533
-0.1337454065464538
-0.03326647802059712
0.011951421514928649
0.003930211982149291
-0.04181654561868185
0.09756816467481594
0.04491969443963566
0.016699936359143564
0.019379512191990706
0.04929970043386167
-0.1043890392632442
-0.055066807595701685
-0.01407323017196269
0.01221523516061639
0.02299275837278906
0.021691568836569104
0.013713498688514056
0.004261056816033531
-0.003067271677270277
-0.006729378738251375
-0.006923358531963385
-0.004866663649930194
-0.002033550536725279
0.00040199969103560656
0.0018227494924776615
0.002156003565665791
0.0016958781189859694
0.0008765023244031793
8.495783994741522e-05
-0.00044231438605759146
-0.0006380172497130348
-0.0005629162729903018
-0.0003398859451909129
-9.27965106020137e-05
9.24726293463922e-05
0.00018085816561739748
0.00018038356928214676
0.0001238333600172172
4.943664411642698e-05
-1.3052990085978223e-05
-4.8522472264142215e-05
-5.58348751440237e-05
-4.305097461598893e-05
-2.153770036931785e-05
-1.2093997138249446e-06
1.2030237719059103e-05
1.665614394879248e-05
1.4389330353517844e-05
8.468073562183882e-06
2.080905703384313e-06
-2.6093818447498187e-06
-4.7634370876535075e-06
-4.641030847714572e-06
-3.116388543515933e-06
-1.1799192406998403e-06
4.13288736963217e-07
1.2924993070684234e-06
1.4457758691394953e-06
1.0919303070703463e-06
5.275469270611908e-07
5.937155449918917e-09
-3.259569381569854e-07
-4.3431756636206354e-07
-3.674503071804498e-07
-2.105604732734464e-07
-4.56320933332748e-08
7.295373473851469e-08
1.2523876370638296e-07
1.192689069898747e-07
7.830047695453289e-08
2.7962087411302954e-08
-1.260825245679634e-08
-3.4347107447047374e-08
-3.739182509973506e-08
-2.7658616675245586e-08
-1.2875379970256413e-08
4.934173948839953e-10
8.798514040732594e-09
1.1309871037338041e-08
9.372199397248973e-09
5.223669908804417e-09
9.698616039281495e-10
-2.0241153773449396e-09
-3.287350251478868e-09
-3.0615687819441744e-09
-1.9640332970152247e-09
-6.571446286607397e-10
3.7468888807178713e-10
9.107324802433895e-10
9.65918566811648e-10
6.996390343094766e-10
3.1298844567577577e-10
-2.925811991923936e-11
-2.366873783450495e-10
-2.9413079296089574e-10
-2.3876003225366153e-10
-1.2927337393754875e-10
-1.968620476329271e-11
5.579250282448272e-11
8.615328827903406e-11
7.849895122854816e-11
4.9177787874980854e-11
1.529026537966483e-11
-1.091958071526536e-11
-2.4098568364209795e-11
-2.492288377448883e-11
-1.7672876334714765e-11
-7.574667796319727e-12
1.1768305334097723e-12
6.3472739360553886e-12
7.639569580811118e-12
6.0750401372867805e-12
3.190746596109397e-12
3.7078299067153474e-13
-1.529140396601939e-12
-2.2544743486942456e-12
-2.010422477204385e-12
-1.2291041530512153e-12
-3.514713714998558e-13
3.134351436949247e-13
6.364067830596961e-13
6.423122134644894e-13
4.457560905731052e-13
1.8238587303028458e-13
-4.113470066735707e-14
-1.6974147499905838e-13
-1.9818975252169523e-13
-1.5439296923751484e-13
-7.854088119141438e-14
-6.058763123112887e-15
4.168928149942865e-14
5.889806704440381e-14
5.1417342881753495e-14
3.0647287670304006e-14
7.945187159222431e-15
-8.90030265102473e-15
-1.6787236716769977e-14
-1.654639896410311e-14
-1.1237904001631677e-14
-4.378229097169533e-15
1.3239169205977473e-15
4.51557576132526e-15
5.123511802498135e-15
3.9070563221790286e-15
1.9155592233884436e-15
5.466253037382685e-17
-1.1433234344733497e-15
-1.5482976581508836e-15
-1.3252213560513031e-15
-7.743139710710608e-16
-1.8776203722484867e-16
2.3844181630173814e-16
4.302860481056254e-16
4.140199587171496e-16
2.711465751234075e-16
9.271538959244527e-17
-5.257522758189605e-17
-1.3159122223357723e-16
-1.4403350109008922e-16
-1.1047218926712221e-16
-5.82678892198349e-17
-1.0546072071356272e-17
1.9458631347836557e-17
2.8896802105181645e-17
2.2378668798585116e-17
7.79688219798266e-18
-7.340119767814634e-18
-1.8108326915000473e-17
-2.2754428009823378e-17
-2.2078062955070813e-17
-1.8244874871750004e-17
-1.36095276579285e-17
-9.912042067422893e-18
-7.960947691340288e-18
-7.72326349442375e-18
-8.643836346750927e-18
-1.001022540328252e-17
-1.1232624904435333e-17
-1.1982741461093598e-17
-1.2200120910680525e-17
-1.2012632500640822e-17
-1.1627432131166699e-17
-1.1237246979820227e-17
-1.096557738970038e-17
-1.085361066103059e-17
-1.0877608193841822e-17
-1.0980152549980543e-17
-1.1100420597315707e-17
-1.1194400484218739e-17
-1.1242441519962324e-17
-1.1246434849111983e-17
-1.1221312264254095e-17
-1.118560077023266e-17
-1.115432501216226e-17
-1.113560849088726e-17
-1.1130674971964931e-17
-1.1136000889637783e-17
-1.1146157594630879e-17
-1.1156203807949807e-17
-1.116304744479463e-17
-1.1165730667730122e-17
-1.1164944738427357e-17
-1.1162208814614417e-17
-1.1159092184062527e-17
-1.1156706510038462e-17
-1.1155527254231789e-17
-1.1155479067900586e-17
-1.1156161578824138e-17
-1.1157093606030776e-17
-1.1157892882148014e-17
-1.1158358926936543e-17
-1.115846879875147e-17
-1.1158319045290554e-17
-1.1158051713773166e-17
-1.1157793346805459e-17
-1.1157621217429347e-17
-1.115755732822787e-17
-1.1157581849057217e-17
-1.1157654664126256e-17
-1.1157735331248954e-17
-1.1157795812615865e-17
-1.115782466204789e-17
-1.115782450074303e-17
-1.1157806033518482e-17
-1.1157781741977388e-17
-1.115776133988387e-17
-1.1157749760684913e-17
-1.1157747374761519e-17
-1.1157751549771634e-17
-1.1157758574264856e-17
-1.1157765211321438e-17
-1.1157769533629255e-17
-1.1157771043500534e-17
-1.1157770303017954e-17
-1.1157768369550439e-17
-1.1157766284139283e-17
-1.115776475287158e-17
-1.1157764049720043e-17
-1.1157764089810212e-17
-1.1157764587677109e-17
-1.1157765219949575e-17
-1.1157765740107068e-17
-1.1157766027126768e-17
-1.1157766077131124e-17
-1.1157765961574048e-17
-1.115776577729346e-17
-1.11577656069922e-17
-1.1157765498640455e-17
-1.1157765463273394e-17
-1.1157765485114922e-17
-1.1157765536343799e-17
-1.1157765590192729e-17
-1.1157765628908007e-17
-1.115776564597523e-17
-1.1157765644022895e-17
-1.1157765630644937e-17
-1.115776561420913e-17
-1.1157765600963605e-17
-1.1157765593866984e-17
-1.1157765592873922e-17
-1.115776559605248e-17
-1.1157765600879428e-17
-1.1157765605244212e-17
-1.1157765607955516e-17
-1.1157765608775146e-17
-1.1157765608142259e-17
-1.1157765606787658e-17
-1.1157765605398801e-17
-1.1157765604421348e-17
-1.1157765604009002e-17
-1.1157765604082801e-17
-1.1157765604441189e-17
-1.1157765604867895e-17
-1.1157765605204769e-17
-1.1157765605379759e-17
-1.115776560539775e-17
-1.1157765605310794e-17
-1.1157765605184547e-17
-1.1157765605072807e-17
-1.115776560500509e-17
-1.1157765604986342e-17
-1.1157765605004428e-17
-1.1157765605040178e-17
-1.1157765605075957e-17
-1.11577656051006e-17
-1.115776560511051e-17
-1.1157765605108007e-17
-1.1157765605098433e-17
-1.1157765605087369e-17
-1.1157765605078812e-17
-1.115776560507451e-17
-1.1157765605074242e-17
-1.1157765605076608e-17
-1.1157765605079906e-17
-1.1157765605082764e-17
-1.1157765605084451e-17
-1.1157765605084873e-17
-1.1157765605084361e-17
-1.115776560508342e-17
-1.1157765605082499e-17
-1.115776560508188e-17
-1.1157765605081642e-17
-1.1157765605081722e-17
-1.1157765605081978e-17
-1.1157765605082264e-17
-1.115776560508248e-17
-1.1157765605082586e-17
-1.1157765605082588e-17
-1.1157765605082523e-17
-1.1157765605082439e-17
-1.1157765605082365e-17
-1.1157765605082323e-17
-1.1157765605082314e-17
-1.1157765605082328e-17
-1.1157765605082352e-17
-1.1157765605082377e-17
-1.1157765605082392e-17
-1.1157765605082397e-17
-1.1157765605082395e-17
-1.1157765605082388e-17
-1.1157765605082382e-17
-1.1157765605082375e-17
-1.1157765605082372e-17
-1.1157765605082372e-17
-1.1157765605082375e-17
-1.1157765605082377e-17
-1.1157765605082378e-17
-1.115776560508238e-17
-1.115776560508238e-17
-1.115776560508238e-17
-1.1157765605082378e-17
-1.1157765605082378e-17
-1.1157765605082378e-17
-1.1157765605082378e-17
