0
0.0003537746620522421
0.04527640492298656
0.11267001292101096
0.019627800468945248
-0.027063431295298736
-0.03218699892691429
-0.010456900643405782
0.017071362071518544
0.02748577859845195
0.0006107033642664251
-0.07691254070475934
-0.008734856375599207
0.012206228739327515
0.0024207694962106382
-0.015488127560259298
-0.017583505209384554
0.01619398677752262
0.09745399947282593
0.026572567287577942
-0.007393038053143552
-0.02391096436023951
-0.04613898594717412
-0.0956381860496154
0.011716648988335531
0.06768205380842747
0.07159933887712715
0.029355315704216203
-0.047647680071964446
-0.14333632276327068
-0.038376205674584475
0.0869686133825662
0.04857040386677425
0.0541142746599761
0.100679788414897
-0.024381368407092627
-0.13931359957881043
-0.06214013122958081
-0.005517085643720391
0.025833895445647587
0.03459753644332192
0.02812028135412518
0.014972492670824431
0.002156314903872962
-0.006335624532001477
-0.009573814361605405
-0.008776676049522484
-0.006019256550354022
-0.003101464630634307
-0.0009271505914378472
0.0004668756912987658
0.0012674243765374933
0.0007735066543916557
-0.003986397612791898
-0.01969882383891219
-0.05803621437846509
0.06360901526378109
0.12257318294311347
0.0934405735444935
-0.046782573550905565
-0.11145174814723115
-0.09729110826692276
-0.18088561949987697
-0.12133961546655213
0.13046496624307838
0.4187498479048424
0.17122326149638448
-0.005440952545338145
-0.1204745446638914
-0.18664949069411974
-0.40711123251340897
-0.16865005433222838
0.1542680782713142
0.38586298082312376
0.3323971392287744
0.17143018707428695
-0.14667348919971054
-0.2847724021161268
-0.29855697307110324
-0.21873109734644391
0.15698170668553818
0.25992481088466884
0.138178472470969
0.04225708854310833
0.014438855345958863
-0.11603686757335001
-0.13318510798238853
-0.03310864222150201
-0.024527870658539914
-0.13241369769803268
-0.20380365264561487
0.48748785300916986
1.2425635681217406
-0.6490101766572355
-0.4825390563069447
-0.10538115319642284
-0.4919308347240349
-1.1404901335905566
0.7013063191052958
0.7876740234203874
0.6194426101987405
0.40535430349186036
0.2584899817619209
0.033174368277203346
-0.6080776678062553
-1.120313218103362
-0.6223508294919514
-0.2866376924515215
0.21794696702802524
0.43964620837401386
0.8389891962971021
0.6981670580031593
0.47394407359665747
0.21107851862112081
0.01575811891635841
-0.8290088871651636
-0.9370516833040659
-0.7174057599676998
-0.727279251708726
-0.0939497406363591
1.0011545442244356
1.002798286338828
0.8647777100553444
0.37137003436639865
-0.08152886509514505
-0.44622067643153246
-0.7441776392713312
-0.9791135587485249
-0.27240027037174913
0.15992583055319995
0.386254602532514
0.5084451618429073
0.603859359103729
0.28303586827279753
-0.12270905975686297
-0.34176352873069255
-0.3202156094336056
0.4266774586974585
-1.1467615626779832
-0.19988694083141054
0.18320893730875346
0.35726951377321564
-0.13459277680193055
1.5919288638214821
-0.06440546968899148
-0.38663898549070697
-0.5073559455227667
-0.5618081929394405
-0.44569624444574746
0.407365249591899
0.4244267740833028
0.2744083711712806
0.04385995626263955
-0.1826573798470941
-0.13372259602918585
-0.15565475006254426
-0.014704223455155468
0.10035041719456854
0.17535114710926647
0.1702030299363895
0.02352834366241766
-0.13644385673002996
-0.17683991981079883
-0.14555522205970325
-0.06210101243142445
0.08316339992228243
0.12180367986594302
0.09541283462863308
0.04356267638384179
-0.004692236234767829
-0.03411851813054696
-0.04191245994417835
-0.03345614275235825
-0.017373429489978925
-0.0015471245763412874
0.00909569412656104
0.013036893814804273
0.011392346717349438
0.006615657475241902
0.001278611420079826
-0.002728909591014319
-0.004503969152961156
-0.004052672757953225
-0.0020156149788210804
0.0006409863658366832
0.002883778443751161
0.0038158436303755766
0.002863838169115818
-2.3906705336924783e-05
-0.004197101059164777
-0.008239695210508012
-0.010161151155787149
-0.007950640509279025
-0.00048112155201672735
0.011442486295846307
0.024297076062531113
0.031828949583664584
0.02622938007780765
0.000546762213570181
-0.048205557882763136
-0.11639509353245028
0.007012077899328898
-0.06164141922742541
0.09444691162797425
0.08642776783385761
0.11482926558407956
-0.03199935552689906
0.024974627174940266
-0.1381315330635677
-0.1406359701123507
0.008343048622456401
0.11168773976065098
-0.017890875469365432
0.03754423531384528
0.0962625259169618
-0.026684853059855244
-0.12108946250329561
0.018257420212157167
-0.008144355594322729
-0.004563725499569361
0.01952215452493404
0.04930100637950583
0.06578707901815097
0.04902282156250375
-0.016661449097205416
-0.13645166746829218
-0.10015440308194794
-0.08121437378240728
-0.04135317151601698
0.05953379860476295
0.25102257270157985
0.1418477611175312
0.11609691052424825
-0.06180321937919992
-0.2346860632398929
-0.23767574983107273
-0.08692661290889836
0.023170459566882663
0.11336813177290678
0.20674732373836152
0.11541966959406179
0.03230295531406379
-0.0689200694070519
-0.025946112438647372
-0.07518621582431555
-0.03864986330928092
-0.11449113967681605
-0.07409925341255338
-0.066841381244185
0.1685454848620292
0.08904446565293664
0.13348585679730424
0.11417804067326638
0.016683079355201965
-0.19256931562943708
-0.15407064239122842
-0.10333945718044045
-0.0637875907020498
0.1537007744796471
0.1457836042901852
0.10993331498567031
0.03993707714340052
-0.07419027773251273
-0.24249146131665827
-0.07036156823134118
0.04399373178085449
0.10847607290410964
0.1334960374038826
0.12863544688127004
-0.09797057715473341
-0.1370910353292098
-0.17462208618069164
0.010366984806656657
0.04363007433869458
0.15004257430382353
0.14673642485789667
0.038311226426187284
-0.18390666641950232
-0.13899516823856495
-0.05234031003030557
0.04719062152062901
0.1280618548493431
0.15636432188832916
0.09815163601126721
-0.07453485605938194
-0.1747381658255293
-0.19211485383401977
-0.08938232009999365
-0.006885648527363952
0.12467626455821842
0.1668528574054267
0.15706989963400098
0.09889538978960478
-0.03776024658440104
-0.10678298639980761
-0.16998034504549642
-0.0806853683202592
-0.07199835121070974
0.047371797485167864
0.08969035423173796
0.07974309344021267
0.045046255666389666
0.008022735057544129
-0.018030119807214074
-0.029078277411694702
-0.027751132906993606
-0.01966192464474258
-0.010135190177873094
-0.0022627657122607035
0.003454492265981004
0.008175830479048116
0.013141404925708524
0.018205305299560017
0.021159694510645848
0.01827390300256415
0.006071223458664949
-0.016132231980140934
-0.04389619090157137
-0.06682195067396189
-0.07044018381457683
-0.04142395994977287
0.024467620018815677
0.11383740073740062
0.18992139204157688
0.1934619305452147
0.052700153896918255
-0.0979691642489919
-0.2950133918756285
-0.32589448560012635
-0.12030082134291505
0.04244622606188863
0.11021072397725785
0.22518541946214032
0.29094889224320175
0.1490725456835833
-0.02828676019211415
-0.1285857946930807
-0.07597393902112377
-0.20281615018555163
-0.22387866592572522
-0.01946031252210775
0.16990257218459748
0.13871536041227062
0.10649056843423028
0.10783921839727313
-0.013667633667032341
-0.20737460452705886
-0.2155692061462989
0.024622947183205627
-0.02523340920892116
0.08418708527953732
0.1777534304285037
0.2472250137083894
0.05056063945546955
-0.07895299079919947
-0.21573017015891127
-0.22254378886510487
-0.13560594886239857
0.04082414009839851
0.12914318594406518
0.16553573150509499
0.185279833244992
0.011895941734085053
-0.14667082624454877
-0.09513726146278287
-0.044250172747405385
-0.004156818974150708
0.019684355439840293
0.027413291049072943
0.023308779506445332
0.013330208193015749
0.0028677397172721837
-0.004610047327971334
-0.00787368279204741
-0.007468020809821655
-0.004880896131928571
-0.0017302272674267784
0.0007881229222065166
0.0021173132140555138
0.0022775410075516534
0.0016471180815363286
0.0007125216218437509
-0.00012330132082165486
-0.0006360573962287287
-0.000784512836704424
-0.0006561577174244441
-0.0003926651678191586
-0.00012582066034940071
5.993957504155877e-05
0.00013646960958199177
0.00012001972743651389
4.9867318950363085e-05
-3.238487465560674e-05
-9.663409400699977e-05
-0.00012944204917672393
-0.0001321096689794371
-0.00011486581713125177
-9.040720324726903e-05
-6.90385196608681e-05
-5.6336121982870417e-05
-5.3133560994534404e-05
-5.698058320364403e-05
-6.40845437913895e-05
-7.096247521694205e-05
-7.540948436273065e-05
-7.67459358844879e-05
-7.553605267240665e-05
-7.304881591033772e-05
-7.069332245731704e-05
-6.956756253321476e-05
-7.017096346094231e-05
-7.228199061368306e-05
-7.499645278615208e-05
-7.693789930125801e-05
-7.665461443680173e-05
-7.317992092098152e-05
-6.664747733757367e-05
-5.8746189255876354e-05
-5.2725125837637e-05
-5.2685993646325954e-05
-6.20823551867629e-05
-8.168294211240172e-05
-0.00010767299040951474
-0.00013089847788061426
-0.00013828651452584662
-0.00011700851378916765
-6.0932741834700634e-05
2.2478758003413005e-05
0.00010796574622644265
0.00015459107382110633
0.00011681430793083332
-3.5741821812853035e-05
-0.0002945259315776364
-0.000593682344381235
-0.0008092469132718293
-0.0007865045259028437
-0.00039836100135554444
0.00037605799469291246
0.0013796179357510713
0.0022516018323049105
0.0024878980654396915
0.0016072343792901554
-0.0005967174064013532
-0.003791641114214761
-0.006954724081613547
-0.008473600816996047
-0.006600561042072942
-0.0002495404531119244
0.010040242020204957
0.021317668229049506
0.02803804052697474
0.022822226229786073
-0.001831362618202938
-0.05138518505333387
-0.12766832163166555
-0.029024419674691136
0.0471827513909365
0.10036785495762389
0.1228567280963291
0.09888763257898676
0.008075222424718177
-0.16722350436863742
-0.23361103800572228
-0.18171776121988728
0.011925914516080108
0.17591717708156562
0.3316691545025393
0.2842255152523721
0.022140142818396175
-0.071678269659065
-0.4021319567736679
-0.5459049317220068
-0.24706514181783018
0.1699235042290387
0.37203510636858095
0.5850371368040563
0.5713250673609556
0.03054573396646453
-0.3736897651255158
-0.5692968629812905
-0.6304462981579617
-0.34998349079624486
0.15891004935626052
0.4324543895391108
0.6100641774290442
0.5913384331939855
0.2134996408379947
-0.34288939849660005
-0.5249950662888548
-0.7713149127104658
-0.4870638029028929
-0.04499390945794119
0.5872756089660874
1.0064436354855903
1.3410938619025203
-0.7522906607640875
-0.6579060880303903
-0.5449347098550894
-0.5111916455543702
-0.7495180987577968
1.051069501433187
0.6729721925417791
0.12181817079222372
-0.2190676435894205
-0.21947828116388038
-0.016216438237309377
-0.014141506786965418
0.12089506998660556
0.07473280310292334
0.10252395194369605
-0.1493702644269095
-0.01925250202136673
-0.007348833227073647
-0.15875767859390366
-0.25583670421419696
0.17781758109821275
0.06205660049432909
-0.0634685745608256
0.1336916912766105
0.15384417789021881
-0.15320417629731348
0.0030660597270793823
0.15600949924718308
0.1949327750164343
0.18835828144089012
0.015011945115376627
-0.4028807869480406
-0.6729452949263014
-0.3231261229824511
-0.016555004290360723
0.41019892219941034
0.696713968528901
0.7141123321214663
0.04338133559749121
-0.4152008222582737
-0.6064378159743146
-0.473914461234737
-0.12124299963852526
0.20696420743088917
0.5228764994623438
0.2796812204404733
-0.04669069952655531
-0.1705136308509043
-0.20266374369958273
-0.25469757798312087
-0.24622354954200476
0.08164017553030406
0.5491726479257335
1.124743683331296
-1.0759556707715523
0.02604725888868441
0.10155877015999713
-0.35604900056507
-1.0088234869692225
1.1323493881489772
0.09851510027377085
-0.056553726608811646
-0.07685125658922741
0.08064348597214023
0.0382797781582483
-0.003036255604665708
-0.05928057973642638
0.044586340273654164
-0.11652973394421769
-0.1604825501804387
0.10615487463500914
0.0881762233210698
-0.0011816560638406544
0.055830134262419694
0.07842066694707546
-0.11411538865272304
-0.1026326720109919
-0.06867787630768317
0.0032615488733261262
0.12157965833855036
0.08291338881594919
0.06959554295271296
0.051449917262560436
-0.007417100756298287
-0.13831208434140355
-0.157397849357174
-0.05879207995242464
-0.014294321803271993
0.019590480063748906
0.08938647922014172
0.23119377564624172
0.06063430874198782
-0.030394065757316346
-0.06931472299151616
-0.09289684402605243
-0.1356883703894302
-0.02095073343104074
0.04330503540549855
0.06285163099559445
0.0520328984780614
0.02743464406970911
0.0027620928840698493
-0.013841980339341454
-0.019993563876762255
-0.01754416164937277
-0.010385392435103998
-0.002474170214884195
0.0034135468015170454
0.006100518557749194
0.0057891715084497355
0.0035203505688652737
0.000599640204083157
-0.001829829759024558
-0.003016739222450094
-0.0026736801900086324
-0.0009651952514885754
0.0015368228879618937
0.003929271349906725
0.005128536433950083
0.004145757437343807
0.0004909071253468916
-0.005380720368294145
-0.011768021759014959
-0.015818120655817846
-0.01422491823986712
-0.004569465207325447
0.012954012528693158
0.03401520706745566
0.049641152970774705
0.0474793336722189
0.015108991195311845
-0.05519566044401515
-0.1618638252740601
-0.09183357482368924
-0.022640785641809966
0.07094501712522157
0.20777909421814247
0.19250909812569944
0.012907011248256096
-0.15586247516366236
-0.14158912849314098
-0.1642529898208548
-0.028922477425712616
0.07486568934429316
0.16762442788642581
0.07139351442800823
0.0021000935102483027
-0.03440644882872991
-0.04201799746419065
-0.030952132459989932
-0.01323313255264653
0.0012258285342568803
0.006997317354704601
0.0037774010333479213
-0.004435041878205669
-0.011162241301549799
-0.009807648312735331
0.003922667971786019
0.03010247532211566
0.06385895282027909
0.09648867379800372
-0.08137541959279322
-0.07527267058481373
-0.0828981883685474
-0.09283146131083439
-0.08758369893978302
0.14924613880188692
0.22411238932587405
0.12693060445867527
0.030552796555723568
-0.10218392195206259
-0.1057859707420393
-0.19857282764415024
-0.17382125739313614
0.00047221869188949367
0.17259936272248427
0.19208935594501414
0.09431969279033915
0.09054700723098359
-0.03332555276380781
-0.10952972166961081
-0.17616881836525672
-0.0648058746260618
0.007756055789948601
0.04134820965722826
0.04849439432078594
0.04712039838818959
0.052978832210585546
0.0742888771997318
-0.09013658224458541
-0.049428058803648214
-0.0171659256035861
-0.007578456760580849
-0.03271090162159351
0.09905860897777082
-0.016425421023754178
0.021281337730237163
0.01797171507414821
-0.014105401313670277
-0.05540599571816782
-0.07954289868700405
-0.056018356772103484
0.04441087117766383
0.042578757601846984
0.14408686962620615
0.1355597464314678
-0.013869965874839605
-0.14553808065513263
-0.10075657583022213
-0.11057399311252802
0.01058768893606499
0.06560256204693245
0.0702399510216806
0.046102474809778964
0.013735735177314346
-0.012062349796507381
-0.024041924213657116
-0.021864401434154267
-0.01004436136585352
0.004535470202802035
0.01491082884034611
0.01591375826035083
0.005662491568628136
-0.013349285901451877
-0.033793216054194275
-0.04410787231515528
-0.030551277095248634
0.01932572687260105
0.11254231527275604
0.04732657317109976
0.012096185386880572
-0.012380467556607329
-0.04811828175055353
-0.11402714901939755
-0.02115821513651438
0.029249656548296542
0.04448897652735997
0.03677988098494517
0.019011134458571107
0.0013735317874240644
-0.010288452997669518
-0.014404080770313955
-0.01244268147535231
-0.007266072323471411
-0.0016938789391427193
0.0023709546685032152
0.004200928550981574
0.004037966481686861
0.0026599823842224906
0.0009396935039817611
-0.00046351888267382976
-0.0012313326662807633
-0.001360209274416099
-0.001046012500993864
-0.0005485785449063507
-8.639393153955624e-05
0.00021617284953745583
0.00033141119866630047
0.00029817230646380396
0.00018119001183248678
3.790716130380816e-05
-9.751891779335936e-05
-0.00021239827178180483
-0.0003022013253626648
-0.0003555834229801889
-0.000347294300190953
-0.0002449096103323065
-2.9283324066136214e-05
0.000278393079401892
0.0005959867571119433
0.0007817174697260212
0.0006692046497499296
0.00013732490688789104
-0.0008008710863807247
-0.0019241587522526562
-0.0027898222579221645
-0.002822868046055272
-0.0015229782306591586
0.0012449611252228468
0.004971938243927818
0.008382115182639004
0.009617805726786714
0.006819764503407361
-0.0009537241547664775
-0.012725786003425449
-0.02496569204055026
-0.03185022559701773
-0.02682599180060585
-0.005484479039891858
0.030853506673946207
0.07210621508676508
0.09861340910186615
0.08398951559794252
0.002071380601648968
-0.16336961116393547
-0.2093443544483112
-0.10890909420529087
-0.014140482735565795
0.13284916800351562
0.18403186400450175
0.17028364681170924
0.09249213304586058
-0.07786678648423988
-0.18925048526711397
-0.09560716385994307
-0.042368531040229994
-0.057338667012586934
0.05159419227082231
0.0927310074019062
0.0835007885486713
0.04329685376949865
-0.011320905353477035
-0.06821503931586899
-0.11887806805723813
0.043016722781239296
0.02224494801070782
0.021442131542904183
0.03998601477374015
0.0734557209891801
-0.08558955238214984
-0.045579076796387674
-0.013483961715803166
0.006952319405570513
0.015636872330865435
0.015278180667743033
0.009871773602030516
0.0032211876391933566
-0.002032705803526753
-0.004727234830846142
-0.0049556009828882145
-0.0035565248293009145
-0.0015703137047012028
0.00016264299797155246
0.0011911852811211886
0.0014509178493536448
0.0011418368525487083
0.0005684946307144867
6.365790269159625e-06
-0.00037354419372781766
-0.0005197550024336864
-0.00047252133549135046
-0.0003176168076988381
-0.0001428826298685238
-1.0082193004733075e-05
5.4779239271544186e-05
5.643065657190515e-05
1.7573200838531938e-05
-3.479894657874224e-05
-7.939240328173892e-05
-0.00010516017934105628
-0.00011098248447289645
-0.00010236904440739987
-8.730541927278091e-05
-7.2853371118621e-05
-6.328887981482419e-05
-5.979390402062254e-05
-6.122709190286164e-05
-6.533594786271803e-05
-6.98688844125427e-05
-7.327555760739216e-05
-7.49272647609092e-05
-7.496529153248385e-05
-7.396352209283897e-05
-7.258315795730375e-05
-7.133557972041925e-05
-7.049200383758509e-05
-7.0114784598732e-05
-7.015016827146712e-05
-7.051805556066339e-05
-7.115394073470095e-05
-7.199053063715383e-05
-7.289982826988335e-05
-7.364027816587847e-05
-7.385990541248683e-05
-7.319071229943749e-05
-7.143258857036984e-05
-6.877450856014413e-05
-6.595293445686892e-05
-6.422469396290949e-05
-6.505719994214182e-05
-6.952609823203927e-05
-7.75511171229539e-05
-8.725679563785965e-05
-9.48485388097415e-05
-9.536551821245069e-05
-8.444822434942885e-05
-6.083755605868305e-05
-2.8797240052084644e-05
7.797283035977556e-07
1.1890275973462774e-05
-1.165852358160057e-05
-7.837913325281394e-05
-0.0001804498142765233
-0.0002880878045149595
-0.0003514795595736351
-0.00031370326183358403
-0.00013465543541368695
0.00017942265333139142
0.0005521195801213682
0.0008337797795120544
0.000832740471490085
0.000385400482806323
-0.0005468701812720609
-0.0017861566671841414
-0.0028999801068689077
-0.00326663693364091
-0.002271653698469751
0.0003854213756474368
0.004361154126620989
0.008464641577337353
0.010754099425692483
0.009060557484940961
0.001928694379814989
-0.010247025230000848
-0.024339224619064573
-0.034444821034109195
-0.03320402201003141
-0.014648465888246545
0.02188469850369777
0.06798690795112314
0.10434050657330898
0.1025855461382328
0.03178760890562112
-0.13135223825448392
-0.1915141217171602
-0.12740612572233367
-0.09215217678002362
-0.02321234119513629
0.13993706738275846
0.23554009632744788
0.2637769932042246
0.18193472425436216
-0.08630522681054674
-0.22948851808154744
-0.32202997768704184
-0.402593031080612
-0.06548514342514179
0.33198597539542657
0.450374322647294
0.3467649770618295
0.061338645014826214
-0.3831181630157149
-0.3714658589800232
-0.2848158810311201
-0.0966586162648954
0.21916359723005985
0.47163746304408455
0.23561201205991117
0.04446246010132394
-0.0018097819533186529
-0.21396343522217265
-0.2833306432769061
-0.05382702983187022
-0.10499913827511437
-0.15124499903205385
0.1424115043750926
0.13188770679089187
-0.04023977302084881
0.12305757167089112
0.25038531069589826
0.09373055618236016
0.1375534197103057
0.0241916619683779
-0.20956817020466792
-0.4936348652212858
-0.29410457289113284
-2.5894248308861462e-05
0.2691094773527523
0.23896263880626967
0.24831477535417973
0.019704462724523687
-0.1602947948342059
-0.24939086165083874
0.151208962538563
0.20317755715795838
0.040666626854997334
-0.21808973362023595
-0.25876177474887657
-0.16114013690286672
0.20630399328797294
0.5882675754759848
0.1448298644178144
-0.1417270603566776
-0.2552375202037281
-0.5347599472083188
-0.473537123616705
0.06521658735482043
0.6160415561997187
0.47190919913961904
0.4530092548569305
0.09727585764708603
-0.3222376244301556
-0.5592062965481203
-0.34950517765707906
-0.17641087276098413
-0.05634990746763971
0.45328944149937195
0.4315791024555923
0.1685860687083348
-0.05238986330011353
-0.16032377553533486
-0.2924557097156707
-0.18823332748714935
-0.18899835834437284
-0.04764036600852413
0.253158609574701
0.48089196354231745
0.14130156267267932
0.28353109433824114
0.7261346095685001
-1.3003823192513944
-0.9072905993960151
-0.11541797408785927
0.1482435993667084
-0.17801550386803716
1.4601501208099066
0.583655578379415
-0.14987423542172507
-0.5464475490182086
-0.6513042371578467
-0.3156618050488242
0.028196755141443586
0.3741861358402094
0.33363294550529016
0.11944758519792777
-0.06683801330932565
-0.039562794158266405
-0.2250963027087213
-0.05362221140412116
0.048815412046790706
0.06507316872884275
-0.012010489634506443
0.01896158102972777
-0.0344553757133228
0.03915524326205988
0.053463121079930266
0.023751422666049304
-0.03281530169938666
-0.09665197596632723
-0.14615283411233926
0.039779287112306744
0.07691261818270041
0.17012015931766122
0.10991040910241694
0.07368733824472386
-0.16758566447261777
-0.2394655161577721
-0.15510331214889408
0.08849833149686034
0.10734069084982785
0.1222018494674544
0.14951119152421
-0.004512773310709744
-0.14440026225427918
-0.0813891030516504
-0.0275265759396886
0.009131865469941377
0.02655259906824318
0.027999959970360016
0.019681184536433794
0.008117163626479261
-0.0017772190347869353
-0.007506604086316955
-0.008813916087569354
-0.006902349749046259
-0.0035112638114737083
-0.00018373532505152376
0.0021188813282775444
0.00306855391479474
0.0028066167227169514
0.0017115803585121667
0.00021393683442330364
-0.001291052586413687
-0.0024474415251220243
-0.0029180511818810905
-0.002406211949471916
-0.0007587132885740509
0.001865505319217842
0.0048375037735112775
0.007029739101767794
0.007031260396847487
0.00365405899055587
-0.003350568271426236
-0.012606004448311895
-0.020824564926660846
-0.023313641561576084
-0.015510741429176914
0.004566465231052012
0.03355005606219876
0.0606698801052509
0.06762085339483619
0.03120445810355175
-0.0713261117629844
-0.055549690305267206
-0.12415230447991189
-0.064724443463852
-0.052620762930491984
0.14149465052989635
0.14194181091161634
0.1600789239113561
-0.008195835481858146
0.022142229632505065
-0.1644920194650105
-0.17240915764879766
-0.18625618247593506
0.029833115490649726
0.12443238717205578
0.14484833284622783
0.12203289752012633
0.05973354440331409
-0.0687020631051542
-0.11544943876904688
0.05258003404628802
-0.03289465588223623
-0.02865850173723788
0.030190945625605512
-0.0635983505738968
-0.08811840840080666
0.00387391992576858
0.07644359364940939
-0.0012833223421986441
0.032151835316245964
0.01933370530706754
-0.023669333809210213
0.08994002251660024
0.1204554049173855
0.009856014127225064
-0.10577497482046401
-0.08227118670001708
-0.15572715649757302
-0.13707380420953685
-0.015197667841707688
0.031938763694963436
0.22193276623001368
0.3544834030595716
0.20633807553884298
-0.06136502308351072
-0.2844004585658328
-0.27206017443468233
-0.3890437519218508
-0.15165024374715919
0.1578895296121704
0.4624271761009702
0.256056728207261
0.17749581623064528
-0.00018189380066960324
-0.16088528757077586
-0.2221802900465962
-0.10584384780204827
-0.1114352213931414
-0.09951681334402203
0.1128934229880301
0.14604844010989887
0.044572573548490445
0.06303296592483353
0.054067193970528914
-0.13900101555571337
-0.0852897160402422
0.033257644081782514
0.02272351779835594
0.07878697108155937
0.18953618521088184
-0.05984414826086479
-0.2809935568830388
-0.0770683184104874
-0.04119408925895796
0.03949076038926526
0.17510601321962882
0.16310716446502665
-0.018476048806270174
-0.011555904828959917
-0.07176839097947724
-0.05750939233960361
-0.01744457218697037
0.020482430148477736
0.056534837583093925
-0.07780907514130675
-0.12172791116798061
0.007998425098182365
0.005225900655255997
-0.04082763991100582
0.13827187297855567
0.17673011594256824
0.06736290071715327
-0.03691980400226688
-0.012979086642544057
-0.1513299233335029
-0.13849893673496233
-0.04245172896004141
0.09582063574310647
0.06391785504930383
0.07442871856362267
-0.041392582697140363
-0.04074007494919125
-0.07647183710264131
-0.10458973080269109
0.1080228389065509
0.17668310345868068
0.09506166277410505
0.036804099530947064
-0.036474407337102305
-0.16249552168638445
-0.1648667995204492
-0.043519245759522866
0.02760362164761668
0.0949213043737825
0.013723513512974034
0.03445591803477983
-0.009509859417413852
0.090182311261999
0.11489975309840501
0.023581178108566064
-0.036954859078187415
-0.11843399562936728
-0.25828069176631513
-0.07188208201898595
0.04711512018651174
0.11861331661020054
0.1634733516792864
0.19195816001729754
-0.001831126946889038
-0.03720698534379552
-0.13709988069490125
-0.11544632214266158
-0.16713454877897138
-0.06486322386316944
0.035420041267435046
0.1822267281473461
0.21399702979187152
0.14810162405834926
-0.02215621966577006
-0.12146396488832434
-0.18025323264865328
-0.22184448011792923
-0.05461461869109683
0.12770237050358801
0.1383743459133389
0.18686385980735892
0.07023162565638096
-0.02931841295362481
-0.13998020732508318
-0.09138900657949961
-0.10530272871346033
0.010298793260222743
0.061872623189568814
0.0663076978435551
0.044532259277103685
0.015404155302846275
-0.008213502255781727
-0.020570597934324922
-0.021840059201417537
-0.015704636614187466
-0.006836332743583192
0.0009565040206040502
0.00560925688708175
0.00680495660339632
0.005428953741106116
0.0028486756335106053
0.00030809787189582845
-0.0014162978838317532
-0.0020869647977641297
-0.0018821007296190232
-0.0011877817764339934
-0.0004013307780156237
0.00019691516808775832
0.0004885524430916792
0.0004952232256924629
0.00032101493477704266
8.988385460424461e-05
-0.0001008812672901597
-0.0002026785711090069
-0.00021502106734709527
-0.00017017944172308352
-0.00011219723832725467
-7.773083853501896e-05
-8.32783373673683e-05
-0.00012071787571973551
-0.00016125902088437097
-0.0001667181662395567
-0.00010587320552965618
2.7907986977320377e-05
0.00020339387933714044
0.0003494019742736746
0.0003699314857265869
0.00017850372790960954
-0.00025384893258781295
-0.000852040131490856
-0.0014149077599832703
-0.0016422703097766968
-0.0012259534813598067
2.9622858042535307e-06
0.0019104870124269661
0.003950644120201124
0.005196328739716197
0.0045761466232859226
0.001320173338399024
-0.004483754466171619
-0.011433593573795123
-0.016740875116936497
-0.01680523369302437
-0.008536717710326734
0.008773947881533073
0.03160748326346168
0.051256365697019336
0.05464944814506007
0.027458441037496128
-0.040874741198417275
-0.151654802838769
-0.0932972919946549
-0.04176571156040745
0.034026988163607476
0.16314589862849455
0.16314588886518366
0.03402696050395288
-0.041765751689478575
-0.09329733432890244
-0.15165483218090486
-0.04087473990126345
0.02745848714226262
0.05464954116737406
0.05125648735538442
0.03160759140293503
0.008773982711637745
-0.008536814869236175
-0.01680549105473184
-0.016741258810913665
-0.011433988129117622
-0.004483972146054862
0.0013203421277823443
0.004576842815083084
0.005197515309675333
0.003952020999466734
0.0019114862263620149
2.8723066704722423e-06
-0.001227720436709462
-0.0016458167940244053
-0.0014195189042251416
-0.0008560614716810433
-0.00025495637229407673
0.00018254724745249775
0.00038012300737832246
0.0003642874190072932
0.00021836193125829382
3.563007084025678e-05
-0.00011340845406350034
-0.00019465306869669073
-0.00020766734782134858
-0.00017345132760597558
-0.0001200202528630054
-7.109223596522303e-05
-4.027048957141503e-05
-3.0516299197527245e-05
-3.713398316109763e-05
-5.2047232205957565e-05
-6.755908181861015e-05
-7.861270331427433e-05
-8.339863252999644e-05
-8.272637611186669e-05
-7.881014072259341e-05
-7.406249558571077e-05
-7.02692214242533e-05
-6.826265388140309e-05
-6.801230356512452e-05
-6.895124558383979e-05
-7.03499130563737e-05
-7.160332666180181e-05
-7.237398635662215e-05
-7.259887768495705e-05
-7.24083133752848e-05
-7.201429695126163e-05
-7.161441279595093e-05
-7.133550992090759e-05
-7.122012558509404e-05
-7.124418553470932e-05
-7.134897479067247e-05
-7.147216866281166e-05
-7.156859287579505e-05
-7.161801137183611e-05
-7.162227758686146e-05
-7.159664388805695e-05
-7.15600845912796e-05
-7.152801236078405e-05
-7.150878020607782e-05
-7.150366953903169e-05
-7.15090877206434e-05
-7.151947838680252e-05
-7.152977526359464e-05
-7.153680196888202e-05
-7.153956840487862e-05
-7.153877655832051e-05
-7.153598016619368e-05
-7.153278740631084e-05
-7.153033943267897e-05
-7.15291260544646e-05
-7.15290722147654e-05
-7.15297688486503e-05
-7.153072310817151e-05
-7.153154281510614e-05
-7.15320217799879e-05
-7.153213579075674e-05
-7.153198332945146e-05
-7.153170980222938e-05
-7.15314449646303e-05
-7.153126820837301e-05
-7.153120230168153e-05
-7.153122708518845e-05
-7.1531301523776e-05
-7.153138416921982e-05
-7.153144623651454e-05
-7.153147592905938e-05
-7.153147587795551e-05
-7.153145702282675e-05
-7.153143214916933e-05
-7.153141122359258e-05
-7.153139932124518e-05
-7.15313968396988e-05
-7.15314010928678e-05
-7.15314082811065e-05
-7.153141508500255e-05
-7.153141952408271e-05
-7.153142108263437e-05
-7.153142033256796e-05
-7.153141835563906e-05
-7.153141621888326e-05
-7.15314146472934e-05
-7.153141392336756e-05
-7.153141396153006e-05
-7.153141446999537e-05
-7.153141511748714e-05
-7.153141565104199e-05
-7.153141594612859e-05
-7.153141599831161e-05
-7.15314158805281e-05
-7.153141569192807e-05
-7.153141551732995e-05
-7.15314154060355e-05
-7.153141536950018e-05
-7.15314153916605e-05
-7.153141544404966e-05
-7.153141549922954e-05
-7.15314155389687e-05
-7.153141555654626e-05
-7.153141555462019e-05
-7.1531415540954e-05
-7.153141552412085e-05
-7.153141551053284e-05
-7.153141550323526e-05
-7.153141550219343e-05
-7.153141550543474e-05
-7.153141551037542e-05
-7.153141551485075e-05
-7.153141551763609e-05
-7.153141551848358e-05
-7.153141551784065e-05
-7.153141551645515e-05
-7.153141551503184e-05
-7.153141551402842e-05
-7.153141551360358e-05
-7.15314155136773e-05
-7.153141551404349e-05
-7.153141551448056e-05
-7.153141551482618e-05
-7.153141551500615e-05
-7.153141551502522e-05
-7.153141551493651e-05
-7.153141551480727e-05
-7.15314155146927e-05
-7.153141551462312e-05
-7.153141551460371e-05
-7.15314155146221e-05
-7.153141551465867e-05
-7.153141551469534e-05
-7.153141551472064e-05
-7.153141551473085e-05
-7.153141551472834e-05
-7.153141551471856e-05
-7.153141551470723e-05
-7.153141551469844e-05
-7.153141551469401e-05
-7.153141551469373e-05
-7.153141551469614e-05
-7.153141551469951e-05
-7.153141551470244e-05
-7.153141551470418e-05
-7.153141551470462e-05
-7.15314155147041e-05
-7.153141551470313e-05
-7.153141551470218e-05
-7.153141551470155e-05
-7.15314155147013e-05
-7.153141551470139e-05
-7.153141551470166e-05
-7.153141551470194e-05
-7.153141551470217e-05
-7.153141551470228e-05
-7.153141551470228e-05
-7.153141551470221e-05
-7.153141551470213e-05
-7.153141551470205e-05
-7.153141551470201e-05
-7.1531415514702e-05
-7.153141551470201e-05
-7.153141551470204e-05
-7.153141551470206e-05
-7.153141551470208e-05
-7.153141551470208e-05
-7.153141551470208e-05
-7.153141551470208e-05
-7.153141551470206e-05
-7.153141551470206e-05
-7.153141551470206e-05
-7.153141551470206e-05
-7.153141551470206e-05
-7.153141551470206e-05
-7.153141551470206e-05
-7.153141551470206e-05
-7.153141551470206e-05
-7.153141551470206e-05
-7.153141551470206e-05
-7.153141551470206e-05
-7.153141551470206e-05
-7.153141551470206e-05
