0
0.004016499174962249
0.1612756081307605
0.09964394852022176
0.004126335929040759
-0.13465951593251055
-0.1174590466214124
-0.13542675231349183
0.02693580031305288
0.18499838634343485
0.14589417523196965
0.10305812603737317
0.03673025973610376
-0.07885183800991412
-0.2640830968088202
-0.12322596403595448
-0.03917174900298495
0.023553212853452164
0.10836883078591915
0.25282479946028114
0.0767873623258548
-0.022910461118110365
-0.06970659694011899
-0.09814260238783748
-0.14230579657489492
-0.026251836474915562
0.040651224655667645
0.06285722363198058
0.05379978621957686
0.029689737315280313
0.004341262550741933
-0.013651062800113809
-0.021272938782645464
-0.019727114167793953
-0.012396034412543458
-0.0030293855707696636
0.005353284122380269
0.01080128533109595
0.012288995402771289
0.00947901029512268
0.002691430561192609
-0.00685018763306266
-0.016690695326333164
-0.02311589002130241
-0.02182320700008522
-0.009476856132876008
0.014080653975933471
0.043688599164224136
0.06790541069680782
0.0703324274156564
0.03376083599183751
-0.053488178733660234
-0.19112363123356307
-0.16352867460263823
-0.14252130389829992
0.10267260106261729
0.19048173039508393
0.31263414632137765
0.22730370831265378
0.0648924207357089
-0.2531066997889341
-0.38747031991943326
-0.1562005485197141
-0.12060610061376621
0.01193996616444475
0.1691251631467887
0.2846972716140199
0.0680923330001778
-0.019095179721934193
0.02527897550483244
-0.05468227365869398
0.0395396337152404
-0.01907823625159345
0.040692869116527045
-0.08793643955517651
-0.0698759524281684
-0.11569759584369373
-0.17954159912878057
0.031263956082051333
0.036004420154731834
0.15377773355263066
0.07625245401625268
0.24671128347004337
0.050735312004750815
0.020936444215161155
-0.14561934142651045
-0.16216901393184455
-0.12610570723989514
-0.09861992450778653
0.10551813529875312
0.11704966888285415
0.0021103745528918863
-0.15386148496628776
-0.06523584613012376
-0.06603658578873695
0.07202706578908034
0.3272850181506533
0.4268572111990917
0.2611493639558069
-0.08498835242866802
-0.4902900318488524
-0.557273014025232
-0.591110795270293
-0.4105951051996697
0.005216716375554421
0.6447651009966199
1.18907990627263
1.7635542943189713
-0.659058054603647
-0.3971437478173542
-0.5568264041878997
-1.12240493245214
-2.0816226225464427
0.5836573416146795
0.43320342555417424
0.8497911100013629
1.1071699057829028
2.272147751630876
-0.823004691338452
-0.32660186817730363
-0.8506988703875346
-1.1330842577606026
-2.1266201599690686
1.0468566581822702
0.46517437516493454
0.5121748830983867
0.5572197225207792
0.8481400207479677
0.4488161197150212
0.03621625104441932
-0.44652332295452957
-0.7007395766511952
-0.776584631109577
-0.6016645148732338
-0.15522264474102093
0.5069903757670001
0.5892540489668234
0.47809555610134535
0.4773356951950321
0.3764482067488645
-0.34001971559387717
-0.4482479306166224
-0.3234109137419756
-0.48226076870498225
-0.5489566509286588
0.14580069758296785
0.5340010266724764
0.5605976112826578
0.33376389131625883
0.0926714536567184
-0.19803262543864267
-0.2287838581934065
-0.3108573052968078
-0.1406160188888755
0.026556144051005943
-0.01328779307053422
-0.017986166577826184
0.08367351729559706
0.16935234939331592
0.10160641110689751
0.11302100249215906
0.0014601789639536844
-0.0642191313202104
-0.13068611056753285
-0.04359943762369982
-0.03311119436795172
-0.10537000818404964
-0.0420031173053015
-0.00742390745680856
0.038177199925622046
0.12399890405886839
0.25682682309187793
0.2169175318681232
-0.03577154135352323
-0.34607504669161115
-0.14414552678347725
-0.22984149982074487
-0.1678707997923118
0.10360458307446406
0.45375479053024753
0.13666290544030088
0.1745530577502596
-0.04703089117435978
-0.17112141786645993
-0.2526852199402881
-0.14077047482849142
-0.06630057369822735
0.16093529075100785
0.14693433812742376
0.10395705983014515
0.041879526581651186
-0.03612766461964466
-0.1329569271596482
-0.053752758977532344
-0.0017126451275941185
0.024323188905889866
0.02980590179315507
0.022604608605964673
0.010576789055416261
-0.000341043290922121
-0.006993831898670946
-0.008838044000639301
-0.007102737482102311
-0.0037405311866426775
-0.0005396927279974244
0.0014050828946170183
0.0018359864722661602
0.0011763341708591344
0.00020776840906339405
-0.0002943913972370493
0.0001271321964831923
0.0014174390087949597
0.002977157774933689
0.00381951371242081
0.0029162085146782328
-0.0003203451336239425
-0.00554504003525771
-0.011178681160499528
-0.014529316941715482
-0.012511416258583388
-0.0029632859169967996
0.01371371783563399
0.03317106078934477
0.04674679146401687
0.0427900694924213
0.009870426528506913
-0.05877263593952249
-0.16112066174386874
-0.08471085399912458
-0.009045969898145038
0.08794286310382536
0.22163334218530276
0.1944590111701174
-0.004816366379084041
-0.1952109632852275
-0.1934613381606106
-0.20481240150954677
-0.019623809357949103
0.1821203350629585
0.22043001278141033
0.10414258206321343
0.02437761672445417
-0.04441507706866908
-0.13648122921669362
-0.08342779737621289
-0.10409942658475689
0.0007166688645932371
0.04735320767902824
0.06314503380531353
0.07794008624153706
0.1165540122175558
-0.005299575277087059
-0.08077320069551354
-0.1084846563990181
-0.0884802253252182
-0.02016836145102503
0.09648633037174854
0.05719731645797021
0.049242103501368775
0.049544899457837195
0.02660356489833605
-0.05362575713535455
-0.01928763777241534
-0.08406845704012715
-0.04124788094821635
-0.06256329464574421
-0.10289613907630508
0.08982318944858529
0.16183704801513843
0.1416256902260997
0.03275695732040846
0.014010147468039826
-0.15343980774039437
-0.11466389735705972
-0.10968052396586413
0.034103043905027344
0.1041210872334156
0.10045508467038086
0.03167940895314347
-0.08886877825340955
-0.045356997199729285
-0.02068322496482945
0.002356091166620548
0.03944483691513834
0.10303275910524182
0.001389489084248709
-0.06097472618685876
-0.08180805393636474
-0.05968606665873407
0.006098064084760015
0.11394759186869963
0.05760037702523444
0.02469560034871325
-0.0023392611940482827
-0.042907727497818765
-0.11355113343793535
-0.023855852609865797
0.025371883466982634
0.04106854548134087
0.03471062418215528
0.018431308478656008
0.001896851560248085
-0.009258343411574825
-0.013403321909447385
-0.011789829288188947
-0.007028495016207059
-0.0017486883305230972
0.002228356929623356
0.004147072809914361
0.004145650133190045
0.0028772602904992175
0.0011288041107628513
-0.0004378766410232808
-0.0013932784754075252
-0.0015445100380467437
-0.0009266878234780389
0.00012318536519793542
0.0007335975530760038
-0.0009430441834503293
-0.00841113756068463
-0.02776230888376744
-0.0687989520535532
0.05392371933624479
0.12085016743209924
0.10914196466665067
-0.002554091477546702
-0.02630374417874503
-0.1559309292311006
-0.16041719955217287
-0.18345819543787373
0.04857613286448173
0.21113222777129168
0.16270412530534575
0.12912226409256858
0.09660952811606201
0.016275649885843377
-0.18135965362342907
-0.16676923208903877
-0.19351643358354562
-0.08822628301611993
-0.051703672329776205
0.12975667542998687
0.2678981121084363
0.3583642555541944
0.17610158149343674
-0.1160134737564565
-0.34752904170053867
-0.31776821495500873
-0.38089175831882816
-0.04722989759916669
0.19694257044792549
0.4569374373425482
0.3962027415232947
0.21474628979365715
-0.15216563717093598
-0.21472203665827963
-0.296312746838476
-0.3001933173447062
-0.08615315827206303
0.13662893897856798
0.2009195807963264
0.1627783473310944
0.08101742695551643
0.001601987481058126
-0.049654969705961685
-0.06642913817680943
-0.05600747925164658
-0.031678304638761604
-0.006231552239853336
0.011906837979735092
0.019717995429231184
0.018544999698403106
0.012061629387606732
0.0042542417236168285
-0.0019555979728581954
-0.005248463518783044
-0.005738037069202449
-0.004400233873988485
-0.002421811414235395
-0.0007044355203692213
0.00036448088287640277
0.0008770124834915669
0.0011860610709275954
0.0016179822525730328
0.0022322946531689587
0.002720557499676481
0.0024952710582163964
0.0009639010760868831
-0.0020834012370187878
-0.0061103118199949315
-0.009677851126226742
-0.01067112688990402
-0.007000644044114509
0.0023005305764717417
0.015886911982303523
0.029323286393832013
0.03529298251532683
0.025187718208221816
-0.007996282328301973
-0.066215903842662
-0.14378631133416897
-0.027180414307314615
0.10194367752876834
0.06114198530371042
0.061138538330549115
0.1019355210364687
-0.02718748936141976
-0.14378507922840908
-0.06620089067087605
-0.007967193015043655
0.025223518254191557
0.03532035359712218
0.02932276774975057
0.015842026109621443
0.0022076089339716355
-0.007123393455698985
-0.01078010955788608
-0.009711007813000199
-0.006007077364114686
-0.0018154320863947083
0.0013600979550403938
0.002898751577799271
0.0029365916702949212
0.0020455424115854537
0.0008866681543807528
-4.545923601028292e-05
-0.000538057550714274
-0.0006431853489189672
-0.0005714588049141241
-0.0005514118115151752
-0.0007053818794917953
-0.0009802453738056063
-0.0011551843180699645
-0.0009300549324954496
-7.600962269225767e-05
0.0013946300796821539
0.0031046356972650765
0.004309499013911942
0.004076059205400476
0.001651311709163931
-0.0030527211479395118
-0.00902836943928382
-0.014036524829794547
-0.015001285982466306
-0.009049288307979374
0.004937137841277906
0.024702514512422957
0.043661618714232964
0.05139755268651343
0.036113770157931525
-0.011181205871701088
-0.09199861116354555
-0.19738533681004194
-0.10905606112758122
-0.006012847328261937
0.12441268639684804
0.2751317792127782
0.41345253482642624
0.08612628089544767
-0.16327598766688084
-0.3692936657211101
-0.5219740467997379
-0.5585973010099897
0.022439163576602337
0.5268313896500517
1.020622999396873
0.29633360691538946
0.266140980647232
-0.21130483358484092
-0.6785507272235561
-1.0213884006000995
-0.22875723705783044
0.012393388997834926
0.2840523435895885
0.577902943489179
0.631786756641374
0.4848347207411024
0.06685365773114159
-0.37523777217186105
-0.6247729597671788
-0.6367177921508373
-0.29459528160104215
0.0027807204867260657
0.5231320180950101
0.5619810956450395
0.4013120362177435
0.08248656129869271
-0.19792412809019164
-0.4717207856240796
-0.37295763235646373
-0.11559461507458528
0.11541367851349327
0.15750962948091798
0.2536153704413011
0.23390994992096384
0.10466940658134961
-0.15146857559371438
-0.16481789517498066
-0.1630038892233819
-0.15762292670975692
-0.13906612623620498
0.11829050001717993
0.24271496459376818
0.24924947199074074
0.1281461380007488
-0.15758362924218836
-0.2649635037950767
-0.057832679133257806
0.007024509153867851
0.09041630300002619
0.17690536112977046
0.07773610080638639
-0.1682307212650849
-0.2959851067515523
-0.22038347721817023
0.1513168326794779
0.30128532086956583
0.2821458743373835
0.10410662469985234
-0.06667604751323453
-0.29818254843311076
-0.27573149608922
-0.08522080548388804
0.19831521538136657
0.3159089538868213
0.22682279559964552
-0.08807303664066567
-0.22019598521377456
-0.3274416298936205
-0.3346885854434077
-0.14571570677563594
0.3333133407627702
0.5654950536412773
0.5618910266960856
0.2793060802950322
-0.15736388638172732
-0.613724010460611
-0.7014163137120963
-0.7512034716132964
-0.21985663118030935
0.2654033077598693
0.8373505197707852
1.1198254150567784
1.3893323485543045
-0.6113555937943607
-0.6055758750081777
-0.8821347975809908
-1.1982778539305252
-1.1234052706632738
0.7541284427078425
0.7586795782095005
0.8224248191861452
0.7819440102541021
0.5117003696827499
0.11424059417679178
-0.8340818335451163
-0.8018575295225367
-0.6164638406492278
-0.4025496846155989
0.03720141934356616
0.7987161901617521
0.6257302055927777
0.2543860480070229
-0.026386521041144622
-0.18860827693374357
-0.25511761177316483
-0.2757837326811609
-0.10231408871481278
0.029143160464393098
0.10392257146392711
0.12492430044576854
0.1036725500955055
0.05159082109491585
-0.024989900596631216
-0.12521135652919388
-0.050869982151871204
-0.0028674685634125408
0.021009693528822822
0.026223156255577577
0.0200215867446425
0.009450721516826133
-0.00022235651338310366
-0.006199459996032312
-0.007965571519046956
-0.006540538782536484
-0.0035684406716012464
-0.0005661822390878967
0.0015041828489472833
0.002330295540499842
0.0021064319048129205
0.001285317803235772
0.0003409814946955847
-0.00038752255006844723
-0.0007526041314204213
-0.0007739840273704775
-0.0005711371218364993
-0.000289412755855607
-4.524977737379374e-05
9.940796928315113e-05
0.0001362402456272104
9.325170755396276e-05
1.2554867492825053e-05
-6.792769615306345e-05
-0.00012449002612816964
-0.00014929483986609189
-0.0001463162730375946
-0.0001251771344800171
-9.591486923319198e-05
-6.629315544239477e-05
-4.170671676252338e-05
-2.6542557193931935e-05
-2.5363448258240633e-05
-4.253949768342457e-05
-7.98445404898634e-05
-0.00013276745739301102
-0.0001874475935137293
-0.00022074014764973183
-0.00020550289392874682
-0.0001215340671150671
3.0136929259488407e-05
0.00021495392736728408
0.00036196394208192774
0.0003773801574452474
0.0001774588426759739
-0.00026434357303336555
-0.0008709560921933135
-0.0014393930860546055
-0.0016675950722417922
-0.0012457102329928962
-4.205154458699768e-06
0.001921261640469401
0.003979814893917314
0.005236361148932173
0.004610325712878998
0.001325172709244822
-0.004530493651795214
-0.01154245343045101
-0.016897903263322796
-0.016964832459972736
-0.008625648672736911
0.008836605288663842
0.031874968883296835
0.05171195175223737
0.05517405723465605
0.027829891043427715
-0.04093212191403722
-0.1523653947874189
-0.09469385030294415
-0.04356199406847083
0.032480351559181275
0.162752269931123
0.16476512436851218
0.038026986320685394
-0.03597464027723214
-0.08752556768295168
-0.14874625400230249
-0.04389920375605885
0.01659479126129745
0.03682780929007291
0.031333460721230236
0.018315659895779508
0.012602564658679687
0.020327197855023283
0.03661346948992205
0.046826845338243
0.03124256285056568
-0.027827247331791455
-0.13832399887187807
-0.09274859172329834
-0.06705465384268185
-0.02552586640103602
0.06909521771303005
0.2432420169689182
0.10235106463576815
0.027027734918121233
-0.02245856226322242
-0.09456219478088972
-0.23172305352546088
-0.05763167680532226
0.029288698685477187
0.0544962614542007
0.05930040439048474
0.08944180632992306
-0.016088314374182174
-0.0333020702716075
0.04269424719216965
-0.0022102208907309987
0.002492772367570294
0.01817004654034637
0.004789639939973094
-0.07118202974393463
-0.030267941463187235
-0.0763472616404356
0.0030983810835773147
0.032845369629993036
0.04308474211318448
0.06199062449050699
0.11003952662184913
-0.00221005469466672
-0.07250787623390675
-0.10272431009494785
-0.0945292180424444
-0.0474314988628941
0.039605818933331184
0.16380872334266003
0.11411744633512479
0.06974741923108145
0.003756275809193103
-0.10887024606297642
-0.28166901930054106
-0.11010235474643155
0.02842951418233249
0.16714385060268303
0.13776773985424254
0.15888117227254062
0.029624871222868308
-0.0688223783974015
-0.16502930005063468
-0.08612344129615222
-0.048260941565398244
-0.052205862680257745
0.1149676487403834
0.07351566763976694
0.04301245640861576
0.035847892251761625
0.05432764152631446
-0.10819641684369562
-0.06329094889559762
-0.022539370134857618
0.0062214207527326905
0.02041449430450799
0.02205796031239471
0.015806579350432594
0.006770653129630443
-0.0011006662675014799
-0.005743930536103323
-0.006890607388655427
-0.0054717185579960925
-0.0028784328050942714
-0.0003561814267713275
0.001330898675059999
0.0019613175555439357
0.0017255798227302295
0.0010150041268571631
0.00022550298100356303
-0.00036795209807464503
-0.0006529366849290173
-0.0006550127725695864
-0.0004788765471741979
-0.00024613694171170145
-5.0460086512640274e-05
6.206681364998667e-05
9.01271435773942e-05
6.0663687039237525e-05
8.632345044878677e-06
-3.914446267780163e-05
-7.184604654095322e-05
-9.371120508298496e-05
-0.00011650552868697032
-0.0001492021710263944
-0.00018917154105760738
-0.00021871203307846139
-0.00020937788680364615
-0.00013426467060703495
1.4642703948082253e-05
0.00021018566280511325
0.00038321109121808723
0.0004334213640344465
0.0002621041755131584
-0.000177204151529662
-0.0008249184092680779
-0.001483146505207591
-0.001833203160286332
-0.0015229292449504093
-0.0003211032783469613
0.0016983482574295912
0.004015915258831997
0.005664528664102156
0.005447465199293265
0.002396453271643696
-0.0036163789163520233
-0.011325411846088861
-0.017885521870940474
-0.019361794234350995
-0.012054688725403407
0.005489352990597464
0.030340585288086152
0.05384153434126041
0.06208105997595879
0.03886776083189133
-0.028983079474490064
-0.14544148584578198
-0.10056514991247582
-0.06991792256836626
-0.01957080985606767
0.08406020146497288
0.26266167918224653
0.11728091572130615
0.02645377230136974
-0.04723048420219693
-0.1441243556246114
-0.29302825695514917
-0.10106810203682008
0.04785629422913136
0.18551015687699016
0.14611393190640845
0.15326596238459086
0.012279092475545487
-0.08962591610422753
-0.17641842132065658
-0.07341688279792254
0.0011576320911082963
0.040366379441390945
0.04801177886042356
0.03484880261092308
0.013742731365201408
-0.004420987748967986
-0.013163221955508097
-0.011100164780916145
-0.0013050443624281244
0.010143906528766036
0.016039643161298373
0.010096659480300505
-0.011075000337219273
-0.046481891953177125
-0.09032496072875942
0.06686322839179547
0.03555252935694471
0.02383512390561927
0.03466188458147554
0.06486888278169259
-0.09358654864769556
-0.05072237844822122
-0.015225319095313942
0.00790194737932608
0.017989934168164835
0.017782977507196186
0.011689213483049438
0.004034731060232465
-0.0021103169849536817
-0.005346807229175322
-0.005727214482536115
-0.004186070354706342
-0.001916010110458485
0.0001019865272783774
0.0013274343059244713
0.0016669032746449318
0.001338556770150693
0.0006893158469285229
3.912519287854579e-05
-0.0004090779045175685
-0.0005897738044065992
-0.0005448794793822914
-0.0003712497837350002
-0.00017031236375521664
-1.4763764949273148e-05
6.355082273716739e-05
6.857207634816503e-05
2.566331818495473e-05
-3.416105960118774e-05
-8.598470568962239e-05
-0.00011653258588798094
-0.00012405853340865776
-0.00011468347624399349
-9.761844092012958e-05
-8.115712867326645e-05
-7.039283461163561e-05
-6.673555818408079e-05
-6.873221134303665e-05
-7.348811042771919e-05
-7.807227604563764e-05
-8.052017793222189e-05
-8.02912405865267e-05
-7.821240296860694e-05
-7.602418738407609e-05
-7.567068768459139e-05
-7.848595858918042e-05
-8.445928043880054e-05
-9.180886762339334e-05
-9.711780837616508e-05
-9.62256438678912e-05
-8.587332865508298e-05
-6.576797223075499e-05
-4.034694846210884e-05
-1.924295677331976e-05
-1.5493056772848096e-05
-4.107069650583244e-05
-0.00010037997608181742
-0.00018372012521147976
-0.0002639090053795312
-0.00029955352517445534
-0.0002472098336499976
-8.16019889353457e-05
0.00018138332854425492
0.00046864220810612393
0.0006526756390999613
0.0005828524365109107
0.0001462140117044701
-0.0006549959197339597
-0.0016375732406686066
-0.0024225989500132206
-0.0025085491861501375
-0.001447211110949425
0.0009046698769694827
0.004138160527224871
0.007173873346083742
0.008406003071193664
0.006190163828104337
-0.000365691821497812
-0.010521411058769872
-0.021319292334138713
-0.027756929527055645
-0.024083284065148116
-0.006252710225776524
0.02495845695868435
0.061248367287410795
0.08594458603607757
0.07631977752748757
0.009506333112769392
-0.12906823323650787
-0.13747549833632386
-0.19301804317611762
-0.055011463014184886
0.12463326375324245
0.18563517879498417
0.143793771795965
0.1818273436195176
0.05090407532472005
-0.11658182348063285
-0.18663858649339507
-0.20244433850043156
-0.16971559335694783
-0.05410224509420667
0.008072745464220921
0.2891242367288707
0.24643230389081716
0.10428511897228647
0.04757660064128025
0.029479287279369566
-0.2097912770097231
-0.31982028356078535
-0.12057490817621476
0.0066050329384143465
0.11487550154014387
0.07665155633820316
0.16272482790032453
0.022060286054208112
-0.1327913277152051
-0.13212100858150086
0.15329422056332712
0.8233741402275774
-0.43124730811632617
-0.1020296505943684
-0.23391208501467445
-0.405034155675067
-0.9248717697732973
0.5439030503660494
0.34338572473914886
0.7717059676056467
1.2470041476765887
-0.6993462747758601
-0.5957941934972015
-0.38109533048124655
-0.5538265524546535
-0.942082287823752
1.0957687040256927
0.842877343007701
0.18382892182117608
-0.2284136521367697
-0.18648123686752213
-0.12279157633430347
-0.0911712698427687
0.05549555971793048
0.28566961364785387
0.004713838840027063
-0.3361353571907807
-0.4399494014813733
-0.17682245975260139
-0.01057334252069755
0.5645783220010769
0.5878614730107832
0.41002765680414455
-0.10383481601246371
-0.3453451167460521
-0.717164789681817
-0.38696000899307204
-0.056595905904659696
0.44581047784379596
0.554245776210142
0.3446858918712993
-0.2816714834080754
-0.20614342003453057
-0.2940129894822537
-0.19774937028915912
-0.36966669536773206
0.11333935492724087
0.3174041495945907
0.8225591242784335
1.110754716465133
-1.218485774718296
-0.20468995586155866
-0.06788885439993274
-0.5546787442101878
-1.1066486183398778
1.3399387962956735
0.32570439464462964
-0.17674558181595354
-0.00807489509380625
0.144674316011837
0.3329494495304067
0.15034095844895207
-0.047507056191212454
-0.513065638318547
-0.4775579459142447
-0.3339213006507533
-0.04032022716766588
0.4559483574050685
0.7839232012882612
0.3194977177740577
-0.024697464156404902
-0.1842401192656181
-0.5082321430063927
-0.518883689814356
-0.08087407576115567
0.20922137443808192
0.21217566438171365
0.22103014988993183
0.1325295041664826
0.024604843137219102
-0.05502088191237823
-0.0889563806845732
-0.0823551773764538
-0.05194280312025164
-0.016025737393973363
0.012027242219135651
0.026225437951782532
0.027135805534491846
0.019294818441835577
0.008326632184603937
-0.001219091740778566
-0.006897839575970687
-0.00836355756083929
-0.006708276662280624
-0.003594692631073678
-0.0005287530507112921
0.001551964939814891
0.0023614819229821754
0.002114821354077725
0.0012764854874776862
0.00032367823036711307
-0.0004070742884722953
-0.0007725199334599471
-0.0007950958557983212
-0.0005934885909789252
-0.0003089597699090928
-5.277283893753927e-05
0.00011589288807512339
0.00018557651324612416
0.0001733950338613442
0.00010421055198481259
-2.203078419419266e-06
-0.0001322241873068921
-0.0002700872347599046
-0.0003872269878403555
-0.00043798839070572433
-0.00036862950075914377
-0.0001413087545130861
0.00023287203701583594
0.0006654968977624494
0.0009856223782371322
0.0009743906660125062
0.00044526411315754324
-0.0006439428473268365
-0.002084826770052566
-0.003374286550524519
-0.0037906057608185916
-0.0026219211913394657
0.0004773850900782762
0.005104219304007253
0.009872120401000562
0.012526400551657203
0.010555830337222136
0.0022876800982705187
-0.011794190027793175
-0.028032706506370162
-0.03956997447876176
-0.03792250304114611
-0.016366975386718333
0.02537930758946187
0.07655921450284757
0.11288064337369333
0.09815165185408263
-0.008884243852697454
-0.04330043554099642
-0.22128045501127636
-0.13038751562315265
-0.1271094674643441
0.05610669012208713
0.09554038439641285
0.25719287879793756
0.18050527252106544
0.07053712697509942
-0.09875554095301796
-0.17184198824665536
-0.19492310700161872
-0.20197190342620133
-0.008712123361950024
0.18402735566662504
0.3804888283014883
-0.02055897047106912
-0.03157834298018374
-0.07488385538805152
-0.1757653152510948
-0.15415352996372178
0.1813029442198266
0.034995097419663716
0.02272383028706947
0.36886612719171324
-0.4959246706068879
-0.1365254022951344
0.08368770280596717
0.19721752193766626
-0.17522542230188431
0.36834283624854214
0.00821550703035236
-0.09420285584670639
-0.1884501759706456
-0.12480427388586424
0.05448325096852527
0.12012774789525535
0.05700882333652915
0.06351226168479711
-0.049046400960912645
-0.0563344134367334
-0.12124440151189582
0.0037883349288580395
-0.028879683058080443
0.029004095655415164
0.01116807006235013
0.12769565477074682
0.16034616264509347
0.06483099692590677
-0.019139012727303974
-0.15178565378129602
-0.17548631742293205
-0.10089205940708074
-0.1017387711086863
0.07956324399914606
0.11699973137353635
0.0810606161487606
0.019567655843772045
0.1443277838308055
0.02684211769123838
0.003950881448286665
-0.008015801211149098
-0.0939939020803489
-0.12055525897764964
-0.12083572119458501
-0.08796157805819863
0.02124179978933016
0.07331181837775373
0.13970285186469264
0.07812000270747839
0.11880781320488058
0.05925353148271384
-0.13193345263359862
-0.10401181403279623
-0.10999073161670456
0.006197044021502066
0.018155134049133884
0.12023662508671186
-0.07352340424439895
0.06692489085047841
-0.017286267503604857
-0.07957317615953564
-0.07423579636952678
0.03645335356875086
0.07493951714136333
0.04233311881588075
0.11572080087700563
0.05063929833092861
-0.010802936302386382
-0.1275611168831734
-0.14621199731751944
-0.0903984686440213
0.0436405177857357
0.08441928376445329
0.07691138771932414
0.07165587387664375
-0.08572434741822145
-0.16282361339059923
0.05384669617048135
0.15578389509198345
0.11273365320689864
0.0775674006719565
-0.003551847559772625
-0.1771821937942829
-0.2686601997005893
-0.0731883071369599
0.044231664005868705
0.13942692734765008
0.0733471832982311
0.0953618929869061
0.03080949700165499
0.07618561529839675
0.002852637513887982
-0.032186886143065044
-0.07174265884210526
-0.14452434361064323
-0.25639347885222663
0.009896904255046784
0.08578397343754508
0.2015989812209071
0.17061904113954302
0.1789757532557245
-0.01401535847259168
-0.06444215634370999
-0.22490681801633217
-0.12474007073974307
-0.1564545965300207
-0.07357216318084407
-0.0012226071857348
0.14327753667576462
0.2260783676233578
0.27653567481528535
0.07803790111390646
-0.026498698733978743
-0.11590922224193338
-0.26504665238264674
-0.32089149622003066
-0.08882140233894568
0.06629777647483999
0.20507676005427805
0.19071203542747064
0.26697338379599905
0.04487560170364857
-0.098033700095089
-0.20691852319601092
-0.1327474233427208
-0.1161285632112851
0.022627468352773353
0.08505943366865686
0.08905223807388625
0.05980230477361295
0.021099703506854656
-0.010410004117042852
-0.027112357683966085
-0.02911316034796695
-0.021185160439362725
-0.009480948835507218
0.0009265340396516494
0.007240086662094074
0.008975819409449979
0.007262456030968265
0.0038946904328287595
0.0005270160474418955
-0.0017920274401931548
-0.0027250883484184105
-0.0024904680083736126
-0.0015902217536519297
-0.0005495111620619761
0.0002555891533678271
0.0006605881125759189
0.0006861593842327784
0.00046369157416729456
0.00015365868146487215
-0.0001150997191610323
-0.0002739343585322067
-0.0003136863384873635
-0.00026569403836689936
-0.00017714762464155837
-9.055205601799265e-05
-3.219358078842038e-05
-9.89949065075033e-06
-1.7376621175678133e-05
-4.135961422497105e-05
-6.830801063882821e-05
-8.872954459776731e-05
-9.865333002771504e-05
-9.884029607742521e-05
-9.2808098613369e-05
-8.472178750920087e-05
-7.785727596151756e-05
-7.39063731814849e-05
-7.303101536199069e-05
-7.437463289447446e-05
-7.670330817222103e-05
-7.892912767610405e-05
-8.039579936265196e-05
-8.092478334241681e-05
-8.069550531167763e-05
-8.005794019583542e-05
-7.936084497535814e-05
-7.884345471773961e-05
-7.860110616578964e-05
-7.860835759565092e-05
-7.877127943698701e-05
-7.898189682442242e-05
-7.915701719104067e-05
-7.925507024383789e-05
-7.927378438883131e-05
-7.923646218403616e-05
-7.917532161694256e-05
-7.911817542751114e-05
-7.908137626699033e-05
-7.90689263725344e-05
-7.90757653961424e-05
-7.90926766854695e-05
-7.911068771913185e-05
-7.912377830660444e-05
-7.912967355971613e-05
-7.91291777562139e-05
-7.912479268737109e-05
-7.911931410515107e-05
-7.911485197548112e-05
-7.911242439997064e-05
-7.911204114541556e-05
-7.911307092052451e-05
-7.911467366432116e-05
-7.911613917146895e-05
-7.911706086136824e-05
-7.91173510507116e-05
-7.911715117675842e-05
-7.911670354651439e-05
-7.911623873371686e-05
-7.911590798927005e-05
-7.911576520957653e-05
-7.911578588480373e-05
-7.911590353723994e-05
-7.911604586390482e-05
-7.911615942184754e-05
-7.911621936645713e-05
-7.911622669558143e-05
-7.911619844744026e-05
-7.911615649666993e-05
-7.91161189570287e-05
-7.91160959142922e-05
-7.911608922961935e-05
-7.911609497977847e-05
-7.911610680489272e-05
-7.911611878649622e-05
-7.911612713094868e-05
-7.911613057202267e-05
-7.911612983752474e-05
-7.911612669001558e-05
-7.911612299717376e-05
-7.911612011080057e-05
-7.911611863475573e-05
-7.911611851134855e-05
-7.91161192822892e-05
-7.911612037871954e-05
-7.911612133920507e-05
-7.911612191416929e-05
-7.91161220659108e-05
-7.911612190254602e-05
-7.911612159074255e-05
-7.911612128224441e-05
-7.91161210720352e-05
-7.91161209895658e-05
-7.911612101363835e-05
-7.911612109761773e-05
-7.911612119331555e-05
-7.91161212665871e-05
-7.911612130282074e-05
-7.911612130432049e-05
-7.91161212833751e-05
-7.911612125475912e-05
-7.911612123021282e-05
-7.911612121589574e-05
-7.911612121251551e-05
-7.911612121710949e-05
-7.911612122531655e-05
-7.911612123325056e-05
-7.911612123853778e-05
-7.91161212405016e-05
-7.911612123975019e-05
-7.911612123751507e-05
-7.91161212350381e-05
-7.91161212331805e-05
-7.911612123229404e-05
-7.911612123229847e-05
-7.911612123286524e-05
-7.911612123361107e-05
-7.911612123423765e-05
-7.911612123459337e-05
-7.91161212346668e-05
-7.91161212345387e-05
-7.911612123432306e-05
-7.911612123411924e-05
-7.911612123398647e-05
-7.911612123394005e-05
-7.911612123396275e-05
-7.911612123402211e-05
-7.911612123408614e-05
-7.911612123413317e-05
-7.911612123415477e-05
-7.911612123415355e-05
-7.911612123413828e-05
-7.911612123411886e-05
-7.91161212341029e-05
-7.911612123409407e-05
-7.911612123409253e-05
-7.911612123409608e-05
-7.911612123410174e-05
-7.911612123410696e-05
-7.91161212341103e-05
-7.911612123411138e-05
-7.911612123411072e-05
-7.911612123410914e-05
-7.911612123410749e-05
-7.91161212341063e-05
-7.911612123410577e-05
-7.911612123410584e-05
-7.911612123410624e-05
-7.911612123410674e-05
-7.911612123410715e-05
-7.911612123410737e-05
-7.911612123410741e-05
-7.91161212341073e-05
-7.911612123410716e-05
-7.911612123410703e-05
-7.911612123410693e-05
-7.911612123410692e-05
-7.911612123410693e-05
-7.911612123410697e-05
-7.911612123410702e-05
-7.911612123410704e-05
-7.911612123410706e-05
-7.911612123410706e-05
-7.911612123410704e-05
-7.911612123410703e-05
-7.911612123410703e-05
-7.911612123410702e-05
-7.911612123410702e-05
-7.911612123410702e-05
-7.911612123410703e-05
-7.911612123410703e-05
-7.911612123410703e-05
-7.911612123410703e-05
-7.911612123410703e-05
-7.911612123410703e-05
-7.911612123410703e-05
-7.911612123410703e-05
-7.911612123410703e-05
-7.911612123410703e-05
-7.911612123410703e-05
-7.911612123410703e-05
-7.911612123410703e-05
-7.911612123410703e-05
-7.911612123410703e-05
-7.911612123410703e-05
-7.911612123410703e-05
-7.911612123410703e-05
-7.911612123410703e-05
-7.911612123410703e-05
-7.911612123410703e-05
-7.911612123410703e-05
-7.911612123410703e-05
-7.911612123410703e-05
-7.911612123410703e-05
-7.911612123410703e-05
-7.911612123410703e-05
-7.911612123410703e-05
-7.911612123410703e-05
-7.911612123410703e-05
-7.911612123410703e-05
-7.911612123410703e-05
-7.911612123410703e-05
-7.911612123410703e-05
-7.911612123410703e-05
-7.911612123410703e-05
-7.911612123410703e-05
-7.911612123410703e-05
-7.911612123410703e-05
-7.911612123410703e-05
-7.911612123410703e-05
-7.911612123410703e-05
-7.911612123410703e-05
-7.911612123410703e-05
-7.911612123410703e-05
-7.911612123410703e-05
-7.911612123410703e-05
-7.911612123410703e-05
-7.911612123410703e-05
-7.911612123410703e-05
-7.911612123410703e-05
-7.911612123410703e-05
-7.911612123410703e-05
-7.911612123410703e-05
-7.911612123410703e-05
-7.911612123410703e-05
-7.911612123410703e-05
-7.911612123410703e-05
-7.911612123410703e-05
-7.911612123410703e-05
-7.911612123410703e-05
-7.911612123410703e-05
-7.911612123410703e-05
-7.911612123410703e-05
-7.911612123410703e-05
-7.911612123410703e-05
-7.911612123410703e-05
-7.911612123410703e-05
-7.911612123410703e-05
-7.911612123410703e-05
-7.911612123410703e-05
-7.911612123410703e-05
-7.911612123410703e-05
-7.911612123410703e-05
-7.911612123410703e-05
-7.911612123410703e-05
-7.911612123410703e-05
-7.911612123410703e-05
-7.911612123410703e-05
-7.911612123410703e-05
-7.911612123410703e-05
-7.911612123410703e-05
