0
0.00417730551551799
0.00333455210190605
0.00035080505324671746
-0.004952138046279083
-0.011412415718025861
-0.0163902426882696
-0.016329435539694705
-0.008104079235505086
0.00907076364355274
0.03175307582701763
0.0512893753148515
0.0546306077206623
0.027442858848228797
-0.040854006627124795
-0.15159062859669198
-0.09320261852340718
-0.04166247965382426
0.034119536540800854
0.1632200078442202
0.16320892494123707
0.034098935932335754
-0.04166043158904031
-0.093142097122171
-0.1514536554548742
-0.04066038489130689
0.027626206347262566
0.054699463166840094
0.05113568548175277
0.03131827018263932
0.008403998644591085
-0.008808197693596987
-0.016743509810704618
-0.016139517504387607
-0.01023271410593854
-0.0028843564221207
0.0028043152349519975
0.005190916912943692
0.004180560535589212
0.0009088109071728575
-0.0027778695053355842
-0.004911859578687575
-0.004000864832259249
0.0004156242824647275
0.007341691762575898
0.014195838347151317
0.017173974201209433
0.012226614933724615
-0.0034449984015680717
-0.02979491427901136
-0.06297039599043947
-0.0957914975377983
0.07990015865603761
0.0695012295660418
0.07205641141505113
0.07885746253461075
0.07567007721361836
-0.15156498381302277
-0.2096297160828329
-0.09287397807512558
0.016981761225401862
0.14525960846668826
0.11508251290684901
0.1385603665920622
0.012305925433567136
-0.08093277447204167
-0.16559403582038426
-0.06479575744497715
0.006367466270866214
0.04346108837133077
0.05120658460504743
0.03947874491073663
0.018975067408698143
-0.0018058846759076983
-0.017661283958528222
-0.026193530942873796
-0.02662789986816073
-0.01890045282434944
-0.003629249105591661
0.017004223770638018
0.03803406052053149
0.051100957441918476
0.045384158899064685
0.010487824451339566
-0.059234941512754415
-0.160472219669777
-0.07900542590145625
0.008252289058384356
0.12710354907818996
0.09777481091642432
0.12784084716610947
0.009463063664785616
-0.0778060807280933
-0.1598895633134069
-0.059820944267008895
0.008471302872583068
0.04221004510381831
0.04772488785684012
0.0360159147025982
0.01810253406738669
0.001809837550545833
-0.009327602370464547
-0.015278149245274722
-0.01765465099962945
-0.017779397355697384
-0.015515171245794756
-0.009334387572693087
0.002376990943682141
0.019259796006849413
0.03701503967885387
0.046523896190545096
0.03485310092013426
-0.011641372337055849
-0.10277248371443862
-0.040026916742384476
-0.013895724825926912
-0.0042833205262250915
0.015884849341604307
0.07488563280988778
-0.004052708345490132
-0.0077695986963847215
0.06423243029581496
7.173464427303664e-05
-0.021594560786767417
-0.026866113580026697
-0.041415534866058146
-0.08626206119378002
0.024446592514903977
0.0834682085546153
0.08917547718711269
0.04439951361679316
-0.043501983010130724
-0.16152375709432285
-0.09034663974446205
-0.0059881322962996
0.1154709762978485
0.09130233960581466
0.1264459508513566
0.01151666443308428
-0.0742671877857626
-0.1562941573374764
-0.05674819806136797
0.011089883634028783
0.04458264141662115
0.04967732977400351
0.03673406928403348
0.016319887363564163
-0.003543867285409625
-0.01820417888853317
-0.025696036879107095
-0.02548486245699529
-0.017578820001347722
-0.002588971336063155
0.01726573021991666
0.03678682623760885
0.04699042902571569
0.03576180340098926
-0.009630423460344678
-0.09860065265072691
-0.03316606117188326
-0.005331072877289039
0.0028915900805529496
0.016644954994884123
0.0633681588203604
-0.03280693534227944
-0.056192583143853315
-0.003376265753680246
0.11483891594544393
0.0740336810984979
0.039986483333122866
-0.024246775338916334
-0.14930183399390523
-0.1512357673263693
-0.027138797300150952
0.043398446489950816
0.09132140463894
0.14832926172052704
0.03800658826979695
-0.02909433788345
-0.055344393539447215
-0.05195710097568674
-0.03326081554294005
-0.011670450477641613
0.005175687905616098
0.014795661386129151
0.01835600337082591
0.018336595805514826
0.016452561282866696
0.012623927422556414
0.005321479291783116
-0.006887412191619839
-0.023215148837224912
-0.038867394040278204
-0.044547165272294485
-0.02789777155757143
0.02313450416968045
0.11592366925682938
0.04941634371783401
0.01275348273156327
-0.012797729758567331
-0.04905273461481621
-0.11497417521681944
-0.02180749853249416
0.02898941910649503
0.04454913609460651
0.037025711069847055
0.019325547734560397
0.00170182858867049
-0.009941277741843252
-0.014013473101280483
-0.012019135195128261
-0.006895682630090268
-0.0015392452380154872
0.002123239559045462
0.0034401298095562347
0.0028460150753313825
0.0013931755692294346
0.00021439924938224572
7.261155327808314e-05
0.0010889201941439801
0.0026921902657869035
0.0038011579211789256
0.003219220877194577
0.00017488645977616359
-0.005127472509408056
-0.011153622895314456
-0.015124145557288377
-0.013727962338324537
-0.00448196981153138
0.012530676335520768
0.03313244222408219
0.048539843078828714
0.04661762574771932
0.01518722844319252
-0.05317396851107662
-0.15640047235485743
-0.08045644628937157
-0.0009514947594468582
0.11079520562933787
0.07896040986355324
0.11489060484640436
0.0124450520630085
-0.05126036822763404
-0.11010907391285285
-0.0003611472468763377
0.04816849403673318
0.01903655557230469
-0.08691798934030492
-0.05118682613761765
-0.040994182021125904
-0.016310693524243018
0.060675411909836975
0.21597546684918173
0.05712263731548748
-0.028120944930414754
-0.0670667415269771
-0.09322379874498354
-0.13670582928624067
-0.017416080225695012
0.05698799791980463
0.08858410327875496
0.08427858658005036
0.05135686551191378
-0.004413815539086527
-0.07774298480106226
-0.1612078019672852
-0.04337536114549572
0.09047112366198003
0.054739245132679464
0.05862677504243769
0.10234959723394933
-0.023595147261686038
-0.13573174480883782
-0.052705644019421384
0.009703671563848083
0.04187738013341842
0.041390270039461254
0.012332879210726094
-0.03620369371709168
-0.09200029132927146
0.05804957029868161
0.025287383937722497
0.016635994339555777
0.032805558961975664
0.06818945616377142
-0.08727508807774573
-0.0448060729326604
-0.01321928487047408
0.0035666331814895266
0.007148078510771719
0.0033602364502710977
-0.00030456477152002143
0.0022390038337281215
0.012934233059908028
0.027893874511494273
0.03733566706786447
0.027455749853911256
-0.01592614209178228
-0.10278240303523002
-0.034781455389227264
-0.0032119718135975874
0.010167124344401732
0.02955374549229587
0.07999875911493792
-0.017647463284564416
-0.05045720866616057
-0.015247277059357373
0.08144317617089201
0.024967428647304085
-0.004421142172285531
-0.02755158328757945
-0.06223291250338211
-0.1204659517594982
-0.008236475168003084
0.07179943212941103
0.11592158022057306
0.11568327146790272
0.05754983053197943
-0.07293161686083023
-0.08347382060320307
-0.1670266983111895
-0.09731688907689443
-0.03090618881445259
0.08369941419919981
0.09226393605241863
0.22090172202140326
0.06705495121056292
-0.00107483416277215
-0.03600787891378685
-0.0959723784322521
-0.22825114015982093
-0.05625319808882694
0.02569627534410024
0.048601527541051216
0.057848394300977844
0.09886386086603459
0.003607912782762714
-0.018791472531732318
0.014521439506371386
0.06296507353784402
0.0710184931642045
-0.01888667482090793
-0.05112237172597959
-0.04228120055401348
-0.17098231587035084
-0.17565994649517785
0.03739540043866315
-0.024049651349985636
0.13697196401417525
0.1808588101534601
0.11165523897925136
0.069178540237157
0.13629880418360693
-0.03899339812565431
-0.010697453265792946
-0.09798698131065464
-0.353165062785518
-0.3432613489025947
-0.152063849995715
-0.004657168186977652
0.2901586794210554
0.4907179350588173
0.4812698672712536
0.051799055568903
-0.09471016255207451
-0.31063113108376056
-0.35900184978158767
-0.37075957064336745
-0.016834921910356966
0.09839516211380385
0.22380997423703688
0.2363304671408897
0.21428583569648502
0.018212239694389586
-0.11661695960315932
-0.1769372571711747
-0.162429339713746
-0.07686728347914534
0.07624240704630211
0.09260665329054503
0.16291425651901117
0.06916957598155812
-0.015316147037944719
-0.12141144342941886
-0.07679162480796867
-0.09887374211681862
0.008966075088037845
0.056529436205051665
0.06199309493963991
0.04537052169372132
0.02278441416102258
0.0033666261648498
-0.010650145850679592
-0.021260139156820602
-0.030790609883398136
-0.038375417157662836
-0.038149802136655045
-0.01991254913812273
0.02786125480373555
0.11369897350556153
0.039195274845415407
-0.002864484202874658
-0.027499556103548192
-0.05412375170685796
-0.10222763940199064
0.012161071552180311
0.0782700549884453
0.09085798236759693
0.05010960779827481
-0.03779710271323913
-0.1595001669479389
-0.09400249115843048
-0.014749851473141389
0.10499606782509925
0.08469004252097936
0.1297765147749584
0.02875032977832572
-0.04433168803508645
-0.12247039098793659
-0.03603294280328639
-0.004086901043571255
-0.029473829290363403
-0.09889571837502684
0.012215504164708124
0.13154879127459287
0.08103097384225078
0.07025471107771555
0.09467688761021187
-0.06070229692530924
-0.2137602958679515
-0.1771985958483275
0.046170655064220543
0.06256112899436209
0.08140744018286793
0.10775806202450042
0.13678650806832196
-0.0467584258874328
-0.06361418225969162
-0.1314822835223722
-0.056432513311789174
-0.02779203356925067
-0.01865120450475262
0.007988575102920059
0.08929547695911805
0.05195462140726879
0.10408066672803415
0.03231453513815512
0.005234899078721364
-0.017702700652255966
-0.07428465153796798
-0.18845415581017688
-0.16386580307232645
0.015305493280929245
0.17623671569019625
0.14504753092614098
0.13527835984802042
0.14228065020633274
-0.05394202074803182
-0.2786049466685929
-0.1491878472619671
-0.06547611366322584
-0.007052704006265257
0.060720447528579934
0.17485593395000973
0.16191036669204248
0.02917557993328914
-0.03697455853425985
-0.06546508647998844
-0.09032998698823756
-0.14010782482243714
-0.030692272381645118
0.036177760684289885
0.06896146055255466
0.07918330602583676
0.07446092821375981
0.05467911230648422
0.012835987173862484
-0.059871806802180356
-0.16697284186023037
-0.10094540344049958
-0.04176964233444073
0.03887288772208261
0.168981161869986
0.16662220152399437
0.0334249749691091
-0.04602360520652392
-0.09877526797907636
-0.15466442209315803
-0.03780289232424177
0.03844513383905196
0.07191544260811601
0.0686188676207696
0.03853427246381019
-0.007690699054957263
-0.06023237551035209
-0.11021979790866844
0.050328739915452045
0.027822812176362365
0.025659539423481155
0.04289485563322139
0.07410269974693791
-0.08903921246531551
-0.054833483150215225
-0.0285453329741734
-0.01073707032639518
0.002163526137231733
0.015204183516552838
0.031210803006987746
0.047561718201999295
0.05489621983388835
0.0387038410088053
-0.016187376132745634
-0.11937494329437097
-0.0690670551912875
-0.0491712617084561
-0.031015865861134594
0.020202632519779606
0.1360082248983344
0.1353609284368569
0.018812527128726574
-0.031720794296758906
-0.0475193295204842
-0.06402609087722383
-0.11142090251517668
-0.007802928606924921
0.04327062125781024
0.050857418637738294
0.03174090730508378
0.004612760991628349
-0.014970842737036038
-0.0179735880641686
-0.00343845388319295
0.02163137288736779
0.043965969845435084
0.047298518965593124
0.017059915581151545
-0.05422092861149186
-0.16234513126037556
-0.08977813560513417
-0.008586904321532628
0.1119020025358837
0.09481447822526748
0.14653643214247133
0.05239800255107987
-0.02063574942729618
-0.11476792788573159
-0.06863998466210719
-0.10533275394178065
-0.025019586908120513
-0.004521174131589915
-0.0037896567907727756
0.02264821444900319
0.11257341687729662
0.0850548651418139
0.13491457229881734
0.03473104391226248
-0.05576957435354199
-0.1756638993045437
-0.14888512581723154
-0.1756239833667155
-0.032726038468815076
0.11658061304300854
0.3071346495052358
0.1566981762398421
0.05761505048803354
-0.021076055932397565
-0.12184962844459027
-0.28201936176871506
-0.11888456850442361
-0.02253148567768154
0.04108105483425219
0.11826909029090871
0.2518204260357909
0.06722958969254955
-0.03429284044439091
-0.07432475339889386
-0.0889203623958766
-0.11733621620061287
0.008124196531766457
0.06846349096838493
0.05988177440968498
-0.007882477855026361
-0.11537980802020167
-0.03847853646037932
0.04596355786573722
0.1546355028138776
0.09409193357187529
0.06056749058627369
-0.15617374560288075
-0.16651814725032257
-0.17546773130449314
0.018931509094279535
0.222193111773012
0.23713651991467544
0.058895846809659126
-0.12531956025309574
-0.13120517068132367
-0.1698747667658939
-0.04212919699091005
0.06246803006594944
0.16144794663189038
0.07261039081905048
0.007952490306376216
-0.029104280847433717
-0.042649021415981814
-0.04065386961826652
-0.030856753868150413
-0.01797870256973773
-0.003237651852661279
0.0138929830157639
0.032579072353106496
0.04756675915596955
0.04760612606194211
0.016353002430294836
-0.06410692016478768
-0.007973521409695636
-0.020300550101732217
-0.09319711034016191
-0.0049960803584527865
0.07714323533347348
-0.008245723461585953
-0.02392060477456355
0.05924538395056843
0.05704507076462483
-0.030672822480990264
-0.01956695719949468
0.06244468098910319
-0.019595445296166008
-0.10169245843330937
-0.015468011024638621
0.015516455138788222
-0.022934679581557132
0.0635621178182576
0.07611958129829802
0.020894208882561903
-0.09167391873155387
-0.04685927260105172
-0.025864218522500603
-0.007308458905571401
0.029691260893540974
0.10158970209691197
0.017052955903953303
-0.024485804770981
-0.03180669245826597
-0.018903672131440494
-0.0011368438638490392
0.008331961343356876
0.001099145938775594
-0.02522356714642049
-0.06710703331425547
0.08356305058517124
0.037320990726873844
0.0048496670423700886
-0.00463839750418576
0.01594370966418092
-0.12848762081359313
-0.03538768750637882
0.0944544864573991
0.055334577078798255
0.03544494176251373
0.017356906631184846
-0.01921603784530884
-0.09292882256668011
-0.01607351243545157
0.008702334949773243
-0.010911960265281372
-0.05898724345303817
0.08441632259409607
0.03811454911834125
0.01524792938969715
0.020651761819659976
0.050848725062449356
-0.10355390802685528
-0.05412204405919032
-0.01099986994984116
0.019275787905168134
0.034136777756445226
0.03406905862507787
0.021461072125133138
7.077238820107248e-05
-0.024667177546700666
-0.044974626983664626
-0.05060755120781179
-0.030104226184738642
0.026387136509947458
0.12344495612611539
0.057443012018774935
0.016042521338822283
-0.01906915651213304
-0.06689400336343822
-0.14136843255008888
-0.04769215453039213
0.017436248531207323
0.06156505691850018
0.09004160888489057
0.10040698259160498
0.08055911786774131
0.012211637230917593
-0.12100665673194796
-0.12365847384455028
-0.18095154924607668
-0.057333252204160995
0.09709057818396828
0.13375712060897557
0.09066284961768215
0.18044258088249465
-0.014341759325348806
-0.1372261720718762
-0.04674681582116886
-0.0019129627868986266
-0.048409497813457075
-0.008747553164303198
-0.07816088545622435
-0.026785951032592414
-0.007567865195371608
0.031789504143888266
0.13559236527767488
0.1290550023822436
0.012453807970160019
-0.037787007090289815
-0.06163537042624607
-0.1042200602018658
-0.004357779617261963
0.014080489829652848
-0.05377331107900766
0.0054319113435045766
0.018472307988721196
0.018246670841668658
0.03583958271398504
0.09388038503698631
0.002758620919738997
-0.039570984218138795
-0.04457984630211888
-0.028320430731300583
-0.0064744281455300645
0.00935097409480205
0.013488520982362912
0.006326237269979652
-0.00690865611607969
-0.018273385202074627
-0.019841977386491277
-0.006786243150589247
0.01961627537916397
0.04977587003713878
0.06535181995773129
0.04143467034534653
-0.04844043192139089
-0.02531011334103915
-0.09774518856917216
-0.05715243510791255
-0.07737234419484372
0.08075845189727328
0.06093596218085227
0.10155734261604843
0.027641545023521875
0.04693961611971915
-0.0489242063281196
-0.07924000984739729
-0.06718600194026264
-0.03358317266731186
0.006686783425914118
0.045116353564124564
0.07778786846964456
0.10308264778843844
-0.07958617630475695
-0.0695438618294216
-0.0639885533133828
-0.05808143751045474
-0.04715479439953028
0.16919022470027367
0.18290686904519343
-0.02412248978889491
-0.0771932792177284
-0.0013804701318423857
-0.011746519205903305
-0.10429703976296431
-0.05062428481501756
0.0017466513904719797
-0.07741450260507259
-0.013466738070391185
0.05728385683088735
0.17184643981055495
0.12901434868268535
0.0857447067004129
-0.03670223784876878
-0.13792591274871924
-0.11872236776099893
-0.06190225418805926
-0.0183639951226476
-0.0011293421508457786
0.012464328654044031
0.07220118101670761
0.04287253468856079
-0.008460999704853096
-0.023502786363598364
0.03934469080541305
0.0007231824594450996
0.05985181429118778
-0.0023328303778636923
-0.017021616647956803
-0.019538280266132538
-0.041218380778959944
-0.10306896552608748
-0.012781890461529714
0.03421727901236991
0.05027298616367494
0.049326667699664074
0.04136412289112005
0.029408062185028557
0.00994043246680258
-0.023629570603777798
-0.07595177715205449
-0.14533779519251894
-0.02205638097834963
0.10963189650582461
0.06638096600832058
0.059846824297355286
0.092621866895054
-0.042290741701183104
-0.15855498407727628
-0.07187833360623667
0.003925599684903323
0.058578219358498065
0.08477215006569803
0.07694502340601544
0.031199039488242014
-0.052830682472161765
-0.16899296417156223
-0.10266628980429696
-0.032075364627641344
0.06631954355420575
0.2099343142914968
0.20321819070279465
0.03563303343266964
-0.11377889286452952
-0.2669153520598549
-0.236870118166685
-0.023128865159874147
0.18558958545703802
0.202420913127442
0.23248356497766412
0.06781120627869787
-0.10976681061375534
-0.31905935308118766
-0.16829855898976617
-0.048358286996379084
0.06580699135508673
0.20601028830006876
0.19832180561795262
0.05297905076447542
-0.03899384411842727
-0.10155499775076851
-0.16432797227888155
-0.05254688624147686
0.01978503821271768
0.051619711640517506
0.052000629966196414
0.03475377219519921
0.013170350192225469
-0.003603792638597884
-0.011846854937653462
-0.01250447184419096
-0.009205084656152305
-0.005957530183407861
-0.005273761875147541
-0.00718197378287775
-0.009316658810485157
-0.008028180344019559
-0.00023036993420195705
0.014517533054796378
0.032393338795547906
0.04493688853946958
0.04053085032241929
0.00784162307482969
-0.05950161174422883
-0.1586069533871533
-0.0754884623962242
0.012706117449790152
0.13142882244548634
0.10050465837369468
0.12731621896462605
0.004405446028287165
-0.08744048904215722
-0.1720821969073388
-0.07017596444455826
0.006018011650492455
0.05336131569644972
0.07464694668252217
0.0738238450969147
0.052377763003207775
0.008701284977471128
-0.05936087941667884
-0.15026582652138046
-0.05527993932633676
0.04201393426489441
-0.037644699190555575
0.12462548938788093
0.13929775760885593
0.0042577262655787915
-0.09522552149145622
0.01761736573204762
-0.08237385006070491
-0.015679792410937886
0.00650647124313837
-0.016190094522688464
-0.07493393899506452
0.04433795076821862
0.15596313685412128
0.07047043788755131
-0.0069465415656754445
-0.07483774576707547
-0.13198911478653375
-0.17451494251748742
0.004080096460699657
0.2092885922489207
0.2404226216159201
0.08754395160087489
-0.06648195376193894
-0.23877394466231142
-0.2375124788617031
-0.056361058798581755
0.12416591888113403
0.12846543532177798
0.17446687583362033
0.0643770190439854
-0.01836349950324737
-0.10474975190889377
-0.030378407053671515
-0.023791261025878148
-0.09684531458637019
-0.039937185256032626
-0.02339312585886831
-0.004706175504568533
0.06027458021622993
0.205338783084224
0.04468921511733733
-0.030640439708845165
-0.04976587546668876
-0.05367988624998698
-0.08464547647361786
0.023624278290191834
0.052795452264096564
0.0028513683183553564
-0.10878997669041891
-0.051547524220734636
0.011233214749801882
0.11347139053130044
0.07784891616473172
0.11021775997097782
-0.0010204164495679483
-0.08019040960566792
-0.156007853149878
-0.052815600038020334
0.015432840997456863
0.04674566277487829
0.048584274713420444
0.03312625887917495
0.012479547416491571
-0.0046020987167814525
-0.01394878362950189
-0.01544778122406898
-0.011517429949485583
-0.005391351037664666
0.00020155155406770468
0.0037053927434101647
0.004790148629243674
0.0040013716585803865
0.0022657842629169775
0.00046117235347507124
-0.0008379429002945054
-0.0014237987979493208
-0.0013791376027992193
-0.0009384639729200268
-0.00035629572881977506
0.00017562893202527187
0.0005522929244187249
0.000735777007350406
0.000719809087228112
0.000505278441060102
0.00010216043030271657
-0.0004434231424940987
-0.0010145442529572012
-0.0014087904925244843
-0.0013702012418801343
-0.000679994450761047
0.0007083252122012534
0.002535921932494673
0.0041794639460299
0.004741043419777503
0.0033304163922505702
-0.000488622407672621
-0.006214354422049907
-0.01210542596965385
-0.015320663039068292
-0.012697031883795427
-0.0021708810241024812
0.015450149954038796
0.03497294507081198
0.04635749102079637
0.03599736216954621
-0.010065691775727475
-0.10161498374715214
-0.03984729285562101
-0.014810636714911622
-0.005925005912229147
0.014291663274168372
0.0743175522567226
-0.0027502335130225107
-0.004294200292334195
0.06926295560356487
0.0049547282162982435
-0.019405007380686953
-0.029990220846657742
-0.05131240259742921
-0.10185377944127684
0.007699652182061187
0.07331419184170045
0.09454895273576362
0.07153087244455729
0.0038565723874891896
-0.10786517085708588
-0.058764011508258544
-0.036803305145232806
-0.022210945159840144
0.009880743542229663
0.08419116026071184
0.019174602104064215
0.02213879318228733
0.08729075900698222
-0.002574026796056269
-0.07122919554809287
-0.14264682691797798
-0.035376041796531955
0.04038260518701483
0.08243515596890333
0.0940808038954937
0.08139170559671927
-0.14824971015098568
-0.18638242801101465
-0.023835066204476806
0.14740256797094395
0.13096374216742784
0.1234773221109408
-0.08520468041636639
-0.10823017849766835
-0.1560392403393436
-0.03166600839004489
0.07061087426437548
0.1629921289804215
0.060051684343963664
-0.024711446817611317
-0.08021578418220722
-0.0974564106528687
-0.06919631114298858
0.008723207169629502
0.13424982641978908
0.09567978167344934
0.07036898542761491
0.027542701593023706
-0.0646590625174261
-0.2299707050551701
-0.07616774905865016
0.007974390822224616
0.049380402477604286
0.08219990695989036
0.1374486098091723
0.03460866550486517
-0.022033318673825148
-0.04156301616345231
-0.04043681917422678
-0.03485921706207686
-0.0342422681416752
-0.03776106183133607
-0.03494918775771147
-0.010125618605933539
0.050669034556501596
0.15249162551585943
0.08679337530350176
0.0314453111068978
-0.04385188742631916
-0.16836982585659926
-0.1608181469112881
-0.02332897112789154
0.058634962822477155
0.1107263676683198
0.16130054040515332
0.03392025292488262
-0.05641790185129857
-0.10281165065266623
-0.10346953444657311
-0.058946492157353474
0.02837762579358371
0.1524253957277517
0.10090906173985666
0.05473936838531389
-0.008914117288687039
-0.1102528824413317
-0.25968383631048975
-0.053390822032979894
0.12572294758111932
0.10165399703708344
0.0962225124436509
0.12136227864179108
-0.02402908607571004
-0.15183469468272384
-0.07870827104829561
-0.019380082823328558
0.01791121379475815
0.032601618250686054
0.030069070269668458
0.01843762062609161
0.005427939100898418
-0.003757759642459831
-0.007191867030640266
-0.0058087498072156695
-0.0022704725610366515
0.0004117559581572931
0.00011913726578940213
-0.0035303549746171625
-0.008904963546242678
-0.012757255150063073
-0.011324362460734812
-0.002007663893956848
0.014721022990167391
0.03379205648793251
0.04514044834126198
0.03507046434848046
-0.010471431389581665
-0.10135804063304162
-0.038896979843113785
-0.013304717605719442
-0.004234220589101802
0.015551471977328188
0.0743897901835571
-0.004509309641220413
-0.008046656238859314
0.06420100095577219
0.00028129029014030616
-0.021211816251569454
-0.026433237223163306
-0.04109688658438836
-0.08623262690753027
0.024055707038025002
0.08264276412314962
0.08808655148225161
0.043429140086480765
-0.043819379984204654
-0.16066805629974096
-0.0880700819143141
-0.002591472326006087
0.11897048692053189
0.09325834993667773
0.1250328282148709
0.005531690667790849
-0.08444063646540548
-0.16794852539702082
-0.06484706310771828
0.012722901073503726
0.06070752961941189
0.08005137355272657
0.07243530579710647
0.03735993339331891
-0.027962059131502362
-0.1261084772762613
-0.05598133221293535
-0.010486499201882563
0.023250100927338598
0.06121413958864179
0.11879885604386475
0.007931068094526726
-0.06375134179652577
-0.0918140813631524
-0.0734318299720281
-0.0069758948743980295
0.10643487348547011
0.06014987645314704
0.039789672957031924
0.023417996098082303
-0.01523528585660687
-0.10130331385848931
-0.05298732099557096
-0.07763492877764294
0.028832316283578394
0.0791251983538333
0.08995062897318726
0.07789063916137443
0.05778302001233881
-0.15589754439270567
-0.1460774787619496
-0.09126111143680729
0.032674392463661904
0.046465998219934544
0.1591546433491171
0.16111723311423395
0.022047442907115064
-0.1043334718707768
-0.06985135774869729
-0.11915158124702473
-0.07890034190671319
0.04785679802240526
0.08107365025654445
0.057852032525796536
0.023576952472930353
-0.1778815342366157
-0.11374913599139067
0.02886417724589957
0.23619129436047692
0.2657926929265841
0.25280036276756024
-0.07375826439515684
-0.36702967584036744
-0.4382722379150529
-0.2427655308614984
-0.08374404831894373
0.16408025140247237
0.4179443277968981
0.5499542531771999
0.16319797333474656
-0.00975015322398173
-0.2852704636938142
-0.3923379108541341
-0.43496079183171277
-0.06662725009502238
0.1157084029106
0.35886557948812703
0.3298267518085046
0.09206213687559653
-0.10974987342211975
-0.2538325418397008
-0.1371126006599008
0.03175342908362718
0.03759853492357032
0.06075735934519185
0.07720463563005213
0.05925510229447618
-0.021291922895603766
0.012864176544839144
-0.04774218704755661
0.007794434947220642
-0.18548684140047203
-0.1705476820966749
-0.07780271140991472
0.15886496461565866
0.18327078623431045
0.40157346273277744
0.17703564544258998
-0.16135196905813845
-0.29808281703446055
-0.30543931326086565
-0.22277450204137575
-0.04871783760902116
0.251341814143425
0.326637243841637
0.21975974017135153
-0.04850104032941128
-0.0831758287161473
-0.1083783022678214
-0.15442395629269343
-0.04478960333068443
0.01237716026391724
0.02613493685312322
0.01859607943148458
0.01706119578935692
0.04534750283443139
0.11697944883898329
0.03219094725973324
-0.020438134501389277
-0.05839150980780062
-0.09784826034523997
-0.14752248393341005
-0.006302286565952865
0.13432034273517673
0.08422356666421382
0.047898815036503305
0.02003313680103311
-0.014775722395914303
-0.07824215989171386
0.007920119993301188
0.028751103186917745
-0.018644795244380105
-0.12257812793223033
-0.05789653871705954
0.008989991010786033
0.11196627651660315
0.0760856431981109
0.11044503834170014
0.00565872507131774
-0.06309368251365154
-0.12857697035386637
-0.022269769712139086
0.03361440336130507
0.03083336499985157
-0.024042502055812397
-0.11226079041353694
-0.008242140841776397
0.11335082869414788
0.07044586105608924
0.06850036786911468
0.09954130663007008
-0.05403863326397372
-0.21227290811133895
-0.19007275470264987
0.007193698797748373
0.18309061256552284
0.1454640873468752
0.10111098005124391
0.053278678597736585
-0.19664739693737568
-0.244922543239718
-0.08228584111678383
0.10496800484462034
0.12921409888016663
0.19379531078631448
0.08782316299434526
-0.013045722124225913
-0.13930765673600792
-0.11648362420624435
-0.15480854901334057
-0.044160891847365644
0.043520405098684135
0.1451703698387839
0.09436601857561447
0.11050155346005315
-0.0069019536122229205
-0.07729216886721559
-0.13269584367242163
-0.00866313661644285
0.06444856766691978
0.06795100074997826
-0.0014755625547426402
-0.13080295788256965
-0.09262557284575697
-0.05061385612322714
0.03163583532217006
0.1800572189867579
0.2012616444196666
0.07923969453861993
-0.020019764719184596
-0.13676949568935806
-0.3027377081881848
-0.1292989321529321
-0.0036512763571022035
0.10530795445562993
0.23404509469480364
0.21014524460563236
0.042875818225470534
-0.0778396687076774
-0.1745362446493958
-0.271531224106451
0.01408643827237057
0.07588233459504098
0.11542230920054136
0.13632593029028003
0.13917987988201394
-0.07957193089765117
-0.12427123070348645
-0.19450686778775855
-0.0811281455857698
0.0332001738099592
0.16849347568827014
0.13952777788944895
0.14961817148516762
-0.01051046573422837
-0.1580318799580808
-0.3099817451607606
-0.07629148609127243
0.14232160652319745
0.15085157910248254
0.15366452325378124
0.149774716858838
-0.06700612456845814
-0.30298283388904296
-0.15774439566465878
-0.020123862027653865
0.13001011214366417
0.11452358963576516
0.1478436367706424
0.030255900055955028
-0.05337753542563128
-0.1292310626420851
-0.02659783236331554
0.030447331603490245
0.02926068131540062
-0.02854298694387257
-0.12791042559028132
-0.04463195149656431
0.04754396901162998
0.16855149634332542
0.1251361252570176
0.10849385951862875
-0.10189240909561167
-0.129173213083943
-0.18837732044743608
-0.07863520855608318
0.018117450330744595
0.13131448441852134
0.09128066819186784
0.11841208918282238
0.016163139758618918
-0.02986205786211362
-0.04692869421058105
-0.06659854213859034
-0.11582574393031994
-0.010678055224676249
0.045661680952405796
0.06072818254004114
0.04806584815722355
0.022207364252655987
-0.0048927107000549044
-0.025289241894423026
-0.03474435346155599
-0.03171528917416868
-0.01667009851705943
0.007720537927937733
0.035701039585149794
0.057698403210644574
0.06084948090920147
0.03158195662100351
-0.039866417153960935
-0.1543360891687428
-0.10036226593332795
-0.0548544128584178
0.011156521122850966
0.12300336853157882
0.2926314821647236
0.11307978689120333
-0.03952554955053072
-0.1963869186257857
-0.18258563780792234
-0.20577757595768612
-0.052416408015772596
0.10642167119756493
0.3019516242240426
0.15311521983902224
0.05709531363615764
-0.010861804191178718
-0.08828460002036985
-0.2109131467506484
-0.19876651550299893
-0.04846940434510307
0.06518743830445468
0.17935339710258605
0.129214239612512
0.13580667238224284
0.000130070567952022
-0.09484565989771644
-0.17603091727395867
-0.06993010715315486
0.005537318302796294
0.0445220463109506
0.0519059200448279
0.038904633854915674
0.017992115049665136
-0.0009828107188981012
-0.012636059379592283
-0.015950626586826118
-0.012931874624728713
-0.0068575128657292934
-0.0007916654554948347
0.0032895551233659676
0.004726731237317277
0.003932946912499615
0.0019235752522664218
-0.00016549037341209252
-0.001442745200652253
-0.001468309379034312
-0.00031823801172091453
0.001464369820485788
0.003014211274264812
0.003382473449112275
0.00186141767637526
-0.00165097415063037
-0.006352875947032664
-0.010467699168550351
-0.011566786157129257
-0.007372170389138373
0.003051129629454388
0.0180438129093171
0.03258859650018478
0.03864751240131823
0.027009609414270882
-0.009467550743916
-0.07209393453208346
-0.1536233602568256
-0.03829371182584591
0.09443339884325991
0.06315499989123802
0.07725735828136068
0.13221017687803682
0.009751955838965213
-0.11660925385353382
-0.07256623699115344
-0.07381702957648772
-0.12026162276705496
0.0041335029006226084
0.1257073505760733
0.07183227132756692
0.0614989054903334
0.09920609507975219
-0.025826062827425344
-0.13521662856830988
-0.053773982307902334
-0.0016137112540305293
0.011339684641549535
-0.012837971400136768
-0.06187104559556705
0.08227424323084366
0.03773138933604865
0.017496412702018786
0.026122349955840556
0.0592482280394983
-0.09406787022170013
-0.04716774730974359
-0.0113105431694586
0.007588516387192868
0.010127317117880312
0.002495959374190789
