0
-2.5034158719915246e-13
-2.503415876740018e-13
-2.5034158828505244e-13
-2.5034158881022287e-13
-2.5034158894085177e-13
-2.5034158838355883e-13
-2.5034158701369694e-13
-2.5034158503471933e-13
-2.5034158306835294e-13
-2.503415820909794e-13
-2.5034158315830863e-13
-2.503415869311498e-13
-2.5034159312054017e-13
-2.50341600078874e-13
-2.5034160482327434e-13
-2.503416037305776e-13
-2.503415939512527e-13
-2.503415752627435e-13
-2.5034155170392563e-13
-2.503415320581415e-13
-2.5034152827844245e-13
-2.503415514367015e-13
-2.503416057557267e-13
-2.5034168255277385e-13
-2.503417570277806e-13
-2.503417911303039e-13
-2.5034174462054986e-13
-2.5034159362951984e-13
-2.503413519242108e-13
-2.503410859680835e-13
-2.5034091275330225e-13
-2.503409714732619e-13
-2.503413678117944e-13
-2.503421024102357e-13
-2.5034300958144345e-13
-2.5034374242127613e-13
-2.5034383858539704e-13
-2.5034288113603474e-13
-2.50340730371994e-13
-2.503377535926867e-13
-2.5033493836506515e-13
-2.5033376585489654e-13
-2.5033576738097055e-13
-2.5034179886328976e-13
-2.5035122698749553e-13
-2.5036137691609774e-13
-2.5036766553448424e-13
-2.503647524712503e-13
-2.503487323965355e-13
-2.503198925832906e-13
-2.5028500485048374e-13
-2.5025775211715303e-13
-2.502559966239089e-13
-2.502954028986737e-13
-2.503804423674791e-13
-2.5049569292987555e-13
-2.506018924354678e-13
-2.50641450292783e-13
-2.50556190780996e-13
-2.5031568349228395e-13
-2.499483442383986e-13
-2.4956158738365244e-13
-2.493347432710039e-13
-2.4947242318035334e-13
-2.501183569505883e-13
-2.512492227853048e-13
-2.525891787178797e-13
-2.535992320930071e-13
-2.53590124284873e-13
-2.519747910498798e-13
-2.486169954142918e-13
-2.441601418916201e-13
-2.401627229406334e-13
-2.388614105071978e-13
-2.424624191786899e-13
-2.520365644977758e-13
-2.663325244907735e-13
-2.8104567365564493e-13
-2.891672498989755e-13
-2.828688372357351e-13
-2.5688460123200236e-13
-2.1259379121878888e-13
-1.6119803333218683e-13
-1.2390217423251983e-13
-1.2727032031723342e-13
-1.932452359843622e-13
-3.2565217398028495e-13
-4.977977548900202e-13
-6.47910997434927e-13
-6.89225071434537e-13
-5.382292286140116e-13
-1.577143724262783e-13
3.980146982392674e-13
9.567841954262182e-13
1.2449869497877312e-12
9.635459979225225e-13
-7.947822484317396e-14
-1.8121106554499158e-12
-3.780748013396618e-12
-5.152194028206186e-12
-4.903946411484759e-12
-2.2182257870912947e-12
2.9961800065279497e-12
9.637242747409572e-12
1.5260199986212615e-11
1.6503014565655057e-11
1.0210833947734287e-11
-4.888983819449714e-12
-2.6467195282380995e-11
-4.7649919841034347e-11
-5.776836678933655e-11
-4.54139289494166e-11
-3.6311425633926415e-12
6.406978925256614e-11
1.3936829199081173e-10
1.8956573859709558e-10
1.7535446939047602e-10
6.635324527428205e-11
-1.387391453984489e-10
-3.9462367642899226e-10
-6.04677058012223e-10
-6.387792849254635e-10
-3.7799664619985157e-10
2.2031267383432275e-10
1.0572017406122815e-09
1.8587152467878477e-09
2.209319462946199e-09
1.6745084288273667e-09
3.9244438368922795e-12
-2.6383756771074767e-09
-5.514231802070524e-09
-7.341932067373497e-09
-6.612369881204151e-09
-2.200772572775802e-09
5.855910543890113e-09
1.5702918026736005e-08
2.352662249446038e-08
2.429697012101093e-08
1.3540332440577187e-08
-1.013284040345392e-08
-4.255312901227851e-08
-7.282031355300978e-08
-8.476843819612732e-08
-6.187629630465837e-08
4.796812414205258e-09
1.0780497885564562e-07
2.1747387003323253e-07
2.83622722187939e-07
2.48391779852189e-07
7.029952705504873e-08
-2.458080177167524e-07
-6.242555720170389e-07
-9.147212660266384e-07
-9.229908431291449e-07
-4.811935305897307e-07
4.5417756868058745e-07
1.7086398252127886e-06
2.849181466433064e-06
3.247599445912631e-06
2.276794439426888e-06
-3.7954239307408295e-07
-4.390654137396167e-06
-8.56614421132561e-06
-1.0943664249541026e-05
-9.307930815279945e-06
-2.1356465080291215e-06
1.025214104137579e-05
2.4777742773110894e-05
3.552353076726072e-05
3.499986704714245e-05
1.6923693404769445e-05
-1.99847241047016e-05
-6.846703464512089e-05
-0.0001113480882583913
-0.00012424416674158565
-8.33956972516434e-05
2.226122308434188e-05
0.0001782731812763519
0.00033698096479842606
0.0004217326230616325
0.00034782973093764165
5.959658891138723e-05
-0.0004253375588695626
-0.0009821788630859603
-0.001378265683856694
-0.0013251081577030773
-0.0005881270130683122
0.0008665201596531464
0.0027388941664764476
0.004349637505645179
0.004755059515050923
0.0030596260257134415
-0.0011134752322460933
-0.00713389230396037
-0.013088606731330006
-0.015980279503903398
-0.01258056031609415
-0.0009063516529081858
0.018030253098282045
0.03887111407665797
0.05180487303570057
0.044395310312651225
0.005452460417010377
-0.06990362582775626
-0.17585421711091176
-0.09454380288524893
0.00044652250509397297
0.1359473408838732
0.12895498205798459
0.1785268932680885
0.06380847871319804
-0.05006663742220353
-0.19980311567097567
-0.21005352339262007
-0.08348553805649289
0.000947695252185002
0.0806994999747984
0.1962273229968715
0.17685929121829408
0.03137720788995131
-0.05342563612613386
-0.10638859609644621
-0.16108748242450435
-0.045014422214776556
0.027317695388144103
0.05572828992711579
0.05099174009307417
0.029034818115712138
0.0051678471215962155
-0.009995852259202204
-0.012347512790444597
-0.004043768037529535
0.008185329864250745
0.015569522241607812
0.010167852912200391
-0.01240303399723096
-0.050975141174130933
-0.09829271901911844
0.05747845694000669
0.02921889410747202
0.026252287107236434
0.05033014453774654
0.09387884142517186
-0.05851975884719594
-0.025585756762111077
-0.02309644552764186
-0.05806672269283843
-0.12549945442858015
-0.009112296183462543
0.11387073739662866
0.0653592148822425
0.05916730439306754
0.09670551232637421
-0.03279941637204372
-0.14784287698800574
-0.06796939888959438
-0.007699572396753437
0.02672857836229315
0.03716818498801058
0.030836475931856053
0.01669313028322747
0.0023909527498436334
-0.007404707666194999
-0.011250644272993923
-0.010130435318501663
-0.0062278422819247135
-0.0017934182786619945
0.0015855472843306912
0.0032368700521656834
0.00327638135325656
0.0022816201101574646
0.0009415358578828642
-0.00019969803653152222
-0.0008594710372254224
-0.0010089523794207553
-0.0007889588858666587
-0.0004037792791392912
-3.41784567180384e-05
0.00021032361722686692
0.00029943577779975426
0.0002624436771789647
0.00015719817101689053
4.1585705980357455e-05
-4.453473201524531e-05
-8.513955881084882e-05
-8.42831461349014e-05
-5.745960806845948e-05
-2.256991691034205e-05
6.5440444412033354e-06
2.2924996921455428e-05
2.6141276968224457e-05
2.00248353649794e-05
9.910477260069262e-06
4.203939190480619e-07
-5.715438811625213e-06
-7.81559924762547e-06
-6.707350178171325e-06
-3.914596194087521e-06
-9.268421458508026e-07
1.2526385223993458e-06
2.2410759297919515e-06
2.167674221527338e-06
1.4452942377108941e-06
5.375369299862581e-07
-2.0445404980908492e-07
-6.101866437861645e-07
-6.766378127998974e-07
-5.076913193348193e-07
-2.424814079595871e-07
9.389241860528593e-10
1.5466752935033892e-07
2.0370826197404494e-07
1.7121682792861776e-07
9.726853451492254e-08
2.014785228283585e-08
-3.493197743758434e-08
-5.8890530782117715e-08
-5.568673732498922e-08
-3.6295486121685214e-08
-1.2708601229020821e-08
6.1780934286703455e-09
1.6201748620925828e-08
1.749232643227191e-08
1.285536292168364e-08
5.9142390241179655e-09
-3.203777441032227e-10
-4.164599574518978e-09
-5.299200179759792e-09
-4.367674612879279e-09
-2.42127083192273e-09
-4.4035442671380795e-10
9.463418923735282e-10
1.529183416578074e-09
1.4285287319079365e-09
9.339735612140223e-10
3.4853034886319885e-10
-1.1459581071853104e-10
-3.681454632658386e-10
-4.3124637288268364e-10
-3.7913613505003243e-10
-2.8896416713603325e-10
-2.021677827650721e-10
-1.1382012006643378e-10
1.1117460871536638e-11
2.034942554395337e-10
4.525240871082261e-10
6.82601874568666e-10
7.597528394489488e-10
5.355182977678198e-10
-7.709092540322662e-11
-1.0176837957679917e-09
-2.0200671198442705e-09
-2.625147901413315e-09
-2.298435381141996e-09
-6.531936874734898e-10
2.2706069443020347e-09
5.777101813261783e-09
8.476807577007875e-09
8.569610952353629e-09
4.4946163083843275e-09
-4.160886487130816e-09
-1.5791096875782876e-08
-2.639137330294711e-08
-3.0139621967586626e-08
-2.1210934744825147e-08
3.3531345948496768e-09
4.052262543505268e-08
7.929647184274699e-08
1.0149738929244958e-07
8.656476179438216e-08
2.0304024349649594e-08
-9.442287422224536e-08
-2.2920773373688892e-07
-3.292683548734207e-07
-3.251379542932161e-07
-1.5837631825489623e-07
1.8322959554574576e-07
6.328151497525851e-07
1.031491017026586e-06
1.1532327972885247e-06
7.773027466981634e-07
-1.9989803957213128e-07
-1.6457831560080719e-06
-3.1198326374867673e-06
-3.911955144975658e-06
-3.235966495498921e-06
-5.728690672243581e-07
3.918293296080944e-06
9.085258875262012e-06
1.2773909710806281e-05
1.2308352640630614e-05
5.50679482949861e-06
-7.956436799073727e-06
-2.53130482567675e-05
-4.0269211580179846e-05
-4.406095462546207e-05
-2.8339471883668202e-05
1.0473427476200152e-05
6.665285276695285e-05
0.00012259226048675362
0.00015058361625216492
0.00012060889964975212
1.3792297532994017e-05
-0.00016183073256359877
-0.0003596538279619489
-0.0004950802261652734
-0.000465160401433288
-0.00018866721470441958
0.0003412848803601232
0.0010107387313386988
0.0015709984778936946
0.0016831415587169921
0.0010329443537733093
-0.0004995039377762762
-0.0026673327263736766
-0.004765002258227258
-0.005709437209140091
-0.004355660979039597
-2.986187676853503e-05
0.006851717151507973
0.014323931172642633
0.01887647044734283
0.01615995610846166
0.0024145482422173476
-0.023712838434971014
-0.05967350611662088
-0.09874614102895655
0.06835582163807592
0.05014171989731874
0.050459297057076094
0.06590526973669972
0.08609049903237331
-0.10283943704354516
-0.11258901871784478
-0.1474288335976852
-0.0018559823153315449
0.13747863467065624
0.08646155829495698
0.05748280319540826
0.05553666350209427
-0.12206927307469023
-0.08292618407641579
-0.03562070641689111
0.013171612187704157
0.05953647001183865
0.10149440045720744
-0.06226533582201266
-0.03301878571890529
-0.011780563174080688
0.0012750686417913914
0.007124854408489003
0.007694431995635813
0.0052974328748624285
0.0020229253599500846
-0.0006848507042143046
-0.0021585480661080116
-0.002389092011265905
-0.0017674724521074042
-0.0008079367250273886
6.026914316073217e-05
0.0005959395371372008
0.0007517095625261264
0.0006171429551164206
0.00034010465309153515
5.8955974019646196e-05
-0.0001372769106633251
-0.00021864618791860545
-0.00020197761640156282
-0.00012847219272864985
-4.191836011666873e-05
2.5908072914348943e-05
6.0739401347636795e-05
6.383503093015429e-05
4.5886654341324764e-05
2.0220606114155187e-05
-2.324916730843835e-06
-1.586547750458201e-05
-1.948586919774395e-05
-1.570042556121975e-05
-8.409415585711403e-06
-1.1738237959960228e-06
3.7704560622551833e-06
5.723177410884435e-06
5.174112330234851e-06
3.213280292381196e-06
9.706044924365793e-07
-7.510822651530238e-07
-1.6062537946795467e-06
-1.6464834940488265e-06
-1.1585232378044978e-06
-4.885149751295812e-07
8.775673524938671e-08
4.250217353808155e-07
5.05890217596466e-07
3.993097208453297e-07
2.0735712724071968e-07
2.1241414535072067e-08
-1.0314609708632294e-07
-1.4968899384806907e-07
-1.3246316917533991e-07
-8.025889740881856e-08
-2.21992829969311e-08
2.146289730648376e-08
4.240197382108239e-08
4.243409024262224e-08
2.9225224868912606e-08
1.1752027996460283e-08
-2.9777838196844993e-09
-1.1385146427514971e-08
-1.31729928721122e-08
-1.0209973657927182e-08
-5.150454225657305e-09
-3.1986362945568864e-10
2.8832233514188986e-09
4.071974106229919e-09
3.607870703523549e-09
2.2042233833609633e-09
5.75586366866301e-10
-7.691793052812886e-10
-1.5776058492016529e-09
-1.7962923037760136e-09
-1.4782562405680405e-09
-7.179689780251527e-10
3.5564810065277327e-10
1.538641348777791e-09
2.507671867674867e-09
2.8294675990935033e-09
2.0681783858313946e-09
-6.281385326128604e-12
-3.1651532927281297e-09
-6.537350475545412e-09
-8.639248639048183e-09
-7.733994653040674e-09
-2.535804471460719e-09
6.8904156168526735e-09
1.8368636349615695e-08
2.7450211994137356e-08
2.8281242794305664e-08
1.5669409046444306e-08
-1.1972613824073641e-08
-4.975019190858523e-08
-8.493394092464444e-08
-9.868342160609422e-08
-7.178396774612145e-08
6.101265556101513e-09
1.2618359870724134e-07
2.5377822287437363e-07
3.303659160033598e-07
2.885977570228941e-07
8.036078106954462e-08
-2.883458000481609e-07
-7.289585132981447e-07
-1.0660722639254092e-06
-1.073477487684736e-06
-5.561518551032557e-07
5.355270671145707e-07
1.9969322972359606e-06
3.3224570836240136e-06
3.7799892082123055e-06
2.6402385877000965e-06
-4.6221705045175323e-07
-5.137645144638227e-06
-9.99491038450843e-06
-1.2745806607962422e-05
-1.0812039182242692e-05
-2.4274796050983055e-06
1.2020047839804423e-05
2.8929672905442075e-05
4.13971045266981e-05
4.06997868252642e-05
1.9540160238193285e-05
-2.3530853823316282e-05
-8.00050848083274e-05
-0.00012983061700929134
-0.00014459344061781008
-9.666688280750674e-05
2.671625475785347e-05
0.0002085464889506239
0.00039313623341707347
0.0004911125580499062
0.000403908124576671
6.699818742242725e-05
-0.0004985427604372948
-0.001146741474903467
-0.0016061599674601957
-0.0015408122095742019
-0.0006782057984384924
0.0010196737434992672
0.003201846532803711
0.005076106679158509
0.005544333123143843
0.0035676666226715187
-0.001284952657562068
-0.008269163053213256
-0.015148591047509027
-0.018434920696487094
-0.014398297601819224
-0.000815531861385426
0.020942458630478923
0.04425449686792509
0.05699110598689423
0.043447203184939664
-0.011395854721097163
-0.11617316397152723
-0.0679107968170118
-0.04957054905899287
-0.03201384621171277
0.019516727086731217
0.13610778560937456
0.1361030447155618
0.019503852195722343
-0.03203088036282235
-0.049585513213005875
-0.06791627394564421
-0.11616263666255072
-0.011366718366673675
0.04349048207049241
0.05703515412606281
0.04427829337586596
0.020922999326854035
-0.0008932849316232799
-0.014529531206636387
-0.018585868766224686
-0.015256339481801051
-0.008255665573984577
-0.0010866362909629711
0.003960222993299618
0.006050345344573353
0.005512032173072812
0.0033121682737282977
0.0005610166582696939
-0.0018101130042328438
-0.003179017802810262
-0.00323730976080136
-0.0019628979297499805
0.0003759032611464575
0.0031836745404617553
0.005531725844612004
0.006277998677392762
0.004385430042169189
-0.0005732941909568588
-0.007863253908801708
-0.015248816823095347
-0.01918629048514874
-0.01578930878026571
-0.0025695466348139395
0.019417332906754108
0.04378493069613075
0.05838426033579858
0.047086295328041275
-0.005990396835302055
-0.1106152940365362
-0.06481724720597991
-0.051853508988578045
-0.0416112886508426
0.0031718822088056473
0.11727035643735008
0.12274984998625073
0.02150295698610727
-0.006863404012562137
-0.0009519900206006046
-0.008444216388028336
-0.07442575255591108
-0.030200453164812215
-0.08542143063230427
-0.025589903263266548
-0.01572446478122358
-0.009491829422046072
0.03836755192301879
0.15956688532254162
0.16340615248815216
0.03454463749535812
-0.0614354363761807
-0.1663002879510377
-0.1153971693267095
-0.12686720616701316
0.002388720633626877
0.09301949570882738
0.1739167501954868
0.07141866291926455
0.0012648542592011839
-0.034161519291729156
-0.04325759392692067
-0.039226855926717256
-0.033417989815425
-0.030357277880469536
-0.025915976322897334
-0.008938434389977379
0.03439694801423997
0.11505485942339226
0.03645005320549979
-0.007697157766334697
-0.03226618489538295
-0.05707831647101979
-0.10234150423264309
0.015039383803626134
0.08334048302054436
0.09640055738900202
0.05372723845971232
-0.038602160541960195
-0.1663863834995255
-0.10665608913605464
-0.029976327543023595
0.09335643528805598
0.08444013434508225
0.14736857696625724
0.06497676354688715
0.0011713877268717148
-0.09010609641425409
-0.051747143065314555
-0.11024039941864469
-0.06654414818699923
-0.09406476341056572
0.05533578503707437
0.03873342848303041
0.10639167535250946
0.0874133287375481
0.1811118541811166
-0.04311355208587534
-0.03709108211230497
-0.058813582048686516
-0.15552764661022017
-0.1501660175923598
-0.03531861734819791
0.02342747353102719
0.07599448486571547
0.1720841052645996
0.14646781732329492
0.010006071513068565
-0.05113761697855742
-0.0686687278602977
-0.08086846867712998
-0.12107661604351189
-0.009626238528000111
0.048832262466304024
0.0628304297834023
0.048349493839395824
0.022474507466203913
-0.0014222493918918044
-0.015959049654279335
-0.019610006685738163
-0.014995093257278873
-0.006617820674762853
0.0011361468669533745
0.005309862010897722
0.0049230084021196965
0.0008991501542584882
-0.00443001189591825
-0.008091392811740941
-0.007413444728268088
-0.0010447893515008813
0.010143473764441769
0.022598635988480664
0.030477677471645745
0.027206501646103286
0.008186780256476102
-0.025936553167422428
-0.06667336377619934
-0.09740366616349352
-0.0969310048368088
-0.047448904637929834
0.054260638619015776
0.18572952606549142
0.29283722569902726
0.29415032766293797
0.09842787989302033
-0.36667921009381604
-0.5226337539971989
-0.3167615042201897
-0.21918402247074414
-0.045247627875266636
0.400624765344611
0.6724638739120564
0.4389493429166591
0.06356795686773667
-0.18423938008523746
-0.29119145857057355
-0.4490634818306056
-0.4074352833632188
-0.04444651183768321
0.23791442488046116
0.2966303081725468
0.21824130852887874
0.08903510975802982
-0.026089267446377476
-0.09242386442125648
-0.10337832530658454
-0.07192898277757055
-0.020388309513373407
0.028115322557823272
0.05511120063132779
0.04954086896571684
0.00881622338008229
-0.0610915584612619
-0.14662086357146287
-0.029317138903636696
0.10938221922270273
0.08215920617823609
0.09085017334271835
0.12505177997978056
-0.03433986849591668
-0.20752185255271954
-0.2071869857982312
-0.03295397657395585
0.12835563848223308
0.09669898126266745
0.09006160276005072
0.11712037170469239
-0.025590596683897508
-0.15129820470401895
-0.07708969039273843
-0.017511574305027117
0.019631280915379596
0.03413423366345888
0.031466791340418965
0.019556348255763724
0.005781908567082886
-0.00489116537672722
-0.010406730660053681
-0.011051634582013999
-0.008385432936853404
-0.004205342892348023
0.00010556207211070874
0.0037486334769600456
0.0063146409953073095
0.00746303045871836
0.006728485029631416
0.003621806458490965
-0.0019626774621048903
-0.009198731185104397
-0.015947782275330863
-0.018902526559967638
-0.014510331880125557
-0.0006675790510899337
0.02120897950610335
0.04451323037962778
0.05716453221498749
0.043512724379439774
-0.01141920121426407
-0.11624603567806559
-0.06799322890203419
-0.049634394223706566
-0.032046755524935404
0.01951381141613026
0.13612624482360194
0.1361321293564558
0.01953420345417136
-0.03200616467893304
-0.04957146038476884
-0.06791686097557856
-0.11618059752559214
-0.011401836726896201
0.043444005001668604
0.056990666499918234
0.04425593988741708
0.020944642683959673
-0.0008135601312842524
-0.014397075181931392
-0.018434553591613438
-0.015148879434629635
-0.008269775885836186
-0.0012855791537319963
0.0035672273369229514
0.0055441494777917245
0.005076141692119863
0.0032020079052662645
0.0010198630717157566
-0.0006780596185265856
-0.0015407400208230287
-0.0016061565727237702
-0.0011467798044939978
-0.0004985904048231565
6.696569845459302e-05
0.0004039001700958234
0.0004911228711915866
0.0003931478304623523
0.00020854012990049027
2.6680041137004554e-05
-9.672949309519146e-05
-0.00014466011348313984
-0.00012986373068242502
-7.99637362999901e-05
-2.3389963293842262e-05
1.9768661243143284e-05
4.0952361462073154e-05
4.15610765446949e-05
2.8871057747113615e-05
1.163760290791731e-05
-3.13336499473727e-06
-1.168080249752653e-05
-1.3443204935560495e-05
-1.007721071469838e-05
-4.2069094297484965e-06
1.6109751286616516e-06
5.497211969619321e-06
6.467525666884019e-06
4.417558866666636e-06
3.54856421151641e-08
-5.290000443953668e-06
-9.61765486530963e-06
-1.0783492791875867e-05
-7.0156848181000475e-06
2.196610543917195e-06
1.5222086823270925e-05
2.783648293962517e-05
3.371945910218724e-05
2.6254422743156947e-05
1.5380219470347993e-06
-3.816393798346615e-05
-8.195840243033618e-05
-0.00011066690170099747
-0.00010143912183665248
-3.6856675495384604e-05
8.334598667458581e-05
0.0002321992149204817
0.00035297669107337405
0.0003698702861345379
0.00021426405414214076
-0.00013728393183507677
-0.0006252727768863076
-0.001088438012770286
-0.0012841478831096432
-0.0009607173605318067
2.3885197823555875e-05
0.0015685533732284907
0.0032380568918216786
0.004284171184083266
0.003833731846703816
0.0012479782979782693
-0.003424439852394686
-0.009070040938233116
-0.013439973233107855
-0.013603079231673311
-0.0070119444790414445
0.006969611440838737
0.025528228887143553
0.041543102101049265
0.04412743390452241
0.020969636883300946
-0.0378148553150659
-0.13549022763652097
-0.06597350454668847
-0.014240869503214536
0.0396326599655738
0.11407416791064577
0.21997032186700277
-0.04209949579181424
-0.07981898305905573
-0.10317162168729792
-0.1175845057851261
-0.11975820960734274
0.10157504699338753
0.16020245060119506
0.06487326474424171
0.013188351361098319
-0.010388871540938137
-0.03176181833254696
-0.08094451168963075
0.015458204399852196
0.04089514272693878
-0.006813176971080935
-0.11422305010615112
-0.05441550365433544
0.007472673175242042
0.1061197058316375
0.06720818189294105
0.10059826612435088
-0.00220906282686556
-0.06549085824554814
-0.1226674323254524
-0.008024293231162397
0.05066205521955939
0.03702858301160111
-0.05173452674827686
-0.005092433952048921
-0.0012711738766067635
-0.010945087633497014
-0.002100814325080972
0.05459574128763143
-0.019182039503421174
-0.013114971213501692
0.0700604361845605
0.015233847003523536
-0.001984277875176379
-0.01020201990411461
-0.03625571478556137
-0.09979068493791388
-0.00993315013031889
0.03501289898582704
0.044967751701502405
0.03375480802562611
0.01471576216168638
-0.002373811987452897
-0.012502887712385318
-0.01493753514552077
-0.01172415593811496
-0.005956816188084291
-0.00039650924612679594
0.0032783959008024556
0.004600137958674318
0.004011917209282657
0.0023935325225829668
0.0006252787193593505
-0.0006877416870994788
-0.0013038756494897182
-0.0012871631040955232
-0.0008752983699129087
-0.0003418342440069956
0.00010224273805454667
0.00035130703749040583
0.0003993303318629741
0.00030518267991669275
0.0001504418511423871
5.616974614433264e-06
-8.777188055767084e-05
-0.00011949346745920039
-0.00010230410897300861
-5.952719863063466e-05
-1.3899238917167172e-05
1.9304673339133257e-05
3.429391377762397e-05
3.308478523563333e-05
2.2004474028461013e-05
8.134485385344795e-06
-3.1751423634819003e-06
-9.338804671074565e-06
-1.0326664030740603e-05
-7.735109524088427e-06
-3.690727435870352e-06
9.266155768502714e-09
2.338518308443433e-06
3.0800100494929487e-06
2.5964735872847835e-06
1.5018981469050418e-06
3.726779315284986e-07
-4.251030623797747e-07
-7.786692269768233e-07
-7.726595484126369e-07
-5.847321632870555e-07
-3.8140770854941074e-07
-2.484561076558498e-07
-1.7141142637549022e-07
-6.455920817959474e-08
1.6652593943720512e-07
5.527098434702839e-07
1.007530812879956e-06
1.3189933296910703e-06
1.205064055423787e-06
4.326237558758173e-07
-1.0271408379488667e-06
-2.8629912817908357e-06
-4.383400034959097e-06
-4.6434498383730105e-06
-2.7700814645587115e-06
1.561477245177727e-06
7.647730633453964e-06
1.3507370206586775e-05
1.6117873371100997e-05
1.2302778273699103e-05
2.0931580695494161e-07
-1.900944502795135e-05
-4.0018163578229516e-05
-5.350153449130906e-05
-4.8445581988907975e-05
-1.658014305294598e-05
4.195249233101809e-05
0.00011378468438354608
0.00017123477685108222
0.0001776407020461663
0.00010021493517453338
-7.154875224663758e-05
-0.000307765296681377
-0.0005294416572962408
-0.0006188998307835462
-0.0004553089624763339
2.761652179037094e-05
0.0007773330479156242
0.0015794752428674758
0.00206972972934134
0.0018266096807548703
0.0005464073335374503
-0.00173818616078539
-0.004478288239243819
-0.00657939364799455
-0.006625131752835763
-0.0033932884720580684
0.003415654266602181
0.012463799307011164
0.020418691963131518
0.022310480638186504
0.0128026592394497
-0.011768176949656059
-0.05118175978128638
-0.09991818816361606
0.05250029545907983
0.019009553409958864
0.010895509716570807
0.03343152582912549
0.08282794340614913
-0.054337755899614565
0.0011875191529934351
0.026052937273535665
0.0003017147147114893
-0.08680947262373044
-0.03267265297321999
-0.020172765418968192
-0.02021855666147359
0.0023201705760331065
0.08060855848520583
0.03786443493228867
0.0816580177871936
0.002213813032197306
-0.024734287255505222
-0.0314064709822707
-0.04977643070646641
-0.10417983727043337
-0.0068409417907434045
0.0426353720982887
0.05418320679867423
0.04221000304537229
0.020610763100082974
-0.0005243039006481017
-0.01589224344562141
-0.024028766742669707
-0.02542434048631601
-0.020823479758871104
-0.010526702227200866
0.005040131216653666
0.02383934945680563
0.04065247531793696
0.04644983054434126
0.029492888018979764
-0.021689361889264232
-0.11422256374858289
-0.047263883011456745
-0.010538690259838897
0.014004129343912666
0.04779534838814231
0.11009354131661449
0.013325584761703639
-0.03912477107268764
-0.05230661104032382
-0.03711841740962846
-0.0071687738379933585
0.023813993261394082
0.04373781419733947
0.04349707843262035
0.01852199659993534
-0.02930950777619759
-0.09003838577311114
-0.1455834782738347
0.027412879654819068
0.05158589217619572
0.14115157331085107
0.09541604597582365
0.09655240964522815
-0.08673205533873182
-0.09044352027838692
-0.144531644608037
-0.06414903338410158
-0.04618178859034141
0.12790739117590263
0.08443125812817502
0.0482714287625052
0.03557473867971852
0.050604236527695794
-0.11288094844511329
-0.06704376101887403
-0.024462232534776626
0.0061126093496258055
0.021533977458179775
0.023647220592103654
0.01723786000074719
0.007695219787518359
-0.0007489518412787095
-0.005836742591053694
-0.007221656484337847
-0.005851781987968572
-0.0031840350684337188
-0.0005320115344115697
0.0012983854926714854
0.0020750434750716664
0.0019932478509633272
0.0014392058477144724
0.0007731971633682946
0.00020106175093346801
-0.00024549564894992963
-0.0006398823021376963
-0.0010486443444367548
-0.0014315308076249973
-0.0016024925243239487
-0.0012808621647507745
-0.00023099935819246263
0.0015491432669893267
0.0036660035892058
0.0052907184307705475
0.005326130576462838
0.002809681963877065
-0.002516810054757959
-0.009659129241295314
-0.01612959658405278
-0.018312484986941376
-0.01261426698150765
0.0026968327140198074
0.025435690292364307
0.048057573087145804
0.05779682362433945
0.03909472224046324
-0.02172305591934174
-0.13064861834970742
-0.08118586756507999
-0.05289054093918368
-0.014699846441371834
0.06734753829518733
0.2203694657567173
0.056382543700980406
-0.03134165727854313
-0.06606893146729866
-0.08078434437031452
-0.10969939511733418
0.018875862919434785
0.0865391471643004
0.08571264908104657
0.0187520681777803
-0.10342647099529327
-0.06284074370725734
-0.03669476304253897
-0.0011166930899955275
0.06383051117529585
0.16935805259051165
0.11556193749363951
-0.10693323944180816
-0.11147027494291303
-0.10834431650312883
-0.09977373622648379
-0.07961892883997605
0.16168375689007303
0.22924125652615457
0.11699459431357974
0.006147827188906128
-0.12967349864431318
-0.11436383352835826
-0.15874981299696894
-0.054195037890647856
0.026708959442281733
0.12245350911124454
0.0707733570440144
0.09691239060085509
0.00588157837903374
-0.019126882106735986
-0.012165940285776514
-0.0155384954132608
-0.06901564668447395
6.6274852115048514e-06
-0.01684909415408391
-0.10698105707563652
-0.04007477656982433
0.02393395275255876
0.12397789164097257
0.08701694498660835
0.12065509457330333
0.011807274099912266
-0.06801729002785174
-0.1526918750914622
-0.07037543028387588
-0.0353006251860096
-0.04506983568402821
0.1161897419503869
0.07062279641826907
0.03843357861638459
0.031650113225253663
0.05170252360017437
-0.10898406069607525
-0.06264593603763664
-0.021164331759684643
0.00765434317020058
0.021461960562406446
0.022559608385023765
0.015831090044892162
0.006510221729531491
-0.001435596584369788
-0.005996947275198157
-0.006988206492522735
-0.005415735558970151
-0.0027177983379265865
-0.0001544239352337438
0.0015207016637794727
0.002109086883253474
0.0018250161647687371
0.0010767637032472763
0.00026777198018213384
-0.00032754696138398155
-0.0006020915105043084
-0.0005880750774406643
-0.00039584407868652926
-0.0001507875141295311
5.128105846694229e-05
0.00016313700701482947
0.00018302681178604025
0.0001385183995863822
6.714069685260762e-05
1.0271596324993223e-06
-4.1120799331402344e-05
-5.4934950860246964e-05
-4.648673774509523e-05
-2.6573219512169754e-05
-5.629120495867902e-06
9.384874626390352e-06
1.588063811754234e-05
1.4866157718405447e-05
9.351110372829477e-06
2.722613082615826e-06
-2.4106546848566192e-06
-4.742794970109022e-06
-4.2542503517326065e-06
-1.864984216685153e-06
1.0345773149736774e-06
3.0387798828975653e-06
3.1125637435345976e-06
8.956823102336617e-07
-3.0955599529015053e-06
-7.433012719133865e-06
-1.0008046211491076e-05
-8.612200114278906e-06
-1.847716188209844e-06
9.831220659386835e-06
2.334760214834712e-05
3.302682948004298e-05
3.187598928821226e-05
1.423254886074432e-05
-2.070954040181314e-05
-6.571175337550745e-05
-0.00010440272982574023
-0.00011404591221480726
-7.304199005994999e-05
2.777724607490814e-05
0.0001734242393903532
0.0003181258046110922
0.0003900121699783053
0.0003113849562554197
3.361993095565571e-05
-0.00042199949574891067
-0.000934196016596675
-0.0012834188143002658
-0.0012029728065495937
-0.0004830150093865352
0.000893189650314862
0.0026292499637635323
0.0040805514769583495
0.004370821525006989
0.0026911038650754573
-0.0012602588767997077
-0.0068319533757321485
-0.0121860539653226
-0.014518410474286784
-0.010896715937052574
0.0003201223651443687
0.017808715224836884
0.03596966109744357
0.044732998812653996
0.031075051164007075
-0.01769668019692204
-0.1096471289492458
-0.04440260774728128
-0.011496113460051468
0.008131759733496162
0.037732720950935196
0.0988838233400376
0.006103097292107215
-0.03643587564810913
-0.035429559374274014
-0.006562741033308277
0.028928767666485507
0.0485257060309154
0.03312797785735646
-0.028190466606312067
-0.13421258015423254
-0.06978410236205429
-0.007565593886770765
0.08628931148776275
0.043766092886003014
0.08646646741103219
0.019666050245804884
0.03074145780316841
-0.10779983185965834
-0.031926490579418085
0.021613726464623645
0.022313694669032668
-0.04903754068620038
0.002160602134419291
-0.015889278583930026
-0.08427183956642713
0.021479568468468695
0.12495088647932802
0.04279723458761078
-0.019015244458377684
0.13467721801154509
-0.10815912438070924
-0.16079799930451305
-0.0317832888255989
0.07873169416012386
-0.0208203541664356
0.08380658834897427
0.008508309964634156
-0.033111298853567186
-0.03250576626576605
0.012459356651644674
0.09745762938162067
0.012885897503778762
-0.0538202581351331
-0.11528246280192693
0.018191097758110154
-0.060711202061655575
0.042361861311104365
0.12100565325715963
0.16642795626362342
-0.0315466046510058
-0.08025421575318112
-0.1782554924188528
-0.11087768967134996
-0.05047225401214126
0.03725970414336078
0.18244629191083542
0.19980975965197612
0.08191053740999256
0.0003177044829923248
-0.0850492533177017
-0.2116950115762341
-0.20096557732543813
-0.050553869833632595
0.06390568534786259
0.17896624893843738
0.12947506031299108
0.13635682697958962
0.0006585087750151165
-0.09452286244125306
-0.17596071340917466
-0.07005758084784615
0.00531645647696434
0.04431305556911536
0.05178226508112878
0.03889329012068926
0.018073847184784074
-0.0008628009823673166
-0.012550618073348637
-0.015968284878264075
-0.013091708564852825
-0.007145579018543593
-0.001126949693154772
0.0030492220940989668
0.004749842656609391
0.004349329471794416
0.0027417881971398567
0.0008705378330140978
-0.0005846511775667324
-0.0013230590166305714
-0.0013777582414036017
-0.0009828051464290792
-0.0004264859034456044
5.847599888863938e-05
0.00034707613066220776
0.0004214462230932548
0.00033707948734710793
0.00017858453739492123
2.2610158519115144e-05
-8.313179084692316e-05
-0.0001241163542143554
-0.00011134624279514445
-6.854546889236054e-05
-2.008949665155342e-05
1.6834926331383323e-05
3.494890708252446e-05
3.551238343640186e-05
2.4795262460498395e-05
1.0282336380340233e-05
-2.1068464651550085e-06
-9.288994214162556e-06
-1.0936873543042002e-05
-8.569156197807876e-06
-4.398929453921083e-06
-3.88567568850341e-07
2.2701090774076836e-06
3.2444792400124756e-06
2.8492900317915874e-06
1.7107575049880303e-06
4.569061458138827e-07
-4.789292551122776e-07
-9.217264074147e-07
-9.144837490649393e-07
-6.247418871659545e-07
-2.466006805980023e-07
6.956020103574127e-08
2.479167425228293e-07
2.834630347469279e-07
2.1756350222857382e-07
1.0802440386049019e-07
5.029929767202851e-09
-6.170721005422352e-08
-8.469258199707111e-08
-7.282707547359511e-08
-4.2610019994594344e-08
-1.0203671571144391e-08
1.3482787626346365e-08
2.4265756930162748e-08
2.352173209202422e-08
1.5716089335056017e-08
5.876267985006966e-09
-2.1823105240925943e-09
-6.600847590298166e-09
-7.3382102280141e-09
-5.5162489938176616e-09
-2.6429395547710333e-09
-4.4103987563718745e-13
1.6717167776066542e-09
2.2079644487894217e-09
1.8576563412533401e-09
