0
-0.0009491853603512917
-0.18416493259925018
-0.14194449801988204
-0.050176090531117094
0.11045487097207192
0.14926129345168979
0.06080940771161799
0.023562454475910308
0.0036382078871091375
-0.0368221748962106
-0.12918002520991323
-0.08922998017734471
-0.11280269854083036
0.022150119838280094
0.14749083581424052
0.09370330902565024
0.07974608004828611
0.10771976297944118
-0.035850044264031114
-0.17297583942995878
-0.12457818102053368
-0.10239835202867843
0.09431492956479487
0.07652517389307772
0.059314025764922694
0.05515039603402829
0.06940380554835915
-0.10049387988830039
-0.06260629143453542
-0.026440870347891127
0.0007074663706352108
0.015672265241705074
0.019353675596830835
0.015304207426031995
0.007886013134972836
0.000757487434820204
-0.0039286860838162975
-0.005602234910779048
-0.004852171364674204
-0.0028089190084366025
-0.00058998556691349
0.0010443986087220033
0.0017969079446690228
0.0017554113065258224
0.0012237324256567173
0.0005473306287527579
-9.883342653733377e-06
-0.0003179908778577492
-0.00037242087281774927
-0.0002493666609738394
-5.237761525458436e-05
0.00012997207111257065
0.00024620174035854794
0.00028435408793944415
0.00026120866233560343
0.000206496004651037
0.00014887080202915436
0.00010737194366801093
8.901734102017727e-05
9.103047107465476e-05
0.00010530331772014498
0.0001228827244356554
0.00013707261028100037
0.00014469304420273974
0.00014578048341230834
0.0001423951503641106
0.00013723535236894097
0.00013256173683275495
0.00012965309935024136
0.00012876821874759165
0.00012943977578879726
0.00013088674277152658
0.00013237314070046474
0.00013342099155083607
0.0001338646101865636
0.00013378757612265312
0.0001334051260752239
0.00013294868511166163
0.00013258775709188984
0.00013239981032399928
0.00013237992207031646
0.00013247257261874212
0.00013260754004492157
0.00013272719674247257
0.00013279985376689685
0.00013282011598444432
0.00013280090770918646
0.0001327627145449642
0.00013272441848147912
0.00013269799895700103
0.00013268733241393615
0.00013268995945920131
0.0001327001786942299
0.00013271201523751657
0.00013272118428838875
0.0001327258065147454
0.00013272611059093244
0.00013272358763003945
0.00013272006250082428
0.00013271700217693222
0.00013271518977829423
0.0001327147316660786
0.00013271527305009522
0.00013271627823759755
0.00013271726428536976
0.00013271793217762475
0.0001327181921568681
0.00013271811417592114
0.0001327178465707756
0.00013271754030729432
0.00013271730081258716
0.0001327171726821312
0.00013271715010664505
0.00013271719999835736
0.00013271728503081432
0.00013271737804948408
0.0001327174650657394
0.00013271753923628195
0.00013271759153870083
0.00013271760470996247
0.00013271755541956177
0.00013271742604483913
0.00013271722266894434
0.00013271699136425174
0.00013271682219519093
0.0001327168314928294
0.0001327171190448332
0.000132717707644854
0.00013271848542161142
0.0001327191815557455
0.0001327194069389195
0.0001327187773440727
0.00013271710605037757
0.0001327146110356781
0.0001327120428814656
0.00013271062424054583
0.0001327117213263674
0.00013271625384045935
0.0001327239824000556
0.00013273295360040284
0.00013273946772973064
0.00013273888841878914
0.00013272738388517605
0.0001327042823577826
0.0001326742373515765
0.00013264802532217716
0.00013264078878725988
0.000132667108009408
0.00013273348921145843
0.000132830471752947
0.00013292802283518612
0.00013297839749518598
0.00013292938751544785
0.00013274745998928232
0.0001324451226898142
0.00013210148344958058
0.00013186192110060303
0.000131904905843811
0.00013237325309342583
0.0001332830462583563
0.00013444215135523195
0.0001354240483532523
0.0001356419831933008
0.00013454512622630273
0.00013191088287901957
0.00012814511019057536
0.00012444687578863013
0.00012267793929201026
0.000124829889894384
0.00013211801180422765
0.00014393177875446416
0.00015707597645671134
0.00016584513145505162
0.00016337824334575364
0.00014436931072376097
0.00010858479705353007
6.392293394736336e-05
2.7241241431106897e-05
2.1249036557470077e-05
6.671232779669308e-05
0.00017109177977426524
0.000317142730479303
0.00045707323785766185
0.0005183650861390742
0.00042515848598212696
0.0001336954433267936
-0.00032748453864232585
-0.0008296449802733385
-0.0011491302159465939
-0.0010224648333791635
-0.0002530155566678075
0.0011534634700761275
0.0028745086333463754
0.004246618816637519
0.004395299155195692
0.0025451544041773144
-0.0015382192491863102
-0.007116148757829276
-0.012274623373327858
-0.014188721303250938
-0.010003019091415651
0.0017302423143320711
0.01940556585191708
0.037140137760761256
0.044718122315552354
0.02925907652484282
-0.02140022386372203
-0.11444667983334002
-0.048510942917758565
-0.012436396103917708
0.01270080949577105
0.04877802524981217
0.11471767840058929
0.021673973392072426
-0.028986319651449086
-0.044451743555383706
-0.03688510426385774
-0.019163633584163866
-0.0014973190526558623
0.010238065015994407
0.014442473049442905
0.012563977013182247
0.007450115027812587
0.0019089182171475928
-0.0021683640083292525
-0.0040638725723787066
-0.004019502735658932
-0.0027934157648171133
-0.0012123094435141468
0.0001328469871698978
0.0009954650848137201
0.001413561430408611
0.001555238152591444
0.00155523815226079
0.001413561432731119
0.000995465097822906
0.00013284701850967254
-0.0012123093931098177
-0.0027934157067744593
-0.004019502694551692
-0.004063872580313146
-0.0021683640922710934
0.0019089180525421767
0.00745011481585034
0.012563976830728208
0.014442473004029647
0.0102380652102575
-0.0014973185747052177
-0.01916363289302293
-0.03688510357628369
-0.04445174321239712
-0.028986320022290794
0.021673972075629516
0.11471767623831644
0.04877802281631524
0.012700807832909444
-0.01243639572930046
-0.04851093950760261
-0.11444667330626418
-0.021400215627208636
0.02925908340389997
0.04471812365910396
0.0371401296936828
0.019405546887576373
0.0017302154735881416
-0.010003045152659512
-0.014188733289083653
-0.012274607207099573
-0.007116096066221901
-0.0015381347991314082
0.002545247427721761
0.004395359884827712
0.004246598579283795
0.0028743704065988637
0.0011532068899262342
-0.00025333273876757635
-0.0010227214794826759
-0.0011491647091457584
-0.0008293113772512848
-0.00032673359067379525
0.0001347358951554549
0.00042614372480468814
0.0005187775207210253
0.0004563771394718184
0.00031503772235169745
0.00016779747387464516
6.316191359559913e-05
1.9043570544504627e-05
2.82482676878529e-05
6.951080172410559e-05
0.00011865856509639806
0.00015656819739490668
0.0001729239002457871
0.00016649327236785327
0.000143342802960924
0.00011423791003827829
9.183307869597226e-05
8.76597001798997e-05
0.00010874856334176966
0.00015411262561654455
0.00021208994083032643
0.00026026996521940677
0.00026983887603387305
0.00021521753440834946
8.771923333509137e-05
-9.092031239727209e-05
-0.00026180848832546555
-0.0003362798172583862
-0.0002220795154701947
0.00013351944145887935
0.0006950017580852153
0.001305029916487738
0.0016913590090498467
0.0015344064277539376
0.0005974632221903207
-0.0011081897229531573
-0.0031843411099089086
-0.004816838220185705
-0.004934989453577009
-0.0025912108455433537
0.0024959990673357807
0.009403695624051191
0.01572946597044443
0.01785169729083558
0.011880627816064035
-0.004807452872083411
-0.03192072591425629
-0.06527635840132677
-0.09735448825369333
0.08018322726686905
0.07253365634763916
0.07798717328448657
0.08651479340100626
0.08223623135123077
-0.1503856914895266
-0.2188426790352505
-0.11701649589270739
-0.02513752466207401
0.08364495689423428
0.23235324412745267
0.22980413042693074
0.06594663434274876
-0.08427898353338512
-0.24983490224320312
-0.25025425742493373
-0.08644797871666159
0.05991118864151048
0.21821996216266204
0.21605029977841939
0.06763138230065502
-0.03130952464466405
-0.10078894423865063
-0.16805790321182237
-0.057659724787760165
0.015798105432938688
0.04998016576262021
0.05256115494104459
0.03636702897233279
0.014308602408532167
-0.0041690463130451645
-0.01447214501366279
-0.01635822323961647
-0.012340501973652229
-0.005860083816218646
0.00013980633208670337
0.0039517888911772235
0.0051825050478098425
0.004391410771741534
0.002565149633019326
0.0006520707261217095
-0.000720037755126488
-0.001322336637362814
-0.001249950613041062
-0.0007733782899893194
-0.00018971175534759753
0.00027982469807505324
0.0005310295597971566
0.0005662091912760102
0.00045421823480105956
0.0002843338273160654
0.0001306645442502967
3.442621564865361e-05
3.1800387891271634e-06
2.1150277509237052e-05
6.33572301148355e-05
0.00010763066671808743
0.00014123691136071583
0.00016160684578057474
0.00017269109048231545
0.00017949299492358203
0.0001834059308689841
0.00018034387936097885
0.0001625568970456267
0.00012368557194858662
6.525584511632028e-05
1.7499409934703726e-06
-3.898043939486116e-05
-2.242864314180702e-05
7.841598333420313e-05
0.0002645476762277323
0.0004948575391843798
0.0006818420486169718
0.000707961628576514
0.00046641967356265013
-7.969552607094542e-05
-0.0008384738219978072
-0.0015596323731676047
-0.001865936019782234
-0.0013654248310822983
0.00016404733944036114
0.0025670488549095175
0.005168635054389569
0.006806586260584077
0.006123239755122586
0.002123910441130064
-0.0051187932205886185
-0.01387847085323793
-0.02066749854071208
-0.020948864643658267
-0.010811625034827056
0.010617932519415015
0.038720721418207704
0.06195155485632673
0.0625471784509389
0.020027439820788362
-0.08286209739850013
-0.05336103021000175
-0.08355564850333884
-0.1493849831749128
-0.015171535319368101
0.15694475162660973
0.19556498526678856
0.11097945612311312
0.09253807451543583
-0.08599770280354188
-0.2551155802265648
-0.2371150819441851
-0.038142301819956516
0.1518600633812098
0.1518210384693465
0.17895992831912017
0.04026637230994635
-0.07031875805657065
-0.1686488436842605
-0.07359836833439767
-0.0004422669858518235
0.042908780329278466
0.05620072617495807
0.044832002357304265
0.01735949217545375
-0.01617435300226299
-0.044820205679265764
-0.05686247232888294
-0.0405446497686676
0.01395286839222231
0.11151827353026597
0.04929333593453391
0.01562041943893559
-0.00821844226887243
-0.043683491906447616
-0.10951774617884118
-0.01713473692043453
0.03153875008214906
0.04326601584882228
0.03048104515398174
0.007449685539203205
-0.013123509109297413
-0.022417363858280172
-0.016742395300314853
0.002020696271572257
0.026650844412689032
0.04564939018362298
0.04548289916177958
0.014155178827388865
-0.05438486670996363
-0.15635081775672147
-0.07663891103108407
0.00871849660501659
0.1261471633112701
0.09616142809414528
0.12633652167411766
0.008647353434080036
-0.0776335983276327
-0.15874300987473283
-0.0580281676506974
0.010304562338432775
0.04330097345805361
0.04731270997438114
0.03366152918199544
0.014027787979088383
-0.0028577540284646856
-0.012585161056581346
-0.01471050626682242
-0.011367068776857663
-0.005621881354271686
-0.00016407212166150105
0.0033984346752001927
0.004643292341442135
0.004029031606191283
0.002427517740340939
0.0006994696295011698
-0.0005703786602955971
-0.001154578798674632
-0.001122856101698645
-0.0007113206908476726
-0.00018778028332786548
0.00024339130569731477
0.0004816795350030846
0.0005236271921858864
0.00042826753274341115
0.00027576682520287136
0.0001346659776773319
4.477788994082909e-05
1.532384726043217e-05
3.329342617068112e-05
7.566643929796124e-05
0.0001202674720180608
0.00015237051452235293
0.00016655503883535627
0.00016497871786014755
0.00015392142936447714
0.00014031310420771893
0.00012933405804980755
0.00012344220268843394
0.00012260643971307052
0.00012523047440392168
0.00012922541664656502
0.00013284206094991524
0.00013509158006057008
0.00013577460893410157
0.0001352534729615199
0.00013413291861093208
0.00013298250627830435
0.0001321719293840255
0.00013182913797046944
0.00013188922359897004
0.00013218548889410944
0.00013253881115797686
0.0001328180607318028
0.00013296336458812038
0.00013297860646965088
0.00013290680043364923
0.00013280230688343368
0.00013270971447123202
0.0001326535249362165
0.00013263788994306828
0.000132652790311189
0.0001326823647808852
0.00013271200174804537
0.00013273243684241073
0.00013274067815163755
0.00013273863553145732
0.00013273072450642852
0.00013272156849795846
0.00013271447990385695
0.00013271090793502552
0.00013271067077245534
0.00013271261202467793
0.0001327153211488548
0.0001327176694316213
0.00013271906127369798
0.00013271942560304836
0.00013271904402318291
0.0001327183282643002
0.00013271763529419816
0.00013271716617411556
0.00013271695362722868
0.00013271691477497182
0.00013271693282033831
0.00013271693210083253
0.00013271692006778106
0.00013271698298963512
0.0001327172367755799
0.00013271774874885155
0.0001327184588266677
0.00013271913638101306
0.00013271940752912446
0.00013271887215342976
0.00013271729889248097
0.00013271484425819312
0.0001327122018313063
0.00013271056923812617
0.00013271134585610448
0.00013271555600437895
0.00013272312374014778
0.00013273227078949954
0.00013273940539136408
0.000132739841073717
0.00013272947218233704
0.0001327071353159571
0.00013267689086963823
0.00013264905399639366
0.0001326387412257293
0.00013266120721293386
0.0001327244068039342
0.00013282083752810372
0.00013292226502537022
0.00013298160410996526
0.00013294518173763767
0.00013277536438528777
0.00013247841444900832
0.00013212688259176564
0.0001318623291852655
0.0001318656160841682
0.00013229058632790333
0.00013317256486724605
0.00013434215819339845
0.00013538990964938837
0.00013572874714823778
0.00013478020964789592
0.00013226452156077552
0.00012851183763225885
0.00012465355906529074
0.00012252982641642983
0.00012419403869272548
0.00013102468233730744
0.00014265424771943048
0.000156136914851601
0.00016590377732712808
0.00016498478260149545
0.00014763043523757173
0.00011285370469412491
6.768073395595905e-05
2.8339315420198072e-05
1.7602440237467342e-05
5.736434047508603e-05
0.0001573404530816239
0.0003032103328841629
0.0004497235096290461
0.0005250464062581724
0.00045073264286866414
0.00017654326013401487
-0.0002784236174072874
-0.0007949000787837238
-0.0011540819602780502
-0.0010876750577969274
-0.00038135998597048885
0.000988328803956609
0.0027318087706446957
0.0042077432998009826
0.004535447129508174
0.0028908283105461238
-0.001053356468059625
-0.0066761830432927344
-0.01216265485642987
-0.014705167812020676
-0.011316558862363843
-0.0002174018512354198
0.017536138493292327
0.03681567646250952
0.04835889816187891
0.04051223831663945
0.0028511995729400895
-0.06914407897095545
-0.17011407502298798
-0.08373183188206246
0.013957344077611586
0.14706200090076954
0.13080988651914138
0.16491521105576162
0.03278991095163666
-0.09236652145897922
-0.2368046891647313
-0.21549601390009085
-0.0264894788407604
0.1468550744788238
0.12680789075436025
0.12976028780297708
0.1576753383574087
-0.003673983593244157
-0.17906102035416238
-0.193483958627797
-0.0618995563200102
0.016576825400956206
0.058025086172486244
0.08772505802691846
0.13198353488067663
0.011255940574656124
-0.0632235964540185
-0.0891077774330825
-0.07042673418448173
-0.014988210248680824
0.06702181144830902
0.16344000657297877
0.06086011126342983
-0.05305996050174327
-0.1858848668757975
-0.13723613962035988
-0.09883484518506244
0.14084678458125421
0.18866650488734107
0.2395426262478023
0.07437737433692301
-0.13435080554885045
-0.2107281905170424
-0.1622685723974048
-0.17172918905720733
0.0017066300508941199
0.21141581026749684
0.10623684051814819
0.11364870110561799
0.22958290591201055
0.018798007264018528
-0.1740457470975063
-0.206376624865432
-0.11919960982794897
-0.12473665571111575
-0.0044360453522530085
0.08239127948663853
0.1828637346378009
0.13365730892287736
0.14906913412306613
0.01812475755923822
-0.08862271907341873
-0.20563672167158545
-0.15785268078831766
-0.15095293973532242
0.02973150489507283
0.21163347024851598
0.2224051765485522
0.07818825170364355
-0.02229109832631668
-0.095911518931909
-0.16742636689252458
-0.05991710585431966
0.012440762748868631
0.04699919106419754
0.050766524580015314
0.03589499213412382
0.014830100126154436
-0.00317137969605059
-0.013471718759152453
-0.015654001547504598
-0.012031828546307625
-0.005895080298850354
-0.00011338251911136493
0.003610851936915756
0.0048510541117062255
0.004128362731681205
0.0024071829706240823
0.0006323421781998682
-0.0005672401365083898
-0.0009788506452263917
-0.000747970362183936
-0.0002292045653521587
0.00018788512273543195
0.00022944536529911566
-0.00016479545614923684
-0.0008122664128425864
-0.0013349508879800546
-0.0012834478313722994
-0.00032236996683167237
0.0015635994990769312
0.003913481228337335
0.005773920603945766
0.005904032760445597
0.0032271316365561093
-0.0025464153317811583
-0.010327619734923963
-0.017394585200767528
-0.019797191724461552
-0.01361157482401477
0.0030617228709981475
0.027872851724476767
0.05267315925251762
0.06369613001555394
0.044237600612725116
-0.020215615402152585
-0.1356619685719099
-0.09442482427765571
-0.07383341048024762
-0.04047745948493756
0.04028178789141553
0.19223955414327232
0.21812273904381915
0.09577868405845698
-0.01654232884417818
-0.16666582262127694
-0.1913280096070859
-0.30208895556400717
-0.08038401299756767
0.11566853121466321
0.33507282341388644
0.2150865620880056
0.16782377313027477
-0.02194881228170682
-0.18724532710971162
-0.36228987813946917
-0.1667438956505188
0.002125865133873296
0.1662198116908018
0.15450785232654973
0.18810782109338353
0.06929159505844434
-0.021117554828321807
-0.11729922623781447
-0.05583560375856234
-0.0618421827900336
-0.13874881147243254
-0.06517686915859809
-9.38174376891409e-05
0.10510338919630692
0.09121686004105185
0.1775728472809821
0.1547932107443931
-0.013178076490381916
-0.17816101887703986
-0.19166790714856702
-0.08948934020431173
-0.08242758831996938
0.043973069994023034
0.12148011404977858
0.18679757323642704
0.06981491101538809
-0.01331034763322186
-0.06050674935258366
-0.07874489998002727
-0.07672790716786854
-0.05881213814191285
-0.02259882063184399
0.039182503189679814
0.13374408078258945
0.0627743148760834
0.019107078879671568
-0.012858160438205177
-0.05313810606380899
-0.12030098991270777
-0.026210106602071296
0.026607726136908882
0.044258423751829506
0.03821022801780527
0.021109874855027546
0.0033044190177622325
-0.009002022492153964
-0.01386251530354571
-0.012477085877873422
-0.007589956388864393
-0.0020359143102267273
0.002187624250485076
0.00423803889371478
0.004265183034010166
0.002998529482106062
0.0013054197728221057
-0.00013100472608049482
-0.0009577565235057185
-0.0011411263751073804
-0.0008600901359422039
-0.0003724934339640335
9.41889271043644e-05
0.0004024493914697261
0.0005143677422138975
0.0004666787595311751
0.00033185507363265855
0.00018257681692082585
6.946637311244737e-05
1.4089189351054117e-05
1.3581817950967135e-05
5.085626554341319e-05
0.00010478538967866443
0.00015697109952427532
0.0001943389260523906
0.00020885168893078297
0.00019652084059368163
0.00015753536234441916
9.804490969813371e-05
3.251347817655169e-05
-1.5693591665758922e-05
-1.8059223864301077e-05
4.962628325762882e-05
0.0001933090499160265
0.00038675247726855234
0.0005649739261614601
0.0006329506580283713
0.0004944312115593725
9.84129502763779e-05
-0.000509413143604036
-0.0011528389105868607
-0.0015359569235591777
-0.0013192819005766602
-0.0002615849870907913
0.001604361136279651
0.0038291552349375285
0.005526916523993722
0.005559429034444285
0.002952094656091541
-0.0025287231133464655
-0.009828226086317808
-0.016374231887963206
-0.018468410920848007
-0.012473776341668054
0.0033064352269431318
0.026548783969475947
0.049476641294107816
0.059058641430351624
0.039546600723571045
-0.022711023606793054
-0.13336084225102804
-0.08522271764078539
-0.05697150140726913
-0.01678782506709247
0.06947512192961833
0.22812461911475168
0.06919088011560345
-0.01691655038468167
-0.056281512546361295
-0.08319953142803878
-0.13004819669469866
-0.018994049864714337
0.0419596923020237
0.058083062917088445
0.04352630937906162
0.01564566770999516
-0.009986542894755649
-0.02285355295730011
-0.018951838291604645
-0.0008473048353105947
0.023248355433783358
0.041233545967577126
0.03977818745493825
0.00784922580804188
-0.059469020042175365
-0.1581456376991307
-0.0750384550278444
0.008462769532119852
0.1094656666169729
0.23583310386524428
0.18148003789363698
-0.07217250294001722
-0.14823085200507682
-0.2630688013867591
-0.2172818338549035
0.006237606624515561
0.23566332128949058
0.298179521258871
0.2087515492406882
-0.03437816994267453
-0.2453588616669153
-0.24051479930555678
-0.22851760786223804
-0.006871485185134372
0.23313577559839851
0.29588585024771447
0.17160461598603904
0.03348879136312625
-0.15556539138118844
-0.22901824746573993
-0.20167547716573203
-0.06041188229887506
0.035122387529287646
0.14188010881666022
0.11692702394093038
0.20113142553371774
0.00855388524406427
-0.07548926259912053
-0.0880946719989974
-0.07735781353444733
-0.09016249718603576
0.037273905795288505
0.08440302216934424
0.04712596702007249
-0.06430303438631513
-0.028914952360111563
-0.01953184613729741
-0.007920873603949847
0.0298124350392051
0.10857136271714272
0.031716500940407406
-0.00827152387374536
-0.025751615827849902
-0.03559916931739154
-0.04662750413347443
-0.05697525079973997
-0.05314433367515237
-0.013319496183946372
0.08573466084527406
0.06020098230300252
0.11194743621930037
0.02507969614286672
-0.032317311292000335
-0.1017055593824181
-0.02496873405399083
-0.03539445763182445
0.048951701367460125
0.028328177210284782
-0.07917685682229005
-0.041294929418920684
-0.017802558343010828
0.03154306791364859
0.13888772158201634
0.1221450432560919
-0.017129629639783175
-0.09111898927770376
-0.11963437535242634
-0.12331530665745814
0.08101777279507424
0.08153269244234879
0.06983755351928589
0.0387825314982031
-0.018501490885683942
-0.10773862602920478
-0.03163827432849351
0.011525557256452826
0.02783740761951719
0.02612194165112274
0.015580982180162128
0.0036949687672454446
-0.004939763503628876
-0.00869359137016776
-0.008178007465492135
-0.0051666165016205435
-0.0015854063271762433
0.0011639165728813618
0.002471116939106875
0.0024436851620137697
0.0016330196735061873
0.0007063064669611567
0.00017276222973942602
0.00022284059543938327
0.0006966441966064114
0.0011705887996400044
0.001135477288773522
0.00022576468483860563
-0.001557221495005101
-0.003703857196229288
-0.005220632972450189
-0.004885361268642062
-0.0017381528372857249
0.004286572319505189
0.011796515069996781
0.01773652175593448
0.017817019001664
0.007689934721531862
-0.015321545417859373
-0.05050688032347794
-0.09289087167784119
0.0660855303246015
0.036214177290048395
0.025266845991621663
0.03620041922483777
0.06606172443196641
-0.09291738518925456
-0.05052581449782423
-0.015321676619442118
0.007717037967787628
0.017872029137342496
0.017807789379035703
0.011858505670538609
0.004304017480575504
-0.0017989209386306015
-0.005039175933204615
-0.005445378506475403
-0.003929907471337974
-0.0016740751058754648
0.000338880051362781
0.0015561546136674096
0.0018700017891817627
0.0014919934271410483
0.0007780205390982855
7.488541565302118e-05
-0.0003756674541826654
-0.00047217907865487084
-0.00024439139158256834
0.0001791125924324863
0.0006119328546523821
0.0008550133277075934
0.0007478614170849589
0.00022611515626639185
-0.000623930017532449
-0.001536193836252516
-0.002091565066054251
-0.0018255820318325944
-0.00041771112069235013
0.0020784458594169638
0.005051091890518776
0.007309728393350833
0.00733483654132041
0.0038337233037647384
-0.003491864614322227
-0.013221072197315203
-0.021915583343336806
-0.024646679891931554
-0.01657754214463626
0.004545422446713544
0.03565279887072203
0.0665003091093268
0.08001923157108103
0.055806828665386755
-0.023351539354799708
-0.16356252861464582
-0.15354713695393343
-0.1634459845242347
0.049150159277565185
0.12668147438603486
0.29664509293321917
0.16018088922585924
0.08956191791927662
-0.16345299315140116
-0.2511252387609877
-0.2115219124828789
-0.055826666326439726
0.03404692519641889
0.09719957154101949
0.17870942618567212
0.1138948410061128
0.11763390166105198
-0.01789838202247272
-0.1171461371027876
-0.21002078816920103
-0.12073791089582032
-0.0612706256929307
0.16847642351845998
0.1751089635444273
0.16470885430024576
-0.06147934239377855
-0.1065521203515252
-0.17368805218073644
-0.061350805468389426
0.03884675885344175
0.14037454388024154
0.05729962594242368
-0.00038864498822134156
-0.02947552090208824
-0.033523612302389635
-0.020847440531451145
-0.001693376428191919
0.014366666743320922
0.02038127758491059
0.013313226664264514
-0.005184821800357506
-0.028556999389911315
-0.04602042022296796
-0.04457032175917687
-0.012477308143036173
0.056261006717961304
0.15793491793024464
0.07756435410658367
-0.008677208852428881
-0.12703923577397333
-0.0977917288834544
-0.12819598845808844
-0.009911666628488674
0.077958670457992
0.16148683403437827
0.06336709444220522
-0.0033528984361233766
-0.037188028737602276
-0.04586296445984795
-0.0414874262180649
-0.03563765857850733
-0.03625866801827054
-0.047256955775805555
0.12956027565762065
0.0916195617558163
0.03375417084551081
-0.05102834160584619
0.03203698456900618
-0.11547155920663459
-0.08093384743670759
-0.039551383469294134
0.04240763352101463
0.00026844404501587656
0.06136799200401772
0.03601015259344997
0.11177465015287168
0.053265749060303166
0.00806413778155057
-0.08208922581914437
-0.0675944009822047
-0.1785999913143134
-0.017620812515689286
0.040595437289917095
0.0420400081061738
0.04157377195514763
0.08977156633503443
0.02197841773509668
0.052049509866758666
-0.028254660582593693
-0.04479679502017984
-0.03331180691307455
-0.030743951131623756
-0.06785619537700761
0.03548202057974854
0.07197753082953978
0.046167680306265654
-0.027720541569372214
-0.12857751410395737
-0.03184599764774409
0.08616489648211385
0.04339693907422202
0.047852753485524896
0.09576744746896945
-0.026803817280115452
-0.13928066911156925
-0.060426069875689735
-0.0031425413180341147
0.027979494620941566
0.03595162592758405
0.02848195065192795
0.014441821848707782
0.0010435468821876769
-0.007595475943580122
-0.010502186079807081
-0.008952113305825668
-0.005214392712570198
-0.001433917932745264
0.0010615613365299531
0.001960268373347314
0.0017619298610256247
0.0013401444829900908
0.0014537518998216344
0.0023617792744757764
0.003653005094346833
0.004351295845787396
0.0032980487791911457
-0.0002638042428976829
-0.006071084397853444
-0.012437100523377424
-0.016346605823813237
-0.01426372811366923
-0.003667017487835686
0.014991060622543555
0.036549258162073925
0.05049844189309924
0.04222785517084041
-0.0035583109808427055
-0.09784050771110753
-0.042200843960959404
-0.02560445128007866
-0.024608627832608653
-0.007477009951397789
0.05860380860808
-0.0009940752949623949
0.02412771308828193
0.12507486845604343
0.07423480488203243
0.031402572183605114
-0.04542944638509952
-0.18736811351758426
-0.2042029328203482
-0.08054027145703818
0.019134263459232633
0.13750358935194726
0.30813509596280125
0.14230563121873024
0.024503819549570444
-0.08129302468637914
-0.2170305133401179
-0.2136500207825093
-0.07866254821206392
0.006989186321346674
0.0819280481666815
0.19037722378549898
0.1668740915114356
0.02536339155593433
-0.04379864488297811
-0.0687353619911753
-0.08564063846842687
-0.12735141938309366
-0.014850219217618987
0.04603068206695505
0.06264918645520413
0.050144873747113274
0.025189277950525366
0.0011106327002089228
-0.014498904343008615
-0.019744951449761572
-0.016773987713888758
-0.00954595202714464
-0.001901719070589353
0.0036021755690043666
0.006021522070033816
0.005725969518521249
0.003799707470064202
0.0014395899773949786
-0.0004604416170811663
-0.0014774938287991537
-0.0016189565342563886
-0.0011623646175697006
-0.0004697336356656589
0.00015631233643988732
0.0005450752546805361
0.0006625432296121525
0.0005717747372760962
0.0003775585300507562
0.00017838917144039827
3.806021456475813e-05
-2.1458470590399653e-05
-1.14490985311957e-05
3.9374308044861056e-05
0.00010031167263692379
0.00014902509803233865
0.00017538675142196597
0.000179983268531174
0.00016971768538343707
0.00015302010123774084
0.00013643903264028972
0.0001233341037798394
0.00011443698042488336
0.00010943248451781212
0.00010851226324996997
0.00011303049187920378
0.00012484432797902703
0.00014452112088937473
0.0001691873703088978
0.0001912045333942797
0.00019889648721383655
0.00018007221221400324
0.00012805442892476447
4.8521836498299575e-05
-3.585594523903838e-05
-8.66048712066383e-05
-5.9236400948798305e-05
7.823706672370728e-05
0.0003221757180124189
0.0006143374732339841
0.000838836596235215
0.0008457840237293039
0.0005054342984720545
-0.00021615403066799774
-0.001184755901223316
-0.0020664928950298368
-0.00237645286451147
-0.0016299206058705698
0.00041880921825392277
0.0035169905794855748
0.006749392327826902
0.008606103374895186
0.007383579733558862
0.001914885438750808
-0.007539916665489567
-0.01859050618800789
-0.02665964617670073
-0.025986627894337526
-0.011833580114326371
0.016451425628051713
0.05244839475164093
0.08114094304363094
0.08025029147628267
0.025157375916251046
-0.10320905798523367
-0.10977852730849394
-0.17943922312466512
-0.07705441679109841
0.045202672764849426
0.23473477704666865
0.12394888053622331
0.11968342237789073
0.0008010143626335634
-0.0750481822779025
-0.15799336412670364
-0.09066807879044472
-0.09625277459903028
0.02659505311572461
0.10104267665258315
-0.03664619200825658
0.05145756494409815
0.19441568697696213
0.005656088896411994
-0.1185498702034852
0.004301873807851135
-0.05072793965282978
-0.10941930384794067
0.006359583272730511
0.0807154756730502
0.10370851373132589
0.07082447350881264
-0.01657418897391114
-0.14957770076758534
-0.1102368309744376
-0.07249978730011236
-0.007117855719166828
0.1100137344467376
0.2889748606861291
0.12058878677019726
-0.021754000914813047
-0.1727193238375074
-0.16133810815050942
-0.19872246842532038
-0.07270094458932502
0.04793229888989504
0.20095084977308936
0.21498318529020707
0.09702101186036094
0.02833677599937192
-0.029465435518993912
-0.12060355762122757
-0.2788264355606774
-0.11498330773584124
-0.013347255839914748
0.06179546615811338
0.15187443824088556
0.28774688372511775
0.07781650377378532
-0.09488764396156255
-0.06584012285740916
-0.07540221582262875
-0.1537844716181414
-0.10989872551956141
0.07241139651427322
0.029983758402609976
0.00967837524025109
0.0550737393869954
0.1945830339766603
0.034382129063111264
-0.041959715077389804
-0.06738328520540995
-0.08117343037936826
-0.11835174224317813
-0.001989862182062273
0.05972778841034111
0.07189146461353388
0.04850184573398109
0.007636839039231781
-0.03224081415394882
-0.054452356428571394
-0.045355446092424805
0.00446204998321774
0.09869290602314533
0.033988043964395344
-0.00026940524644673613
-0.020464131942587234
-0.04577204453192555
-0.0947675708600508
0.017146256223154858
0.07883445302478842
0.0834134170471603
0.028214922592552722
-0.08433739316219638
-0.045019155088994144
-0.03642706487685838
-0.03341172094914759
-0.006157200887252059
0.0744149017902306
0.030304533655906307
0.07107299541157507
-0.008839322559474515
-0.029307752503075452
-0.020571004522421176
-0.0173591223151417
-0.05262191179729957
0.04790580470382151
0.06965662058302355
0.011584121601620413
-0.1130876027678241
-0.07808832406619481
-0.04800530745803795
0.014839315478628368
0.14154449241160358
0.14830431221960413
0.03167617421089177
-0.030417462021690277
-0.0719881873772524
-0.12890732669488866
-0.02899423573667864
0.01456293119104447
0.004833324282144749
-0.0419709744452666
0.09720416161737706
0.04493462783399641
0.017151417455041226
0.019778281462052492
0.04884972265124928
-0.10636147005769103
-0.058626969142396915
-0.018319856466699685
0.00917666891683407
0.023588642045349332
0.02790941476507716
0.025820633554180863
0.01966642071346992
0.009836794346265514
-0.004249913187037576
-0.022043298580800542
-0.039608350455258935
-0.04838368557232417
-0.035891241239396784
0.011308489766869588
0.10306353387562568
0.04101066659971172
0.015752886987595142
0.007188019422937504
-0.011796256941289756
-0.06922693951518485
0.012759134843418968
0.023631315188010326
-0.03233965306817169
-0.13631860950999794
-0.05898884977630391
0.03182080654685089
0.16151517684688643
0.1401185981381896
0.1582788526367904
-0.00962537631272813
-0.1955564256129195
-0.22457015226430277
-0.10369996159542072
-0.01784151455186148
0.06548710541667462
0.18450664553475263
0.16948646909780435
0.032417611680504256
-0.03626987737984559
-0.0633749370083829
-0.08338478333032753
-0.12772129890536202
-0.01659735787921973
0.044232916148441354
0.06168364894162893
0.05020160856365103
0.025799846281586245
0.001415436388453328
-0.015337163063828183
-0.0220949436925851
-0.020193033164155102
-0.012688680682939286
-0.0028046370453945614
