0
2.0783185799878135e-17
2.0785516933594567e-17
2.0894022669059935e-17
2.1116856405771057e-17
2.1410561078671888e-17
2.167152928905305e-17
2.1752149825966786e-17
2.1508012020431683e-17
2.0870931683729592e-17
1.9926797746561664e-17
1.896267342187204e-17
1.8442093941052962e-17
1.887905766095693e-17
2.061400854363513e-17
2.3545322734724995e-17
2.692280081306286e-17
2.934092655798179e-17
2.9051165116885094e-17
2.4624574625372467e-17
1.5841516822739016e-17
4.5018161368823956e-18
-5.290068293870664e-18
-7.810114464085235e-18
2.4044032340629525e-18
2.7711117421799667e-17
6.439839062736501e-17
1.0099168629690098e-16
1.1940260507295785e-16
1.000042910727251e-16
3.041094106897274e-17
-8.421531155055205e-17
-2.1352302513768634e-16
-3.023085454787134e-16
-2.832963915825932e-16
-1.0328699267749214e-16
2.424554862904826e-16
6.797393833419258e-16
1.0461965949679205e-15
1.120120236337656e-15
6.952838205714257e-16
-3.0844121730796554e-16
-1.7324055415275442e-15
-3.1187731435358e-15
-3.762494163814539e-15
-2.915275901477841e-15
-1.2925579072038013e-16
4.3479046937474856e-15
9.291368474191378e-15
1.2535562193576678e-14
1.1495378263448738e-14
4.1966529519264476e-15
-9.39631852134781e-15
-2.623804435212542e-14
-3.9914288755157216e-14
-4.18478023916096e-14
-2.4269869132211783e-14
1.5481829432284003e-14
7.068726280400295e-14
1.2311000059626103e-13
1.4529998675844287e-13
1.0877356021274938e-13
-2.5492073467211047e-15
-1.7722051487889432e-13
-3.659285724236084e-13
-4.838219290839927e-13
-4.316975142409671e-13
-1.3655961784522764e-13
3.971949112707595e-13
1.0450224737394754e-12
1.5538732074455217e-12
1.5923096147582785e-12
8.683464688203708e-13
-7.037541537200578e-13
-2.841517313154756e-12
-4.819741915063723e-12
-5.570921219618312e-12
-4.0126450705092084e-12
4.276187957648821e-13
7.234421344720396e-12
1.4426856979692282e-11
1.8684193991225124e-11
1.6204715864462064e-11
4.300098895666708e-12
-1.663348454352845e-11
-4.152026994104041e-11
-6.039015080902759e-11
-6.045130349858914e-11
-3.0756422024139613e-11
3.133163215792132e-11
1.1401672081750802e-10
1.8850526251409357e-10
2.1333039839355923e-10
1.4743166299068314e-10
-2.9373776797523344e-11
-2.943266239129007e-10
-5.680167096916938e-10
-7.206358696954643e-10
-6.06697245511083e-10
-1.276334953721393e-10
6.923938578218535e-10
1.6471660341563116e-09
2.3443637449008794e-09
2.290890879548166e-09
1.0773873842557829e-09
-1.3714275411889473e-09
-4.565745721211155e-09
-7.364061362304753e-09
-8.157460691721303e-09
-5.391226298407808e-09
1.637512167360715e-09
1.1938952068193789e-08
2.2335930932120652e-08
2.7760079347005665e-08
2.2651891879601233e-08
3.4154834523162457e-09
-2.866954596770128e-08
-6.524883922747398e-08
-9.090405512230499e-08
-8.66511563836321e-08
-3.7226453313018684e-08
5.923176301524435e-08
1.824868111812926e-07
2.873500390443121e-07
3.1146772883549846e-07
1.960870246531735e-07
-8.289952331494178e-08
-4.829640948142133e-07
-8.772249186491016e-07
-1.0680143050936265e-06
-8.432065928106499e-07
-7.236573760069014e-08
1.1815582099264986e-06
2.58100476752503e-06
3.5207666535099764e-06
3.2708966122308265e-06
1.2640359538413864e-06
-2.53060916078303e-06
-7.280653067788629e-06
-1.1199729462744099e-05
-1.1874125709275238e-05
-7.088173612694054e-06
3.968877500467612e-06
1.9487850663954497e-05
3.441055064898416e-05
4.1036706233119015e-05
3.1285264761676046e-05
4.558681993316684e-07
-4.849246373675264e-05
-0.00010195385784471187
-0.0001362010666300729
-0.00012320397949066743
-4.194596367856796e-05
0.00010714770844052564
0.00028997351523765523
0.0004360079702561852
0.0004519225642948251
0.00025433952234027533
-0.00018330416246654937
-0.000784690154684078
-0.0013485126194576842
-0.001575128623376675
-0.0011571194568338453
7.379402341218065e-05
0.001983215316401124
0.0040249286696294965
0.005271607400681439
0.004651544853315484
0.0013944456040628167
-0.004412082214720819
-0.011365773236100357
-0.01667721761889361
-0.01674435478871199
-0.008475146716586758
0.008841352272907603
0.03168602268695143
0.0513490005491691
0.05475396964617708
0.027565534638528573
-0.04078105618736425
-0.15159318602820032
-0.09328144963534549
-0.04179476601851307
0.03397653724087584
0.16312173178758113
0.16321041029153732
0.03423509333856669
-0.04139797486575426
-0.09282324875005618
-0.15121112413856166
-0.040662470474517785
0.027235597175778135
0.053883958679934556
0.05004568823461015
0.030325024016470692
0.00804524652833627
-0.007995811798069137
-0.014488671159388032
-0.012723030223659178
-0.006668453261810637
-0.0008434269387782472
0.001438343739568967
-0.0008689901165640631
-0.00627802031274989
-0.011293368896357429
-0.01164912738947602
-0.0040761811824843045
0.011761820684321389
0.03174824938807169
0.04694587770295418
0.045036313764758015
0.013768924473810519
-0.054199236171404264
-0.1566433494452424
-0.07944300308933672
0.0016322974935949407
0.11476160727612333
0.08333560033712883
0.1178865691485588
0.011856343514065004
-0.057191906521468334
-0.12153169523233909
-0.014771491146898984
0.036239804884015174
0.016999636314682133
-0.07241498650243564
-0.01840421143291727
0.002288930639882454
0.016727505684105595
0.04928055528357129
0.11624303661489971
0.02327740466508587
-0.03341522813231657
-0.06266062117934885
-0.07246613445606978
-0.06528602186956203
-0.03648801950927622
0.023227344868735685
0.12239079686147317
0.06261151717199162
0.03444344582921218
0.017259794956966536
-0.01647065938561912
-0.09381585188157512
-0.033376349521822724
-0.03935303767781396
-0.09974853342807755
0.010530934932619617
0.12248020878518708
0.06395601408811617
0.05182672743618516
0.08799101251123387
-0.03951058031081347
-0.15101632899355663
-0.06775752207018475
-0.005330293576422916
0.029670967494344266
0.039332787985523664
0.03146270135649571
0.01573348255964207
0.0004457396252352844
-0.009293611317798812
-0.01191644968383175
-0.008680771939542144
-0.0024693744100221862
0.003432913505606955
0.006328215986102229
0.004792253030036037
-0.0009279748979475215
-0.008820228715749862
-0.015411211343107491
-0.016602889567778417
-0.009092751303401453
0.007803003479872307
0.030432981115376286
0.04999271372128395
0.053437866669896944
0.026588575110787886
-0.040938916640122294
-0.15040447366684107
-0.0904581073821786
-0.03763932756342237
0.03831997377031924
0.1657132955160739
0.16180815105829824
0.027245685054790268
-0.05372677369832476
-0.10743001632150198
-0.1620941527634235
-0.04018559453220664
0.04535214447396504
0.0902586904437658
0.09514981913334222
0.06154405640335162
-0.009932652776796724
-0.11845727983494433
-0.06014948480838981
-0.025562293028164706
0.0006453989004467488
0.03730496597918385
0.1024877700257803
0.009111112477000388
-0.038016851570684275
-0.04299752733858849
-0.017778211678263225
0.019994862043134755
0.04963445234221271
0.05050761015294326
0.005696267496753862
-0.09402790388201183
-0.04689869806221241
-0.038997122439536645
-0.04644559853549114
-0.04109684184217278
0.20157475203937833
0.09490580837112222
0.03674426072573842
0.01046492701494721
-0.008710084139659013
-0.24438319486178564
-0.11036265576201953
-0.006321420461796935
0.08053430289495418
0.16884442688021647
0.07484173908150274
0.006242909778162581
-0.03940409084678579
-0.07196471431442084
-0.10351075122129466
0.05676127875099863
0.005573650389223262
-0.05403308399855785
0.08560049525282433
0.034074585204912425
0.00043095178084661556
-0.008377772537246775
0.012076212997293672
-0.13620369647082853
-0.05388803951526708
0.05450265522077357
0.1788845486936526
0.10286877933941987
0.005778293968987637
-0.13201768806733352
-0.122095223440506
-0.16263436025465466
-0.03801229655841302
0.07541064703005926
0.19905334683646692
0.1416565801712043
0.0934859374874222
0.028412987823960546
-0.0861819115947959
-0.27519197075355917
-0.14292591019001363
-0.06717412532366805
-0.0032239303674853337
0.10315277424960093
0.2984721522517911
0.2067631883518267
0.023248872641182895
-0.08078515197950148
-0.143841824107699
-0.19662604060093983
-0.24835468389224288
-0.08284399551893751
0.13353182259686777
0.2347135551592555
0.23531879665467123
0.11644132481996337
0.02275911859497203
-0.12763721783954177
-0.224048739389408
-0.14102083005481275
0.08006119619520875
0.04118700410903167
-0.011424795194987784
0.005497161324881032
-0.0006625931904815985
-0.11495333177143673
-0.03307177120497174
0.12094702397792503
0.18047934735743149
0.12902636153063843
0.10288998989636687
0.004580792357228865
-0.2756797665431432
-0.23617967816848076
-0.14483280109853722
-0.030876454899369063
0.11118516490803006
0.30853056220373803
0.19434361229935626
-0.0036789347041122702
-0.06661306769864758
-0.17979053016739208
-0.12460641378653127
-0.07205675491547237
0.01795039678432868
-0.009624063356874754
0.0837716665048826
0.11778839668089033
0.08392895532648009
0.14326681620753795
0.03295639510862425
-0.11932148195152616
-0.1766394689216287
-0.17542779987551746
-0.11507096406465758
0.041994776589523115
0.15983244453775183
0.11195384560724095
0.16338763373194767
-0.04283640275076036
-0.0918677891368548
0.004046339750812027
0.011661074325585073
-0.11508219944294781
-0.02727491361103638
0.024768778477679047
-0.0051325575601474435
0.042494837043544655
0.13388238165706418
0.044226481643572416
-0.03819481727408367
-0.10660394132593662
-0.13112854308323932
-0.05784049944144466
-0.013466706004679932
0.08420763712038126
0.11252823072851324
0.13052953061740635
-0.030379475750581135
0.030653433651398006
-0.11263219622367636
-0.10575797065100609
-0.004048784321281702
0.1361372463757927
0.06453156552954833
-0.05742064241122263
-0.05225814577860365
-0.1242079971555514
-0.060244149570740535
-0.035394134832082674
0.17839366819794192
0.20241172198488214
0.044011363483880815
-0.10505320602577352
-0.06429971826656042
-0.05642873728775718
-0.09903378264879609
0.0007985124781604294
0.04755126028976038
0.054422908332101734
0.03832178718712208
0.014871038209777004
-0.004951225411738272
-0.01592447684113521
-0.017772924248129537
-0.013272534014786248
-0.006190337912646969
0.0002838357582052241
0.004329121781926217
0.0055593831548282355
0.004614787180091206
0.0025830400179762134
0.0004940833004643916
-0.0009810458675855883
-0.0016083775071504324
-0.0015038588147613327
-0.0009689023211404038
-0.00032838701808280817
0.00017922052865454699
0.000444473670610355
0.00047368591430715885
0.0003444486953083472
0.00015526069859661418
-1.2863149173604659e-05
-0.00011523176016997255
-0.00014407251037397843
-0.00011739571863426285
-6.390922319752822e-05
-1.013762672790461e-05
2.7046994275949576e-05
4.21412588809672e-05
3.8551303250924904e-05
2.4258542223359884e-05
7.650538094668901e-06
-5.243617934800241e-06
-1.1767155769579014e-05
-1.2225552965400901e-05
-8.703361032071734e-06
-3.7608048988863868e-06
5.392563636896091e-07
3.0919180460503138e-06
3.7429475962458243e-06
2.9877332221405594e-06
1.5782287756523768e-06
1.9424886266788636e-07
-7.420206445971352e-07
-1.1030538289316796e-06
-9.875333716112439e-07
-6.065011459549032e-07
-1.762848358757298e-07
1.5089979585530767e-07
3.1086782148577516e-07
3.1514932593132903e-07
2.195868469754854e-07
9.064801085984693e-08
-1.9202942033533625e-08
-8.272193742662077e-08
-9.711807176372512e-08
-7.594318577890767e-08
-3.886400106372899e-08
-3.283779309748944e-09
2.025317465308206e-08
2.8830465463810784e-08
2.5267578064621122e-08
1.5134124989251888e-08
4.0030857818280864e-09
-4.288224593073122e-09
-8.197284446985123e-09
-8.114573903054229e-09
-5.5318979236694854e-09
-2.1727328023063775e-09
6.302769923167896e-10
2.2073294466578556e-09
2.5168877496641565e-09
1.927897388111122e-09
9.53993623441624e-10
4.0211658605222105e-11
-5.505771295557764e-10
-7.527228986902852e-10
-6.458390576199151e-10
-3.76648594858319e-10
-8.862643187472846e-11
1.2149488262451782e-10
2.1667864882944878e-10
2.0920022718029254e-10
1.3875927814651714e-10
5.0147677316457284e-11
-2.2418823400104436e-11
-6.19210879847665e-11
-6.745144005785548e-11
-4.868008665826838e-11
-1.9285574368174552e-11
8.251060149241797e-12
2.551134772959421e-11
2.8887047272706085e-11
1.9061881389363162e-11
8.83773471017783e-14
-2.1499231976104164e-11
-3.7634116298472344e-11
-4.017072954419501e-11
-2.322318803042266e-11
1.374319184406274e-11
6.299125754828311e-11
1.074075998231511e-10
1.230565773921587e-10
8.651202168446694e-11
-1.3691622542556237e-11
-1.6466179654457142e-10
-3.213748170377803e-10
-4.1010613172699675e-10
-3.4795387166617967e-10
-7.82375210529275e-11
3.8642588630131816e-10
9.301362141034626e-10
1.3308557878022526e-09
1.3081851566319763e-09
6.276321919190977e-10
-7.572080352506347e-10
-2.5726231253305434e-09
-4.17386416596874e-09
-4.6475171546335345e-09
-3.1056956802243007e-09
8.615851294107791e-10
6.706976408892535e-09
1.263987307873817e-08
1.5787229718292173e-08
1.2981164560020005e-08
2.149014649771162e-09
-1.6029520534782372e-08
-3.6859791491050996e-08
-5.1615406569756255e-08
-4.9498609695716814e-08
-2.175932877321218e-08
3.280408865552378e-08
1.0287134242214024e-07
1.6291090317650845e-07
1.775137833449466e-07
1.131105568705097e-07
-4.4417269424004824e-08
-2.714894774746113e-07
-4.96566404456826e-07
-6.075678615286252e-07
-4.835773429202513e-07
-4.9303040989845324e-08
6.613349710718922e-07
1.4585312161180972e-06
1.9996537358179836e-06
1.8693942188643296e-06
7.422559970098434e-07
-1.4049057237501004e-06
-4.1059832745388386e-06
-6.351345672462471e-06
-6.7699255757123745e-06
-4.095117592003787e-06
2.150382503514801e-06
1.0961219056784421e-05
1.9484253453420444e-05
2.335213432706073e-05
1.7956714777078318e-05
5.802691044912703e-07
-2.716790167468425e-05
-5.763302585392725e-05
-7.737831012404613e-05
-7.045081653873449e-05
-2.478301406381717e-05
5.960470417729349e-05
0.0001635974701547555
0.0002473223676837311
0.00025774875372387316
0.00014718382178723592
-0.00010012754078450599
-0.00044170284565428025
-0.000763955080641193
-0.0008968914242864777
-0.0006651221433772259
2.8906016276487134e-05
0.0011118094700029546
0.002276527959211013
0.0029986012305798825
0.0026694631268944793
0.0008491593382986673
-0.0024166524545386984
-0.006334621931454107
-0.00931889523505961
-0.009315445396079662
-0.004558551137798596
0.005344581642549119
0.0183104674085234
0.029128138051068196
0.029740911780617885
0.010710061356193852
-0.03637302792683018
-0.11634673903375793
-0.028990120160164612
0.0304987625391911
0.06911900855546674
0.09304925942028568
0.10588335994543237
-0.09051610287641387
-0.09268814870334521
-0.09158044576082128
-0.07048916599119247
-0.006839149521931797
0.12212834339290547
0.13170864372989374
0.023214043117572365
-0.01868861349611385
-0.023695428576983223
-0.02950931768144175
-0.07355797007434654
0.014827484911287284
0.019939672612288274
-0.05801085818950739
-0.003944709641473712
0.008161092467690277
0.009358265313554513
0.02908658238250212
0.08930462275115635
0.0007707215602254828
-0.03772541914150307
-0.03729710255446011
-0.01503192807016665
0.010495425397149608
0.023244770444080274
0.012777281349467366
-0.02377546628731165
-0.08097544487391604
0.05417617842859645
-0.00013352836814912292
-0.024267518153180068
-0.0015328892805026252
0.0777154701340911
0.013231317692804705
-0.00590195931106796
0.00037665102425441676
0.006883190772718473
-0.011793905084347602
-0.07623781503712071
0.0016733802043984102
0.020524474285337903
-0.011374540014926098
-0.07893862961077397
0.0353333873558705
0.14678124667356357
0.06527677228567796
-0.005440197482756082
-0.06538599563859966
-0.11411479746733603
-0.14708995792367563
0.044972529072268334
0.07288683038880793
0.14316430316110482
0.05240519532250614
-0.015204987867183231
-0.08588040126138065
0.009737416261068908
0.044605182776213365
0.0031635620891605704
-0.11280348026614358
-0.08192527371020816
-0.06589494889370329
-0.01743891255655103
0.10757748266502472
0.13692657484787324
0.07182457078358552
0.08361481031001214
0.11938584825666827
-0.0841193299541711
-0.1817631778411524
-0.20204271436671095
-0.13607206643874356
-0.13806125638509711
0.0618327577398727
0.3359153390645263
0.3359158454069506
0.07689288797600652
-0.06597969297380572
-0.14704008333487548
-0.23092235428746943
-0.17223714959006853
-0.0013630712620640235
0.07972893738947434
0.09195046855302134
0.06750606698347414
0.03709687621728729
0.020024409205131093
0.019530744409349144
0.023880107266942688
0.01226321368997469
-0.0363891290648145
-0.13426928453446688
-0.07809305891192078
-0.04745865675017716
-0.009205838908620003
0.07324348661414687
0.22856754955112052
0.06828544996416203
-0.01695860516333296
-0.05419998729135858
-0.07944019592226587
-0.12683057494263017
-0.019580895487384738
0.03470394733008952
0.04349696992263952
0.024691337449640798
-0.0001610969355860246
-0.01271331089321661
-0.0033608436893635737
0.025416835550626314
0.058495783906619685
0.07075862683136949
0.03302153128490657
-0.07953085742047582
-0.07834994284339691
-0.15487629582315257
-0.07916864548827292
-0.005418467429022123
0.11642593969502724
0.12626703591205143
0.24162895699450238
0.052252011350014574
-0.07612600896052604
-0.18999302224858028
-0.13274435122666906
-0.13162771816939925
0.00847491585954771
0.1029593428143845
0.17905610080483145
0.06517857932905427
-0.01769130523335819
-0.060121586327002915
-0.06387424718976065
-0.038858207388824804
0.00047844803805686275
0.0379894797638028
0.05774914997204447
0.045695245577085764
-0.008316052887327379
-0.10802254136405456
-0.0487118002674543
-0.01693941753178869
0.007123997209408581
0.045011883174255675
0.11442726663992156
0.024876709361230098
-0.02390457218899165
-0.04028766816349821
-0.03675162753902075
-0.025286204753408884
-0.013903968660542474
-0.005301159116605636
0.0021666476432126297
0.011775897310855404
0.02505744940194648
0.039000536223284414
0.04497149422255857
0.030040004334971164
-0.019349960592858123
-0.11236733807973917
-0.0492275702416271
-0.019020179171198155
-0.0011449561840911023
0.029792354023367357
0.09711024812856474
0.015413022748278174
-0.013741885819022281
-0.002633609167139353
0.025529893689565118
0.04253591213989456
0.022955709471273733
-0.047731547118260005
-0.16669996780309496
-0.11138429430923923
-0.043046565059537925
0.0834466452823957
0.10586998836299084
0.24128186048297648
0.07801279453129316
-0.023568650976186864
-0.12121224339084352
-0.07496361000109358
-0.13058831246083966
-0.10751330092380977
0.005219025007947628
0.044230216404853036
0.06033542127330154
0.10430448159402661
0.21443415775680022
0.009606461726773395
-0.11068662188926881
-0.16073933359119705
-0.1611833591804135
-0.13392577827468
0.09813295381969754
0.30756734612412984
0.2591689863841784
0.11197970469044967
-0.1706856422924722
-0.20523671315924483
-0.3723520806664458
-0.21022697214130773
-0.02226032572324762
0.30067597224670106
0.24956871730582877
0.26849454350133556
0.1379818928414967
-0.02340215850444368
-0.13938260555721338
-0.14415770376039347
-0.14778613884863162
-0.20846751700551786
-0.11906759973611224
-0.01123267995820288
0.024213919322057124
0.10621407329110744
0.33038420620696635
0.34342714269967456
0.13284324521010202
-0.1647755739329266
-0.23991306024509176
-0.3795433740950247
-0.2409938233773515
-0.03924984441388841
0.24917821272688326
0.26960667291100204
0.26835142170875226
0.07697441949256398
-0.09266626124079326
-0.242500002871218
-0.176355023835119
-0.0890340230094244
0.038131624072035415
0.033414736740037976
0.12454894564599361
0.1267517783780092
0.03371482685409699
0.014978167541161026
0.020751971442117885
-0.007169827494684124
-0.12155918682913115
-0.15703501928836086
-0.1224431426601982
-0.0009723029909752027
0.04188629534101774
0.2454252004240589
0.24091368005443228
0.04409666813846965
-0.1441327094246244
-0.1299703283709661
-0.31649998324005146
-0.09687927031733595
0.14520509447353389
0.22800573081412084
0.1613062194646216
0.1389885530099171
-0.06118943771600907
-0.27020889111194746
-0.11622853437247171
-0.014051993790998259
0.04022380346513557
0.06813898958203546
0.10296216349680364
-0.018177606049450727
-0.06161667193733537
-0.00270494028852831
-0.02947431697561996
0.055301494438017275
0.0336784125820196
0.0741417934411003
-0.06444099838350031
-0.026818647700186854
-0.05443088214900719
0.02086463530947219
-0.018927792424438577
0.023708707177426572
-0.03910306085715863
0.016405183299566917
0.021331891694617286
0.009237491286684059
0.011553264972061876
0.05396169250746514
-0.04589455902444309
-0.07948025886290269
-0.04769832588221477
0.03906319190484015
0.16134633312880461
0.09251328692475487
0.0032709112428096383
-0.1311343603224592
-0.12294882306548521
-0.16649786647632028
-0.03840923855706737
0.09553525741969199
0.2689496214911136
0.10322435825157339
0.0005143953144535406
-0.05595892984360735
-0.09492641518901494
-0.14678306636186186
-0.03424531826036758
0.03284067505226755
0.0575111612491474
0.051667287026074774
0.0303989420589025
0.006974548231564043
-0.010101228939259892
-0.01769469461387893
-0.016894005898955424
-0.011045552414068464
-0.0038492653193034736
0.0019364953808116688
0.005011934575534132
0.005404839326061968
0.003972906611547832
0.0018301728020171384
-9.547830591164824e-05
-0.001283904633259782
-0.0016355143178088066
-0.0013480665197560541
-0.0007458990947656139
-0.00013235027193710398
0.00029709889213185605
0.0004761627338325329
0.00044097133750028067
0.00028119192103100615
9.240747180431717e-05
-5.586005765139603e-05
-0.00013225654608154313
-0.00013935471565142187
-0.00010039163168635544
-4.4433454546198376e-05
4.828990367824594e-06
3.4493488980663865e-05
4.2507448493101325e-05
3.432330584496924e-05
1.844201311767578e-05
2.642622390927016e-06
-8.178295791441367e-06
-1.2474905308221964e-05
-1.130354193727862e-05
-7.037644925806822e-06
-2.143937007424614e-06
1.6210234025868841e-06
3.497768604001785e-06
3.5945531403422078e-06
2.53491842372829e-06
1.074010983492862e-06
-1.8522953612294565e-07
-9.241910559663574e-07
-1.1035281902940524e-06
-8.728753659210314e-07
-4.547826131975276e-07
-4.8528179518668373e-08
2.2349968956240033e-07
3.2576176244154283e-07
2.8878493494128635e-07
1.7539141398014923e-07
4.922336394521115e-08
-4.5474225267665816e-08
-9.06346410241485e-08
-9.050294874247386e-08
-6.218519591470912e-08
-2.555086665221741e-08
4.16771994209845e-09
1.9755212953313386e-08
2.171396923688474e-08
1.5571540936414363e-08
8.310263341950937e-09
5.181312025717841e-09
7.714633272341271e-09
1.329485683155275e-08
1.6318915701688408e-08
1.0652583461370466e-08
-7.206007134798329e-09
-3.518433662688405e-08
-6.411695181420408e-08
-7.886707126438701e-08
-6.283342823510407e-08
-5.502789519606689e-09
8.886779723447983e-08
1.9495874843506154e-07
2.6686158177980634e-07
2.4892924557437093e-07
9.764035983562374e-08
-1.8990329597082204e-07
-5.510134988597085e-07
-8.5030625735467e-07
-9.04284932739681e-07
-5.438804328657101e-07
2.938438890697926e-07
1.4730822928272444e-06
2.6108763606424487e-06
3.12240750353437e-06
2.392053404955392e-06
5.890395663964255e-08
-3.6575338648529373e-06
-7.728625908245517e-06
-1.0353903971266633e-05
-9.400377792016139e-06
-3.2607080884132234e-06
8.049562904832417e-06
2.1957701861541403e-05
3.311740436229131e-05
3.4433688482156086e-05
1.9544448741400983e-05
-1.3618794813190774e-05
-5.93193581299208e-05
-0.00010231218269736076
-0.00011983794340434068
-8.847779430447948e-05
4.688100616544589e-06
0.00014961928377405369
0.0003049358840925399
0.00040012035280293683
0.00035335633105213203
0.00010528952426244727
-0.00033868562781538684
-0.0008735037253703356
-0.0012883532394314737
-0.0013091807080456348
-0.0006970130122626021
0.0006139809886938109
0.0023837030458010405
0.004007181072056756
0.004601479919981109
0.0032804310017012393
-0.0004090602583546542
-0.006010346013709705
-0.011851880286421423
-0.0151649556684813
-0.012815560667050908
-0.0026546942182779885
0.014801861688049677
0.03496786665745014
0.048848947630939346
0.0444656710884747
0.010222353245627312
-0.0604737216367474
-0.16501758210775344
-0.09005933491724885
-0.01434616785515788
0.0840168858509158
0.2181935281696035
0.18512970975019574
-0.03618516989357142
-0.07911068052005218
-0.1781858800218867
-0.15685346731257913
-0.019018605413467206
0.052482516503233934
0.09053780053907347
0.13430620542965058
0.01956825170630961
-0.0279127902891057
0.005304593086388889
-0.0782828954887358
-0.08392305493003265
-0.02157818761970353
0.09572222289320773
0.05219583801344043
0.02938132470314852
0.0072286746311697285
-0.03331865784925512
-0.10690918187672804
-0.020940968256315688
0.025384023132089605
0.039644223357139026
0.033071168170871725
0.017041886863324862
0.00044341714056136977
-0.01146455665715548
-0.016787129523456824
-0.015913174964343364
-0.010322177056173366
-0.001803000528434335
0.007741874915163945
0.01609399253415668
0.020543022616224992
0.01819035800751683
0.006981892472905538
-0.012667172359158369
-0.036240833427361396
-0.05439572206755092
-0.05405180184458223
-0.02173903303828097
0.05130128609380724
0.16390206352094977
0.102067835381103
0.04056744905851357
-0.05037219329726858
-0.1950884287600132
-0.20310403209553451
-0.06467250369553577
0.04618103999534579
0.16190766922386432
0.30909090406604967
0.09912617373291913
-0.07379765681663135
-0.22680745462970547
-0.17800904584818766
-0.13728484138466987
0.09722552460493593
0.135828846899142
0.1897374017695955
0.06379127139909928
-0.04674732188238175
-0.15417002682845715
-0.0728044301211858
-0.013229100285102345
0.02104344141343657
0.0334467953912976
0.03159766613683598
0.023582844493942566
0.014942704883264525
0.007380409887277002
-0.0005557269361057772
-0.01125742942678275
-0.02522474958323685
-0.03874582084422631
-0.043132364923170206
-0.026140576710331324
0.024525888950371184
0.11663741425109393
0.04950906363020572
0.012506572033214588
-0.013060296450870857
-0.04912008875985489
-0.11483515367302424
-0.021649207300512563
0.02886856812445386
0.04388925272731144
0.03577536805897571
0.017771278965940517
0.0004885515124517274
-0.009954885813663467
-0.01207790936171879
-0.00793568039673679
-0.0014296120354388567
0.0034109706515824956
0.0038210582291560886
-0.0008090024646210954
-0.008634392391044292
-0.01573147274456506
-0.017220211632168275
-0.009101366701862193
0.009465005370341706
0.03404641258674642
0.05387627100705816
0.05274780899578402
0.012347027373539977
-0.08236327373863295
-0.03714689365231518
-0.044040744921362014
-0.08054094356108785
-0.11363010540398406
0.09163450924713124
0.16100586557842897
0.10095436211541103
0.09358597874588998
0.09930560050112107
-0.13270704587304644
-0.24916874711895792
-0.07759639947396416
-0.016695848788716237
-0.03544740624518048
0.11915776664790492
0.1086431388656941
-0.01185625869889221
-0.005851781529724667
0.13761041465229185
0.0034964151829927938
-0.04363288285303319
-0.049682066399547094
-0.059456007357158426
-0.10662119238384024
-0.007802517139431149
0.03795039662310775
0.04481271018065457
0.03286520855958893
0.020338081412521934
0.017661179432525615
0.02473108677001854
0.03186536497727696
0.024072680360490248
-0.012496350215023072
-0.08378222609254793
-0.18315101861703675
-0.09121309913059676
0.0186027982514538
0.16969792898829172
0.17072308347242407
0.20777107630380223
0.04455220463289119
-0.16826638297865995
-0.2773915158626926
-0.11076614619196698
-0.0671676683054498
0.08486374847039427
0.19926809350398042
0.13974576527156896
-0.03299590219856858
-0.07052047252603957
-0.14166991571231452
-0.034703264626295076
0.04159044479491541
0.05716774195135969
0.16145111642931861
0.08743910343684702
-0.039443631455286246
-0.08829920287700327
-0.10831948550391779
-0.11718187293018695
-0.09626992350987554
0.005115692699265255
0.057114816349796545
0.13147966807372174
0.08355309103442558
0.1392417469918624
0.09075044531310704
-0.09774802972553266
-0.07634389932456406
-0.09186929351641324
-0.17210014580756242
-0.11648501690372268
0.10401521280836967
0.13843714975006485
0.04192736541614824
0.061074063264645796
0.022507321626177766
-0.07303988886376665
-0.05099424080599479
0.0414373640887244
0.14296428231389272
-0.011821918734045226
-0.081215997283672
-0.10554710010461264
-0.09915372413009695
-0.0475725138533044
0.08904387368999872
0.1673872530440436
0.05016174577954887
-0.003910304682011083
-0.14741382609774734
-0.14903562081898392
0.0028711600724103323
0.09720111478903286
0.2985879924950971
0.15016310091564447
-0.01706923825124644
-0.26863810830868096
-0.24899675401298146
-0.16848397613741165
-0.0005717910503643673
0.10881390077902295
0.22305817046685777
0.19437561557200467
0.0483310019198405
-0.02173814854264402
-0.04948598376563796
-0.08239886522197541
-0.16583168933180928
-0.1296063596956381
0.018930245734052054
0.09412960084927281
0.12521658146540016
0.1471039879864127
-0.007299504214144735
-0.11112007248575119
-0.14424997345363177
-0.09302927001657697
0.048741792570885116
0.07671796026772605
0.1723808835714944
0.10179501345917918
0.01927428019366135
-0.12359615504173328
-0.16586238001909923
-0.12621950937840834
0.0026683652918261455
0.052348650402115025
0.06998428939804525
0.10607064284646944
0.0023933897173545812
-0.01655504551892276
0.05294465187973427
-0.004481655333024817
-0.017523433704756217
-0.020020453053608965
-0.042472775143936124
-0.10532815573027654
-0.015740067335235162
0.03144503869451156
0.04903017936321429
0.050942992514853125
0.046240329952778096
0.03571747658927881
0.012164542991168177
-0.03600566637564359
-0.11923051607788943
-0.04154116637981292
0.0023873794660304835
0.02686432490207139
0.051924998716510275
0.09874787559330844
-0.01443868997372972
-0.07480921447686041
-0.07574610972715246
-0.01686230645807458
0.09591292619187497
0.05017595493720364
0.027664650564679337
0.006560044185409192
-0.03443897804681053
-0.11130823009956123
-0.030906772856739664
0.010188749566615923
0.023578791297803443
0.024323464223734215
0.025244549906019757
0.032147804884427346
0.04151876303075568
0.04154494543064285
0.01642897810603434
-0.0470511660045076
-0.15275858946995097
-0.09079190978970914
-0.03771687129733754
0.03782207367821123
0.1656241220505945
0.16404252357342805
0.03366636506593385
-0.04278689280918045
-0.0943957249929009
-0.15243737144246064
-0.041191186138749954
0.027557878194465965
0.0550033227565829
0.05168319607326107
0.03196967807506252
0.00900457159369071
-0.00843903089593252
-0.016799925361831898
-0.016773473836719625
-0.0114577577807034
-0.004472680741947628
0.0013726024588395747
0.004661035050689955
0.005297964178742085
0.004053738902944045
0.0020045942002357006
8.38043342952447e-05
-0.001157423947778165
-0.0015818647397347855
-0.0013572177820785328
-0.0007919267185700811
-0.0001873549428057836
0.00025356764682457476
0.00045346606935965785
0.00043853520236150596
0.00029233513450537197
0.00010866812523912136
-4.14319128441236e-05
-0.0001234869895346073
-0.00013690015830523269
-0.00010269822599533295
-4.903336720211616e-05
2.1237215216017214e-07
3.13058781683868e-05
4.121800415391307e-05
3.463698660551045e-05
1.96722387326299e-05
4.069163363087912e-06
-7.0723741538206775e-06
-1.1916710747500494e-05
-1.1265977542220051e-05
-7.341215840051173e-06
-2.5686896102330614e-06
1.2520553921265836e-06
3.2791663049705435e-06
3.539270767876091e-06
2.6002145453149407e-06
1.195224392424786e-06
-6.646866520108225e-08
-8.440641944928244e-07
-1.072878429145597e-06
-8.831073675853702e-07
-4.876565806391541e-07
-8.537583722589366e-08
1.95785146165776e-07
3.126358333618405e-07
2.8908401423147234e-07
1.8403813724675871e-07
6.018377708388193e-08
-3.6950509325460826e-08
-8.688903449691243e-08
-9.139287198262622e-08
-6.574400927323236e-08
-2.9014329341541297e-08
3.273367760113911e-09
2.268232716881148e-08
2.7890203840828512e-08
2.24885565355338e-08
1.2058222462482837e-08
1.698485893009213e-09
-5.386152290581002e-09
-8.189338808199307e-09
-7.409380116097127e-09
-4.60543735082366e-09
-1.3951818142654875e-09
1.0711244797183142e-09
2.2976483749009233e-09
2.3572525939278366e-09
1.6599153584911084e-09
7.010793367942776e-10
-1.2422772163421343e-10
-6.076941527188214e-10
-7.241076629786862e-10
-5.719718662043981e-10
-2.9735430497934283e-10
-3.087050042420235e-11
1.4737035191306986e-10
2.1419644686712922e-10
1.896880314691367e-10
1.1503107374663002e-10
3.192312076183627e-11
-3.0616937231610826e-11
-6.06413139447505e-11
-6.07293955908566e-11
-4.1848155938289475e-11
-1.6851940216478233e-11
4.219004058489534e-12
1.62358219772898e-11
1.877659430136282e-11
1.4529227711356064e-11
7.31117891982144e-12
4.642349488015919e-13
-4.012845790173616e-12
-5.594354757363358e-12
-4.850568481444486e-12
-2.8674090991752138e-12
-7.184496897518051e-13
8.65317692413966e-13
1.5976071648583338e-12
1.5627869297102256e-12
1.0534443346375375e-12
4.026789921857435e-13
-1.346446383801159e-13
-4.3263770708385445e-13
-4.862746662544394e-13
-3.685721741740591e-13
-1.7915906875167767e-13
-3.436226123372037e-15
1.0882810434695193e-13
1.4593101918679498e-13
1.2390489486601867e-13
7.133292648552619e-14
1.58277377803674e-14
-2.422186005416733e-14
-4.199770562931799e-14
-4.013049679930807e-14
-2.6412126534934958e-14
-9.473921868710959e-15
4.21040422217178e-15
