0
-7.683226811600056e-13
-7.683620529538162e-13
-7.684400213599918e-13
-7.685405647782268e-13
-7.686272367919676e-13
-7.686492724391386e-13
-7.685582951953169e-13
-7.683335441415913e-13
-7.680081342821826e-13
-7.676840081144896e-13
-7.675216460941237e-13
-7.676949561480821e-13
-7.683133623573036e-13
-7.693304503258947e-13
-7.704763875704076e-13
-7.712612231678864e-13
-7.710885810538794e-13
-7.69487792709645e-13
-7.664188158559633e-13
-7.625419168444742e-13
-7.592987600417004e-13
-7.586554766329305e-13
-7.624381356625629e-13
-7.71351527078797e-13
-7.839810030901888e-13
-7.962594553658877e-13
-8.019320908192744e-13
-7.943691091102559e-13
-7.696153248536443e-13
-7.298917854377458e-13
-6.860860747887402e-13
-6.574170373740362e-13
-6.66799098575292e-13
-7.31694642401475e-13
-8.523436923687991e-13
-1.0016492316427097e-12
-1.1226638478102457e-12
-1.1393283745720138e-12
-9.828621991724966e-13
-6.298843166287381e-13
-1.402872602792893e-13
3.2394450199096265e-13
5.193061817808577e-13
1.934594060075928e-13
-7.95538059193608e-13
-2.34520321341334e-12
-4.017261355219615e-12
-5.058732037613243e-12
-4.590346768746707e-12
-1.9665672668339613e-12
2.7706170949002527e-12
8.513320065901042e-12
1.3015065737094322e-11
1.3337020626698455e-11
6.894439297349942e-12
-7.064001683347793e-12
-2.60217627219227e-11
-4.3537869396656985e-11
-5.014327998747755e-11
-3.624981998772629e-11
3.1937367937994253e-12
6.357894525877545e-11
1.2730204325128712e-10
1.6489652583119127e-10
1.426692794759022e-10
3.6851916017870586e-11
-1.4892510851749475e-10
-3.695185112894812e-10
-5.364242947246029e-10
-5.362262481491342e-10
-2.720297302553779e-10
2.79197231340704e-10
1.0124011763569465e-09
1.6718707419938495e-09
1.88980942854315e-09
1.3025348190880625e-09
-2.679040680657239e-10
-2.618224967605071e-09
-5.042814028737223e-09
-6.3898965296249655e-09
-5.370187132095689e-09
-1.1124580819613776e-09
6.164450085124563e-09
1.4626767778949108e-08
2.079215699548341e-08
2.0288991589683706e-08
9.49460497108603e-09
-1.224467356031636e-08
-4.056808058279019e-08
-6.533895031166731e-08
-7.228773793852557e-08
-4.764546374744745e-08
1.4780135912062308e-08
1.0615518590068938e-07
1.982515324081073e-07
2.4610105798199164e-07
2.0044040649268516e-07
2.949578512861971e-08
-2.552068391080819e-07
-5.793894261597119e-07
-8.062042046478035e-07
-7.67357369576458e-07
-3.2779512510486025e-07
5.284457786245788e-07
1.6212472161205739e-06
2.5493635159075763e-06
2.759813454120387e-06
1.7323275947154958e-06
-7.452663878935826e-07
-4.293652148039993e-06
-7.785640385670892e-06
-9.467579844611785e-06
-7.459970966417046e-06
-6.106714617716184e-07
1.0515126475128749e-05
2.291663998132092e-05
3.122264570732155e-05
2.8962642508266004e-05
1.1117580894371637e-05
-2.2564188394941255e-05
-6.467575381674989e-05
-9.935665540409158e-05
-0.0001052025537895535
-6.259594380348936e-05
3.5588636201273194e-05
0.00017322188002553304
0.00030537004085897805
0.00036371896333412917
0.0002766681260920422
2.7070090104326335e-06
-0.0004316645059471318
-0.00090551984455285
-0.0012082838892311335
-0.0010914452654293243
-0.00036893678182153394
0.0009550793886739864
0.002578162422649532
0.003876095673556526
0.004024751304785837
0.002291795583285327
-0.0015468804756306603
-0.006799169123363513
-0.011664546620647477
-0.013481433725314325
-0.009556089675448855
0.0014797693878768042
0.018110073777471085
0.03476396456520731
0.04173494271750315
0.026711968225387926
-0.022085622183740168
-0.11194715793773301
-0.04232194115261027
-0.003597301677609993
0.0212332923383271
0.05251646148068446
0.10908118101695594
0.004453163245077328
-0.05462336762815515
-0.0673688028025358
-0.03701680617624953
0.030757278958813285
-0.07190040129827154
0.04405576287772991
0.16352144950629235
0.0675776179016967
-0.06359844958784243
-0.04530357418097749
-0.08211583926421581
-0.16380257613171587
-0.06594221305238415
0.04376141403899456
0.19495781409959267
0.2037026642380839
0.0657240257918133
-0.042848314302325836
-0.15722159201232253
-0.11141012868861284
-0.12643057900136337
-0.0036012390033469555
0.0750947286066748
0.14054319543739663
0.026967689515080252
-0.037203171565450756
-0.035693381689827636
0.03279435479339138
-0.0450572940526036
0.10577130453836846
0.05371636033531382
-0.032676702321020566
-0.17750925612498392
0.00843924146249341
-0.06965127444978216
0.007465869637496939
0.06713473585582037
0.13678763157540047
0.03669731628110303
-0.024113860429285598
-0.047841411987745754
-0.04450891602961125
-0.027108330359763393
-0.0072313576673730135
0.0075692175675878826
0.014403982997072023
0.014111985307878496
0.009560141810796155
0.003940342250819157
-0.0004279676865134116
-0.0026000836504793765
-0.0028845926116059465
-0.002319482327603096
-0.0020091978271065515
-0.0025549563022031767
-0.00374494675363309
-0.004594667972712705
-0.00374554944795498
-0.0001367748801549375
0.0062391150900597495
0.013782061672195218
0.019260498004654722
0.018580736351280807
0.008395317314193983
-0.011768071334796472
-0.03760205293770188
-0.05940674742868295
-0.06384013591648195
-0.03860815291162432
0.02035889164423057
0.10105102160370487
0.16983798902403843
0.17157899574874216
0.03762678782117969
-0.09864849269236953
-0.28258600626092045
-0.3216200319667762
-0.17793706133382356
0.22603487524393784
0.39114782732838227
0.42096724709551503
0.00552672417871585
-0.385644974727583
-0.5027757807680983
-0.3140418261919471
0.19082106423763046
0.5907664132229494
0.6242520681356973
0.19081214271803887
-0.23020843291807952
-0.7468606346902884
-0.6203778243335872
-0.2455415745276272
0.2438330507078427
0.5453508617486977
0.5468605632822953
0.29116241708217605
-0.03935134861633114
-0.3136883353458803
-0.4250451807998021
-0.2581849112297024
-0.06442566487309818
0.14801407361074545
0.2080736880123376
0.16607399808947965
0.0760915504449373
-0.01710911638645412
-0.08387608720887783
-0.10917768513012556
-0.08894070448119662
-0.02647134468886584
0.06926846504155672
0.18387191123314162
0.09810837330986939
-0.009025872501065279
-0.15439005756472524
-0.14384371898067325
-0.16795538377557623
-0.003344067430316804
0.17971608118325436
0.2060093999554265
0.08516980989903816
0.00710866222173742
-0.054884175648585345
-0.13472064460815747
-0.06162254178923964
-0.05023477302275047
-0.09610338831575355
0.022236522965547567
0.13560910245353133
0.07386321656766001
0.056569617235468155
0.08792467322897471
-0.042699158260516415
-0.1553148505196211
-0.07154054325617426
-0.007666951363210878
0.029044037628215214
0.04021294332700211
0.0333966879985515
0.01814997282902745
0.0026959907582588313
-0.007923391083707007
-0.012128775597412498
-0.01096222087663181
-0.006770978594322623
-0.0019845887850195136
0.0016766657657572058
0.003478175292228894
0.003537461834711696
0.0024737971196364316
0.0010301871263241561
-0.0002041961777960795
-0.0009215061339759803
-0.0010880493058091083
-0.0008541870503048095
-0.0004398923030379121
-4.06082068459721e-05
0.00022468061292939552
0.0003224684964575621
0.00028378368692554435
0.00017081278753294075
4.606678655086325e-05
-4.7230107331174717e-05
-9.153526938500482e-05
-9.102585758976754e-05
-6.231933213788569e-05
-2.472281678586722e-05
6.7751858243933725e-06
2.459253775615753e-05
2.819770175115845e-05
2.168607653050446e-05
1.0803653122836744e-05
5.490700160359984e-07
-6.110616008213709e-06
-8.419012634479671e-06
-7.254363242975382e-06
-4.2553501987200194e-06
-1.0308324586343563e-06
1.330884440543426e-06
2.410230557607074e-06
2.34160344769357e-06
1.568008822821598e-06
5.895803310339254e-07
-2.1335567378993112e-07
-6.548749629401611e-07
-7.300349631876739e-07
-5.499484348186925e-07
-2.6451307273646985e-07
-1.4254013717430114e-09
1.654846116435569e-07
2.1949251500159142e-07
1.8522184053940714e-07
1.057803507782829e-07
2.2529403939596137e-08
-3.717218011645372e-08
-6.335670416786167e-08
-6.016868853563541e-08
-3.938963276005942e-08
-1.395947732708379e-08
6.483849217396059e-09
1.739707898746141e-08
1.8877236383645673e-08
1.3927178679182936e-08
6.452023225641375e-09
-2.899364016085567e-10
-4.465694688633368e-09
-5.715650198227651e-09
-4.7245979419377164e-09
-2.6246061227950852e-09
-4.777254477912352e-10
1.0294736295224612e-09
1.6620712783826017e-09
1.5441310211176756e-09
9.881060138422976e-10
3.281553836318713e-10
-1.9205602478099947e-10
-4.620622902895163e-10
-4.899915379548032e-10
-3.562656110017789e-10
-1.6174065861666315e-10
1.1396554129440985e-11
1.1834669359224186e-10
1.5158893416635161e-10
1.288939508576884e-10
7.770458161083677e-11
2.2391713951448906e-11
-2.229402320955051e-11
-5.1446762933148445e-11
-6.60400886400442e-11
-6.787118716091883e-11
-5.625525490325455e-11
-2.8149150452997657e-11
1.8263607667131227e-11
7.817928162105147e-11
1.35882798929127e-10
1.6483537074204584e-10
1.345040067843873e-10
2.397174934341271e-11
-1.6102936851694364e-10
-3.745228152948347e-10
-5.290517542230454e-10
-5.145992501134103e-10
-2.399134591152354e-10
3.11298310458066e-10
1.028521022796059e-09
1.6550921594986775e-09
1.829792957747307e-09
1.2042126794230976e-09
-3.7802232919065965e-10
-2.6926226965777844e-09
-5.024150096645471e-09
-6.233488177215702e-09
-5.073306809951907e-09
-7.399825123683655e-10
6.472790227392974e-09
1.4681795384728646e-08
2.041975822427077e-08
1.942464341294353e-08
8.278766615666355e-09
-1.3416811364689345e-08
-4.1093498772892546e-08
-6.458334533225513e-08
-6.987995308408655e-08
-4.381313502721432e-08
1.8975208327474915e-08
1.0885613832785408e-07
1.9726005370887599e-07
2.3976256927224176e-07
1.8877506540237754e-07
1.516061954483596e-08
-2.66696842637948e-07
-5.807203616514797e-07
-7.908235254866132e-07
-7.331450204990528e-07
-2.8068109952955384e-07
5.72731351292483e-07
1.6392378660591609e-06
2.5169307306652994e-06
2.663673384902253e-06
1.582882161154183e-06
-9.053078017842238e-07
-4.391568413381038e-06
-7.73711719709225e-06
-9.211532328110325e-06
-7.002130515496778e-06
-5.954343390186656e-08
1.0942083007668555e-05
2.2936939964155788e-05
3.059024885908909e-05
2.7610360190546783e-05
9.293998952696163e-06
-2.42339320200893e-05
-6.52794860817043e-05
-9.797809976080834e-05
-0.00010137050628147796
-5.677482480074571e-05
4.1684591937509875e-05
0.00017674799946571106
0.0003030969795584549
0.0003534009118674897
0.0002587204614963813
-1.8453776089266983e-05
-0.00044747496570829643
-0.0009050827990834668
-0.0011823842219319978
-0.001038067705851584
-0.00029843824439844814
0.001017892384169558
0.002597871350898725
0.003817964567164324
0.0038722403455470396
0.0020652726103984496
-0.00177875585755642
-0.006925250178958528
-0.011561304542205218
-0.01306662211026309
-0.008853178348146922
0.0022919259923213833
0.01869543263766827
0.03470410040678975
0.04068815811781335
0.024627301957572255
-0.024773139986585542
-0.11424753789667241
-0.0428561796651445
-0.0010561080442799478
0.02738694499986252
0.061291417530421284
0.11746412345775065
0.00752724108708863
-0.06272024246128305
-0.09172760073599585
-0.0799947322003431
-0.029126988640118638
0.056940738698603166
0.16929749222301047
0.09208878911163275
0.0034430368329480456
-0.11989526499020865
-0.09561026916323377
-0.12955569995452682
-0.013225556095017093
0.07365453359531016
0.15642001159299512
0.05751595058056274
-0.009471615059391156
-0.0418361987116304
-0.045863660751575705
-0.0326319524561621
-0.013541165079278336
0.0028934409356296525
0.012368656958972544
0.01444467754741926
0.01119260467778648
0.00559534214333343
0.00027165025894774006
-0.003208269110852383
-0.004425447235772046
-0.003818143291288669
-0.0022305458818832405
-0.0005035933899335166
0.0007803032706320148
0.0013773558292887434
0.0013297923828922721
0.0008493574154041306
0.00019947057440900757
-0.000386721366352672
-0.0007443723711690259
-0.0007843635177201963
-0.0004910609893804155
7.457473082201501e-05
0.0007659641916014359
0.0013506725692748402
0.001541623749690394
0.0010770183983120378
-0.0001541993430037602
-0.0019753014291119604
-0.003837131942431715
-0.004863027369021259
-0.004080992210262378
-0.000840249203131265
0.004685377100578994
0.011105932194339928
0.015795542800213294
0.015472077842445182
0.007440075251866994
-0.00873084431517489
-0.029670573292603024
-0.047668205804048965
-0.05200002059288438
-0.032617750412022514
0.014129536987268845
0.07915991110503835
0.13610629584434486
0.1412596315235684
0.039886213875341275
-0.021292823547765134
-0.2784820820610297
-0.33741998589219874
-0.16799224867336465
0.08990937773085134
0.5110956489530247
0.9672843566517334
-0.6847569405449425
-0.6050122072679832
-0.36566056253257595
-0.14868132227919234
0.04886210370317385
2.005246268857052
0.07121472892617985
-0.6160045055617184
-0.9025091313367143
-0.9862329947153788
-0.8050705826307224
1.1426938647489582
1.3512063612199416
0.6555448780211309
0.002638396771928
-0.5402086901484064
-0.7437455988437557
-0.5621990024923597
-0.08913714772014882
0.2608801275656868
0.34283593800696205
0.2531440497923781
0.09659703167104504
-0.040161052424257195
-0.1030525151094457
-0.07304563093884954
0.03979672015529819
0.006546229000262615
-0.009327247117874521
-0.041821896897770966
-0.11497300891500585
-0.03934069555647731
-0.012918028959101387
0.17434182034503082
0.13462118343217344
0.07783381234682896
-0.18930757137067086
-0.06096218693956105
-0.1288721911525254
0.019037284240675058
-0.0033612539636440533
0.21486111153312504
0.07668946850228864
-0.025306907980831274
-0.10742481690549925
0.010122259061750077
-0.09067075581204914
-0.020778708863397236
0.017787095326611643
0.03076440909151455
0.028174380082149945
0.020126232838664035
0.013388675673768674
0.009713768926620476
0.0062130179579988265
-0.002540444718134676
-0.02148093234356103
-0.05217386623648843
-0.09121346337087985
0.06932833697128896
0.0394024578307046
0.027388939967704327
0.036946466894968305
0.06566332357939188
-0.09395781171028648
-0.051690753263004
-0.01624490503169576
0.0071925201633864354
0.017722609910138156
0.01790339412253611
0.012042075496540938
0.004449300741232719
-0.0017613104249133375
-0.005123446790209951
-0.005628336315100659
-0.004172120481518245
-0.0019354773581392471
9.211693704206175e-05
0.001351388124128352
0.0017294630171624326
0.0014307099635871533
0.0007961299628226359
0.00014657641638226316
-0.0003100663830206252
-0.0005023174333823671
-0.0004673470268003453
-0.00029950983991726816
-9.993359430183213e-05
5.7497591928507046e-05
0.00013917505308296555
0.00014745383388437626
0.00010671054417800448
4.765480336425308e-05
-4.572379791913042e-06
-3.6192881480153926e-05
-4.491456469532245e-05
-3.642760053976269e-05
-1.96985008470606e-05
-2.970842269586201e-06
8.539791506173362e-06
1.3160099492335277e-05
1.1979898777856098e-05
7.497505753075837e-06
2.323410241318631e-06
-1.674938676578268e-06
-3.682560823515303e-06
-3.8045455547675135e-06
-2.6953764674904638e-06
-1.1530756690736878e-06
1.8235585883797037e-07
9.704717579846667e-07
1.1665253053711173e-06
9.268235698866249e-07
4.861476454147699e-07
5.572148627176257e-08
-2.340014550402943e-07
-3.443530506692185e-07
-3.067990110954797e-07
-1.87369640344111e-07
-5.337567811916836e-08
4.805115035869098e-08
9.724403243065047e-08
9.80468820423863e-08
6.798113205414185e-08
2.775888498734988e-08
-6.347455035257737e-09
-2.594880160290841e-08
-3.0260079142098263e-08
-2.3552371187332643e-08
-1.1964157108440643e-08
-9.013565062253772e-10
6.379332837807192e-09
8.996630117618686e-09
7.847078686846124e-09
4.672555235945297e-09
1.2066503048199228e-09
-1.3628660349746695e-09
-2.5639623069730525e-09
-2.5246739472961965e-09
-1.7127972436976707e-09
-6.652375464427316e-10
2.0479253929987957e-10
6.911957305514417e-10
7.831908676703652e-10
5.969425083573318e-10
2.9271541121399526e-10
8.703490705708168e-12
-1.739567148811416e-10
-2.355311514421488e-10
-2.012904337709701e-10
-1.1710058622204485e-10
-2.755636389659496e-11
3.745765593901593e-11
6.668246967559012e-11
6.415313695051035e-11
4.23210741361771e-11
1.5078055675677795e-11
-7.10540481726371e-12
-1.918656709485983e-11
-2.112410871721875e-11
-1.6046014164364883e-11
-8.101704805163654e-12
-7.881314029663549e-13
3.897753273651755e-12
5.516239238076772e-12
4.724840980990179e-12
2.640676643001904e-12
3.0133841265387145e-13
-1.6285359134366606e-12
-2.8908851156308447e-12
-3.4902909133447665e-12
-3.4972786331131008e-12
-2.9144906435188626e-12
-1.6740496368335175e-12
2.327347536601097e-13
2.5596031681421322e-12
4.657980695138733e-12
5.503014554699865e-12
3.977283321155163e-12
-5.981364495167988e-13
-7.827640477471247e-12
-1.577196657999523e-11
-2.0984236192634917e-11
-1.9327862779610634e-11
-7.622248733766355e-12
1.4221433339151467e-11
4.134886121906759e-11
6.347697801125419e-11
6.680739208534288e-11
3.87872668748762e-11
-2.497779785834823e-11
-1.1381864733293402e-10
-1.9851411211564532e-10
-2.34922105056533e-10
-1.7707308866068424e-10
1.2350730983909749e-12
2.820493824126182e-10
5.864792367134281e-10
7.782045114535977e-10
6.973226356933676e-10
2.2546375688663103e-10
-6.317671795361448e-10
-1.6755935002799329e-09
-2.4999045422113656e-09
-2.571051335371883e-09
-1.416811520398146e-09
1.1052367464042814e-09
4.546100131713568e-09
7.743366554333674e-09
8.979972935802403e-09
6.5084689663271325e-09
-6.054447779813955e-10
-1.1550498815468168e-08
-2.3156481018427473e-08
-3.0087372252903566e-08
-2.621393363113112e-08
-7.173899300190857e-09
2.645261246090961e-08
6.656027929472792e-08
9.714516561018818e-08
9.760715765059242e-08
5.023431571525516e-08
-4.9391969123119346e-08
-1.8250354173356553e-07
-3.0293645984707573e-07
-3.4398007336267636e-07
-2.3932731865527837e-07
4.4013681772324046e-08
4.70123446001432e-07
9.118746275582547e-07
1.160642847512392e-06
9.818172370627575e-07
2.1533764182124473e-07
-1.102153232518455e-06
-2.6411955830914385e-06
-3.771916258805153e-06
-3.700072645536224e-06
-1.7630649263040507e-06
2.1671130046533467e-06
7.3104951402738435e-06
1.1836510076965445e-05
1.3156316812828161e-05
8.75851068420799e-06
-2.5082631095436237e-06
-1.9078485365522028e-05
-3.58643228947787e-05
-4.4718550910120855e-05
-3.6673902092434e-05
-5.886350703516242e-06
4.5671961124937576e-05
0.00010464777825507207
0.00014628132326970173
0.0001399873644860243
6.104645557144996e-05
-9.380874416634865e-05
-0.0002923322601667834
-0.0004620429246583372
-0.0005025881936826444
-0.0003190143952225261
0.00012832434720890572
0.0007721684208513622
0.0014095336665829053
0.0017231246475827766
0.0013716236928935706
0.0001443782532114975
-0.0018583569742271992
-0.004093718444812893
-0.005586546573077557
-0.005160114478090641
-0.0019039026510725594
0.004209577695849643
0.01176699123631897
0.017708004811054993
0.017749490096349064
0.007557477488331679
-0.015525433710306022
-0.05076548256414518
-0.09316320160973308
0.06585983086935422
0.03610059262554636
0.025311542665348127
0.03639999836496081
0.0663379658906646
-0.09272232737201776
-0.050618904632897505
-0.015886967342401713
0.006621157840449291
0.016413818483042415
0.016430621771377323
0.011222320819199225
0.005086314749007019
0.000773880920815052
-0.00096916608106511
-0.001077258354662507
-0.0013015347985368547
-0.00314155305550141
-0.006917667789288898
-0.011294261521592557
-0.013484416797301769
-0.01022355309693069
0.0006237298573828192
0.018244530361354865
0.03753650160348076
0.04905300466523729
0.04085625190044393
0.002314873399352447
-0.07103814970433062
-0.17342186006601196
-0.08776373394618263
0.010706891425735228
0.1465203446452667
0.13433353366898773
0.17172303219038382
0.03805416046607359
-0.09934354796255916
-0.27377422501126
-0.10719755195089918
-0.0027147873686721117
0.055564249703682435
0.0957965339520257
0.148181916235739
0.03554250485464958
-0.03201227107515121
-0.0572376505968226
-0.051830124117748656
-0.03078703377867919
-0.007384050867518243
0.009806006336205975
0.0175639784927967
0.016908227935845795
0.011147016413272598
0.003974090063524919
-0.001836183165205443
-0.004958866169781117
-0.005398574214386056
-0.003998248215825814
-0.0018671196716753217
6.379644881878736e-05
0.0012669262822909088
0.001634532194806361
0.001358072070972183
0.0007586958398472724
0.00013986421985991195
-0.0003000102061613148
-0.0004898233063623537
-0.00046024766683203604
-0.00029643006768801126
-9.21808418270047e-05
8.033390057750626e-05
0.00018188651212587318
0.0002028776774896311
0.00015340754892771333
5.407564775029657e-05
-6.860120909664896e-05
-0.0001826085943844839
-0.0002505187425822243
-0.0002341097660368062
-0.00010654002426162544
0.0001292484236616731
0.000422656180891198
0.0006691051600300689
0.0007267839212451025
0.00046262996726699956
-0.00017784114397311268
-0.001097675221399218
-0.0020072222230593617
-0.0024536047266693417
-0.001947653591433816
-0.00018222862018225006
0.002713004165249268
0.005985246821634547
0.008272558488654729
0.007926923682064962
0.0036635586630638017
-0.0046026205329687386
-0.015056474113274522
-0.023882682192067583
-0.0262416571129568
-0.018602422584888246
-0.0022960699841210594
0.012418397014548417
0.0030595150217093163
0.13407979770841294
0.16016892352282686
0.03475003201587553
-0.07688261113929326
-0.18269812752728182
-0.25235889460279126
-0.21440855772651696
0.034412630631570434
0.20862401134912073
0.4079233670724268
0.0942049446365985
0.07960068277426144
-0.07080133128389628
-0.22361500614850094
-0.25568846820690116
-0.03445713428435144
-0.006281488906038269
0.0049866379213120895
0.19113280566218055
0.14906173467834058
0.07184827862870327
-0.054936860154375176
-0.050755974915150825
-0.13349142503107808
-0.11231999212216541
0.016492254610412815
0.06913745202883322
0.0696803596155459
0.04356195792906562
0.011805939833626653
-0.012290939583810067
-0.02354869699593398
-0.02305775022474052
-0.015306556231780283
-0.005438171903278969
0.002625334385921156
0.006963545347688113
0.0075233633920584455
0.005457879294880463
0.0023403918882879647
-0.00045988505039714055
-0.0021149710545676497
-0.0024008981164956146
-0.001577493396539802
-0.0001914906170802856
0.0011200362185494926
0.0017934135930968006
0.0014701942364740341
0.00010562367856100884
-0.001955420165753319
-0.003973194863489522
-0.004934890940415815
-0.0038454494785012147
-0.00017150871001832008
0.005670684788189536
0.011989853826585172
0.015914306277163982
0.014115014870386496
0.004182932864976958
-0.0136146318704736
-0.03480952050277353
-0.05027271340963307
-0.04758229530326891
-0.014493888116257299
0.05610147406879032
0.16137343713865154
0.08617598594128732
0.00500262146145445
-0.11140370431399699
-0.08664766057975792
-0.12993923081703795
-0.03151446633201488
0.03582671648556363
0.10948142366955016
0.02660610164268728
0.013914274103421316
0.08072527895399959
0.01701202325272992
-0.003268440550833982
-0.014611976742358064
-0.050313290497585324
-0.1335197320375174
-0.0717615821021305
-0.056825941397455663
0.12990103431942984
0.10861611760619921
0.09236463287591938
0.0820752838894096
0.0675372032054672
-0.1660448794640186
-0.22883911078046323
-0.1189465523573305
-0.020692452933359376
0.08998992044338794
0.23531941507574067
0.22550318253078444
0.05386568348387643
-0.09995203855694755
-0.2600235083436899
-0.24231324279499378
-0.04700938813281499
0.14112241935130562
0.14470564443927014
0.1822333716290862
0.058674309217140556
-0.0376647878178745
-0.13111086186068607
-0.04966710266024268
-0.015009333353217033
-0.03509099644428538
-0.10156733452356136
0.0074711566826968345
0.12050314114963508
0.06363606307244657
0.05274257389104075
0.08935695097463252
-0.03840530118296463
-0.15057466582492013
-0.06801686626714272
-0.006026082329753083
0.02897307847279596
0.039075939572259764
0.03193704447570277
0.016940038658426436
0.0020207719682754314
-0.008049941478368697
-0.011868758397183248
-0.010538683640019185
-0.0063760245612678405
-0.001730856230326639
0.001761937478302708
0.0034302756955102934
0.0034202420238976907
0.0023492712131013907
0.0009398704373970897
-0.00024470351918904563
-0.0009178656115996981
-0.0010576098082351068
-0.0008162825878000094
-0.00040908405275243376
-2.3896818327978405e-05
0.0002272613188907076
0.00031530343023026793
0.00027268633466203876
0.0001606877570406346
3.971422081593267e-05
-4.92147982709819e-05
-9.013736002960485e-05
-8.792354959371496e-05
-5.9105963374678436e-05
-2.2441185446881952e-05
7.755800246837191e-06
2.4444167874207538e-05
2.7381245208012967e-05
2.0701487505380595e-05
1.0019699988319917e-05
1.365234655584485e-07
-6.159516726148212e-06
-8.222572042561617e-06
-6.963940845225307e-06
-3.996022935766742e-06
-8.720451112543706e-07
1.3765423611879715e-06
2.3700698038628757e-06
2.2596650311585244e-06
1.4851865346581927e-06
5.320248726518703e-07
-2.3697657770342989e-07
-6.49658561526656e-07
-7.081986866881055e-07
-5.244052233378678e-07
-2.4458935997663836e-07
8.72991927742743e-09
1.6629240721765926e-07
2.1413387942895627e-07
1.7763242354996352e-07
9.91460024478761e-08
1.856811780113021e-08
-3.8206893469849435e-08
-6.221701811672731e-08
-5.8008561592489894e-08
-3.725741137734943e-08
-1.2509780013372953e-08
7.049656262519779e-09
1.72272049874485e-08
1.8294854642536733e-08
1.3265383059037197e-08
5.946308296023209e-09
-5.392639735530666e-10
-4.475130047411388e-09
-5.570418860206131e-09
-4.526797152053078e-09
-2.455135163009588e-09
-3.7883251136785356e-10
1.0531369865005334e-09
1.6310042080995701e-09
1.4882222415524624e-09
9.33729587070099e-10
2.9116282922525405e-10
-2.073552873166585e-10
-4.597650834878661e-10
-4.778266740923479e-10
-3.4137551960826563e-10
-1.483262395524869e-10
2.2272444454599388e-11
1.2732645619089776e-10
1.5896893002630322e-10
1.3306926138624055e-10
7.498416802552213e-11
8.539937170956228e-12
-4.9134077075108953e-11
-8.752631801235424e-11
-1.0009738334672315e-10
-8.224804965070515e-11
-3.210775657501924e-11
4.561603930395613e-11
1.3471697870198347e-10
2.0513136848348785e-10
2.170276406198649e-10
1.3354487927565966e-10
-5.923304369225468e-11
-3.31217369004323e-10
-5.964863510043774e-10
-7.22309011813311e-10
-5.668873101891702e-10
-4.3890418927192563e-11
8.025986665624109e-10
1.7437864191187133e-09
2.3714114433705083e-09
2.1945850682063926e-09
8.336900462266077e-10
-1.7279122066774754e-09
-4.924907095867891e-09
-7.550745892171282e-09
-7.979995239828286e-09
-4.726217487248155e-09
2.7448041905575852e-09
1.3199071653041733e-08
2.321615312916437e-08
2.7605738073265536e-08
2.0938213185174267e-08
8.157574406495154e-11
-3.2921447549774915e-08
-6.885651215217608e-08
-9.171601788928316e-08
-8.264492909826318e-08
-2.7580143228507293e-08
7.303756477768223e-08
1.9606226190621542e-07
2.9387082007953166e-07
3.036251482987276e-07
1.6940872694807558e-07
-1.261992046449861e-07
-5.311942435411662e-07
-9.094790343801101e-07
-1.0591243971168052e-06
-7.736729088274514e-07
5.874343338496596e-08
1.3453700362333375e-06
2.715771728477249e-06
3.543215886112178e-06
3.104775260173115e-06
8.817661266540113e-07
-3.0660847817244477e-06
-7.794346732592601e-06
-1.1425808575487012e-05
-1.1534191557454366e-05
-6.021178625597061e-06
5.6591116630415675e-06
2.1329967451126533e-05
3.5584419068421075e-05
4.0574746909717826e-05
2.8462944308104723e-05
-4.711482667523656e-06
-5.4829851341475865e-05
-0.00010703551955841262
-0.0001368233119717291
-0.00011651448467760285
-2.7049075790352308e-05
0.0001276358738762456
0.00030923935665144676
0.0004441119187164164
0.00043920029059440606
0.00021694114759748914
-0.00023702940309627452
-0.0008293710761108932
-0.0013415614826422654
-0.0014640280115003402
-0.0008959257834059093
0.0004982702152490482
0.002514673843329462
0.004484312599333937
0.005267955181001879
0.003413206241738091
-0.0025575558731131356
-0.013861227001414256
-0.03138614830553813
-0.056038866194947586
0.1105210156326112
0.06520037473696004
0.003603354839526266
-0.07850324062892286
0.017295219134244567
-0.10561275978383884
-0.038090855568522104
0.03318259975953452
0.12215514358029293
0.03926583153096657
-0.011451840693544215
-0.0328521429790672
-0.03282120808887214
-0.021186273051025363
-0.006755432917215408
0.004558129376422922
0.010238132467011255
0.010557081268176933
0.0073973525165639265
0.00304286345794442
-0.0006915112168230358
-0.002856144550972578
-0.003344432365127673
-0.0026150740808778845
-0.0013401763189149892
-0.00011638816932513747
0.0006940196196958696
0.0009903840005660593
0.000869146516633853
0.0005214849436812872
0.00013894904752547292
-0.00014638882525840684
-0.00028126766515145705
-0.0002788999208476251
-0.00019043761713467158
-7.508723672700678e-05
2.1311101167206275e-05
7.566824396830272e-05
8.64874899508364e-05
6.639594431767212e-05
3.3012974956929807e-05
1.6162188819143582e-06
-1.8764715830689868e-05
-2.586419305693325e-05
-2.2388602926679123e-05
-1.3324594621388134e-05
-3.5237017776274526e-06
3.774322181372686e-06
7.351601388355259e-06
7.61096969886987e-06
5.7879734818935886e-06
3.18022043916163e-06
6.600243392375909e-07
-1.440803874550692e-06
-3.139926781108728e-06
-4.471192255183046e-06
-5.203503255288328e-06
-4.7729250976446365e-06
-2.5037000154141432e-06
1.92589440804138e-06
7.944541346775345e-06
1.3745103687854496e-05
1.642860993698187e-05
1.2827552944885193e-05
9.670336377805222e-07
-1.821373005783026e-05
-3.959430347238445e-05
-5.395421849942832e-05
-5.014147472894959e-05
-1.9463032636548703e-05
3.858517471129448e-05
0.00011130093562304842
0.00017135972711144044
0.00018178742413425128
0.00010857757160458433
-6.082773087167469e-05
-0.0002988919996755302
-0.0005282492742915964
-0.0006308095443202229
-0.00048207384274423807
-8.236462622788876e-06
0.0007490823287973378
0.001588316960849472
0.0021578220150262955
0.002047340858927821
0.000963499498610791
-0.0010496483249388727
-0.0034324736524864595
-0.005099560562794739
-0.004729869574465228
-0.0014502570315755752
0.004079026483189267
0.008271764426301025
0.0030877995653059258
-0.025448934293035307
-0.09853915116295912
-0.045475810504509974
0.09659376543011658
0.285574969423622
0.2822418475251559
0.06441315745683061
-0.3542044952943203
-0.5068679811297052
-0.46807863894584256
-0.26790981857616347
0.27174327401222675
0.8872551288742538
0.6266548310560183
0.22532190182993403
-0.08387821470556399
-0.32705517810041
-0.7264901951362677
-0.4398506902736227
-0.12138496458767924
0.08354624080631891
0.11121212833982734
0.3306129409429157
0.4896449101594069
0.27300051785434365
0.08359209030229947
-0.14889757375257623
-0.33774635789330915
-0.3993439973493652
-0.21793850742076976
-0.02595870203310422
0.1959938242149652
0.30298693591561043
0.1621012978467436
0.030844465609571457
-0.055816784855283415
-0.08806860240221191
-0.07583907429182733
-0.039562914521430494
-0.0010232362636108747
0.023339587562092902
0.0259298282901117
0.008715584782383155
-0.01804484711728751
-0.03843941863279145
-0.0345625012744715
0.00910132490314087
0.10121901230380134
0.04022945745747778
0.013357537997683107
-0.0012086156606413243
-0.02931181020485587
-0.09442049430722747
-0.011800202488146444
0.01498017176417791
-0.005702826087330649
-0.05637988979494068
0.08452245486137229
0.036979618045772926
0.014518914031191389
0.02155513624203523
0.05357295772448185
-0.10010904688165422
-0.05210905303542512
-0.012868758995024961
0.011937689584126337
0.02186311429291305
0.020369267422228363
0.012671339733152211
0.003708810977348565
-0.0031468067824192243
-0.006485378782141461
-0.006536552449006847
-0.00447995922967096
-0.0017269665402964533
0.0005992262394868288
0.0019023359752909522
0.0021052071621700174
0.0014927970119744754
0.000510828835478397
-0.00040472622685826714
-0.0009351738733486749
-0.0009271876638587185
-0.00040210095476327486
0.00045548428260954425
0.0013263127248696667
0.0018138083937034627
0.0015453798785756674
0.0003188833580377071
-0.0017349315443330213
-0.00403887040866408
-0.005592061902990184
-0.005205355158985272
-0.0019671662930028978
0.0041451736104556386
0.011713245669733993
0.01767455156790914
0.01774635893406271
0.007594302639750489
-0.0154446307735279
-0.05065033078872161
-0.09304370235119389
0.06593335315626302
0.036068892325302575
0.02513019732162521
0.03607055604122186
0.0659348998595621
-0.09304503653177461
-0.05065689579649846
-0.015456767666394028
0.007579472280867512
0.017735095608326548
0.01767507395702149
0.011732600366210369
0.0041849869548965715
-0.0019146244573007478
-0.005158717542011054
-0.005577917239478209
-0.004083203738070425
-0.0018499280710415657
0.0001488590418126431
0.0013722091327535366
0.0017210627942229665
0.0014064397063031603
0.0007693861817856511
0.00012660691896124288
-0.00031952253866837513
-0.0005021727237062534
-0.00046117260271469736
-0.0002914455241930913
-9.318812916490451e-05
6.130516201270406e-05
0.00013993640611199802
0.00014605031806747817
0.00010437488372058511
4.545765702152415e-05
-5.996756913994386e-06
-3.668414061904996e-05
-4.466221682468391e-05
-3.578343213080241e-05
-1.9007280428868182e-05
-2.4653902754879953e-06
8.77008786139356e-06
1.3144481955537626e-05
1.181355192327219e-05
7.2876577758974114e-06
2.1514733333072068e-06
-1.7692734946747443e-06
-3.698377798901663e-06
-3.7657491041020624e-06
-2.634121688206822e-06
-1.09671141243765e-06
2.1804989942500604e-07
9.81956644864487e-07
1.1591108254878885e-06
9.097627132114605e-07
4.683031091411169e-07
4.2945417582852446e-08
-2.3958662339485894e-07
-3.436466236518401e-07
-3.0233182460492407e-07
-1.8191569644725442e-07
-4.8997882113763296e-08
5.0383019337994374e-08
9.755417025276102e-08
9.698080236246965e-08
6.637620185324429e-08
2.631287174291373e-08
-7.242459739391618e-09
-2.621608037001876e-08
-3.0046126663546325e-08
-2.3099172648393642e-08
-1.1498938805301619e-08
-5.718317593016187e-10
6.520840450048017e-09
8.973494453447977e-09
7.72279652673696e-09
