0
2.4768293620819296e-17
2.4768233974803517e-17
2.4768088331462422e-17
2.4767878551011035e-17
2.4767670789963123e-17
2.4767568608924233e-17
2.4767683646507018e-17
2.476808529048696e-17
2.4768741958529765e-17
2.4769478056367648e-17
2.4769976924907403e-17
2.4769855017282366e-17
2.4768812094094463e-17
2.4766827541171055e-17
2.4764332831757707e-17
2.476226129408464e-17
2.4761879442166953e-17
2.4764356205665628e-17
2.4770130218779933e-17
2.4778269767092204e-17
2.4786136560827862e-17
2.4789695383545806e-17
2.47846919017849e-17
2.4768622096849406e-17
2.4742982228405342e-17
2.471485333563499e-17
2.4696653149492037e-17
2.470311398688131e-17
2.4745365850249563e-17
2.4823360461874317e-17
2.4919406835736278e-17
2.499664934740235e-17
2.5006107116224602e-17
2.490377481333557e-17
2.467519726484112e-17
2.4359745054315353e-17
2.4062454110112383e-17
2.3940376261557056e-17
2.4155372838296693e-17
2.479713800097818e-17
2.579710774077107e-17
2.687039154233352e-17
2.753060908149684e-17
2.7212636500897457e-17
2.5505404695836918e-17
2.244389991375475e-17
1.8750826237247323e-17
1.5879616413146068e-17
1.572229091964396e-17
1.9931605247565893e-17
2.896766465799544e-17
4.117892465323588e-17
5.239043563419412e-17
5.649667262882998e-17
4.734988496590655e-17
2.1765312233094826e-17
-1.7189495594047647e-17
-5.807738868983464e-17
-8.18700808564442e-17
-6.691950952443575e-17
1.894198639302376e-18
1.2192221155699877e-16
2.6373887774342672e-16
3.7010113483707994e-16
3.680128603800527e-16
1.9555514465570233e-16
-1.611693695193441e-16
-6.333144150123417e-16
-1.0551918480274253e-15
-1.1897157983420736e-15
-8.038015110828563e-16
2.1444381028037953e-16
1.730234598490231e-15
3.2853519710296596e-15
4.136231736474534e-15
3.4547832980365436e-15
6.874262466315732e-16
-4.012760769047267e-15
-9.451313207529125e-15
-1.3376582169152458e-14
-1.2975765986635018e-14
-5.935400372118202e-15
8.128692766534281e-15
2.636225776104917e-14
4.219954775654039e-14
4.6444781490452817e-14
3.027744063127879e-14
-1.018300166070006e-14
-6.909736126746761e-14
-1.2814277937809675e-13
-1.5829665396022692e-13
-1.2792905140462894e-13
-1.687714586365459e-14
1.6696230305196776e-13
3.752379661343281e-13
5.19491286444402e-13
4.914710116582766e-13
2.0499311643748586e-13
-3.4877761578854926e-13
-1.0520777889011725e-12
-1.6450996117374567e-12
-1.7715820059587867e-12
-1.0983981671667795e-12
5.068455443191221e-13
2.7940518223614736e-12
5.0318753858228064e-12
6.088812198070968e-12
4.758561007374854e-12
3.1109625881720296e-13
-6.871116654108453e-12
-1.4835883170398704e-11
-2.0112237630284515e-11
-1.8539457431483698e-11
-6.917187656186395e-12
1.48599377531204e-11
4.195394219106758e-11
6.409848130422306e-11
6.750749418628459e-11
3.9626276202226847e-11
-2.396661337124856e-11
-1.1265958524082344e-10
-1.9731197069689773e-10
-2.338602292994796e-10
-1.76371578052111e-10
1.4044512031722599e-12
2.816750707190476e-10
5.858087803811497e-10
7.777737487180238e-10
6.978598801396127e-10
2.2764330104521187e-10
-6.27688365397251e-10
-1.6701446116894439e-09
-2.494596654447565e-09
-2.5682029048898935e-09
-1.418874673187648e-09
1.0968069414304204e-09
4.532141435146609e-09
7.72792756399507e-09
8.970181610596679e-09
6.512807269574309e-09
-5.80534988998314e-10
-1.1504974576782448e-08
-2.3100433555414172e-08
-3.0041936056829576e-08
-2.6207280869174803e-08
-7.231440954472342e-09
2.6322352263201468e-08
6.637966578246607e-08
9.697436051549041e-08
9.753640866533938e-08
5.0356943591531835e-08
-4.902377706014172e-08
-1.8192832557836312e-07
-3.023171548511277e-07
-3.43595915240379e-07
-2.395037354625545e-07
4.3038635125689265e-08
4.683671196892264e-07
9.097494713787691e-07
1.1589824760797458e-06
9.817100662442243e-07
2.177383918431833e-07
-1.096971641922854e-06
-2.6341722707053706e-06
-3.765443071571082e-06
-3.6976586206629502e-06
-1.768255424786043e-06
2.1524624339558755e-06
7.288114028718491e-06
1.1812941582812882e-05
1.3142487110270121e-05
8.766888381247335e-06
-2.468916454985681e-06
-1.9009584789918584e-05
-3.578266948370136e-05
-4.4656982452787954e-05
-3.667441821261543e-05
-5.984732482068836e-06
4.546739416254186e-05
0.00010437620769244987
0.00014603769350758367
0.00013990795885563214
6.126572778865325e-05
-9.322549324064245e-05
-0.000291461202457166
-0.0004611462811332896
-0.0005020929956501385
-0.000319397696444117
0.00012674153684021284
0.0007694699076142785
0.0014064017395022618
0.0017208512117378968
0.0013718274347947104
0.00014839659626804267
-0.0018502902304905213
-0.004083228923022759
-0.005577397447504428
-0.0051575926143191805
-0.00191309753913052
0.004186396698176932
0.011733130175505976
0.017673951991928494
0.01773191605326514
0.007574607790655397
-0.015461897769344164
-0.050659917472098165
-0.09304323684519153
0.06594343245879758
0.03608552452400569
0.025147960533485947
0.0360823183818136
0.06593330804123403
-0.09306501547142296
-0.05069475299896848
-0.015503683192097651
0.007541230323578418
0.017728892731540522
0.017721965836479735
0.011839831850136727
0.00433450019525589
-0.0017719892608304166
-0.005097124144417848
-0.0056745909949321
-0.004382226874898081
-0.0023213194042974402
-0.00036264734296262375
0.001049324207045273
0.0018553507993645522
0.0021971252780560294
0.0022081177238421706
0.001881407433472386
0.0010720870947159944
-0.0003661193227976908
-0.002368479509787928
-0.004474183778919247
-0.005788205774131075
-0.005184565070661989
-0.0017715636463613228
0.004475293215380456
0.01213318186135197
0.0181109027832933
0.018075898519153404
0.007649799674178444
-0.01582615421414605
-0.05153975151667377
-0.09431927077194578
0.06465065736213513
0.03538720397839513
0.025724280395856773
0.03838777793866382
0.06984015275248155
-0.08854369506214141
-0.04741798919219016
-0.0157909988215767
0.0017901099984954862
0.006220777700869802
0.002854308318356071
-0.0009175468679697772
0.0012989781866183663
0.01209091703006561
0.02843578776365612
0.041565205817643225
0.03890491862128691
0.00800464444386666
-0.05838942130412215
-0.15778991716972757
-0.07604680446225229
0.010370334601239177
0.1279134458303964
0.09740821115719385
0.1268245764667131
0.008461836204174202
-0.07822880744986063
-0.15945321233129964
-0.0586310490412163
0.009916198515765477
0.04312806040240695
0.04728865430890445
0.03369777695536376
0.014049503619148643
-0.0028933900764505738
-0.012687358144208663
-0.014864335441414763
-0.011546983145527587
-0.005803582163539575
-0.00033162796551677816
0.0032506922634994028
0.004512769867026416
0.0039087165362104
0.0023097889319888816
0.00057869913068944
-0.0006968001697707949
-0.001286534581670797
-0.0012585399210059047
-0.0008484221918957373
-0.00032439564964315335
0.00010830701355743158
0.0003482933380348587
0.0003914931322656116
0.0002966932213004397
0.00014413332907297748
2.6182395943262737e-06
-8.773183161037334e-05
-0.00011746295503270707
-9.94941899135012e-05
-5.690709907443961e-05
-1.2054785218175564e-05
2.011494099598965e-05
3.4008212214551145e-05
3.175010167202553e-05
1.9792666857744355e-05
5.4457307569240956e-06
-5.60915432044505e-06
-1.0474459093704469e-05
-9.051651575706156e-06
-3.3518096119118065e-06
3.4752314973720317e-06
8.128011088362654e-06
8.057037399746527e-06
2.257737760331461e-06
-8.124455939625112e-06
-1.9580402771969198e-05
-2.6717352057774357e-05
-2.3688141070407025e-05
-6.552879003772699e-06
2.392520570910186e-05
6.009797113458582e-05
8.727238461959026e-05
8.684230103262787e-05
4.311755572257912e-05
-4.732960125761218e-05
-0.0001669177719504567
-0.0002735561574111515
-0.00030716302665349256
-0.000208815909424324
4.9559875669570544e-05
0.0004334687147698523
0.0008265356723152233
0.0010403311443773489
0.0008654002952520953
0.00016227120898535996
-0.001029194504224278
-0.002405335311797085
-0.0033951453907546596
-0.003286306764732146
-0.0014937846103054073
0.0020788254037189266
0.006709734028640851
0.010742438767507589
0.011863735867752271
0.007868360746784604
-0.0021851148914908036
-0.01677357361946945
-0.031239974489320275
-0.03831734431394426
-0.03032949005622502
-0.0030500949984064796
0.039554957580346536
0.08125944303388762
0.09218757115784239
0.031858950220656865
0.057322998078085836
-0.06469926460746936
-0.1445845731401333
-0.15965659493744716
-0.05129197633548824
-0.13188049846311875
0.09863615870094433
0.13018215000623246
0.2199912236601999
0.17697710981453924
0.15847952027763082
-0.11874264689296198
-0.15606856628031116
-0.2460284554866628
-0.24954918110665458
-0.18491728667992982
0.16822689633615262
0.25218973310356707
0.3090799778883836
0.16247507865709118
0.010116754922133774
-0.17029116765669006
-0.20589276185794728
-0.31162705136364716
-0.0791858270232865
0.12323048692317355
0.14061497208193677
0.21523039069725897
0.1721343573163551
0.012118045593560178
-0.08554376248048572
-0.1524301594246333
-0.21750208551251618
-0.09677681483811798
0.009636401434583424
0.11243166894795978
0.22294103932203022
0.1431875030540902
0.06123612125984908
-0.045654116566125294
-0.20134493218182292
-0.21909165708315528
-0.09343585324209773
0.00011389003827150642
0.09696694611065446
0.23016602330289224
0.21767838849440121
0.055926827960804296
-0.07745629528707725
-0.21283028800406006
-0.17458735297000008
-0.1703422764754194
0.011963125986809656
0.1979951538874757
0.21506274335356348
0.07982169997256475
-0.009075273825096677
-0.07087508847750215
-0.13619414883814743
-0.037508401076284406
-0.0005289002459199668
-0.039081485654834984
0.04578965082543421
0.06338019298145482
0.02928820894021487
-0.03842176328536333
0.07835964259526658
-0.002884226041742727
-0.06468990055198104
-0.08879498115469901
-0.056415306400600496
0.04945867346907061
0.03992749993222049
0.11571692868231256
0.06460787051059315
0.06257279345527358
-0.12104629219119763
-0.11590448650562188
-0.14358057872142474
-0.014131064233825801
0.07224428133232694
0.11945621491993497
0.12884812789470615
0.09531475548652169
0.00867055707410468
-0.13983338478185597
-0.1486517348022452
-0.19916651784666703
-0.05502768611819952
0.13079417009589295
0.20319598708416778
0.19125838908595313
0.09927687543616917
-0.09396741567770783
-0.22799594859921404
-0.1493494618145445
-0.10151844498402864
0.08006675220224634
0.16750770475522667
0.13722653029999168
0.16842517853962036
0.046521193606415503
-0.22817633500917137
-0.2298826998510094
-0.10053527607918537
-0.1521870744243479
-0.08098251578838467
0.20942148842011446
0.3814108834767823
0.24283704299067957
0.14052445471444927
-0.028152614470934274
-0.18809546240185765
-0.452209844846045
-0.29164022976885995
-0.1209074340161828
0.09697467318981154
0.22782131799052557
0.335038144459364
0.2518342941057158
0.16736355992399496
0.03200382680634616
-0.22003269147673035
-0.43896269889103556
-0.23037634101651358
-0.14004672802261106
-0.05896999863485061
0.1521668439328149
0.4266379507324831
0.25498538533868875
0.05946410660108309
-0.012946056500603893
-0.07788637274409835
-0.08616709376631007
-0.18980982960681023
-0.11046399595758777
-0.11743880013894464
-0.01952307271070784
0.0289538487160125
0.11086903115757282
0.1233642907446934
0.1555609324502901
0.07233778126797226
-0.0928474035368218
-0.13624836077432786
-0.07604615494747805
0.05763020148756606
0.03177673999371246
0.017283538821561514
-0.006684812645854214
-0.05046501800084257
-0.11389334208400875
0.011261978911678554
0.1367210905614136
0.07224730813217363
0.021333239102742218
-0.02033153854648925
-0.0633298450380093
-0.12114069136187718
-0.006812621841803523
0.06891822035230179
0.09798504216966533
0.07497759523825136
-0.0018398915448790579
-0.1280693231626356
-0.09042339075440312
-0.06581498758973522
-0.024072323737582613
0.06557278861189973
0.22612126810993874
0.06581131520039106
-0.024461065813244438
-0.06809504230707814
-0.09545618740942964
-0.13543331805567857
-0.009200619565378713
0.07193112129035234
0.10487535674049678
0.0914368280287367
0.03584335223121336
-0.055362578350181844
-0.17149565708936443
-0.09600969346043622
-0.007241163522646167
0.11735452776834907
0.09465552624572951
0.12990166599927724
0.01428662880711382
-0.07247187203185501
-0.1555294850343791
-0.057088584263111475
0.009471823357120279
0.041565349971245044
0.04550562895052714
0.032331275786259744
0.013372591579357284
-0.0029229494495964683
-0.012298132266855683
-0.014331521513541827
-0.011089474134607785
-0.005536392337554082
-0.0002681811776904861
0.00316543739001519
0.004360011724690481
0.003760883982970875
0.0022111758519702145
0.0005419835030893547
-0.0006829007941462433
-0.0012449475706020172
-0.0012124125499230836
-0.0008138214186417946
-0.0003078934532948795
0.00010820358392640324
0.00033772318107564466
0.0003776259929083756
0.0002851133252717097
0.0001376674680997763
1.4433185616519656e-06
-8.519979905496959e-05
-0.00011345140568263181
-9.594564577676201e-05
-5.4946684071358565e-05
-1.1870060085695518e-05
1.908365256147438e-05
3.2708402224091645e-05
3.111514240476308e-05
2.0389491471664456e-05
7.237083326832406e-06
-3.3343988940978927e-06
-8.955966097948123e-06
-9.67396580235857e-06
-7.058784858079891e-06
-3.165669436438668e-06
2.790160540605199e-07
2.300620737957164e-06
2.723331762280377e-06
1.9634963745181276e-06
7.184039406025713e-07
-3.29376200103799e-07
-7.243793170901684e-07
-3.4662502236003794e-07
5.781188768449582e-07
1.5538214270270053e-06
1.9654695154777415e-06
1.2928927307484396e-06
-6.448286644500423e-07
-3.4789973150446206e-06
-6.211597647236616e-06
-7.370060106004318e-06
-5.4583200433852525e-06
3.3632380033445737e-07
9.368734571696604e-06
1.9027037701644404e-05
2.488943786238588e-05
2.1855374981551845e-05
6.261481996040151e-06
-2.1485369972404392e-05
-5.475235640269242e-05
-8.03398928151898e-05
-8.117661276962372e-05
-4.248456565717738e-05
3.9608464900033364e-05
0.00014983243058613874
0.0002501907801412206
0.0002854948862521397
0.000200582431346795
-3.248378265980689e-05
-0.0003848471812706114
-0.0007521143002032434
-0.0009619553896824106
-0.0008195890107169185
-0.00019071456530467897
0.0008972596625682869
0.002174991437254648
0.0031237586220465158
0.0030867747004651716
0.0015134211916035547
-0.0017067646973404891
-0.0059329366769345785
-0.009651711975906838
-0.010717300751632663
-0.007047850234268343
0.0022930233899772713
0.01592460655105997
0.02938651380710466
0.03535490122485731
0.02523263177844075
-0.007960998408410707
-0.06615890860101654
-0.14366410002177363
-0.02695965139274537
0.10225981765608078
0.061493926484493165
0.0614091121825348
0.1019773361694089
-0.027494302271670934
-0.14445625186850405
-0.06707942483236118
-0.008700936396668472
0.02512076225550106
0.03630626708112859
0.03158406403596596
0.019045404727592082
0.005363151088148104
-0.00555366920404855
-0.012439547923604487
-0.015595564816025965
-0.015593831143143002
-0.012434635215434501
-0.0055465382815707235
0.0053706802468213586
0.01905063363305107
0.031583854755167395
0.036298094712971775
0.02510424050994522
-0.008722570869664733
-0.06709868799568248
-0.1444625145695901
-0.02747711756478841
0.10202301490788206
0.06147730274444496
0.06156413169590618
0.10229866189911727
-0.026989481820114944
-0.1437877710079558
-0.06636998195091529
-0.008206230208000851
0.02505429522168453
0.03537043520498986
0.029701612330152945
0.016559864770203058
0.003125506642925543
-0.006305485784214303
-0.010467848584711706
-0.010278313081983154
-0.007595465002217535
-0.0041336377277789585
-0.000870288088494629
0.001960501838541918
0.004404879579755173
0.00610273656337622
0.005662714464085643
0.0003382059534031983
-0.013860776267708779
-0.04159576732415804
0.11282036434123552
0.04693540555163379
-0.03784817945409729
-0.13425017575333023
-0.028215935433620064
-0.10056530646834656
0.06817039147441228
0.09070846475966685
0.16635906975915588
0.07794538209886999
-0.00545185946676099
-0.11995359092909433
-0.09517714276044804
-0.14363640105977327
-0.055374309482370355
-0.00010455099622221721
0.06362771716552694
0.1753808638555157
0.16047917166547665
0.022814510907970233
-0.054800298257656074
-0.10333693928209225
-0.15660219187605393
-0.04100662596753707
0.030453617858853626
0.0587206548315482
0.05476580956013061
0.03369156683994333
0.00932942298385699
-0.009099144137815325
-0.0178773784263758
-0.017779065310524443
-0.01210439249876498
-0.004690645011964311
0.001493752094344211
0.004958910364842112
0.00561475531762345
0.004283765448405491
0.002108121681791733
7.519253172038736e-05
-0.0012341262656108249
-0.0016776512639583355
-0.0014353240159529958
-0.0008348555659198741
-0.00019522298084670295
0.0002696961499877643
0.00047933251365075605
0.00046264174893165965
0.0003087704126936306
0.00011689913223923893
-3.8770212314906585e-05
-0.00012341505938022462
-0.00013826524010964163
-0.0001068672188180988
-5.8874565442263296e-05
-1.7333536606753672e-05
7.5730467448381886e-06
1.8164937334179652e-05
2.406490869011708e-05
3.4879439499244e-05
5.361006213512944e-05
7.321613492653183e-05
7.790081527629948e-05
4.94415728331585e-05
-2.275154200180825e-05
-0.0001309987760039294
-0.00024279892301190987
-0.00030341839315749605
-0.0002510844774652408
-4.420781542130983e-05
0.0003059738981020499
0.0007102467022446485
0.0010003662076835556
0.00096642989139408
0.00043642405554668204
-0.0006168477615964624
-0.0019782593879608935
-0.0031557485170560446
-0.0034620671147167145
-0.002240026317893062
0.0007966469542714694
0.005207956740766583
0.009624842103264683
0.011887875910090287
0.009657753727770228
0.0014705771920038692
-0.012025362418378085
-0.02716052815252201
-0.03731424465649614
-0.03452743909178793
-0.012819108864751953
0.027325058843706614
0.07462443279598291
0.10474108706951746
0.08193490831959296
-0.034460763346521574
-0.07956485386081205
-0.07116768776609675
-0.20044973398038057
-0.028714551233261835
0.1080901457416083
0.08786314948218778
-0.013070944770795404
0.06470552546664249
-0.04812856276831012
0.04414898748880168
0.10265338178241681
0.06095419040051217
0.03817605505462203
-0.04376429468505755
-0.24226603669052343
-0.18018671759906235
-0.040528364992909724
0.027967924954279032
0.09551391045012872
0.23086759631996837
0.08216395659368123
0.06467336375443841
-0.04144785464742605
-0.08380187876664218
-0.1240585825791777
-0.022528620891704935
-0.025176168765903274
0.044395593660256534
-0.012613658232514684
0.027481316035163874
0.005191051526377358
-0.029743857250060502
-0.026725080195988387
0.05752084688171183
0.05191927893485244
-0.03377438342268487
-0.010703435485209602
0.09088245662880838
0.026817391827412402
-0.05301510518386983
0.004856982247121115
-0.03325543244852186
-0.1814964402884607
-0.032319554326281114
0.04011522560359965
0.07174765757681527
0.09821661637251322
0.14585908913397197
0.027265990087348178
-0.05726464504574723
-0.11351308631373769
-0.14559457504546514
-0.15063293353051369
0.08133327377625697
0.1619657102381016
0.09631779785144598
0.07569500845472549
0.07519677981358962
-0.14282887404839345
-0.220885140818216
0.0027914495363872385
0.10139852531350146
0.06337503258808391
0.09355696799542634
0.013295146505340815
-0.1396139444226741
-0.11190651672416863
-0.038534712447457424
-0.05053327418211112
0.11312101431915875
0.09196503516413661
0.09255764611206924
0.08280279510322228
-0.005563202543208186
-0.06624767916393759
-0.0016420917717056035
-0.10373442287500792
-0.03678177579863916
-0.025196156562394868
-0.048815054584112116
-0.04619152668436674
0.07495689906842334
0.02226983380874997
0.10122238906459088
-0.0012744812646568351
-0.029619553092053618
0.03274213863718943
-0.03921288379961893
-0.10991358365579365
0.12306995335968357
0.1391064713019373
0.008525444951068502
0.010501786437977143
0.0535117439143951
-0.10471619531061015
-0.24231241487529662
-0.2684733098974278
-0.03267787268393586
0.05129450569573346
0.1703003640358166
0.27365363638247187
0.2416041711853714
0.06882893788350457
-0.13293154934687654
-0.114409809978083
-0.05637882629792182
0.0668555298519137
-0.07937800953418568
-0.16603848455213804
-0.1894850637495767
-0.07621962863326383
-0.10324563548804358
0.0694816798311571
0.36183347271705785
0.4415247434737133
0.30742506558209404
-0.1055406137529291
-0.30077423381249935
-0.3824542969017206
-0.4196842969106989
-0.22522837412246402
0.24438777075813242
0.4694592801633415
0.33804758318730044
0.11980515064989775
-0.14802758312310144
-0.2602836057309273
-0.2338298215902559
-0.09552936450447708
0.12557595383487047
0.1999361814678352
0.09530494072348558
-0.02518516604464389
-0.001595120369435031
-0.07189174185003495
-0.06456356194785723
0.008167698328676944
-0.04578639525470442
0.001307369296480548
-0.007559611985043467
-0.022069631106002307
0.005680430737233806
0.11165022543795865
0.11278474232346242
0.0043903949296476745
-0.037085951928943685
-0.046602862215908925
-0.060724989607206695
-0.10852850328721861
-0.005829281182416139
0.04597015395799839
0.05680437023984662
0.042412365129583934
0.018627415047953604
-0.0027080792095818327
-0.01543357129923993
-0.018605101220627536
-0.014718437197258367
-0.0075933549416161315
-0.0006644820243314055
0.00395962444339451
0.00566946984707417
0.0049933902494688895
0.0030134048291804824
0.0008230960519336355
-0.0008186334892351394
-0.001601922531905678
-0.001598027201645983
-0.0010973318021221473
-0.0004384226974678891
0.00011514821621168352
0.000429469874057021
0.0004944110385038432
0.0003813193365438129
0.00019085031761774109
1.081815467715677e-05
-0.000106469842366359
-0.00014748295731458085
-0.000127444706583298
-7.502519567136395e-05
-1.8462510676006616e-05
2.308403321130019e-05
4.217399972155298e-05
4.1102068756773306e-05
2.7607168500859324e-05
1.0459818964746561e-05
-3.6516041825956963e-06
-1.1441785360383254e-05
-1.2803102081205154e-05
-9.672139772105114e-06
-4.675054659751378e-06
-5.541628719320969e-08
2.884886885015906e-06
3.845765571336252e-06
3.2545785798972498e-06
1.865699775945605e-06
4.051751840019954e-07
-6.452807965731622e-07
-1.1087633194705803e-06
-1.0563846784359141e-06
-6.939883419943453e-07
-2.484470825069906e-07
1.1083574015788318e-07
3.0365607451881764e-07
3.312356161645532e-07
2.458678700631829e-07
1.1574966075236917e-07
-2.2367760877830178e-09
-7.617246524311477e-08
-9.9849572491594e-08
-8.508123628641243e-08
-5.107586388183935e-08
-1.5345355982010414e-08
1.1427010248616257e-08
2.6214637353473063e-08
3.13235636266135e-08
3.075603791149826e-08
2.7058187758307847e-08
1.9901264619589853e-08
6.844350907003202e-09
-1.4122072642958739e-08
-4.138104951026762e-08
-6.742355576628259e-08
-7.910091595646416e-08
-6.139986551270418e-08
-4.528008581408624e-09
8.757405524531181e-08
1.9082380753839797e-07
2.610873677316375e-07
2.444168079817144e-07
9.816131912869147e-08
-1.812441229600272e-07
-5.336945749977251e-07
-8.280284845613556e-07
-8.854441207191647e-07
-5.400248944178982e-07
2.7194853559884454e-07
1.4212282141043493e-06
2.537267063923417e-06
3.0507742628923955e-06
2.358930613280134e-06
1.0302809942027926e-07
-3.513045741858867e-06
-7.496730025939168e-06
-1.0098170502435644e-05
-9.233026941437015e-06
-3.315534140302348e-06
7.670610086301464e-06
2.1253242800667983e-05
3.2245680683786605e-05
3.3727223245522164e-05
1.9447327399317928e-05
-1.270502655591905e-05
-5.725827702191892e-05
-9.945360735634032e-05
-0.00011712777013737261
-8.733782774609604e-05
2.784604630129454e-06
0.00014384380753356733
0.00029588721224456594
0.0003903580171727691
0.00034727751159689674
0.0001080291067422479
-0.00032335656834513583
-0.0008458264135878376
-0.0012547885570222263
-0.00128283121846431
-0.0006950154633149329
0.0005765647911196142
0.0023025143399747865
0.0038969099701684036
0.004499627218115248
0.0032419210998278288
-0.00032916460805029735
-0.005784577202456233
-0.011511203014500596
-0.014819678800849032
-0.012650682474391535
-0.0028874034071044268
0.014004037978581253
0.033593401705240354
0.047142616512903114
0.04298815137469665
0.009854931164529969
-0.058537825075475176
-0.15916175180638104
-0.07776766035006102
0.00896393177505281
0.12714397808961686
0.097281473671024
0.12714397817131176
0.008963931199350888
-0.07776766263674373
-0.159161756460483
-0.0585378316166212
0.009854924784610666
0.042988148565870875
0.047142621010209294
0.03359341579135181
0.014004060442548306
-0.0028873787182683085
-0.012650666468489764
-0.014819684482834194
-0.011511240254062277
-0.005784646023186422
-0.00032924945076311405
0.0032418527501501117
0.004499618638592654
0.0038970001062504987
0.0023027160886617665
0.0005768435212125801
-0.0006947524311446691
-0.0012827226276304552
-0.0012549775729166729
-0.0008463926324792045
-0.00032423989155654754
0.00010707993874929357
0.0003466920489170158
0.0003906358944988999
0.0002973925978928494
0.0001465473050048816
6.049302287071612e-06
-8.479509536944585e-05
-0.00011697916015210244
-0.00010316198109143915
-6.52347929181242e-05
-2.349607253778944e-05
9.526137873812849e-06
3.0070128513015844e-05
4.029084246409112e-05
4.382821589046055e-05
4.208359700934474e-05
3.284728607828117e-05
1.1873621400517927e-05
-2.3188440310378038e-05
-6.81816445640561e-05
-0.00010951125041896494
-0.00012527175556504243
-9.185230802550502e-05
4.519731335605176e-06
0.00015449624919554206
0.0003163263411537012
0.00041750093756406784
0.0003727667059631123
0.000118996549222867
-0.00034060723653660485
-0.0008994194399007805
-0.0013398333782591355
-0.0013760759565227551
-0.000755473151288516
0.0005978952051360761
0.0024434431909965077
0.004159490641918701
0.004829447328536455
0.00352396052110986
-0.00024623373397894403
-0.006031201008189203
-0.012116976000664878
-0.015640077059175247
-0.01334874231526723
-0.0030293410482967603
0.014684082015903174
0.03472474376402843
0.047042849961647204
0.037812435132480955
-0.007367355772997608
-0.09885675570543159
-0.03835730147602918
-0.016058710401390324
-0.010878729755615846
0.005937081830643312
0.06472774887873554
-0.009541600158522155
-0.003309796612112359
0.08198432673294898
0.029692653749098637
0.011419774870229632
-0.006377939815552544
-0.05414535377125572
-0.15162302307002976
-0.10336278971992191
0.10094171479956776
0.08135555106592851
0.05986178125937555
0.05290304651408611
0.06701705900182181
-0.10126953302943481
-0.06193329094758358
-0.026272596583849287
-0.002299269425378631
0.007734614815631457
0.0072446175136624885
0.0031463327823400143
0.0025301293862506247
0.009145340739494728
0.02054367291584152
0.026559361683248173
0.00956446044793268
-0.053416754562724544
0.012928083330555246
-0.013281410864048666
0.05363027720991527
0.011404483560697332
0.07373366019555257
-0.12713554166928623
-0.14029804256127607
-0.10015272311372642
0.06456929142558906
0.017470475531165316
0.19986680242692284
0.21938021357856424
0.04594214631562348
-0.1828673121063616
-0.14867296660122134
-0.1358085460879529
-0.01664894061367918
0.1578619135293113
0.16210801650879153
-0.004071827323806928
-0.117082994694846
-0.13275038365515182
-0.19232570075905658
-0.032818819079441904
0.1987828205493338
0.33085853663120507
0.15768978144014378
0.04032040961841489
-0.08068931602115975
-0.2641085014123861
-0.34597687637436186
-0.12508977858363252
0.03820432334911861
0.20942277374736132
0.25867702058663533
0.2390105570993778
-0.027929976272150495
-0.15502598179418298
-0.18281646120506512
-0.1675147433334901
0.030543385297557204
0.1547087116521259
0.15615496060922807
-0.0032269871233967687
0.05332383925933902
-0.07654172957437258
-0.16820552341005873
-0.16727865503888403
0.0067369471888534
0.0490019415497506
0.05166636687363757
0.08408757423636702
0.17619060925763616
0.10966727454274706
0.019774392706565166
-0.19235808960086034
-0.039980391320037695
-0.028563256294928122
-0.03637862354352709
-0.1015794654150732
-0.017623113928900865
0.06289600799724025
0.017484414727123917
-0.06126807039930299
0.11827960225115283
0.2329280628770804
-0.06459026403357461
-0.1489794815625375
-0.02066201543140295
-0.10140655076838793
-0.029933445383321617
0.1412043980548154
0.14801261160315737
-0.08157508228564116
-0.02186197720611403
0.05903930313562143
-0.09111100829359069
-0.09980086627289204
0.03635859167498218
0.15373690886202637
-0.08055483827229723
-0.17492578984814336
-0.023242745207629194
0.08192592338307195
0.03395623722507381
0.09725472752559007
0.09608024222633275
0.00984446123757102
-0.02398392898801172
-0.10023485121511859
-0.13209342127518034
0.16419149343229034
0.08368392669368595
-0.05487201745911891
-0.09924795721846887
-0.05746657491774776
-0.09656490829035923
0.05257337450741164
0.08475547293757148
0.10649436042808141
0.02146852158939788
-0.08205729391634237
-0.1407480157264639
0.07712233949947497
-0.032673729587715236
0.08800730845041307
0.1620806099941707
0.08542562304078596
-0.05835075548842248
0.022172279093867497
-0.1519696073634627
-0.2118666916988757
-0.13140681284043335
-0.030594373486881977
0.00799223704827309
0.11298212358976883
0.19478850560930946
0.32092007441401377
0.10300129366549374
-0.1008600355834873
-0.1696499630405893
-0.19497807297840064
-0.2569689681510487
-0.00797347184103506
0.13215971331726242
0.17025827725555187
0.1281319991950472
0.030768895385962527
-0.10145232921723947
-0.05539092452610689
-0.023992834206088953
-0.0036972763882687737
0.00776943789354746
0.012485864873602173
0.01247127459035697
0.009401177123134444
0.0044074575805839325
-0.0017746057607649678
-0.008343771704880066
-0.013919712536864696
-0.016347581446654574
-0.013126052433167931
-0.0025388807988504032
0.014769746652472234
0.03438622250329073
0.04770602408785892
0.04323083533448342
0.009818937964483073
-0.05873903120956878
-0.1594048452715338
-0.07796151978712648
0.00886163379415799
0.1271314896571633
0.09732969241257429
0.1272155666220258
0.009027981356468432
-0.07772835433832143
-0.15915035894437216
-0.05854764654162038
0.009834749234826207
0.0429677073055333
0.047128381627336464
0.033587534456178736
0.014005294843135226
-0.0028820307459040922
-0.01264438091278996
-0.014814754470721144
-0.011508685641481612
-0.00578436778470907
-0.000330480824755936
0.003240049984734787
0.00449798845833562
0.0038959292373696515
0.0023022557836405674
0.0005768438081994319
-0.0006944833073214923
-0.0012823048313812325
-0.0012544299609201367
-0.0008456858045816887
-0.00032339773354481013
0.000107885762395797
0.00034711421291140637
0.00039023301306328654
0.0002958254176595461
0.00014384127670325804
2.82036106459982e-06
-8.728899528661087e-05
-0.00011708589065774684
-9.942918523513089e-05
-5.725251470182778e-05
-1.27128663580286e-05
1.943332627503132e-05
3.3713688448365916e-05
3.223665822876188e-05
2.1249883892528335e-05
7.671876722235293e-06
-3.3117390444658247e-06
-9.228813828498041e-06
-1.0094998106581233e-05
-7.49519001229402e-06
-3.5130002644531704e-06
1.021282063637561e-07
2.3577140293814794e-06
3.049715623471818e-06
2.536593181988955e-06
1.420946610955421e-06
2.719465498315277e-07
-5.398701957306433e-07
-8.851929252329007e-07
-8.27666408281597e-07
-5.331797720778478e-07
-1.8058767788895596e-07
9.882283625195232e-08
2.448012410381232e-07
2.6083220508482277e-07
1.8964152116204427e-07
8.54613777721109e-08
-7.1064654513867596e-09
-6.346175465919438e-08
-7.933094769199821e-08
-6.463460024014964e-08
-3.518094346381038e-08
-5.5741617878930895e-09
1.4897362536376636e-08
2.3205114666796302e-08
2.122580844632916e-08
1.335467922142585e-08
4.209982741232034e-09
-2.889000855808219e-09
-6.47993942212183e-09
-6.731456091707184e-09
-4.791561704861832e-09
-2.0699848010020435e-09
2.975362516571234e-10
1.7027793229697842e-09
2.0609613564426127e-09
1.644937010482322e-09
8.687691968627089e-10
1.0675344975660289e-10
-4.0869189962567947e-10
-6.073936604946616e-10
-5.437192169874967e-10
-3.3388447704251197e-10
-9.700024131904607e-11
8.31327471392887e-11
1.7118698556232647e-10
1.7352188205994875e-10
1.208907456750061e-10
4.989219115342866e-11
-1.0588991378499348e-11
-4.555585801218186e-11
-5.347527135475852e-11
-4.181123781840186e-11
-2.1393139223958623e-11
-1.8028850587309917e-12
1.1154821723623845e-11
1.5875316872234405e-11
1.3911838566123421e-11
8.331413298306148e-12
2.2025235056273095e-12
-2.3622577897890265e-12
-4.513952382511165e-12
-4.4678404624122085e-12
-3.0454699685757025e-12
-1.1958184803267745e-12
3.474220235305441e-13
1.2155628821268653e-12
1.3858336685470755e-12
1.0614402382826111e-12
5.25207667513225e-13
2.2147170226660946e-14
-3.0305704761876834e-13
-4.1431777492723807e-13
-3.5551423970937744e-13
-2.074408819664036e-13
-4.9056072868109564e-14
6.646479106915266e-14
1.1884163885967996e-13
1.1493238856408032e-13
7.66277438929538e-14
2.850415859501047e-14
-1.0826096929642416e-14
-3.232830040823191e-14
-3.584507135382331e-14
-2.688514303715929e-14
-1.282465596991991e-14
7.873600880227626e-17
8.226384133881026e-15
1.0824245255414021e-14
9.100461799683709e-15
5.179725521196558e-15
1.0914769707619226e-15
-1.8279434384525472e-15
-3.0974514622228578e-15
-2.927130907925225e-15
-1.8988850323966384e-15
-6.4842959201171575e-16
3.5270259114895936e-16
8.838994429987794e-16
9.521086692007084e-16
7.060975960547728e-16
3.3797922210281984e-16
7.387699163229353e-18
-1.9637116042232377e-16
-2.5633886432877724e-16
-2.0662245265973365e-16
-1.0300563464576831e-16
2.405741810579817e-18
7.607980750814525e-17
1.06692986772765e-16
1.0050585970028123e-16
7.295576083267632e-17
4.0476791373050596e-17
1.5013193196655186e-17
1.9458079666798096e-18
