0
-3.969042417636149e-13
-2.6209115642912727e-13
8.014053859388908e-14
5.815249339253019e-13
1.087347700558726e-12
1.3509062062234078e-12
1.1016962660912274e-12
1.6490644168977743e-13
-1.39688861795633e-12
-3.1767798759856374e-12
-4.4241938442105946e-12
-4.215315559687321e-12
-1.807806937192497e-12
2.8880205087508026e-12
8.886187465380401e-12
1.3986604704933408e-11
1.5154610659663784e-11
9.532097030540333e-12
-4.051485672224625e-12
-2.3522748285071965e-11
-4.270328492044423e-11
-5.197182654470229e-11
-4.100743555462949e-11
-3.4697451034180684e-12
5.756594438350223e-11
1.2565908492719843e-10
1.7134848271502304e-10
1.5911373206158927e-10
6.136337291791681e-11
-1.2336532227377182e-10
-3.545195632297049e-10
-5.451290969488243e-10
-5.777246204219704e-10
-3.445262285452356e-10
1.9381663138179142e-10
9.49113963488398e-10
1.675068394415555e-09
1.996884644908267e-09
1.521391397490553e-09
2.01373603531737e-11
-2.3624151087914198e-09
-4.963633079778808e-09
-6.628508534038072e-09
-5.993077883477767e-09
-2.0353241262026723e-09
5.2226779038826085e-09
1.4119617159808211e-08
2.1222207639213555e-08
2.1988665943311266e-08
1.236357976354108e-08
-8.941205184118486e-09
-3.820555660975262e-08
-6.562744078157164e-08
-7.66234216575954e-08
-5.6240373379465614e-08
3.6899225920806688e-09
9.658715802878536e-08
1.95804893269083e-07
2.561154100906075e-07
2.2521361636626324e-07
6.538603397569507e-08
-2.1943387815585564e-07
-5.614310330277555e-07
-8.252503673461647e-07
-8.355000230373084e-07
-4.399491004753466e-07
4.0200680128810796e-07
1.5345435047574566e-06
2.5681880576584805e-06
2.9361412336413366e-06
2.070681070007731e-06
-3.1758867036711654e-07
-3.935569438171333e-06
-7.714013531343912e-06
-9.88396680927161e-06
-8.442408560656743e-06
-2.0035144896215052e-06
9.160147512794116e-06
2.2289365136243404e-05
3.205474596369071e-05
3.169131299279926e-05
1.54991016146508e-05
-1.77297547302014e-05
-6.150869556600163e-05
-0.00010038791448075356
-0.00011236682009055357
-7.593587831122958e-05
1.903518004737949e-05
0.00015969603110583
0.0003032053367725963
0.0003804333008449385
0.00031477749924646863
5.560718776211081e-05
-0.00038162229108321165
-0.0008844198299135277
-0.0012419341105241058
-0.0011909194028911594
-0.0005135159172901479
0.0008316119680627605
0.002590344043478591
0.004171974959430152
0.004749948029191105
0.0035326495574553676
0.0001582001256856336
-0.004934228700882926
-0.010403072939617893
-0.01447226355433812
-0.01622762786539277
-0.017835759057493423
-0.02748091011575184
-0.062390697084595506
0.04923701119395458
0.2692487215721023
0.35572032747880233
0.07571306790321854
-0.17704140099035387
-0.56609764076988
-0.8087855816832196
-0.5961552020131701
0.15952600086791682
0.6585890526176952
1.1522215148405144
1.3165327703867746
1.0899166057330976
-0.21633896434734304
-1.1512991918862052
-1.9458746973713996
-0.7827231769302805
-1.3705072065404122
-0.8544534691253988
-1.6594556044301918
1.1764733959795013
5.455764575510355
2.1627624643561725
0.9907183526113891
2.5108975458171754
0.5704984590111692
-5.568516603025638
-4.094588404523759
-7.082102640893476
-1.4321889957200562
2.4350458794502194
4.211721021814064
6.63673083224729
7.755831402869143
0.0875340247477543
-4.83859080814629
-5.846496515678722
-5.16425872013131
-0.966856396604479
1.6494571987604978
2.634772039243653
2.3681398925619046
1.3745099447136506
0.2840869991341659
-0.5044213762861844
-0.8482024131669837
-0.8023034031003606
-0.5248584316164879
-0.1870859448363189
0.08625210080522817
0.23860402862870464
0.2725618064931484
0.22418627036449562
0.1353687205632823
0.03465583537738305
-0.06917030519001889
-0.18217414520752145
-0.1141654444949254
-0.06765650622038921
-0.031750924448345375
0.01700444301876385
0.1077727824950604
0.06568150364143618
0.10303514289529438
0.014706859473473971
-0.02076254830196116
-0.034912203547222326
-0.06023800381837466
-0.12132301145924297
-0.029127854532026248
0.019806236999521613
0.039221375759339226
0.0457569200064561
0.05101437825099682
0.05580132475471024
0.04847562932827351
0.008017543901818542
-0.08901092963935665
-0.05976990868784082
-0.10757016756270207
-0.01800894397860103
0.03989511771230243
0.10808986674143183
0.03144437097360857
0.04982378985639916
-0.007849150220256194
-0.127088569493521
-0.10975047201513206
0.024334181549833907
0.03541812005550809
0.06258550914554302
0.22561582460320564
0.2326692245359923
-0.004920211447527289
-0.3525375333164577
-0.23241368810419208
-0.2118643404703462
-0.2064491792727047
0.09974488585182034
0.6207402676978437
0.231373559841121
-0.2634044870383704
-0.7452952134272087
-0.18320997102304376
0.7827187792255612
1.2773454403454356
1.0546413470246696
0.9937773682883134
-0.7849613517946602
-3.2213038683724795
-4.4909689537605875
-3.513902980350042
1.184057237039223
7.505098057349806
5.0332362441568
4.0661469709546925
2.7421095129440727
-2.528814514843476
-10.050364327672167
-10.259653168466293
-2.0122080037785306
3.9259987568914947
4.802656164700935
6.002011986808231
8.624159744863157
0.5412371144337436
-5.371194884167924
-5.2811894122981675
-3.6959442501929285
-1.607132475021948
0.7701379944113564
2.0232820677185352
2.1838292230152976
1.483942985503539
0.5272049370570242
-0.26087737330938443
-0.6826797551092723
-0.7363185652150589
-0.5389083329728201
-0.24367854806026534
0.021999263969678395
0.18652565360846507
0.2345609651804189
0.1888006021725785
0.08563497117086573
-0.045377076424763504
0.007035794806725206
0.03436609953678251
0.014888095008107529
-0.07493066525657106
-0.04783825580980651
-0.09578125604728986
-0.18576768081229256
-0.0636304833518831
0.13449728283957743
0.2659387379356572
0.1656146566954369
0.035929849642598086
-0.15465805700209911
-0.2653707030342455
-0.17322363342254374
0.03604608930469462
0.27442543085527227
0.4574412258810139
0.3134786615199703
-0.2010881116154352
-0.6843831283805353
-0.6790873224601037
-0.6823605878450737
-0.18239559718029805
0.4846178959253559
1.6790279014225664
2.2364997225225762
1.911514331405911
-1.1049740680415092
-2.8216142890739424
-4.303024688237725
-3.82923269519756
-0.4157140257971786
7.514317832534998
3.9925546695622876
1.8368183501248319
-0.03530386105707298
-2.4749102165598442
-6.207449143722878
0.11528831458629087
3.4122296918124784
3.1639913944469082
-0.5041422517788479
-6.831929095888757
-2.530837943424223
0.3926160463087067
2.903901530196359
3.966265743406959
7.243739187442618
-0.0033365690627744525
-3.979562294269559
-5.22028940215915
-2.7911146624048175
-0.5685996918176532
1.3018036462648221
1.9598965222413969
1.657025316454722
0.9434397806171448
0.09331324433145595
-0.39153077896734356
-0.5962252635305938
-0.5492371635672177
-0.35381355070282594
-0.12378539369313755
0.05858957944030825
0.1579531877506107
0.17937744282218934
0.1500701198452376
0.0995438018642472
0.04573180150702699
-0.009595566393114673
-0.07673845493356597
-0.16880808232719657
-0.09210699765518388
-0.04049035097543221
0.003942361795617727
0.06422261133833922
0.15878319025645637
0.09268893620995614
0.05354037990832286
0.013948400192237611
-0.06014898797988515
-0.19852598510570302
-0.21765323597901204
-0.1178576915582032
0.111480482512734
0.2806424751378209
0.3877128828142286
0.2127893878519305
-0.0777901855274116
-0.5191142008641256
-0.7353375180709766
-0.7378269790127565
0.06010632532810896
1.2171722042304467
1.8455494447799476
1.6253023994603208
0.2684097375985467
-2.177079991915651
-3.8257529222688516
-3.72058565495212
-1.5188820660800149
6.4981622931677006
4.358622713126589
2.591470767536792
0.9838631656651871
-1.0578131990767792
-7.3981774813031835
-3.038331848408382
-0.292403970159377
1.0394173447024764
1.5020120324944188
1.6982642276349273
1.9973934012786774
2.3446866360504193
2.241930884152067
0.9152878618935102
-2.3727737564160414
-7.968118819825996
-3.5611699199827336
-0.7357808253950504
1.2204620877784333
4.101434224243224
8.709265296592243
1.898316560665791
-1.9334364474424914
-3.077347889094392
-3.5534225785469884
-2.902499710882915
-0.4719884851458973
1.1237424373515956
1.363830795762792
1.6579130869088794
1.1409180879947671
0.2980321097780665
-0.5382339343763405
-0.6122916096147397
-0.5112377928808647
-0.3037052486463311
-0.08020190459913477
0.08803398958217092
0.16705838659436895
0.15941212881441255
0.09266460818079979
0.005120760114214457
-0.06634718938218694
-0.09470368330177477
-0.06802559571515032
0.007151181571721584
0.10413051443658126
0.17719457003516226
0.1676321925180636
0.01600361431927564
-0.1204449474498609
-0.24958510685513907
-0.33225111908207317
-0.28290293507457215
0.013450575806027112
0.2706386210503082
0.5661856874947053
0.5148945964031512
0.26328430999067975
-0.0900705074698829
-0.4541334202490416
-0.9010596006266052
-0.8389400848987969
-0.418924766175162
0.2186413554003872
0.87238406556878
1.4119947001876456
1.3508297347296028
0.8880412399643113
0.2271280411180672
-1.253345746523062
-2.8312573817703095
-3.54594108276227
-3.4398410092654186
1.4400512222525879
7.523592570765612
3.9898382267591757
1.7637385681131486
0.5292526497097958
-4.242542523417701
-8.548783027222361
-2.542404572527862
1.8223437636465185
4.348925011332835
5.030708539726966
3.8872662486875806
0.9197000558649515
-3.781660204784095
-9.84585858659393
-4.6831835971454705
1.2706877473777087
5.28955636896021
5.758286503329638
7.615885642170975
0.40982900006984035
-5.363203076659414
-7.0886143028366995
-3.3977407049844937
0.3585196635986989
2.2204879420640427
2.5181999567866167
1.8441299399177935
0.810971333304809
-0.1216934058609531
-0.7177760375199838
-0.9436604794160681
-0.6938410597751201
-0.3060597557405489
0.10261021369513602
0.26563078464663237
0.36628946623379843
0.21935773658992114
0.04939251214399627
-0.12454128788558481
-0.09451092882721794
-0.06175496050437204
-0.03140327678028644
-0.007676375795895171
0.008436275807548783
0.018804645712025156
0.026030361187892204
0.030955411322132084
0.031106379847967502
0.020894371371506
-0.006327709513116528
-0.055047912076405255
-0.12456468971197947
-0.007663436943493136
0.10805738367600494
0.03646457129882117
-0.011866780608469397
-0.03381950316855286
-0.036255618009097976
-0.03650920394380669
0.13940967847212932
0.2615120891922681
0.10407882653996199
-0.14315944438482775
-0.264333796872988
-0.41365226215446077
-0.5257072144928798
-0.1437682831905706
0.33750822318716345
0.6280640596101627
0.9178144262428067
1.0931566262713108
1.0079191817692517
-0.19584141276134162
-1.7458041271401055
-3.3272898328002527
-4.26125049870097
-0.4145776023537918
6.764411165360429
3.556991090043552
1.9451617056109054
1.3415485181861535
-2.6933675399268093
-8.204535471937197
-2.379738330337398
2.02042774978181
4.4972769965393455
4.758243924328635
2.6661682696332387
-1.730993851148684
-8.090727640353997
-3.667817192495153
-0.9182316484071176
1.3192555124931653
3.89275972692709
8.175210069538533
1.8193873391313446
-2.4621317610749607
-3.8797866404868118
-3.2014929924593702
-1.981021926124448
-0.5061264113961597
1.27319266958839
1.8505047770944754
1.569348384649031
0.8132314740110287
0.04611323679936531
-0.46430943420020676
-0.6436627040482541
-0.5550809866209909
-0.3247470627707826
-0.07717830001486801
0.10406825506693092
0.18777266095371575
0.185356709539902
0.13094314292265474
0.061300585261681736
0.0023025559065571995
-0.035756064525429974
-0.05520886417067334
-0.06377486655524735
-0.06696046133895063
-0.06343527920195625
-0.045322129001287036
-0.0035560679738743514
0.06338012872210778
0.14058260726147537
0.1917329942220089
0.1615035068540981
-0.013221887735833902
-0.18535025453243575
-0.3785492271230008
-0.37505636978368534
-0.11703108379592504
0.27680208236486603
0.48459359620195164
0.5561007055404907
0.10087192489060577
-0.10323653504008838
-0.2837274295656926
-0.4408399010605675
-0.5246488099561072
-0.23609351983217844
-0.2587636013874372
-0.11752923065707603
0.5511926357968383
1.1417954619226924
1.0625473261912508
0.7827060909854275
0.7517438750914243
-0.42513718305384757
-1.7973807524519567
-3.3277803873673157
-2.4660066797382587
-1.6821669625507147
1.2427002371088332
6.83529133452134
3.5752770573397803
0.49368987077037363
-0.7963397310542775
-2.042208759037853
-5.152519039099506
0.823199354379232
2.829790575286898
0.5981464073909792
-5.320060562236538
-1.6676480308484867
0.6653716428715479
2.083738606920453
2.4946150534821965
5.78348964794085
0.4552264952949534
-2.7121529117517538
-3.6282214375227047
-1.7579551193496732
-0.21088419448177476
0.2632227962381867
0.34238618807405397
0.4833387469096304
0.8002508544321312
0.7204502011247733
0.2575578425794498
-0.07292981478885117
-0.28813047233262484
-0.3299509537738322
-0.2312536230584764
-0.07344785157870935
0.051527705767149726
0.06845254881374187
0.13451792594149453
0.04563760589209635
-0.16419125608189
-0.22937452285363438
-0.06518588010957835
0.014049088505295172
0.2736510888515196
0.3396954144544968
0.18931906771236945
-0.0449657413857244
-0.2570914163652859
-0.3412037113591297
-0.166595242853789
0.03773526129676896
0.08486036800410224
0.21959801646991262
0.10159143955400567
-0.011870861962505048
-0.07887024624977261
-0.08028360902371505
-0.022478612459664652
0.06324858474731833
0.12376487431973952
0.08995484815383507
0.08562933651741787
-0.16149479983950882
-0.30979935356966554
-0.3993170286938491
-0.05665041004933863
0.29085235954387656
0.39782643146362223
0.19174107082186423
0.5839176253573314
0.5082637437293122
0.5864797133043831
-0.39321178481904573
-1.6098234095771011
-2.7922050037826365
-2.2863590694213416
-0.22316114168287832
5.838813389182857
2.6674028602337834
1.2036262766430883
0.17490904676618602
-1.3124732676951716
-5.056441008613977
0.3871455267483048
2.185950694961651
0.188010055799541
-5.064758218397751
-0.45981350955040384
1.246318750609717
0.7147788007214051
7.312991801763595
4.498016609505249
-7.6369451268983894
-3.2512504628364627
1.047462281182113
-4.001043336532495
1.6074806073377639
6.972805446680132
-0.12219918810416662
-3.2139458441789097
-2.127188123118109
-0.33183317677981106
0.6722308056616564
0.9206442663880678
0.7118934499353453
0.327396371424608
-0.026812810555858258
-0.24302035572640426
-0.3018542389367707
-0.2421205149959032
-0.12570734128897054
-0.00940196981444662
0.07065102630713067
0.1019829062663892
0.09023724247030995
0.05010814661945823
-0.0030276805995486126
-0.05857534525579112
-0.1130535826918036
0.029781227266563678
0.16009906730159695
0.06429809323838594
-0.07118498131142034
-0.05471698216079961
-0.08440627268969168
-0.14544941585769833
-0.011779732638917104
0.14776001303249042
0.1606630088030559
0.04287212276808691
-0.004945433612231743
0.00446132397265096
-0.1487008047702802
-0.08325434509322277
-0.010652468630548573
0.06753920067681009
-0.04221300060944369
0.06948154220668397
0.008491714936850376
-0.028735165515513816
-0.05908403363382107
0.08631373441123712
0.16499292896585527
0.13063750450261288
-0.05479947103537912
-0.006075981222128375
-0.10098017707859103
-0.27421222578285825
-0.4254184103224918
-0.4460275772014723
-0.26471592114209486
0.2965573349246587
0.8735921490952662
1.5433595501759345
1.8653773631369717
0.9944920905825716
-1.3477791613169905
-3.6910415843521487
-4.498906333642437
-2.993761290310203
0.8406421086472202
8.118690856538164
5.0918738316135
2.3165285166474843
-0.7437059620487043
-4.078143648338786
-8.75796200901221
-2.595599204167555
1.829183184922618
4.334500747983988
4.961688053018037
3.7945882131053743
0.8920617659184975
-3.6273426594402265
-9.410333661305147
-3.7330744017301596
1.2713022613519154
3.781179129393483
5.326960254147577
7.660559680881152
0.009529677091877808
-5.0105421616389005
-5.471571866391079
-3.137093266159228
-0.15438032051110806
1.6660058500930262
2.178390550921287
1.707736957843872
0.8290416679505093
-0.0019186175700329653
-0.5296763244797212
-0.6955889526126665
-0.5790563467718104
-0.3200569416896156
-0.05267509577364225
0.13458953817623143
0.20980510013676867
0.1873815589038128
0.10772429434633414
0.016606618808431294
-0.049775392090144976
-0.0723160781770545
-0.050293232289672654
0.0012239948795360863
0.055917488308187935
0.08184491232442427
0.0480721925118265
-0.06783573279213195
-0.0725172801265533
-0.15181462487606245
-0.0704701404897785
0.02209800468059651
0.1806617982440816
0.05064174793480425
0.056251668879610695
-0.006157547108692066
0.03209184121369489
-0.08138959027309518
-0.008935864055717935
-0.009712357455221563
0.07295542003180389
0.021842776916893264
0.05202530458988862
-0.18884750726701427
-0.22864455612220158
-0.3897254619463478
-0.2196308296260121
0.06996040577201616
0.5658829100028608
0.8338230865406464
0.9346181191715127
0.8894402008287684
-0.007372022246208
-1.2496696652738613
-1.7975072730450563
-2.825455818803661
-2.58705509423848
-0.20952428206780455
7.018490627171063
3.156030248035222
1.6290470659909575
0.2431304896553198
-1.4021129324715287
-6.971405573164232
-2.0488879542634915
0.8905866947758383
1.9298158379044563
1.5896912495974558
0.6103283027954434
-0.2859182121908803
-0.5899228096127933
-0.13020648945036506
0.8835851894424556
1.902155629143501
2.165844166473622
0.9149858663284272
-2.3512970585241844
-7.637090143683876
-2.3269305256219996
-0.25799833707145853
2.198798378615992
4.926382839175532
7.863886995288046
0.3769461097888751
-2.7140017598669703
-4.264089712716019
-3.8079749099947175
-1.5918540703308661
0.44486639893905977
1.694249831296882
1.9453288479433821
1.3716190350001858
0.5268850562341234
-0.19138258404853603
-0.590627413011644
-0.6577992889483589
-0.492143194808512
-0.23050983164230754
0.010052249454460548
0.1616590646440894
0.20856099017416707
0.17283864053290726
0.09386514221822893
0.010325404219068256
-0.05063277812621327
-0.07666748739312833
-0.06820000332269749
-0.034209735176384135
0.011631585086311933
0.053428278414999766
0.07448925467564273
0.058813838200994825
-0.0064998643183097745
-0.12810841174274476
-0.1039863597890757
-0.12376078179971454
0.02682800822714964
0.15796607695170845
0.2672601757539871
0.13486695907327348
-0.07459844951038795
-0.40344471304911317
-0.08929456549915453
0.0442124409841176
-0.00920476608617066
0.15910472274918214
0.5677867881405141
0.041964590108919855
-0.5874871755694919
-0.6852647213931398
-0.8204534815188114
0.21265341437535878
1.1671815706076956
1.5281256266173295
1.7335620218445238
1.0490953713626117
-1.9134767405470887
-4.676768859970858
-4.646462840032468
-0.1902575120820278
5.940437465611965
3.108726937192591
2.528631965410142
1.9550475053352037
-1.8187885401930615
-5.886709018615781
-0.47318406898165577
1.791781080677382
0.48358771155641456
-4.151767702178152
0.7291739978891354
1.5832195402547002
3.4281628648228115
-3.2209616283108913
2.028995085035141
0.9109226770285752
-0.748797036367062
-2.790787509773609
3.985922934355832
1.9812188335241274
-3.0205992968660604
-2.6642529680040647
-1.6772102278363477
0.5922128964716913
1.5333586143830549
1.5508920259461088
0.9142280364629771
0.03289104711953429
-0.6105444466315023
-0.6682839636710755
-0.49609732222896274
-0.10979991144845568
0.250447411261753
0.3402829588085281
0.11847666785098919
-0.051510464278041346
-0.2003524510377686
-0.15085287955905177
0.08320602134051418
0.09570256524825145
0.08461935511237482
0.04833079507871409
-0.016173305196629875
-0.11244325048661816
-0.042098507181155195
-0.002584666384815945
0.013321499639247168
0.01585155035116333
0.01512214598099225
0.01779322973302617
0.024730479392133103
0.030533708585133757
0.025269305763321658
-0.0018863022483880778
-0.058085226887964546
-0.14293198624204595
-0.047070591066746194
0.04563719156525121
0.15270506296470443
0.08638042370713925
0.04842504141095404
-0.1719282230955729
-0.19699540117753903
-0.05823438449220279
0.20631367454554428
0.3554831440585276
0.35201777787053923
-0.024747939690622046
-0.5626293403199173
-0.6046586283389224
-0.452766039337285
-0.19553919858194924
0.24088214927743024
0.632094826511248
0.8080983290588734
1.0452405561660536
0.9164960208045935
-0.1969812389308976
-0.5522941320573644
-1.490573400380703
-2.3370747547681012
-2.80807600119435
-1.153769632909619
1.7770530961928386
7.4182856561225305
2.822073005494317
0.355209930293125
-1.3938339929355874
-3.7362615061532494
-7.5454696389610945
-0.9933816004179046
3.3518245129061817
5.268188067543068
4.749413214210537
1.9169312230488034
-2.956592789584387
-9.336798564451279
-4.335620908512505
0.24294421557048373
4.669387382218307
4.931415993427075
7.60340159665311
0.4990493065958974
-4.21449778413398
-6.683259048185452
-2.9540324603834653
-0.04688772590903144
1.581468844978308
1.973888863623191
1.6770212786139895
0.910765434108598
0.1836283841001516
-0.4045264357869894
-0.5707554127271085
-0.5939991575062843
-0.4328788363359203
-0.24880996034002012
0.044985511229371514
0.20204209060925588
0.23386746492707278
0.18547909634687704
0.10801668498314022
0.038101877522621355
-0.011380468116017131
-0.04922804082873042
-0.09615646624580386
-0.1725049674884354
-0.08848878067491872
-0.04046857198958554
0.1859847578884081
0.00836875188387642
0.238961356925851
0.080154783958055
-0.07420453163982112
-0.23204071764237713
0.005789672312936656
-0.1482059066663508
-0.06803101433569535
0.07867325497114218
0.11805763602694065
0.056052021953463135
0.06773305479245254
0.09412674058954609
0.04858505126850105
0.03252823868286929
-0.041965614322741054
-0.027260074686073724
-0.11890684461839039
-0.04450928978872223
-0.26862452886132293
-0.4179688553537708
-0.7281102221793312
-0.30740049838503114
0.5948630270084103
2.740039886663585
0.7029968393104973
1.5525950067704732
0.41304849070514293
-2.327143159146092
-5.228109121957793
-3.120459288202974
-2.0050758388248004
2.0600376160152267
8.760862028424048
4.559942433677339
1.714000788174626
-1.2358408779765102
-4.529330774265657
-8.743375412514364
-2.6204006309796375
1.488498862040907
3.7273034907783167
4.465748659733773
4.009107108888462
2.4338435984514706
-0.37587173344813796
-4.51747504056986
-9.801792860128558
-3.783883125441924
2.9868828107960326
5.28392973094084
5.199299523271744
7.201359183032499
-0.1854255804764242
-6.4219708733424135
-6.390286057161825
-2.3857862872429596
0.7684101225590028
2.19779396928561
2.260526360740985
1.5277897113987318
0.5627767667819348
-0.22991454992561144
-0.6594419992050944
-0.7228899213663375
-0.5338909697022483
-0.2432261580118007
0.021771314146383013
0.18762228487762528
0.23705585305927837
0.193413307956115
0.09902925795151864
-0.003218987675142243
-0.08081371466649957
-0.115128801287953
-0.10055938990402609
-0.04274187597072539
0.04199009464769762
0.1260108371171106
0.1707184444904344
0.13044671828235682
-0.03853011294989121
-0.16511071919644535
-0.2508392820568188
-0.26365093220003916
-0.14279936387504413
0.1839698742543568
0.37535127857427747
0.45242563080006515
0.18558889268736425
-0.10134412067515018
-0.31107656154178426
-0.34561918976839223
-0.4847862778599601
-0.5817103368650269
-0.47969169833511377
0.15643542398215035
2.6142533581158274
4.542446173565108
-2.180500515883775
-1.7193862304738494
-2.742450251947916
-4.347142172970653
-4.925452074520787
5.007430296477821
8.677231205071434
3.9357849296206555
0.11125211562171212
-2.0978084734984
-4.519304670867114
-7.324848746399388
-0.7220163890169458
3.3754730683055127
4.894775833899329
4.053008090770037
1.2235992671010179
-3.1079602841173193
-8.310874909517146
-1.5788547599375997
2.2091630249116223
2.109510628811338
3.8733506872621515
6.5564155630207575
-1.7207940425552715
-5.229035552135317
-3.1567358382687036
-1.5207571412095024
0.2268619119383215
1.4419394947322084
1.5976809031054953
1.1233759339042642
0.44317057609733745
-0.1346657985046944
-0.4595315977495035
-0.5209245513350208
-0.3966804292902918
-0.19434493602469394
-0.005730876856943223
0.11632911070161597
0.16001084541734323
0.1424778721848868
0.0928190940823465
0.03740976826436705
-0.008127627856630733
-0.03967584293317751
-0.06005662799751387
-0.07249068532083995
-0.07553619701717333
-0.06204414592280447
-0.02305928515785704
0.044352659273556784
0.12823324853109672
0.19593286459148726
0.19550411988190522
0.06670420474236359
-0.039353588411552606
-0.33708949394803356
-0.5885477464131961
-0.3000337011177814
0.06102682902842133
0.4311084986043445
0.7084577489480591
0.5199985504034144
0.011418702851811773
-0.334627072422268
-0.6595042617552678
-0.6852310064406898
-0.08451462331148506
0.32532802522412635
0.5661719680960364
0.47268246780058404
0.27117631288082317
-0.22577271150248757
-0.608564044683148
-0.45266768971098287
0.09357705190049521
-0.2937916922934296
0.46711736404643184
0.6373913535390677
0.23456004786809181
-0.37575799582289016
0.1299744859071288
-0.3432066961900657
-0.28115153694857564
-0.13908122204291382
0.06716040243205985
0.15585270800106432
0.16418815364031708
0.13024068681377818
0.07913903494017609
0.01777853166052087
-0.06135862252510302
-0.17010132975054848
-0.11308814566810435
-0.07994861664841353
-0.044603153357612405
0.02773781923727763
0.16831016756167821
0.19185760047204006
0.08814229459085542
0.02158063200852971
-0.06038301393418364
-0.21303469966954192
-0.27955404457948285
-0.08104451486748276
0.1854753569298147
0.3421119075587789
0.42277622710634144
-0.3312986464006925
-0.27135084474370513
-0.3394966161111553
-0.27202103829987434
-0.011906495786924879
0.6711141860053963
0.5614196646170063
0.39080651245453296
-0.14773430545267496
-0.7672038862653353
-0.5467489065687146
-0.30210178169948115
-0.18011784551229149
0.5194473321337627
0.7040490318225536
0.4473697103759266
-0.03589479914279951
-0.19058360236469873
-0.499534975891003
-0.2514858801669874
-0.11234166892285254
0.09028599487668551
0.1666672506931358
0.15265020867131046
0.09273394756471039
0.02539267007390104
-0.025255873819402325
-0.05070461902201413
-0.054056493066992034
-0.04375373428178196
-0.02788644475004941
-0.010955127122417845
0.006323405832472101
0.0247549305271546
0.04335235297077124
0.05668796856623813
0.05441783943655997
0.02373889845129108
-0.04561900548249678
-0.15554593728941812
-0.09541316585626601
-0.04207638976151447
0.03497758659342749
0.1646203510699416
0.16451427176092503
0.034923792393554545
-0.04142465801013509
-0.09339192003921594
-0.15197323690420955
-0.0412130877470782
0.02723542141800959
0.05459133687690909
0.051343024612418645
0.0317808884836999
0.008970184832773249
-0.008365305691110617
-0.01668102153472035
-0.016663070771730664
-0.011386802096329186
-0.004448047695166007
0.0013612716632116694
0.004631420874539151
0.005266352428341934
0.00402993897089179
0.001990994918622823
7.761843777809221e-05
-0.0011604213919283422
-0.0015838867928940881
-0.0013566960419089135
-0.0007841282536280812
-0.00016726187525328926
0.00028709178394384366
0.0004939163795708193
0.00047046114917798055
0.0002942630172139046
6.0896074200788744e-05
-0.000145477027508019
-0.0002660204152809096
-0.00027030955433748655
-0.00015580171551481047
5.131919278187585e-05
0.0002940323751596204
0.0004863762193148906
0.0005269914099476373
0.00032951018132031454
-0.00013260697167505456
-0.0007800342660358159
-0.0014034923794738763
-0.0016880396422085863
-0.0013035177696051076
-5.601463534591994e-05
0.0019385843694104316
0.004131954171412684
0.005562195711020864
0.005087708668282754
0.0018461118303225467
-0.0041571733367434405
-0.01154594614351441
-0.01745509449941831
-0.01808301179328613
-0.010040445526050781
0.007688840405053773
0.0317534403374367
0.05331122833365796
0.058744932235796216
0.0327993494005109
-0.03615465265792711
-0.15019136520591495
-0.09763827374597765
-0.053056752995257396
0.017428684865429086
0.14648340231648857
0.15475211477710749
0.0429440196768853
-0.01001506615501521
-0.041897752275477554
-0.09686220664016393
-0.01327318184421242
-0.013273192136273485
-0.09686223433109573
-0.041897788111904394
-0.010015096033212007
0.042944011876107656
0.15475214224580122
0.146483468715584
0.017428777938184457
-0.053056664377479086
-0.09763823547472521
-0.1501914244101753
-0.03615483570982238
0.03279906158226283
0.058744621029986885
0.053311033513124745
0.03175352522108052
0.007689325197662304
-0.01003956787616409
-0.0180819459230708
-0.017454256464994565
-0.0115458811295674
-0.0041583619774448735
0.0018435277430469158
0.0050841927133394565
0.005558939748483005
0.004130713696632343
0.0019411405376099497
-4.8717888280364406e-05
-0.001292324855494362
-0.0016762051881705066
-0.0013964762527698144
-0.0007840908446202625
-0.0001521640349440934
0.00029509375361256847
0.0004860518239356931
0.00045530299271525504
0.00029386566710535385
0.0001000801967945962
-5.374424943418801e-05
-0.0001343166045679563
-0.000143414649225969
-0.0001044509870420784
-4.722664173900424e-05
3.7079399492997824e-06
3.478003530251462e-05
4.35952836068821e-05
3.557893296221406e-05
1.9412271389491148e-05
3.129763004616064e-06
-8.148749282528393e-06
-1.2744114063203217e-05
-1.167784139512942e-05
-7.361722159818579e-06
-2.3351744462690388e-06
1.5734838525616692e-06
3.555991372468445e-06
3.701552461484617e-06
2.639416654938926e-06
1.1443250626261497e-06
-1.5850696907335927e-07
-9.334328457334718e-07
-1.132690475574571e-06
-9.055668905332006e-07
-4.794782640962618e-07
-6.036197762716105e-08
2.2365155112611826e-07
3.3361770261163886e-07
2.9916709168751206e-07
1.8408096705779227e-07
5.386039729537054e-08
-4.533024670224828e-08
-9.395689445334842e-08
-9.542671821678355e-08
-6.660026176770735e-08
-2.7592993767813707e-08
5.692613175878046e-09
2.497860677270415e-08
2.9392639983430022e-08
2.3020199427517355e-08
1.1809827064613489e-08
1.03398599105692e-09
-6.106729734675128e-09
-8.720704369248379e-09
-7.655330723238588e-09
-4.594101210469354e-09
-1.2245852669790738e-09
1.2892949314833175e-09
2.477889598411657e-09
2.4572907355243713e-09
1.6780114660948282e-09
6.616847123842963e-10
-1.8771472243367328e-10
-6.666284806953159e-10
-7.617841231231271e-10
-5.844491759256143e-10
-2.8999639609276173e-10
-1.3256464895603874e-11
1.6598133059350678e-10
2.276348519565441e-10
1.9566311002494678e-10
1.1442063201636182e-10
2.733611305809468e-11
-3.6289730183877466e-11
-6.523220766428911e-11
-6.320417563959572e-11
-4.22122926356317e-11
-1.576704697284207e-11
5.882454491378909e-12
1.7746638926355773e-11
1.971972006741337e-11
1.481905970731421e-11
7.097266638080771e-12
-1.7156146697635557e-15
-4.492978587769996e-12
-5.933746703129131e-12
-4.995080339690012e-12
-2.8435534525849046e-12
-5.955033160938603e-13
1.0126217653009396e-12
1.7143872356307953e-12
1.6238355278283455e-12
1.0601903114963659e-12
3.729593584117054e-13
-1.7817301304098842e-13
-4.713334248161796e-13
-5.098500500714877e-13
-3.752331581189772e-13
-1.7304492922521108e-13
8.850813158913915e-15
1.2118684140730105e-13
1.5448029151588877e-13
1.2737848317071766e-13
7.051319996638399e-14
1.2547608808150078e-14
-2.8038583712156548e-14
-4.497163457748968e-14
-4.165750652288855e-14
-2.6565171857817483e-14
-8.726728408602825e-15
5.28556262865624e-15
1.250530543749702e-14
1.3173199629628523e-14
9.485189500131387e-15
