0
0.0021365474777714343
-0.16746140816406352
-0.12788742315045118
-0.06633551755337619
0.03332961384175069
-0.013092861181038676
0.2036211554618324
0.08027496351923459
-0.0011435200205246827
-0.0707669942978518
0.03637666748940013
-0.11029494225009884
-0.12862948309023228
-0.019258872921488465
0.033626460169872
0.05667127131082618
0.07912638260506738
0.1251047955902535
0.009035672407709775
-0.06447050465766943
-0.09711658301620972
-0.09213586562219583
-0.05098933818293023
0.02672518415220757
0.14032734017928405
0.08404110249548283
0.044610876223924845
0.0024830367157285703
-0.06336501572021978
-0.16883363095451862
-0.11932256755103056
0.09183305999682206
0.08028250284500493
0.0643785695882729
0.05858068277254603
0.06926383581298357
-0.10579264132928236
-0.07478934761168292
-0.0480580140948079
-0.03514482809098872
-0.04409738223425912
0.11734367206726515
0.2404340645044941
0.11642948766985561
-0.058536659479863036
-0.07568023208357022
-0.30707719430913955
-0.5066385587393507
-0.22384664214659525
0.16896230632197007
0.4423244821224544
0.6822386585653507
0.8865997651172005
0.5982203016854795
-0.4248837046673477
-1.7181847984040153
-1.2295091737657877
-0.4832534759204418
-0.012699196497173356
0.7418394463887995
1.4972038512301582
0.7970915428578617
0.5287331485047354
-0.08893304670018234
-0.6457807296200156
-0.6323986161260243
-0.5185890874377749
-0.8536130348522826
-0.21283121520332968
0.6010030701897406
0.5107461720152424
0.29384173728167856
0.7129232422087265
-0.5317038065044766
-0.018402193367265784
0.6088888358846188
-0.3259549843374612
-0.8901746098677822
0.0927949985081096
-0.5404387339294637
-0.5026392859302548
0.9116332913564245
0.9836234406842524
0.7377075774185778
0.13637264526482715
-0.6912149314310667
-0.9985217387877228
-0.9736007136188854
-0.5197081803918157
0.32161251881500225
1.3114431676848068
1.1435073343944868
0.5958317125807066
-0.07180268359825016
-0.6710835077617715
-1.4081242473048814
-0.8088292696819632
-0.077796503773122
0.4937062634036974
0.6769121876709537
0.8353075595252291
0.26363013870018986
-0.24251832419275923
-0.37958302181693687
0.5011897948281848
-0.9544697010200852
-0.25465268856357703
0.7714011076895627
-1.0188561657547548
-0.9000154888876386
1.2806722616397397
1.0522443047038699
-0.32394287479693556
0.9266649189083805
-0.29382927917897445
-0.9138949899343657
-1.0414314378431602
-0.3259453650820113
0.44964967542568374
0.7461152213728826
0.6277980450686285
0.1263930236079667
-0.17496472814989827
-0.33272204767992114
-0.21615585585334493
-0.07582269765056218
0.08061325605312938
-0.10234362234236406
-0.3361622352220884
-0.31271464135036237
0.05925673778290032
0.4140557417983333
0.8986626635405939
0.9678905470744793
0.4167867933396381
-0.7505127247878917
-1.4340718364727496
-1.566971362819955
-0.895061477370784
0.17256077490206037
1.8513448327684616
2.045562992860262
1.0418513348957212
-0.12451703281874801
-0.8172324873398109
-1.6829999602863417
-1.3188563566395353
-0.17183486439679732
0.49843883394585936
0.792281227090142
0.7002853095829329
0.42450749701172147
-0.08157109154641265
-0.34084596775359505
-0.34997213720440445
-0.15781432537315707
-0.038223828784671704
0.13386952175304453
0.30031695132921243
0.23332764189284272
-0.05267065294048695
-0.2910868101885868
-0.5596220911606987
-0.29016082965853845
-0.2971662514229759
0.3772755600712581
0.8130075241153667
1.1744518600231453
0.7050046617161697
-1.0380983377114414
-1.3174422653866857
-0.9433284302714052
-0.42627968602102156
0.22749852299235443
1.881903817851456
1.4224364060324537
0.12412330753382103
-0.9457549912419153
-1.696292009414154
-1.180540663136719
-0.393646971971791
1.0835606578078074
1.608180499000296
1.4009571797461198
0.31292718209800857
-0.5452672148202627
-1.318545172929047
-1.2995892819729817
-0.4399934228490044
0.2877910937137576
0.6686446476765339
0.3772761760045357
0.2924227412891261
0.020352058259319544
0.24675046269630782
0.32535906221502536
0.30264098666496514
-0.22957614843133708
-0.8682754466310733
-0.9403122000041898
-0.4706245451699374
0.41038840138414007
0.8237169395211953
0.8818137998490435
0.4380829744720683
-0.13336585572426385
-0.5216413465629757
-0.6368389496433349
-0.16157756662262648
-0.11602841518454893
-0.04807978227745421
-0.04960873793002549
0.4088752702465918
0.4378848234666657
0.2965181354705793
-0.021701835280335494
-0.18128223199906515
-0.2802627822431668
-0.4193935457705219
-0.07674515422933445
0.10417846378603854
0.11125206808252668
0.1501526426875586
0.2285400548184111
0.14599218000312864
0.09472735155205866
0.07163811692375105
-0.30272579766563484
-0.5666240368327281
-0.411063474161179
-0.09276237192078592
0.3333630540731091
0.7711258686149537
0.6454766236001511
0.08674070393102357
-0.2548486950490905
-0.5685411712403682
-0.6316641494521694
-0.16654544750734643
0.1799741075382816
0.23062473936231964
0.2520206562352751
0.12158226225623961
0.09922674399097875
0.011735612593657197
0.052326236398951884
-0.006593240119098164
0.00740443451854597
-0.3112412776304161
-0.5304626336009025
0.02223334208817629
0.8469645065082768
-1.154157819380744
0.2920426438101534
1.4033518426061586
0.3301704350333911
-1.0345079958646264
0.3770302873387859
-0.34841800498803904
-0.8645515246546479
-0.14411810333353084
0.1154256467940423
0.6608456803787165
0.2378871438331784
0.14797293556057775
0.02069744866242934
0.008637217848901783
0.0030785948626859388
-0.13622918125476224
-0.3467819331922104
-0.3341841990169934
0.04428722382016248
0.18048368248256788
0.30351332456276586
0.2626857368111884
0.11346021495230404
-0.28886481227856026
-0.2885510395808265
-0.22722810005479963
-0.04623422241867227
0.10370703779487093
0.44808429594926125
0.3763972722216664
0.03969022069120956
-0.23854497747394685
-0.34112788643831665
-0.33437970583978793
-0.2539177014526236
0.09458600221348742
0.32046016118129944
0.42677922664394746
0.3943842688688327
0.1811198997594158
-0.2604425776283658
-0.552541796666179
-0.46208635512045265
-0.2858012299434709
-0.06070643560628992
0.3997925790641304
0.4542132575218768
0.1821346108403978
0.15074732922879394
0.20990046126469974
0.11854220778842009
-0.0024767927128596396
-0.2026562997764869
-0.43513768061716285
-0.7090204333487167
-0.6766791475308335
-0.06473697557431995
0.4550059931089757
0.7726660541286566
1.0538736925992673
0.6895723610595966
0.10158755141043437
-0.3951393023111213
-1.0933475989111234
-1.1915322017564662
-0.7258820704089132
-0.1609842767312437
0.5578018975991746
1.5114240547305675
2.110997227782997
-0.9636064972510207
-0.5692007069712136
0.34607934104208465
-2.388133111510927
-1.3055012652905673
2.1215913157430544
1.6689141299224297
-1.2725416031633812
1.076618337912514
-0.3201394930776306
-0.09770013926546814
-1.8627705626752875
0.42476064019906073
0.6501910137101784
0.32090608813807964
-0.4677704307281009
0.9371398912388679
0.131230950187389
-0.3427208375351957
-0.3734214215007009
-0.25181738547733074
-0.045297760284085026
0.01606520270367731
0.13882412621697326
0.15444156028524697
0.10299347047699611
0.01859547570044956
-0.07944437910320337
0.011270995808911421
0.0795536412828202
-0.09303275322885733
-0.12545299614049105
-0.032552251563612855
-0.024335233932764582
-0.1097061528051867
0.09667079120952271
0.1675689212050149
0.8607490915342508
-0.6754920125174945
-0.28852140513828567
-0.20410388469448362
-0.21339467880051535
-0.06975069178600071
1.1052147357192847
0.6127220171930592
-0.42761704049037563
-1.0765356493197165
-1.1766021144054886
-0.16954465962247536
0.8648635448582258
1.3595007287892078
2.8262519018481247
-1.7354791967958556
-1.1801409279698762
-1.127578530518941
-0.6843824991317505
-1.611789586866676
2.4456887154935445
1.4855667756182147
0.2617471637748066
-0.17524925520300252
-0.49279040355887255
-0.6501227835277009
-0.6523543140183279
0.09369654645093681
0.609354206627441
0.7599747497437602
0.26569992074955934
-0.28470338677816454
-1.0174682656047243
-0.765658440493836
-0.28335301945914615
0.5109976194963337
0.8700023308428793
1.1530628807954253
0.1877621932684672
-0.32670757563953184
-0.5752119889149071
-0.7595491849808333
-0.634685733129609
0.12935299271653036
0.5503120106448607
0.306428286269773
0.0941976917393241
-0.012095802264549512
0.6124588620795857
-1.0662055477574999
0.06515764753837652
0.6847654163039004
0.46080818834358633
-0.9184698465287363
0.4873288054510164
-0.5019180011918029
-0.5738331607311196
-0.33292552457723595
0.265176115512497
0.46065630880544123
0.8321094682747535
0.25325818856611365
-0.12163378636709167
-0.23965437564793277
-0.30645985258569647
-0.5345927374029994
-0.09948518028371459
0.08551799848625181
0.1721465896080158
0.16314489415914116
0.29062333108044874
0.19635029194052006
-0.07998924388273024
-0.30387224265931384
-0.4447157542970651
-0.27710020243141614
0.010892110806828307
0.6037371773004099
0.8476599975889505
0.6552089563233208
-0.26660223400169664
-0.9680684628542505
-1.0057829512348722
-0.6135103588290255
-0.11453807863615201
0.62114866699853
1.0910926107126682
0.8755469217730467
0.1839239888255397
-0.3493003098215545
-0.42003934937538895
-0.37898687684913906
-0.5502748522761735
-0.1673619531424074
0.26001035022711205
0.14523744703200211
-0.0025816238822752597
0.17857545183369058
0.05709804994896564
-0.033564086665680004
-0.02498925712467401
0.07077819157616663
0.1622013044484046
0.2963895715129075
0.2938506321266188
-0.003547582717678162
-0.4796115450442436
-0.6994467018115271
-0.6900343093936385
-0.358832066227806
0.24698565007910858
0.8528367467056369
1.0659423959093672
0.7117964949065351
0.021408331284350914
-0.5241221569385852
-0.5051929550936176
-0.6594574734741762
-0.5933419666243679
-0.13372634876815856
0.2696892115605437
0.09609004164744347
0.2759736132337884
0.5065549936279192
0.38160232937491406
0.15150423028784268
-0.0794152598395724
-0.3212861052232341
-0.2440919167345659
0.28447686145208867
-0.7460560451391924
-0.05219076162680192
0.1563082621985463
0.1649289920336999
-0.4761477974370381
0.6071609719998601
0.1719007251137424
0.5264070424721451
-0.685341826821973
0.11836430483100852
0.07286051668514812
-0.11025950748726604
-0.5205736976978809
0.5688594580653996
-0.08809042055177604
-0.10749797665266195
-0.07805523592685251
0.031971740753785664
0.06472476018732086
0.061361297073872306
0.05169833663354759
0.04724267378522955
-0.16106607167900916
-0.00043599418940929043
0.08993939683746625
0.0678301488710179
0.0991883523992592
0.17104393883014926
-0.2957312798635075
-0.43759144186030025
-0.14854569186645447
0.10663872957326777
0.2667318483020488
0.24184054907624375
0.0839854272728646
-0.03114216925572147
-0.006850215408158196
-0.012740066386509237
-0.059983332457483385
0.030779828420083283
0.06425714885208797
0.10376373630067019
-0.1012152423003667
-0.0977836576585164
-0.5280925747534214
-0.34865212059710543
-0.272837128784813
0.16734142305340774
0.7527605812742494
1.3221089818370597
0.5518986933385337
-0.2149049098939322
-0.8952411320782393
-0.9699828484654808
-0.9993641495393707
-0.1802500082817142
0.240639993816238
0.905372128308692
0.8612339274406191
0.8879212051521601
0.06196740813612425
-0.23200729146027707
-1.2539715100349627
-1.0511472817683698
-0.6202665560144026
0.4914476406989669
0.7476498607813428
2.3677379997114283
-1.1145744133301851
-0.05611402908955185
0.13122182806800844
-0.5588460321583096
-1.8652413362969185
1.3810030988128466
0.06350933788195948
-0.6458725886371764
0.2645296776567865
0.7912748870953713
0.4693917023829395
-0.05322141594687435
-0.2145041686644407
-0.3135061902352657
-0.4740587737809966
-0.2113346962504741
0.1880212692840911
0.2691653629157634
0.20027873476013083
0.16027766419788894
-0.06934647987893586
-0.10518087147488835
-0.15640528554610988
-0.01740593565163287
-0.0629216114059379
0.15165016458043887
-0.11548292991590359
-0.0022588951448985917
-0.0544254334588243
0.16318308647578322
0.05830181181418142
0.20846366434606015
-0.034349068106512316
-0.13178987628784308
-0.14274282597455035
-0.10707351993327673
-0.03416303842404829
0.10112225120482118
0.15518461679901382
0.007459167000057552
-0.05009041800597411
-0.12416925247790163
-0.13200868833797302
-0.014380938915508667
0.0508160499850689
0.23711972549433297
0.264745735116397
0.207110568565768
-0.08928056672079421
-0.17416035064189436
-0.3596249566358645
-0.2935332001834225
-0.14970282179580044
-0.039623009019514294
0.15659640217850151
0.3490273385856017
0.39958451967673525
0.2997058195291757
0.1728519038135001
-0.09715275970253365
-0.4198368655994036
-0.4488932821780552
-0.5478086019626341
-0.3847966255850355
-0.16270697394613615
0.5226245157818
1.014141607618043
1.7412506780005041
-0.5930971645055582
-0.3763869735917208
-0.613078525384731
-1.0428225784319074
-1.6844553826583708
0.7698735456977118
0.7065075364461381
0.9073360817951117
1.4669993008209503
-0.4550125784582056
-0.028102093572470205
0.10683117396697603
-0.6759296975004538
-1.902274888465031
0.05383572533096945
-0.030016196806755713
0.12102817433350263
1.1900055523226303
1.5766654083011151
-0.0632649963122858
-0.42768688680255035
-0.527363903713413
-1.0153431018782926
-0.7158832648974627
0.8230815707565304
0.5446550700550814
0.07100469404299967
-0.12127709170348919
-0.1264170741915739
-0.030086299410635897
0.07469661859946321
0.07532939197341398
0.030931347833726343
-0.03231396210774898
-0.12175067054580967
-0.07564513442403428
0.041465311488667556
0.14510740316415857
0.13984645860152653
0.1324898951117603
0.05009838513178286
-0.13923960352789475
-0.40809500450182673
-0.26115444449636416
-0.14307523343347014
-0.065221168449945
0.15279843582153213
0.6373886154850983
0.6254587144860005
0.45251498535533086
-0.629314369607994
-0.6084145542463353
-0.4616861128383055
-0.31276916103295177
-0.014192780548991773
0.8444556195052961
0.5114827566005431
-0.15439973078029637
-0.3024388632192247
-0.29581148639463484
0.09057330149145751
0.2741311636341132
-0.1332104771949795
-0.12525503904080498
-0.10365732373086484
-0.08155458272451413
0.11223161550495833
0.6311918109229707
0.21557320612408268
-0.19367448508377016
-0.4331947847460696
-0.4957003315466779
-0.31973750950519764
0.001099985653237901
0.38958814659010976
0.5464756157534656
0.5177644961192905
0.4823743358111827
-0.2328897672918365
-1.1161348736769414
-0.42701199947395035
-0.5673322169362621
0.12026385850275806
1.1252695996483015
0.727664497573089
-0.23807062172918989
0.002406195507011188
-0.4265793586092071
-0.6242165427172964
0.3163849203593203
0.3303566836558758
-0.008146942295800487
-0.28526384804063787
-0.2543978128269156
-0.04957919071375453
0.3962796026153973
0.3323898197727584
0.17698636646403837
-0.08415765662681748
-0.08664128322898869
-0.468785444264968
-0.2541958411341673
-0.04385901441433934
0.1784241821665136
0.2299386531092628
0.31021710169294164
0.18890198469103497
0.00699794426226826
-0.10737530196999147
-0.21366199238717576
-0.3331020506384654
-0.23248545239262777
-0.02462352555323092
0.012777060757023144
0.2045481412936145
0.4415743256826183
0.35209852064651814
0.09044136118070747
-0.2531018500580371
-0.4251311561919795
-0.37485239369955053
-0.02405778935494432
0.35132339294950726
0.5278245623727551
0.13428566348644558
-0.3497935886241416
-0.5969674690258232
-0.4407902022252135
-0.09718505336963365
0.601211369115129
0.9664590197880185
0.6277633487425777
-0.2715617597409639
-0.8500499297700613
-0.8485930858201965
-0.5954964179538657
0.20741704030583216
0.8748742962088603
1.3175015468864935
0.8319003918640134
-0.6823392757248089
-1.2797268207187071
-0.9206852115965091
-0.8480692486399241
-0.41069216331462266
1.0650341850401057
1.57861091684339
1.3736048937464864
1.309539693391164
-1.0926783847502577
-1.743555593385247
-1.4572909143425734
-1.0569951456659883
-0.7540424781269731
1.5882703412846364
1.9318750799113347
0.7310439215691668
0.24094062923679346
0.6995622158008624
-1.6153841389181516
-0.6799783405823864
-0.2071941669335056
-0.357411788570036
-1.3007831550480429
1.1623278729282323
0.5338293103725967
0.5271559049859836
0.1820532528983115
0.20837604187994693
-0.029935507029559882
-0.29246010909707837
-0.21236353634845043
0.16602128476347358
0.04724893122631907
-0.6696806346528822
-0.369239330812338
-0.1262982265926306
0.057934322528013976
0.3990336475863129
0.8673535916955696
0.3399488605218223
-0.018325570057622267
-0.33942237433257877
-0.4095573342361885
-0.21532500832302073
-0.09589635441091623
-0.11402202800941633
-0.05106771376769606
-0.024306794594152165
0.0803907553298013
0.37051045890902173
0.5148220568958991
0.12733579384276583
-0.027375799019138072
-0.20974994767613475
-0.4717802996603287
-0.6292008281788839
-0.25302395764815305
-0.08739780395024932
0.3100298895180385
0.7202198913654039
1.029422056747041
0.8319494947437965
0.2805964267121211
-0.8217625064539985
-1.5165287005718069
-2.0113583200836844
-1.0708632867697112
0.10265593404796963
1.7115173220422624
2.576668814782998
2.7918606146889133
-0.32200108709061154
-1.3391272695625944
-2.154607651548976
-1.979355978284076
-0.3784025398547805
-0.0030415451841543945
1.1736844910155289
1.5468027896828862
0.7434100783513143
-1.0925580953286285
0.8328068470472224
-0.25066435068947485
-0.6502229951648917
-0.360370758070607
0.19203212201460865
0.19476568385987605
0.08353820437454289
-0.038503799168235084
-0.19344392401547209
-0.3331498465474987
-0.15643384381682937
0.06204703528372371
0.43621136859037385
0.436014156303147
0.46961136668009945
0.08877269534052429
-0.1819653668157511
-0.8020487932487607
-0.7749623712030974
-0.430109888880642
0.1624966858293189
0.7478027066994618
1.0289608066210547
0.6229598516791524
-0.15095435622485573
-0.6440105848927536
-0.6230168258171703
-0.41037756309532275
-0.0418608902408493
0.14420586993785914
-0.11481393351616107
-0.05116601634470622
0.27891277254341246
0.9479483452000506
0.5323466116125416
0.12016001642785554
-0.6484983895278591
-0.7216860358077232
-1.1796394720690562
-0.205784318080609
0.7032508076859183
1.69435400375284
-0.698136734884153
0.20221688740750793
-0.006511275286040183
-0.19948222226552176
-0.9025378718980155
1.137638888195895
-0.016777213183540224
-0.2686870545652123
-0.26552852189828713
-0.18775733110283602
-0.15126480887128077
-0.026573025345269508
0.12741864690174093
0.22264713027922609
0.3048731424240943
0.13151533234410373
0.17247038217198765
0.2367283137792825
0.12123460082714718
-0.32780910544769964
-0.7563693479114132
-0.6648039208644962
-0.40679875397132975
-0.03194992716277009
0.6352551403952976
1.101514676551255
0.9252173239358222
0.07778254076722865
-0.4417855937857449
-0.7463228008108961
-0.5771200386117531
-0.42621303394351545
0.11369393214324311
0.36329071163975524
0.34005763823551455
0.124686514293635
0.025165838089075826
-0.05144389420333287
-0.015799886613981733
-0.002635031254750309
0.030085470305899004
-0.09445963405359015
-0.16743161756838368
-0.1924828046735856
0.011912926821304638
0.20688329049550738
0.32833713866121034
0.28888147004519144
0.19147821321091973
-0.24463451350948742
-0.45172661829367616
-0.3865180932739208
-0.3210525772948165
-0.2599939584634717
0.21584104680207725
0.4898975216225879
0.6521940504146384
0.6638686703389598
0.3594094810366717
-0.30962925280710757
-1.0005874312822622
-1.0989808270933081
-0.2585108794285795
1.818784438840082
-1.6413642294413728
0.2575318085603415
1.0095384946169956
0.2342271662982501
-1.578607433588576
2.304937933742904
0.6731605436891508
-0.5835057646236944
-0.995367290820015
-1.0274850296575553
-0.6134770040075327
0.06726029949718097
0.7626842361892187
0.6854943731485044
0.6412439150338451
0.17361616083837902
-0.2576476473865691
-0.6661664311023442
-0.3082747763778438
-0.049601079776178086
0.057626743101961975
0.18154460452244045
0.10479678223044009
0.012768607132066177
0.08277954581175859
0.07883096178828905
-0.04622814366574332
0.05841732403627581
0.15533420503633436
-0.16643390676407774
-0.4806063207851841
-0.32229661735441384
7.511806986436174e-06
0.3797814944749025
0.4823383104338899
0.5211638326302399
0.05185797136469897
-0.4120197721103889
-0.5666786270947767
-0.2823692718280748
0.021817601155966204
0.18441336347513046
0.2897909904728568
0.045271892738061564
-0.04392638169310842
-0.09521936987957867
0.13841338462845668
0.06363002274310668
0.04958506880025011
0.237377211466391
-0.6462164693906954
-0.07468310986942048
0.08805315449567297
0.19056821974044102
-0.20890478552125571
0.6531307799017012
-0.05575692536485177
-0.1593009116187525
-0.2632852139144998
-0.14660838329718587
-0.15893462518236784
-0.029012813793720848
0.11681732903075105
0.33110218684139553
0.22483157106541757
0.15812101327900505
0.046737997828924356
-0.21635182545113554
-0.5308347293006875
-0.1599345247656321
0.28887504506082623
0.26921554016265964
0.08869921108042803
-0.10637843171013578
-0.5516472684724957
-0.490543157214771
-0.005702730778810174
0.9484268205698002
1.7232684315401983
-0.42097067856091647
-0.47884133083954966
-0.6372443940051241
-1.0103143952944327
-1.1996902292814917
0.9009210632263436
0.656717493031513
0.6177188032505584
0.6499975769608295
0.2999193418589639
0.20548810824514813
-0.24859503053813872
-0.8509755425054029
-1.2872033729658934
-0.6959863556174427
0.12272499581888371
0.8478746520909565
1.146884982326114
0.9890402423708854
0.19526158367045246
-0.5590930680049799
-0.8941049236640527
-0.6515489161689361
-0.22697470943130751
0.07046467372442539
0.42357997616375115
0.6855985442498089
-0.25346750595054873
-0.09837948349664802
0.029587907260571016
-0.018293865739140644
-0.2208147267538064
0.41626795170085157
0.06744690812892742
-0.10227022382863545
-0.32603437006895625
-0.42652039733406777
-0.014161276928359891
0.7064494528712523
-0.2740330841613581
0.623551382999471
0.9716288982082342
-1.045504216370796
-1.205434352956264
0.17221078762666472
-0.37603705057229647
-0.48758731148850715
1.5753409267550802
1.0737163826222462
0.36218150362825824
-0.3017764765313683
-0.9111036145249064
-1.2446925560966382
-0.6138971061576043
0.1573143709337694
1.1139335419878715
1.728706663167597
0.06437268495043899
-0.8399728150291252
-0.7563166111162166
-1.2460767666420356
-0.8531850930170118
1.2742808004168142
1.540623355949272
0.86252635810277
0.46226163506264867
-0.49023487253987574
-1.195682240382239
-1.3352318753076884
-0.8103027318711954
0.05904914149082169
0.6718719839932119
1.0405232546096097
1.2786790615806651
0.5218826801580858
-0.4947303553690571
-0.799963420249313
-0.7114524820190963
-0.5527509425715466
0.010265230679664531
0.6005181478155853
0.5311676460052056
0.19042210207279972
-0.1763273450068273
-0.27980324941616547
-0.39689608659503406
-0.18356208274449837
0.104614376573776
0.3850208714239486
0.3208586303281719
0.3043686523562429
0.058534129523257844
-0.1409830710751816
-0.4296368334113612
-0.31523150569785446
-0.2496194195323492
-0.020149068640221517
0.03710107550674402
0.40811696903437283
0.36714165152148853
0.3510081740971243
-0.049046156070299274
-0.2758793358368001
-0.3811071029275608
-0.1971281091953794
-0.1179534543425774
0.10426807931573302
0.14681229488558495
0.09344847493550712
0.009112356659725871
0.11992832971888698
0.20415665277414577
0.19688416251769836
0.008212354438852555
-0.24897028121969775
-0.4293891673743468
-0.3340028642051776
-0.10558115262154816
0.15546262232142175
0.35940285856825027
0.3906329063105554
0.2793649365921967
-0.008360839693299324
-0.15942678678099934
-0.28622377005889504
-0.2937470383526865
-0.2530492119510643
0.010410910261151677
0.11119086907372883
0.2853827975120121
0.36816770697920365
0.17719332056511136
-0.09169382876384731
-0.2558838470886025
-0.3302936846426374
-0.3135052136170549
0.016486262294717835
0.2943364926340817
0.3511954074040729
0.19877082100511087
0.022042788862678075
-0.2152891951291794
-0.15457104357471066
-0.021531426755786565
-0.008579429290003994
-0.06563621703409578
-0.10228746117263446
-0.2016583728816412
-0.24439135134639964
0.261408285731772
1.1516650413019693
-0.6108966722305819
0.46581422990185073
0.22800390624847838
-0.4829929403244183
-1.3860678016189285
0.6726625273620596
-0.2707872204385486
0.08446659405750567
0.4676776553436746
0.39438798156268234
0.13274752443334645
-0.11227151876207367
-0.19454525408124276
-0.20723269193415303
-0.05675239453799233
-0.03873257446342898
0.3788308282845651
-0.4364487214930153
-0.08178481055777012
0.07300317297663762
0.07208764633620028
-0.2420189299940178
0.7588774180000154
0.4848414084527422
0.33676227022866223
-1.4736383478455832
-0.7026701908303935
-0.2675499232862575
0.33578758197687286
0.392521049668019
1.723705323354622
0.45973187798708265
-0.5500465965012149
-1.0909012593061886
-0.7175360575186575
-0.09743779703921565
0.21523323025343533
0.1682655807481824
0.17040238839639002
0.036472821865744603
0.3350104095123188
0.3512630037060341
0.27348754650428647
-0.1956612173629068
-0.40793678645794523
-0.7302129568834774
-0.31130772196048
0.5347409009632232
0.5277445804676899
0.2108905376883006
0.1424229741316468
-0.10286341096308745
-0.5229010461216141
-0.27602013542258524
-0.07684448212986648
-0.2069601773593138
0.05997833066469921
0.6263905971378276
1.5447606512761423
-0.990100737419993
-0.4252620185342963
-0.21696609539054343
-0.39678239178991703
-1.1524766083363918
1.568968913640747
0.8405379180258408
-0.07011054602603509
-0.5166998327059783
-0.4764565028614877
-0.3445775129492396
0.06876365621822209
0.5337043430694233
0.39164147854294035
0.15054589631323267
-0.1078808910027855
-0.3082107907660531
-0.35472960463969533
-0.10831092802678458
0.02475707017298452
0.08873824246210682
0.16192489903732338
0.1342576244954079
0.08649449894548616
0.07647598622887701
-0.06522531000980035
-0.13137566940482043
-0.12947134888461695
-0.07290081520450176
0.024690684738606944
0.15074695766209814
0.09221518131429651
0.033647189985318696
-0.04290444784927151
-0.15586288873559373
-0.12140066590329283
0.0480516254220259
0.14323559152725215
0.15655568708919304
0.08200314409957375
-0.08171351012081238
-0.12532746465305122
-0.22347169459992344
-0.13353018534193298
-0.0017416599018709037
0.2237829282962497
0.17716227215221256
0.26225231710991087
0.04926772751508181
-0.11717998284003012
-0.3010921019459694
-0.15548874911128904
-0.10761528427352561
0.045949172214629616
0.1335579451623559
0.19562450405410198
0.07029160798713951
-0.017146290768599956
-0.05834600231433598
-0.05984478698261804
-0.03719385233286107
-0.008175533722511038
0.012745283260548681
0.017754458210933077
0.0067760649741561065
-0.013268463786249506
-0.030594526303026132
-0.03177829301475333
-0.005744377747505089
0.05213166251510567
0.13694812155045502
0.03362153571939004
-0.08042422339813021
-0.02955042407405918
-0.032917198147394224
-0.09866224610932295
-0.02132403094526193
0.016564698309263277
0.03925296544225411
0.07077095542482115
0.12869947096001494
0.020995762169852897
-0.053067030319059474
-0.09860012780198762
-0.1197973392952704
-0.11650355399385914
0.11547623258712768
0.180580801625596
0.07856335284424247
0.001518055465134746
-0.0652382068104226
-0.13883096803080866
-0.033288744073009344
0.0446339947524828
0.09682476418553067
-0.0675255408107846
-0.034964741921803086
0.008469530144913367
0.07347290372604498
-0.03568601995595803
0.07704682112383297
-0.0003030501100361961
-0.08550289470779812
0.0016171544231739275
0.04344915584337524
0.028573176128810513
-0.04514629587853604
0.031270953696526056
-0.1220618016091973
-0.07637352501845701
0.0004580019088289123
0.13643185633535218
0.14779377524288342
0.03408434751000479
-0.021862604908622584
-0.04861963529364133
-0.07745393685243461
-0.13346477757869715
-0.02977791652739345
0.03332162210238851
0.0644689549283011
0.07457082099952342
0.07046341241582055
0.051596612021998445
0.011107058279245643
-0.05919209838612957
-0.1620751981552487
-0.0895524678208078
-0.021743512001149046
0.06881957619880658
0.008612027107912186
0.21338858925891072
0.08114540730380317
-0.00923456929825388
-0.0927682341233372
-0.008262449275130994
-0.18684101024264202
-0.04301478209460306
0.02892617285498972
0.05248139658481243
0.061900878628738096
0.09331351625364095
-0.02314872409337132
-0.06844236407780376
-0.03655975213937651
0.06601243180486105
0.02248955193688923
0.009176577848653018
-0.00018382928516906693
-0.029582653712788072
-0.09638833983010897
-0.00863067935055342
0.03525681143294735
0.04427911864612826
0.03127730509330764
0.00927362471004582
-0.011144695444761156
-0.023043156930792275
-0.02327593247800514
-0.012155246918554604
0.006863762195971195
0.027409147654435438
0.04067786548599588
0.03670481168487534
0.006704985873489694
-0.05384441217948489
-0.14247045747327605
-0.04881711498380303
0.04333391251206352
0.1514265607545154
0.08875187184577753
0.06087461199811148
-0.13447735531303376
-0.10438057678219631
-0.05660924195419924
0.0031264313150222555
0.07137506219477721
0.1451744540216068
0.020122933071878582
-0.11004941255156075
-0.05203438856564228
-0.010648338914775459
0.012823878739885322
0.020781075697426283
0.018098488523564382
0.010329534870179914
0.0021228135405943465
-0.0036649461656589506
-0.00607818548998594
-0.005601537483964096
-0.0034534760171984757
-0.0009281363505520815
0.0010368187365066733
0.0020201766957981837
0.00205843571654071
0.0014688382090386595
0.000653132229982887
-5.1034912463110454e-05
-0.0004453344472158294
-0.00048028273557520454
-0.00022411460635316126
0.00018286591698500075
0.0005718792167219088
0.0007829516958731751
0.0006997555062711576
0.00028597644195064656
-0.0003804262311437088
-0.0010897495989893784
-0.0015221727241409892
-0.0013278944986617838
-0.00026749202385789226
0.0016168445223655817
0.0038638394196030493
0.005577477786602025
0.005613732343781945
0.002997513811128067
-0.002500269886308749
-0.009816563195614036
-0.016369490251445448
-0.018452745069536796
-0.012426735748074747
0.0033993152179072153
0.026686110208343248
0.04963362603884189
0.05918657259253391
0.03958344169883336
-0.022817688251663318
-0.1336225534681068
-0.08558101118568323
-0.05728635523595105
-0.016859500257691496
0.06984225125636835
0.22902331275972423
0.07050571373233805
-0.015573014869103992
-0.05553555871046186
-0.08374618913441247
-0.13234859519804384
-0.022912526176345635
0.037434646301505975
0.05484737834692192
0.04393635440208614
0.021618034251708468
0.0018132474149783943
-0.00772323166486979
-0.006157611484989507
0.0016748435449481845
0.007819770177816673
0.004305890964181146
-0.013908310617380999
-0.046844804026237835
-0.08894380543043091
0.06955445953975146
0.039497191974599014
0.029009373512610265
0.040513532288687336
0.06987639355238152
-0.09188508539191344
-0.055001833889674445
-0.02697107905080038
-0.009885451148663486
-0.0001332087077766523
