0
6.347310741831911e-07
-6.114495662999985e-06
-1.3763325464159435e-05
-1.9064431265990634e-05
-1.8042638485567752e-05
-7.53149921818781e-06
1.2796813709636571e-05
3.862232397412578e-05
6.040848663181338e-05
6.507411546673972e-05
4.038261355192198e-05
-1.8537379717930248e-05
-0.00010251627996290283
-0.0001847126969906732
-0.00022358410032955804
-0.0001748267415366465
-1.160665193913776e-05
0.00025207609830738676
0.0005445855772540114
0.0007384998912879237
0.0006810271675879867
0.0002545786609752055
-0.0005448485239199756
-0.0015397704912272856
-0.002353344560282684
-0.00247937290067592
-0.001456689579796958
0.0008774210643561626
0.004133789534882663
0.007242795489612557
0.008586508831549535
0.006477745623229848
-4.866298464046599e-05
-0.010341056454505228
-0.021513317605713837
-0.02856939912908544
-0.025638842631057965
-0.008358281315537877
0.023111121001295802
0.0615504638622496
0.09216625328727228
0.09551676265601206
0.0544354520632554
-0.03615561716565941
-0.15974600392064114
-0.2740222764417727
-0.31731364431638315
-0.2291604391412619
0.016112571499388766
0.3704324399864262
0.6815739440131469
0.8883934680086962
0.6557171281270917
-0.14775220891471869
-0.5416838214565701
-1.7267362348877058
-1.8175240079212633
-0.6513443448349002
0.513333800004004
1.2273975990686063
2.8603515988389994
1.4520358938802134
-0.3411909857434264
-0.9882416005635223
-1.1376134916030731
-1.838832774576555
-0.5912671638391714
0.3372287871192125
0.7099542978552749
0.6570599474696782
0.5824475844044957
0.47798546199295294
0.06957683104411015
-0.39712344626854984
-0.7389972150573627
-0.4029686399942069
-0.03689861759106378
0.32514555788531996
0.46320914664804924
0.36583915754893453
0.02886578541164852
-0.13599385278826193
-0.4853988069870964
-0.5308306018129002
-0.1380857757518902
0.05388451188467275
0.39720258762016925
0.5934711587604635
0.4617799287184341
-0.07070700204029802
-0.15100827889198587
-0.561507055474975
-0.4740654401470272
-0.012666666522842382
0.16492685317366607
0.2648030905123773
0.13992166477173085
0.06793497640294259
-0.06829078748413576
0.006437570272415994
-0.046558663215524335
0.018603586713743528
0.03282575960744494
-0.18784188291644144
-0.24425877655842854
-0.15941769086119115
0.2142277050573505
0.5897459146860734
0.6504367254717193
0.4711391249531503
-0.8434393450363913
-1.113934145649277
-0.8550841221313054
-0.2782883453855331
0.46391699171904976
1.4028146758034612
1.2755878284245339
-0.12411750578573062
-0.5477089731261561
-0.8470663030149304
-0.30411776915649064
-0.1608525835199306
0.43074731410337763
0.23175668429878826
-0.08495359812864735
-0.35423216460051693
-0.3519428304310228
-0.03943245849440271
0.18496734743704413
0.4363476146798745
0.7091268602209543
1.0724783890401244
-0.6969236717815279
-0.64948370592523
-0.7832896696214683
-0.5774425325485333
-0.5612461603862481
2.071370908303518
-1.1905114273400368
0.15332233325958444
0.9430994425754051
0.10449723569002116
-1.1792814538016823
1.7356845466043487
0.38731186292297676
-1.1353134309396753
-0.7230129548030545
-0.3841805242390302
-0.00813619065195729
0.03539747009831045
0.4641315910665773
0.4329318492860759
0.2840081696845962
0.11307128435633891
-0.04093504108092524
-0.3842586557376853
-0.34400262722912245
-0.1430593888446799
0.015756471263289266
0.15220165920601875
0.2999598416319342
0.09314711518055686
-0.045492511284056174
-0.3110341639578984
-0.11749734716323469
0.10439312395980509
0.5118091505686777
0.25807670659566045
-0.09365652312393946
-0.552859515232977
-0.4869915542496754
-0.41954210507164424
0.15261974038865567
0.524612922720007
0.7435163398260002
0.3801796441527631
0.12732460212571645
-0.37179802379803456
-0.4727588729456918
-0.47533670582128995
-0.38509784037504186
-0.30574099926847703
0.1339375250865513
0.526689022923366
0.8249871073051218
0.4925135166235295
0.08653556815431744
-0.32274873849546665
-0.504117827642486
-0.8075327623383045
-0.3184369968712462
0.16027437322069746
0.49528035524762526
0.3881410837427403
0.335357509065508
-0.0013020590853390444
-0.20598311397585134
-0.30225588026671024
-0.13619401254148256
0.042171508018191105
0.1929128697018198
0.09395159509378595
-0.056426004837105796
-0.24094632999611015
-0.22864184412458025
0.01523998233746592
0.31557058858379494
0.27392945577463124
0.2616957134281815
0.024818751870750583
-0.29916738871671344
-0.35725939248972755
-0.15962617450141647
-0.06998636114983803
-0.012612793343929599
0.10530562825778518
0.16247713006963535
0.19281961334156408
0.36460624233444944
-0.22373928648132135
0.07121060437380013
0.06921759811486085
0.007662296101479135
-0.4158668383100474
-0.00896741050348999
-0.2663570496873761
-0.1743127532331002
-0.03913481019411053
0.06420237715148723
0.23211520821018483
0.27369066673848813
0.26666095817984903
0.3392652178283235
0.2838640034835789
-0.199277617327216
-0.4378067126480109
-0.5192450143170734
-0.6381959497112941
-0.27409571170568336
0.39508311733000195
0.650616225076284
0.5804025812898134
0.43747832178469626
0.025496688323394738
-0.4852770379339968
-0.521087350727492
-0.4649360793481066
-0.23226496093383803
0.12693790813255143
0.39979687447478535
0.16619440217432963
0.15371299287421572
1.0062529455281057
-1.1248704431559946
0.033618368484528975
0.3087771397020592
0.12094907636616518
-1.0779103341512801
1.0262939453442972
-0.1722149985389398
-0.5965252426242519
-0.30113801187694467
0.09743505364683477
0.17677404040781158
0.2599667192725213
0.5758115412352375
0.44188594400222325
0.2797196953172661
-0.137946423355225
-0.6191591302034741
-1.0850070931750277
-0.7266378009139154
-0.2056023498695674
0.4989841647251883
1.4119668524235516
1.0821396218846144
0.132252854649275
-0.542281783635072
-0.7288471483046294
-0.6289996325635439
-0.5945870751911683
0.3089557314572749
0.504168844236223
0.274707944386999
-0.27475235319001085
0.3435277069632045
0.17485440147298267
0.013608661842473035
0.011790894642009142
-0.09920152211241424
-0.18067296183192447
-0.46150417126961113
-0.3239977040534718
0.09480007487710075
0.6881373440843775
1.55944068513534
-1.3921468187770527
-0.47530654906284264
-0.20444132233864598
-0.303924524126318
-1.127428004791034
2.1099802340635714
1.101370949850237
0.23981125255872776
-0.5521694202471029
-0.5572826149598845
-0.7832341975197153
-0.697691855703211
-0.603915900568157
0.33242820300718706
0.8135129246646565
1.1209548473427946
1.2401329336250795
-1.1774917076782694
-0.8061017844951649
-0.2029241089710953
0.2465665434667063
-0.42350483498130836
1.072854994964245
-0.30960775819540354
-0.5430202942474817
-0.7337831075333231
0.25679519731686534
0.7796266722706287
0.7606113455472067
-0.12809843827728412
-0.47842582468543593
-0.5381173778059571
-0.19275928474283277
0.251397117723893
0.47896311604156805
0.37400073480965046
-0.16827081429786814
-0.22351223184209673
-0.21732312810384546
-0.3095989838601536
-0.19285010507060535
-0.10904661028317074
0.3169388339411402
0.43567282214059055
0.3356810412129086
0.022093483370428886
0.01814783690004925
-0.21150385156171758
-0.22363886423447715
-0.15690444003046727
-0.10083569324890702
-0.0809710143077509
-0.06276535165256228
0.027675333974006892
0.07171451785158643
0.12329018257783673
0.18019087522011568
0.37013365048944735
0.3578732445023363
0.17505866031685
-0.33209275056106313
-0.6498969878668954
-0.9574170836765806
-0.917982347139469
0.28855590230434197
1.299757356218838
1.6953029831483672
0.945952134956247
-0.7876706693765699
-1.0041372322231705
-1.1822557044101918
-1.1126470337634808
-0.273133966811651
1.3400554794827446
0.7393898516060466
0.8640157233128274
0.3237235319173221
-0.009049905556561691
-0.35776216114974996
-0.5681319607732445
-1.0303099456706881
-0.6253447822427346
-0.11516676861086493
0.6211003463551562
1.1198078553324267
0.6621231765907892
0.22837816142679357
-0.10587778154849965
-0.5335593868520886
-1.0569765294783218
-0.43092261162834317
0.07081812426741867
0.4567922710174624
0.5934615810692893
0.5717741482769466
0.08222807703219441
-0.3920662307471267
-0.5666476992666002
-0.5428965426394667
-0.20471924820351098
0.36790073046348803
0.871855635589073
0.3528464821295746
-0.009260522778212913
-0.29373287108686214
-0.4139024430076788
-0.48528892663415485
-0.0002583748337666256
0.3824399592713466
0.4330741663285717
-0.4625317554608103
-0.11770228990131057
0.24425601661514937
0.5856253209801914
-0.5420206774792439
0.41485161672492243
0.03142392081680711
-0.47433250140649535
-1.0270610141149288
0.5063189551675179
0.4994022628942956
0.33602389148330736
-0.02240993929313357
-0.06161948769252381
-0.3267949415482793
-0.2245572459565855
0.18100271351875913
0.3755372470108384
0.20572415261027444
0.09707403159782
-0.12150200118067608
-0.79108984332152
-0.40304443214538677
0.20519291762230482
0.23600299578293302
0.30544733448307715
0.6179813325814473
0.3554435260155124
-0.11214751426286107
-0.3963446350262755
-0.6530088822104311
-0.7562792638093855
-0.3001855640631771
0.16547500783702979
0.6728294521342495
0.968309785303667
0.8668331150963267
1.249803799097491
-1.8869234279132443
-1.1506237642413002
-0.6679764662055354
-0.4362918185256588
-0.9314200245647034
2.0305698350468915
1.4039616026168125
0.4343656917560215
0.023637629001496317
-0.44781443446940045
-0.6530449249380261
-1.0340767902324528
-0.5335984337571621
0.03368529231465397
0.5636368009742921
0.6107670060608085
0.5250571223438304
0.20189232972407878
0.06102445146404712
-0.3425826178228463
-0.4851293162346577
-0.43347714396390097
-0.21357469645559246
0.20270226805091526
1.2923320458256107
-0.6345898580491562
-0.05162013536924108
-0.029256590053080813
-0.2469935886003923
-1.2094454592291324
0.9305031735577157
0.545005036860868
0.7120487112887833
0.4181196152175595
-0.40832098511880316
-0.43628762700433804
-0.4613862790580152
-0.5477021043666693
-0.602800384832857
0.20391152676603355
0.3828334588171647
0.4420976327431663
0.40593574562309626
0.5578182264034536
0.6255272394307732
0.41333808705332015
-1.3278832085477246
-1.2157950351137963
-0.7682086999833175
-0.37859848975851423
0.05452881389595459
2.05845925903037
1.910775427564374
-0.004282098550643829
-0.5841005520399268
-1.1457356955090303
-1.7460515003535744
-1.3267765867694534
0.6843922674886207
1.5132892079126754
1.3461610012628122
1.0474688210467942
-0.07353090664277258
-0.8338267879560386
-1.30083312179608
-0.904665409391259
-0.5750880918039425
0.6755648158573884
1.9257384906169526
-0.3039480931606651
0.10606236506653137
0.25391689063717277
-0.580411630151355
-2.1208058977222093
0.9140349341119972
1.80438877040693
-1.1890043049179242
0.5571783912896034
1.0240026346895206
-0.6378493964227815
-2.0855777700804086
1.0363240177603577
-0.09767305353757645
0.09380681267204057
0.5762510989415007
0.4796660443077378
0.0943732308698529
-0.3129360820063325
-0.4674112657286384
-0.4506249517189866
-0.27559377970524296
0.3185621864798956
1.0521318675118592
-0.7217337033325631
-0.0455550817675365
0.21845464911198806
-0.02955354958336301
-0.7395089825417323
0.8817386468700924
0.3709863115775905
0.4195939799847078
-0.9040255192352246
-0.5248269915114615
-0.13496920103259485
0.01811599162084073
-0.07441617485938525
0.9988690958707857
0.6516790467834779
-0.10538317794853054
-0.4526644537488867
-0.9385092819142488
-0.46130173569388994
-0.2724084427708319
0.5938202141445
0.6712214418083068
0.8135945705884251
0.3684946675173309
-0.41402819795733703
-0.7397008712692205
-0.4110858944022148
-0.1730748536785136
-0.08024028659471129
0.307172007968957
0.3026619800759994
0.058842403704501604
-0.0698304760519184
-0.15877871718226755
0.06442389971133694
0.20849135499492832
0.2183383152676443
-0.01283884994428921
-0.02012172438855956
-0.13596307339384286
-0.2587865892901449
-0.22934426961591695
-0.021716307234505308
0.047899309743089084
0.09632351663848758
0.038348312309572107
-0.050484624101116156
0.03478094704585882
0.21013969952001887
0.30314398049777164
0.4767137012574199
0.47739651573113634
-0.09693522111021761
-1.1238785881276576
-1.3004320724005132
-0.9294559776683161
-0.16522964408141952
0.8859351354625649
2.638827518046336
1.521352372933036
-0.4726790880803055
-1.3529889511295834
-1.2423987000553942
-1.469394800073444
0.1121015183903004
1.3520592784693948
0.9874424461052729
0.2036970087718955
-0.3987981507685359
-0.6198628402033604
-0.2589251349582216
0.2904748388343234
0.2424232536275727
0.014804162266533269
-0.1771355140296489
-0.12661115507152743
-0.03921807640989739
0.2655434933323477
0.3566678148056449
0.20047370728413774
-0.22309470256032893
-0.4999729007437773
-0.3653038184055896
-0.10003271695313505
0.05367395784647203
0.26024723925142407
0.45121495749556056
0.29140861549582847
-0.03773570710204573
-0.23234544613728506
0.7601528740734281
-1.2205200998484873
-0.30842941286009806
0.2167266867303167
0.33941682276771973
-0.700437414953307
1.171775566623765
0.04169549727879195
-0.41288147421547106
-0.3328062904617377
-0.08222166399418422
0.1486937449052714
0.3409127856720653
0.2459391924982572
-0.008545091985933501
-0.30502754759124917
-0.31744003580862395
0.30620003470639806
-0.6466143602712969
0.24581095097267955
0.4284615904699821
0.3541668987828825
-0.529908648303169
0.41055438640628755
-0.40386210197964223
-0.36456516854931453
-0.07479754104751028
0.44720832777478586
0.7644075696314191
-0.17764825910643706
-0.23958508692815966
-0.2687555857505443
-0.4798459956413436
-0.4458977520883193
0.4940444925161323
0.4126000950935402
0.16688643225946959
1.179597314996145
-1.1623034925772455
-0.2909391660315844
-0.03199985069266998
0.016419686095359202
-1.109503728261452
1.050173072812679
0.35658655123952276
0.2483200048198988
0.3286230798266399
-0.02933348943536438
-0.6614174177348193
-0.5866042438612585
-0.39064716952084744
-0.03018400471011925
0.5418058272529345
0.9398953912665601
0.5172503728850563
-0.040255843132306825
-0.6916124319962046
-0.798734858224475
-0.2831579494068971
0.20129953243384674
0.4723329202571008
0.40386250338463164
0.10305014130535682
-0.3100499981882033
-0.3163417606787999
-0.2075890971959356
0.10301669657161465
0.26787835075410604
0.29272880963264786
0.13118449584140282
-0.10883669692034365
-0.1461225006251574
0.30116376180641674
-0.6562253130901391
-0.2573541680648828
0.11682834597696527
0.33568919332374786
-0.3017197988016098
0.3069727006697814
0.24360921660366394
0.7548970924171851
-1.1496019599267815
-0.08852154118549789
0.3048301225516205
-0.20686986178140385
-0.6611174950820781
1.5024140425529442
-0.5615039532345523
0.09701718881022138
0.23086798807421638
-0.19047775334231223
-0.9674693254471307
0.33563758701455365
-0.015550219003315569
0.2562173839107854
0.41660752603982903
0.3013499261581381
-0.08956026987263889
-0.38352889691697856
-0.41824106035482916
-0.2251293356853583
0.17849511714818841
0.38650677922072335
0.3948609546125808
-0.005769478525641978
-0.22987202952208396
-0.28956227169618504
-0.18503333001541658
-0.09976720970193557
0.1957041243368731
0.3327951206504736
0.1319734793378469
-0.005927847303099471
-0.10090235866870015
-0.1886364928729512
-0.3136246505864229
-0.12562734842505588
0.11805080717130546
0.3466353738844453
0.47292062060202195
0.4013689809468583
0.052044604082833214
-0.6025720660516977
-0.6998997569039513
-0.8662634371630431
-0.4278630351627909
0.7422098192235759
2.5529197186961436
-1.5753377358924756
0.4437689432491713
0.5543612677045252
-0.6162123185210773
-1.512448014943591
0.9968439761383702
-0.1446997001215034
0.04002332370914664
0.37063374150956235
-0.2859422942280055
0.9914705930037384
-0.00997744511495858
-1.0231522484420743
-0.8930867456067665
-0.18714072138356716
0.36915738860771163
0.8350624546331878
0.7938920580389394
0.31115249015681806
-0.2725992142601846
-0.5127022088236105
-0.6080238336527787
-0.1453274785753737
0.14194998540379267
0.19178757220329218
0.009532377415951023
-0.1514255184546211
-0.016175515967580746
0.2850328628394863
0.39607669087099384
0.12551146045292172
-0.1488283305256769
-0.2632801137586997
-0.4472157191462237
-0.3070450000927179
0.17734206470790395
0.44280447024044867
0.32606287131714334
0.24960845178378308
-0.18168991893228242
-0.17185178848577
-0.5185371979691186
-0.20061262898133805
0.023584120796447082
0.4051374100197747
0.18539871220464635
0.37787078792600876
-0.040427472674279936
-0.32465023576593693
-0.3477736720210692
0.016660301723625197
0.10768106922940536
0.08268220393540805
0.11708276159198693
0.0013132419986066814
-0.06190851006974823
-0.0589364913415795
0.03420347396146867
0.05074002061914074
0.030639079337837237
-0.18393651294455374
-0.15571575686046216
-0.06230538532287633
0.09177789319131004
0.2642386998311279
0.3707856658146201
0.2933189052390776
0.1031994477145436
-0.503903711504616
-0.9721716185262148
-0.4634551707814903
0.13941513979317133
0.6024054047312316
0.8950082212692813
0.9501283084249524
-0.3529971993073288
-0.7776158582580505
-1.1011357612566595
-0.6911054595348137
-0.10427306841196278
1.287456526553303
2.2591149148625655
-1.0914924974630074
0.06611211936267052
-0.059496673506196925
-1.619024455309359
-1.6699114927224825
3.244054228448744
-1.525629459822895
0.02101955136976088
1.2761698313478795
0.17566091473398787
-1.6308846305072833
1.612462642729431
-0.21941897367174557
-0.5055835027599962
-0.24429457385482156
-0.018599808299607896
0.03030868552778538
0.21807879195875327
0.1214558763223119
-0.024708190155063543
-0.1348689065434418
-0.08415176640105547
-0.3250542917528484
-0.11072682785400056
0.07644685626028606
0.49636503066863447
0.7320261306393931
0.08951315352022703
-0.17772161825156388
-0.42444136067763183
-0.5626955369995627
-0.6223037595087277
0.2626897931643449
0.23664908581419475
0.28055310228520697
0.16028230415966943
0.18113212153333477
0.16088295400176444
0.22751171019027278
0.0412266768079984
-0.36533238400299545
-0.33973262129638004
-0.16880789463103305
-0.4564760104051577
-0.1273131170690136
0.3450669694278036
0.49402757887282367
0.4153434260978607
0.33775874580736615
-0.18113802713871624
-0.23316457474509397
-0.3208750496179224
-0.3163681201119914
-0.03166693003210764
-0.009761217456008118
-0.13840888647542027
-0.08245996389678485
0.273977901220419
0.3868960166495307
0.6255212744175845
0.2693686298852999
-0.26707024701909754
-0.7880516698903167
-0.46385633315559854
-0.18997383173924814
0.22855846439553326
0.26514745205699025
0.23978507960678053
-0.11972812383768118
-0.11132466715043528
0.32131834670162235
1.3868432463590323
-0.9364609563097223
-0.46827573773464226
-0.3907732478552586
-0.6272069441504663
-1.248841442099528
1.4869233242550066
1.2799436859131477
0.9376365056931992
0.5589596181150398
-1.2353496018838779
-1.2372394462914953
-0.9806253473786463
-0.29884903893038955
0.2707401331786512
1.6398432902144218
0.9048253736889571
0.0961834633459026
-0.6368830670756437
-0.8054250959724962
-0.33925354773986555
0.05345489003851272
0.31066727265695115
0.42214002922977206
0.021907269598230965
-0.42496246528793596
-0.4374651989354661
0.06443131181875875
0.3412725768343972
0.6183573202732635
0.4810116664516311
0.08804988721768812
-0.5968886788975435
-0.7668886684379076
-0.7443187471191571
-0.181555545116544
0.30329014254733727
0.6641918748381322
0.7603075660184095
0.5108649509125642
0.2925782874168888
0.18654301787058314
-0.33517417248605735
-1.1075665813766353
-1.1879806583729675
-0.820117687348914
-0.26550844277072283
0.7010280988251523
1.8601112509938529
1.6257958683476434
0.5781800895301241
-0.5232194287195286
-1.2509791595787623
-1.5817343095074499
-0.7779771918751227
0.07883741826255068
0.6866117450275927
0.6629544682530154
0.4570810385067235
0.266752377233707
0.1851639522096964
-0.011438873303478684
-0.038083461474917764
-0.24967162455356617
-0.3814938545131649
-0.7003430534622893
-0.381662732093137
0.07955330978593937
0.6276103803364832
0.5895449308728179
0.6243435479566013
0.09691351146230041
-0.31450061582639305
-0.5823583712653053
-0.4809135354686897
-0.14310489620550765
0.16307157562872937
0.23490146949211282
-0.08244778252969982
0.2794973177367746
0.3915212349772549
0.3171055819964327
-0.08289624921095522
-0.7348600263181382
-0.536267757479997
-0.35155267434936416
0.17158711875678262
0.3670828637693015
1.109319859678144
0.3843812689165729
-0.11102133947559217
-0.5390785251668572
-0.2691218933513221
-0.6242895209390021
-0.4469270825073746
-0.09555922470249714
0.3256429686439441
0.7162399357648234
0.7275333418872868
0.3299191165575129
-0.18748088039403082
-0.5855624211616844
-0.8262612027103431
-0.2263002226459654
0.16909514351828853
0.3860274149072053
0.30087311396008637
0.21096883970137031
0.009301730452370862
-0.2301908704404516
-0.25690940273161983
-0.04207831248058406
0.02349308407162775
0.13004895939403927
0.2492051948357473
0.13726594401425157
-0.05583431697599003
-0.172334312653612
-0.2312065354731808
-0.217639388545297
-0.0828441424566919
0.043998066479420735
0.23479946644744412
0.3400758734153195
0.3740502855566059
0.11449589782494518
-0.28109576888949356
-0.44873548219846754
-0.3920521721236814
-0.26989056346627704
-0.00524321413579768
0.28531159199659645
0.4513991195290183
0.473034566443804
0.6440391577324699
-1.0168411291886197
-0.3286956676145109
1.3043443675081772
-1.2527819923355494
-0.6235655826168828
1.1009625505896499
-0.24488490054861273
-1.9380822558366868
0.77053142566845
0.3767939188507702
1.0439675825751973
1.1484316042110336
0.4742216227575792
-0.13318110849068854
-0.8652305873641133
-2.033094326406172
-1.1771679275915494
-0.03861920247048934
0.7954522554116245
1.5925367935123045
1.5634021482941935
0.5852047039658418
-0.6121653573425861
-1.3976495580394288
-1.357281731228165
-0.4196969259210714
0.17952963596674304
0.8863702743295676
1.1854619654473415
0.5545653465522056
-0.15819830237881383
-0.5248235509475332
-0.9052891631130527
-0.6148730653095119
-0.31302771247482525
0.37521836945977954
0.8106347232501483
0.6827810160484081
0.16801946893475694
-0.08020267605399305
-0.30461467313528023
0.21015076313428377
-0.797413239466027
-0.308160118896657
0.012937489572039959
0.021838799497350035
-0.3288580743688997
0.9651289120442895
0.10748402520056903
-0.1445791993090712
-0.10990915084494476
0.006855656195527101
0.12384038558284054
0.5052202124517087
-0.004620878157287187
-0.5414846885866585
-0.7852074787215183
-0.3382768631175051
0.2723709836288372
1.3710192527535872
-0.5028517402931051
0.1726116520516811
0.08218405318094395
-0.3312822179934959
-1.0625577522410448
1.0624438614271552
0.3916975502672303
0.052359520769025385
-0.2395953988017936
-0.3647298614139044
-0.3857342257457923
-0.14093387795134277
0.15003668451780322
0.4712442892124595
0.5955437803996687
0.48120736474498355
-0.11284125650035982
-0.7959542507647434
-0.9124563318550228
-0.5252910960513112
-0.031485258052818245
0.5892159941524358
1.1075418063672466
0.7854235323534464
0.1491210626232262
-0.3929968726575966
-0.6942535856833593
-0.7966506310999176
-0.2678643286168841
0.03125955016688902
0.34195936549288924
0.3730527036169478
0.25301525835104544
0.0861485221120901
0.12538349949262895
-0.03327898978491798
-0.036671197695155956
-0.1475365761886146
-0.21406580517373036
-0.24534217485209325
-0.20011093662458668
0.007771700091602126
0.28924624353942363
0.3525607465757142
0.27852875887411865
0.10755868561286941
-0.15763271657190583
-0.33669885176247266
-0.45248265944834737
-0.31835639774438745
0.2610061012191967
0.47577893382716785
0.29189109226398074
0.23796686049303573
0.0068862700384049996
-0.32662642658703356
-0.4786569055961721
-0.12966279376690665
0.09120997871046432
0.2064900139235037
0.0773637021341156
-0.016650398431968423
0.0011430192281030645
-0.012832768139502878
-0.03374155044671712
0.1277797981927723
0.23013091416751053
0.2142137196768838
0.0248952356426897
-0.36364814644235094
-0.7267057289731442
-0.38193937063693356
-0.003627077750686639
0.5428711286755329
1.158046697926799
0.2747391475144736
-0.15012487736242228
-0.4142813156982114
-0.6293617187891873
-0.8796663832021044
0.20121304635074394
0.42726995747254287
0.43520753599775197
0.4527702529990916
0.2772591311363098
0.07494204957229307
-0.39857301914125737
-0.7671735816114346
-0.6082798585898594
-0.046665974665633166
0.6262500036843585
0.5145212687336916
0.4775462855886965
0.10511392705448143
-0.08249590035068231
-0.6109701743642494
-0.4161669349102328
-0.010781849825941945
0.1352343944375451
-0.0029993709728472016
0.18384148693734523
0.32333497078955753
0.048388932260580185
-0.007374347262937767
-0.005041692870351007
-0.2902399821042619
-0.18391702884986327
-0.18094454515425384
-0.1609740404110526
-0.011409992012401443
0.5430351595837852
0.5141639646120163
0.4386670383980433
-0.41166520669889756
-0.3991277124490422
-0.47910847875919305
-0.16384478990403734
-0.10303381425433433
0.5147681284427525
0.3448419501029802
0.06305847212869763
-0.25401353435208757
-0.14135704386952072
0.048753023698340954
-0.05601144296414505
-0.05039694624273848
0.04614986635435971
0.18880436722069668
0.11068338366976849
0.13228140666941718
-0.022570786201430177
-0.20673936769815734
-0.2313137471985541
-0.25560593086198535
-0.19138471989881425
0.07693355900598624
0.2601341048074584
0.2294224900577725
0.391081936171718
1.0813140441126448
-1.0137457675267156
-0.4171196046571612
-0.21297611654937848
-0.20975679264987873
-0.9290403537847335
0.7747932488492243
0.2700814719960046
0.2936553829125531
0.7060586085216941
0.2724770417789948
-0.12337895031610006
-0.43705869847835904
-0.6081736680944011
-0.9131409171066321
-0.1443129850296459
0.5765120941351154
0.7567939286178333
0.4827261399611838
0.18107325310487232
-0.19231883935563232
-0.33588733149055583
-0.36756240468788726
-0.18701844284707847
-0.04844551259373373
0.048984586532508145
0.15314709033957796
0.13919458028463982
0.0860315499221662
0.05640246837516342
0.0853558979244261
-0.021404401084949804
-0.08072018759638111
-0.12032564605608069
-0.16695605830372395
-0.038389695558715096
0.058341488083985
0.12314895189028104
0.15657164190898742
0.1550138439406995
-0.08947054987815896
-0.18453360526625626
-0.1306447684649264
-0.11608437067783019
0.08292318119686283
0.09641413767748389
0.15166761614562585
0.06496362536977664
0.03758315426939072
-0.14264282832466113
-0.09550405670972281
-0.0412585282497852
0.0048383659544376425
0.0347074851495333
0.04654527725205094
0.042339722852628325
0.02555942663716272
0.00019658174943029861
-0.028645700977014438
-0.05338697414086726
-0.06314383915364304
-0.0446891077911492
0.014304912972210404
0.12043736718754962
0.070011862313957
0.047027543124375536
0.025355721231768696
-0.024865153208338823
-0.12840221364946103
-0.09672847207944336
-0.12369210106793717
0.012846620517222579
0.14353046326269633
0.0967432168973254
0.08866209543412855
0.11799435485043784
-0.03262185992402737
-0.18929317117623337
-0.17680177476549358
-0.010031308810276468
0.1098408976654577
-0.006367229797594779
0.058701411268382325
0.12269357873743168
-0.0009056302110524802
-0.1041301687258008
0.01693393544367814
-0.03503466007107075
-0.05625050585309541
-0.041285778829091464
0.015256479388297654
0.11549811823928252
0.054998527217489074
0.021255199588990255
-0.00480915591329273
-0.0445271614174585
-0.11584844839337717
-0.02856813070691399
0.0177171451599532
0.03222617299532685
0.028891196161135883
0.021189628035517563
0.0177067010262123
0.019748072412280656
0.021595852885746808
0.013275150978001577
-0.014961702958861402
-0.06780052752604858
-0.1414142985632765
-0.023001119639825388
0.10599756405712957
0.06388128538216592
0.06221781760665454
0.10165257264636939
-0.028219594015010063
-0.14494416346416067
-0.06705262489400854
-0.008331650738767455
0.025308464899793704
0.03568956068503212
0.0297805674136864
0.016233355507068996
0.002451517462285226
-0.007033850893477673
-0.010799092609808944
-0.009768607475326312
-0.006035589886502324
-0.0017683934917225117
0.0014969705226197646
0.003104042737306816
0.0031569802323187348
0.0022079511986399765
0.0009197790271732784
-0.00018182053085418463
-0.0008220870236972871
-0.0009708802394386444
-0.000762320350351039
-0.0003926789575809466
-3.636828334244477e-05
0.00020041029081295668
0.0002877295733653812
0.00025325619710273104
0.0001524721332162628
4.1159153743459e-05
-4.2104963001178944e-05
-8.165728768554254e-05
-8.121791595115377e-05
-5.561121172269881e-05
-2.206497472388851e-05
6.044337960703188e-06
2.1948292083059156e-05
2.5170178772768197e-05
1.9362958420929648e-05
9.653507276999781e-06
5.026146961767216e-07
-5.441376745801929e-06
-7.5027505985335e-06
-6.4646532345018235e-06
-3.789105354889434e-06
-9.117827182343203e-07
1.195988463425065e-06
2.1595780820718855e-06
2.09872796538453e-06
1.4086497023731604e-06
5.35618289427427e-07
-1.809413401845834e-07
-5.750537353656728e-07
-6.422470157403667e-07
-4.81633320778395e-07
-2.269607386980009e-07
7.813180001953405e-09
1.5678798025907002e-07
2.0502022884855366e-07
1.744687185171544e-07
1.0359440343211934e-07
2.9306694500009128e-08
-2.397600940228942e-08
-4.735313334275793e-08
-4.4518256581630285e-08
-2.5982016610302974e-08
-3.2909847752722723e-09
1.495330583061432e-08
2.4694938235064643e-08
2.6018920901191675e-08
2.16038786587324e-08
1.4934254869072316e-08
8.917827725833167e-09
5.190778012453395e-09
4.074494836815491e-09
4.958230334185943e-09
6.831884091026242e-09
8.747644771306063e-09
1.0092665367735452e-08
1.0657145037990494e-08
1.0551727107264341e-08
1.0055310961553515e-08
9.466290221644599e-09
9.002346568073536e-09
8.762213436882446e-09
8.738573506034745e-09
8.85928875143599e-09
9.033701041699618e-09
9.18770335975079e-09
9.280769668036141e-09
9.306258963781811e-09
9.281041453311632e-09
9.23160323881813e-09
9.182255734432408e-09
9.148353429272907e-09
9.134795499408906e-09
9.138337951400094e-09
9.151595851989456e-09
9.166866944145659e-09
9.17864994686296e-09
9.184551660990665e-09
9.184891751530898e-09
9.181606738220065e-09
9.177052331539462e-09
9.173114909942551e-09
9.170795666657791e-09
9.170223506441936e-09
9.170935207524648e-09
9.172237331007858e-09
9.173507002521447e-09
9.174360224635504e-09
9.174683886764539e-09
9.174571549687275e-09
9.174218368548275e-09
9.17382292686491e-09
9.17352405404184e-09
9.173379480209213e-09
9.173377619121373e-09
9.173466638257921e-09
9.173585402413531e-09
9.173685953720721e-09
9.173743626604187e-09
9.173756184777423e-09
9.173736281165994e-09
9.173702044174627e-09
9.173669413859992e-09
9.173647975112313e-09
9.173640302849625e-09
9.173643733583656e-09
9.173653119825888e-09
9.17366334748119e-09
9.173670918287542e-09
9.173674447229702e-09
9.173674318308991e-09
9.173671915112308e-09
9.173668822268063e-09
9.173666257486764e-09
9.173664826604439e-09
9.17366455938474e-09
9.173665111802928e-09
9.173666010592102e-09
9.173666848276356e-09
9.173667386062298e-09
9.173667566349429e-09
9.173667464155989e-09
9.173667215042281e-09
9.173666950634665e-09
9.173666759054134e-09
9.173666673427575e-09
