0
-7.969363108979827e-05
-7.969363108979827e-05
-7.969363108979827e-05
-7.969363108979827e-05
-7.969363108979827e-05
-7.969363108979827e-05
-7.969363108979827e-05
-7.969363108979827e-05
-7.969363108979827e-05
-7.969363108979827e-05
-7.969363108979827e-05
-7.969363108979827e-05
-7.969363108979827e-05
-7.969363108979827e-05
-7.969363108979827e-05
-7.969363108979827e-05
-7.969363108979827e-05
-7.969363108979827e-05
-7.969363108979827e-05
-7.969363108979827e-05
-7.969363108979827e-05
-7.969363108979827e-05
-7.969363108979827e-05
-7.969363108979827e-05
-7.969363108979827e-05
-7.969363108979827e-05
-7.969363108979827e-05
-7.969363108979827e-05
-7.969363108979827e-05
-7.969363108979827e-05
-7.969363108979827e-05
-7.969363108979827e-05
-7.969363108979827e-05
-7.969363108979827e-05
-7.969363108979827e-05
-7.969363108979827e-05
-7.969363108979827e-05
-7.969363108979827e-05
-7.969363108979827e-05
-7.969363108979827e-05
-7.969363108979827e-05
-7.969363108979827e-05
-7.969363108979827e-05
-7.969363108979827e-05
-7.969363108979827e-05
-7.969363108979827e-05
-7.969363108979827e-05
-7.969363108979827e-05
-7.969363108979827e-05
-7.969363108979827e-05
-7.969363108979827e-05
-7.969363108979827e-05
-7.969363108979827e-05
-7.969363108979827e-05
-7.969363108979827e-05
-7.969363108979827e-05
-7.969363108979827e-05
-7.969363108979827e-05
-7.969363108979827e-05
-7.969363108979827e-05
-7.969363108979827e-05
-7.969363108979827e-05
-7.969363108979827e-05
-7.969363108979827e-05
-7.969363108979827e-05
-7.969363108979827e-05
-7.969363108979827e-05
-7.969363108979827e-05
-7.969363108979827e-05
-7.969363108979827e-05
-7.969363108979827e-05
-7.969363108979827e-05
-7.969363108979827e-05
-7.969363108979827e-05
-7.969363108979827e-05
-7.969363108979827e-05
-7.969363108979827e-05
-7.969363108979827e-05
-7.969363108979827e-05
-7.969363108979827e-05
-7.969363108979827e-05
-7.969363108979827e-05
-7.969363108979827e-05
-7.969363108979827e-05
-7.969363108979827e-05
-7.969363108979827e-05
-7.969363108979827e-05
-7.969363108979827e-05
-7.969363108979827e-05
-7.969363108979827e-05
-7.969363108979827e-05
-7.969363108979827e-05
-7.969363108979827e-05
-7.969363108979827e-05
-7.969363108979827e-05
-7.969363108979827e-05
-7.969363108979827e-05
-7.969363108979827e-05
-7.969363108979827e-05
-7.969363108979827e-05
-7.969363108979827e-05
-7.969363108979827e-05
-7.969363108979827e-05
-7.969363108979827e-05
-7.969363108979827e-05
-7.969363108979827e-05
-7.969363108979827e-05
-7.969363108979827e-05
-7.969363108979827e-05
-7.969363108979827e-05
-7.969363108979827e-05
-7.969363108979827e-05
-7.969363108979827e-05
-7.969363108979827e-05
-7.969363108979827e-05
-7.969363108979827e-05
-7.969363108979827e-05
-7.969363108979827e-05
-7.969363108979827e-05
-7.969363108979827e-05
-7.969363108979827e-05
-7.969363108979827e-05
-7.969363108979827e-05
-7.969363108979827e-05
-7.969363108979827e-05
-7.969363108979827e-05
-7.969363108979827e-05
-7.969363108979827e-05
-7.969363108979827e-05
-7.969363108979827e-05
-7.969363108979827e-05
-7.969363108979827e-05
-7.969363108979827e-05
-7.969363108979827e-05
-7.969363108979827e-05
-7.969363108979827e-05
-7.969363108979827e-05
-7.969363108979827e-05
-7.969363108979827e-05
-7.969363108979827e-05
-7.969363108979827e-05
-7.969363108979827e-05
-7.969363108979827e-05
-7.969363108979827e-05
-7.969363108979827e-05
-7.969363108979827e-05
-7.969363108979827e-05
-7.969363108979827e-05
-7.969363108979827e-05
-7.969363108979827e-05
-7.969363108979827e-05
-7.969363108979827e-05
-7.969363108979827e-05
-7.969363108979827e-05
-7.969363108979827e-05
-7.969363108979827e-05
-7.969363108979827e-05
-7.969363108979827e-05
-7.969363108979827e-05
-7.969363108979827e-05
-7.969363108979827e-05
-7.969363108979827e-05
-7.969363108979827e-05
-7.969363108979827e-05
-7.969363108979827e-05
-7.969363108979827e-05
-7.969363108979827e-05
-7.969363108979827e-05
-7.969363108979827e-05
-7.969363108979827e-05
-7.969363108979827e-05
-7.969363108979827e-05
-7.969363108979827e-05
-7.969363108979827e-05
-7.969363108979827e-05
-7.969363108979828e-05
-7.969363108979828e-05
-7.969363108979828e-05
-7.969363108979828e-05
-7.969363108979827e-05
-7.969363108979824e-05
-7.969363108979822e-05
-7.96936310897982e-05
-7.969363108979822e-05
-7.969363108979826e-05
-7.969363108979834e-05
-7.969363108979842e-05
-7.969363108979849e-05
-7.969363108979847e-05
-7.969363108979836e-05
-7.969363108979815e-05
-7.969363108979785e-05
-7.96936310897976e-05
-7.969363108979752e-05
-7.969363108979778e-05
-7.969363108979842e-05
-7.969363108979935e-05
-7.96936310898003e-05
-7.969363108980079e-05
-7.969363108980033e-05
-7.96936310897986e-05
-7.969363108979568e-05
-7.969363108979235e-05
-7.969363108979e-05
-7.969363108979038e-05
-7.969363108979485e-05
-7.969363108980361e-05
-7.969363108981482e-05
-7.969363108982437e-05
-7.969363108982662e-05
-7.96936310898162e-05
-7.96936310897909e-05
-7.969363108975454e-05
-7.969363108971862e-05
-7.969363108970112e-05
-7.969363108972133e-05
-7.96936310897912e-05
-7.969363108990509e-05
-7.969363109003246e-05
-7.969363109011834e-05
-7.969363109009632e-05
-7.969363108991464e-05
-7.969363108957017e-05
-7.969363108913815e-05
-7.96936310887807e-05
-7.969363108871727e-05
-7.969363108914974e-05
-7.969363109015284e-05
-7.969363109156343e-05
-7.969363109292287e-05
-7.969363109353152e-05
-7.969363109265361e-05
-7.969363108985898e-05
-7.969363108541236e-05
-7.969363108054622e-05
-7.96936310774152e-05
-7.969363107856946e-05
-7.969363108592744e-05
-7.969363109946384e-05
-7.969363111609382e-05
-7.96936311294174e-05
-7.969363113094939e-05
-7.969363111309054e-05
-7.969363107338701e-05
-7.969363101872608e-05
-7.969363096736395e-05
-7.969363094652754e-05
-7.969363098420348e-05
-7.969363109578678e-05
-7.969363126918522e-05
-7.96936314548243e-05
-7.969363156832247e-05
-7.969363151187294e-05
-7.969363121465216e-05
-7.969363068338491e-05
-7.96936300440417e-05
-7.969362954897202e-05
-7.969362952589619e-05
-7.969363026014625e-05
-7.969363182944564e-05
-7.969363394510316e-05
-7.96936358816069e-05
-7.969363658062565e-05
-7.969363497939541e-05
-7.969363053189621e-05
-7.969362377787505e-05
-7.969361670706149e-05
-7.969361262020685e-05
-7.969361526337085e-05
-7.969362724026485e-05
-7.969364806604053e-05
-7.969367261353621e-05
-7.969369094549434e-05
-7.969369041989679e-05
-7.96936603502579e-05
-7.969359840717373e-05
-7.969351661700453e-05
-7.969344376759278e-05
-7.969342094996667e-05
-7.969348844907285e-05
-7.969366542273605e-05
-7.96939281974929e-05
-7.969419707470466e-05
-7.969434308876992e-05
-7.969422296768247e-05
-7.969374143624105e-05
-7.969292602826117e-05
-7.969198479956224e-05
-7.969130857478381e-05
-7.969138442647396e-05
-7.969261150201195e-05
-7.969505328191542e-05
-7.96982114640185e-05
-7.970094545989944e-05
-7.970166169506781e-05
-7.969883602474776e-05
-7.969180515972853e-05
-7.96815932147889e-05
-7.967138642759812e-05
-7.966621788509223e-05
-7.967155909384219e-05
-7.969087799291706e-05
-7.972276695678899e-05
-7.975880657037806e-05
-7.978364501230062e-05
-7.977853993246401e-05
-7.972862706035912e-05
-7.963249654965973e-05
-7.951069714134254e-05
-7.940835480933074e-05
-7.938719923496508e-05
-7.950477958647997e-05
-7.978367672674699e-05
-8.018007825878698e-05
-8.056683337825902e-05
-8.07477429433434e-05
-8.051417224003123e-05
-7.974065203087063e-05
-7.849498393310102e-05
-7.711700692491378e-05
-7.620901733839816e-05
-7.649128448874696e-05
-7.851556383102969e-05
-8.229537101304464e-05
-8.698691003813065e-05
-9.080730123725088e-05
-9.136814396139102e-05
-8.650110125113105e-05
-7.545422786333299e-05
-6.008465996606124e-05
-4.5457775093853584e-05
-3.92130421316023e-05
-4.9293230873821706e-05
-8.020611222348238e-05
-0.0001288091656716938
-0.00018141781013844514
-0.00021443049691620807
-0.00020020391813619298
-0.00011833027702473151
3.0105455472663407e-05
0.00021058478595105317
0.00035276053576030345
0.00036432809235067
0.0001637685378899526
-0.0002732187588840478
-0.0008685302942643229
-0.001420709022022039
-0.0016326176727861734
-0.001202307370966085
3.1042162933586794e-05
0.001926107907294359
0.00393400243924102
0.005132768551838701
0.004466131359100825
0.001187524892100832
-0.004590293702212458
-0.011450060523081668
-0.016610801085215343
-0.0165117690946224
-0.008133843894139974
0.009146990280271381
0.031745377308490044
0.05095056169635566
0.053789047187142336
0.02614149716840916
-0.042268283197936365
-0.15248671842547815
-0.09283559506284601
-0.039490708000652186
0.03804393448649497
0.1679355921046208
0.16679987033601873
0.03409635607737267
-0.04737159798401898
-0.10506512629207511
-0.1672883443361518
-0.05480765283805572
0.023202339977807004
0.06785877998873088
0.08540465959075166
0.0812189858623399
0.05605731711641396
0.006259758724305862
-0.07231643113106967
-0.17875534344409139
-0.10307168759053024
-0.02646267163054534
0.07336134388951607
0.2136282624464282
0.19866614747993136
0.016888527537070236
-0.1553698173411315
-0.14456178427111918
-0.16942141693563226
-0.03406957838585699
0.07237892954579252
0.1700742640338265
0.07970557728951244
0.014890629562822636
-0.021333757220700016
-0.03519597360594012
-0.03738957379918273
-0.037163011199226416
-0.03763262215633857
-0.03392154294219985
-0.014685339531205635
0.03352758618182943
0.12062242089267827
0.04813751599063875
0.007215521133875072
-0.019718713712418737
-0.054187106319713164
-0.1156792622471216
-0.01675893861574844
0.039068745482234005
0.05638925960014893
0.04482454202234007
0.015548284854261558
-0.0213019095191878
-0.05791025789558847
-0.08921606468755328
0.08680086804018382
0.06875419290733302
0.05196336701153978
0.02993428624964366
-0.002506409680553833
-0.24540433087125574
-0.09126165281576396
0.07393710811778527
0.06570185871001515
0.0937455572279555
0.1557693799556566
0.0355685011176789
-0.09304177126430942
-0.05749827067433502
-0.07613651980429513
-0.15024184060045465
-0.06179755353436952
0.021742698315796685
0.13688142251735277
0.1112515115996473
0.1532437715747523
0.048139500422241376
-0.0375206215290083
-0.14469602725475442
-0.10774511605380786
-0.1425982288915167
-0.041483028180795405
0.02398638169235262
0.09265080667653376
0.20048177326115732
0.1691598163944876
0.0008117022667925012
-0.11948165392381271
-0.21524383065896566
-0.1086371325337863
-0.013670672509267375
0.06483186709660879
0.1271465508762609
0.17264241240713576
-0.004274484555664274
-0.01373783576227608
-0.06553169129603874
-0.16217173521308695
-0.09356918462172677
-0.036360029892953706
0.04099270958054317
0.16882585304422715
0.1662375185916284
0.03454223012310678
-0.04301422094451625
-0.09525222848896862
-0.15343453693297135
-0.041982069352978976
0.027124420035786703
0.054908996339014984
0.051809285243639064
0.03217160870122901
0.009166866808792409
-0.008377230191068974
-0.016845845825571998
-0.01689811110877822
-0.011618211238077073
-0.004630630513296944
0.0012406282857658306
0.004561792719827345
0.005225524910635615
0.00399599516280601
0.0019493035748636264
2.245610046421544e-05
-0.0012283257243865203
-0.00166155295220288
-0.001442467196387093
-0.0008789624810825311
-0.0002732315321901551
0.00017035251989578782
0.00037303306316860256
0.00036009314579287703
0.00021476261172296188
3.0984433633388244e-05
-0.00011981265846544082
-0.00020271819418400425
-0.00021681376674154973
-0.00018297518545025621
-0.00012935853410290924
-7.99465250541563e-05
-4.8602746111742505e-05
-3.8465004639322365e-05
-4.490610187182294e-05
-5.982860823164858e-05
-7.546446442990577e-05
-8.667640066289266e-05
-9.159368763706041e-05
-9.099565084239516e-05
-8.709506495022974e-05
-8.232125776878192e-05
-7.848264200412876e-05
-7.643069285799319e-05
-7.614621531398161e-05
-7.706602728385113e-05
-7.845978379004376e-05
-7.972060651702626e-05
-8.050985341886845e-05
-8.076366191010084e-05
-8.060943575169956e-05
-8.025148544491199e-05
-7.987388431502912e-05
-7.95866013212696e-05
-7.941848448248579e-05
-7.934434574763581e-05
-7.93256941430091e-05
-7.934489532782215e-05
-7.941846810260701e-05
-7.958436325812448e-05
-7.986821049691001e-05
-8.024266547404663e-05
-8.059996352638789e-05
-8.075811594261072e-05
-8.051364439237444e-05
-7.973762927407485e-05
-7.848953106289506e-05
-7.710127378698122e-05
-7.617271995141938e-05
-7.643020551557019e-05
-7.843962496324921e-05
-8.223215075516028e-05
-8.697700151421646e-05
-9.089001767727221e-05
-9.155978862173832e-05
-8.677261315363068e-05
-7.571891994266589e-05
-6.020776808942106e-05
-4.529549144272503e-05
-3.867865536217853e-05
-4.843335228964641e-05
-7.925522737593199e-05
-0.000128183082619845
-0.00018161384538446508
-0.0002158295378485684
-0.00020281501263996288
-0.00012157028665231402
2.7468199760682376e-05
0.00021019988650180228
0.00035612510706613037
0.00037196040548028754
0.00017438443183900054
-0.0002631192120953115
-0.0008642240527468257
-0.0014276809216516501
-0.0016539780451037252
-0.0012358809712762011
-5.287932502185839e-06
0.001903325480935608
0.003943858736043025
0.0051893506789124945
0.004568675639757713
0.0013121733787623666
-0.004492140161872186
-0.01144215212925952
-0.016749415587486945
-0.016813639097568167
-0.008544956094946807
0.008765841915316283
0.031599440729739595
0.05124831538484503
0.054641340345969874
0.027450259750210933
-0.04088297716601142
-0.15166304806318473
-0.09330548996990119
-0.041773815363574475
0.03401899361397186
0.1631379786756699
0.16313795384704974
0.03401888155649062
-0.04177410132664449
-0.09330601713311774
-0.15166378059106386
-0.04088371627787697
0.027449870776590807
0.05464171876419765
0.051249751960073635
0.03160186960584764
0.008768658803829264
-0.008542909747330388
-0.016813823735346522
-0.01675304420036012
-0.011449444426323464
-0.004501634998424303
0.0013038744036542721
0.004566357220867728
0.005197629114596267
0.003964807790039596
0.0019339776368841068
2.5594439058825876e-05
-0.0012198540732236746
-0.0016693280871851925
-0.0014850560009473726
-0.0009597419026807846
-0.00037184645730430933
9.836322994413485e-05
0.00038509296481347723
0.0005036853230979621
0.0004974888101989877
0.00039399741129283864
0.00018954052031170686
-0.00013264651629090628
-0.0005610950062943617
-0.0010133842966108452
-0.001319054449636903
-0.001250905190585716
-0.0006123242460264577
0.0006361735634823523
0.0022559799121207825
0.003680748556064016
0.004104538992139001
0.0027432788292928037
-0.000760479064632371
-0.005907818441536398
-0.011088479373550291
-0.013731876091609361
-0.011033888903767426
-0.0012531329707664025
0.014697314395339408
0.031914269018418345
0.04113066405351919
0.02989622745373253
-0.014556002062830541
-0.10135426141952343
-0.032224025578265356
0.0006160372737922446
0.013983774501190612
0.030810128248027945
0.07578939937399921
-0.02906657444710701
-0.06799451587335939
-0.033869881311129876
0.07041754848689442
0.03156008255945737
0.026808909864828888
0.026896965935304985
0.001010649465222119
-0.07693618429947165
-0.02224196553954446
-0.03539829246204843
-0.10161077602623227
0.005554809107146762
0.11708785474264384
0.05998351682139329
0.04997163427766162
0.08799407154085019
-0.038441150617667195
-0.14975007772809393
-0.06690435495781968
-0.005086644687003498
0.02949498032944038
0.03915140975088548
0.03168437630866074
0.016534950130395784
0.0016212314039230822
-0.00834606113295975
-0.012031924954174563
-0.010591719384275427
-0.006367721221101169
-0.0017112087297508829
0.001757765554661861
0.0033874692114967187
0.00334147945695242
0.00224746381064088
0.0008303775892506209
-0.00034976340602168037
-0.0010122049211668846
-0.001140593247778502
-0.0008910525940731987
-0.0004801966744280464
-9.538358632736596e-05
0.00015295927083827312
0.00023751807043284788
0.00019208932687968063
7.859994750141334e-05
-4.2536777319568305e-05
-0.00013071192885146795
-0.00017052353784451687
-0.00016733571624959572
-0.00013798766340556904
-0.00010132347451142462
-7.155631094649684e-05
-5.549597722475885e-05
-5.3095516445857913e-05
-5.9947032488395e-05
-7.025773706575084e-05
-7.922334179459577e-05
-8.428519223769192e-05
-8.526587283911021e-05
-8.369627309691808e-05
-8.175940212166099e-05
-8.124040116639753e-05
-8.276832434062271e-05
-8.552382602914615e-05
-8.748898149467331e-05
-8.621738975010256e-05
-7.997916386846979e-05
-6.897952297140002e-05
-5.619605744367112e-05
-4.730790953295979e-05
-4.930118045280512e-05
-6.770269658722709e-05
-0.00010300471369185509
-0.0001475459316069485
-0.00018461798202561175
-0.00019150324045419018
-0.0001472148578703607
-4.38521789532668e-05
0.00010191958413976798
0.0002428409196924583
0.0003066070077190504
0.00021697393821395775
-7.095094717669267e-05
-0.0005303913849793066
-0.001034503520524418
-0.0013608015815822162
-0.0012452654332807472
-0.00048827770191945004
0.0009097761895972935
0.0026329255172970953
0.004022740561169282
0.004205053401093173
0.00239713713547172
-0.0016512342416765509
-0.007222831375163834
-0.01242340418544637
-0.014435393583960792
-0.010387516322165866
0.0012127322436766132
0.018828201853396696
0.036648044148542405
0.044498643346851025
0.02947396058852267
-0.020709387483568875
-0.11344869719437434
-0.04762395137663559
-0.012266554621566068
0.011548806697999152
0.04599954988512995
0.11063192403562634
0.017427687052950835
-0.031505536897917207
-0.04311884699574515
-0.03025189610527359
-0.007571754645172611
0.012044845716956345
0.019989183791030762
0.013189716524969858
-0.005608524547565369
-0.02841401538530404
-0.04350500106623987
-0.03808972048041006
-0.002047359326693536
0.06795855293088338
0.16546394578242127
0.07409317221182814
-0.028496787333321734
-0.16322697873002154
-0.14147235501284902
-0.16001429606384518
-0.0020073068438381325
0.1558104342896215
0.33272507110278926
0.1356204431939789
-0.04292108864599192
-0.21877082773909176
-0.20578673994027272
-0.20658192820688112
-0.009823709791554463
0.20415278428155498
0.25215164447359645
0.13718179458495683
0.04363863375781975
-0.05856741781620907
-0.20247769546688282
-0.21018636829208823
-0.08269898163557317
0.002000024441146767
0.08180313598453587
0.19723084012438527
0.17746920106200462
0.031144813009581176
-0.054931564946684594
-0.10928146449552986
-0.1648546007421702
-0.04836697121231248
0.02626952670268686
0.05887897147937909
0.05927631090456824
0.04135092030948835
0.017619754458865607
-0.004033813422247742
-0.021012110451436736
-0.03470560381284794
-0.048474734548656015
-0.06611702655365495
0.1085354125180625
0.07113018905239038
0.01640794213074666
-0.061057544275074246
0.03525907010777223
-0.09343594245522606
-0.03922835859195433
0.012699662100600279
0.08204289449845753
-0.010366591440964435
-0.046935638358015924
-0.01727480857422601
0.07895952948897661
0.03088473898398651
0.01740925775957567
0.010735719235952701
-0.01805161565898072
-0.09255796524180047
-0.025587674196943376
-0.01629817612466493
-0.050969931304926844
0.09277924465428422
0.039614402815679586
0.009864187372416821
0.0145304889872904
0.05310339412624189
-0.08559927710463063
-0.020180695535663318
0.02790887727105596
0.03916197901368805
0.0002246883569988268
-0.09301789975860368
-0.034065799215186515
-0.006754079224635121
0.011282727320037647
0.04333030810417801
0.1080457723463114
0.015460925847658907
-0.03417294516434026
-0.04856367078867072
-0.03965237129540826
-0.019656608208509077
0.0017059611555774203
0.018233109347023095
0.026791975355924424
0.026250666889137277
0.01668839575319575
-0.0005683304702530257
-0.02211711111328886
-0.04145914508809685
-0.04870096347639501
-0.03177602392779994
0.020609321103511456
0.11500949464314261
0.04977069688627234
0.013761183979407262
-0.011729989058538816
-0.048314936395628935
-0.11470091953139067
-0.021926270271161473
0.02865886962075652
0.04419192827098729
0.03675862653580332
0.019168334109204564
0.0015920432803745155
-0.010101696497811266
-0.01429785644782555
-0.012422579764579502
-0.007308768371213488
-0.001765272095463952
0.002300878063516902
0.004150059715413293
0.004011006547389828
0.002652224639996938
0.0009426959850861187
-0.00045700235625828413
-0.0012247822823375307
-0.0013535365202891943
-0.0010378734509363977
-0.0005394484962894194
-8.079134840822518e-05
0.00020970153044454277
0.0003032312790949499
0.00024299965002167522
0.00010429265054702423
-4.078637623442522e-05
-0.00014464408568154414
-0.0001900500314766088
-0.0001843664819018716
-0.00014821544839536992
-0.00010415438871842817
-6.888937405584902e-05
-5.0164848243744385e-05
-4.760227638777633e-05
-5.580150517521174e-05
-6.792862119308339e-05
-7.849803806475848e-05
-8.475346946951352e-05
-8.667396688201303e-05
-8.60250190589198e-05
-8.501918302307409e-05
-8.510714041821381e-05
-8.627422729109517e-05
-8.70355907362787e-05
-8.513509058050449e-05
-7.876274605081523e-05
-6.79173476186981e-05
-5.538642985250146e-05
-4.676416214692791e-05
-4.906820521287043e-05
-6.791395196911167e-05
-0.00010383908955575004
-0.00014908947617744945
-0.00018668478530917923
-0.00019350819358834667
-0.00014820211734765202
-4.275241547784295e-05
0.0001058084205604638
0.00024926935113172254
0.000313923977735483
0.00022211549059566985
-7.177384085865174e-05
-0.0005402418329910927
-0.0010537805057718337
-0.0013854902240087066
-0.0012663493316858255
-0.0004932779202787533
0.0009326601809057577
0.00268860452490728
0.004102814383983476
0.004284222945744047
0.0024358629734801
-0.0016955115135731222
-0.007376469297262502
-0.012674163954556141
-0.014716067981999394
-0.01057714406582175
0.0012604566722171104
0.019227538893588962
0.03740630222500106
0.04545050110725481
0.030262739366076687
-0.020567027846919866
-0.1143981170817561
-0.049831103199513935
-0.015374236189072117
0.008548142640235621
0.04464394518365449
0.11253849544637758
0.02353944187683659
-0.021778681106842914
-0.03250242953937475
-0.023504905029885115
-0.010316411541512924
-0.004383154770222668
-0.009919499442211389
-0.02299322936083977
-0.033008848310786605
-0.026344789305537655
0.008576980242092547
0.07610858818203964
0.16994203863213944
0.07332823056187769
-0.03608960495793727
-0.1778429092194039
-0.15981740621045343
-0.1732998514044477
0.004951596834918178
0.2035028712527237
0.24340663922672404
0.12749492162350337
0.03706797689292179
-0.06194302887917035
-0.205550779716023
-0.21654215581356231
-0.09397087073487455
-0.011873512764979131
0.07199592423949484
0.20068964265990144
0.20182498364913384
0.07686649220716714
6.5965904416259e-05
-0.07255401890974876
-0.1876077741229201
-0.1779626644340215
-0.05148876709947549
0.011241914204618628
0.04992224572368713
0.11110684518811877
0.2334197220285916
0.03645545693735058
-0.08328960121159452
-0.1490507666126315
0.004612296511818033
-0.05841128783577093
0.03229491862701221
0.058630258811141825
0.01583381292377429
-0.08809674035006167
-0.03486909624999969
2.300870178630307e-05
0.04199452837684087
0.11184280441276177
0.0215399192808189
-0.02729253879153976
-0.041844187448023935
-0.034360698456733695
-0.017759324366065705
-0.0021189326804221436
0.007113557303974378
0.009128132557874534
0.006436886339587638
0.0029242379269565173
0.0019093828616044233
0.004708643507655143
0.01001004305576882
0.01421975274853802
0.012784943174128637
0.002291019415402133
-0.017145000194712594
-0.039952568824147244
-0.05458694733853
-0.04519286932882976
0.004347334743764073
0.10474233746897156
0.05575241319615136
0.0430079043362009
0.038947026667413676
0.008330120892664125
-0.08282460910862965
-0.057376702746920166
-0.1194001847049711
-0.05151434611882447
-0.01865889965403044
0.022261286938835875
0.10953406536428532
0.2647401928870283
0.08612658303668023
-0.04994018347382124
-0.1796811507902972
-0.1383629491479227
-0.14796196297283984
-0.010810500753029752
0.08880719920103979
0.17660383869282026
0.07776920730736628
0.008444417751257231
-0.027876047970523465
-0.03857283941066696
-0.036425196893179336
-0.03304355325641895
-0.03366932899571804
-0.03499562410998807
-0.026615989653238484
0.004372415147776482
0.06709693207463462
0.16122959789219815
0.07435381211923646
-0.015963720606273383
-0.13556936871682249
-0.10493054685950616
-0.13180042782596932
-0.00855340678345746
0.08464125869476634
0.17229594159582304
0.07515581622624605
0.004476311532368298
-0.038880661248029545
-0.06084723414670789
-0.06831352965350838
-0.06401037215687387
-0.04447479852737059
-0.00203468414412706
0.06998076318913697
0.17110259727426017
0.08967574561723014
0.0033757052681890705
-0.11510199531612658
-0.08899801806224952
-0.12863675736976063
-0.026389608470684507
0.04249336364147692
0.11351098320661653
0.02336649003562405
0.00045140733578742545
0.058041258953924944
-0.008388635652758061
-0.019614283109133053
-0.007724974597592763
-0.009214346376897874
-0.0577114137552312
0.022199082232041256
0.019030617629582233
-0.06419927646309313
-0.011278283149429254
0.003459082505768581
0.009609876321142135
0.03451072747056026
0.09784213933304235
0.008458089416713428
-0.03572393598298821
-0.04496864611928413
-0.03331519890033978
-0.014173761974960336
0.002731771781775096
0.012515934654963336
0.014598260453753729
0.011168756804226467
0.005424444245525131
0.00016094175809462893
-0.0030010957255922903
-0.003755425948327396
-0.0027938490061138067
-0.0012720188424094963
-0.00026763518657221016
-0.0003733809335449499
-0.001499142792533878
-0.0029090538670285817
-0.0034852963452049815
-0.002176079244110768
0.0014647757863807886
0.00680363516390758
0.01193066348346976
0.01395850916372939
0.009944462545764218
-0.0016372373065507283
-0.019230058049849563
-0.036965445638727744
-0.04461136467340725
-0.029250170137397773
0.021328001945492857
0.11435358073871554
0.048484355696002825
0.01256161401861114
-0.0123788048559408
-0.04829226628511262
-0.11420101384755683
-0.021347000598517712
0.028874468008944994
0.043728633227235664
0.03558229597601107
0.017617255796928098
0.00035760614203823415
-0.010145499933685371
-0.01242135729101003
-0.008464441340289655
-0.0020578770044621534
0.002901510222110381
0.0037292945765251355
-0.0002257938814667398
-0.007327487203991515
-0.014011539371890966
-0.015801885370639587
-0.008943041295593505
0.0075991472562899325
0.030313016705924727
0.05029446870431355
0.05420602430241237
0.027489646436372098
-0.040549717767395944
-0.15125288037019788
-0.09299442267983608
-0.041655844940328854
0.0339396672320626
0.16293130220249522
0.16291883662778886
0.033910988687560664
-0.041677822873817015
-0.0929817367025428
-0.15118567963755633
-0.04042995467003474
0.02762904412186315
0.054302225102775104
0.05027047941659886
0.0301084395760682
0.007209592783493138
-0.009431914902590705
-0.016205163223850114
-0.014079279308545958
-0.006830555858723106
0.0009190514198332371
0.005333842746125086
0.004441503133538035
-0.0013793037425816484
-0.009482387750439148
-0.015620323524234873
-0.015218303329620077
-0.005184264635168983
0.014049652673557393
0.036863604454525314
0.051990149050763074
0.04401286158134155
-0.002921310761204017
-0.09980591262336173
-0.047468856422742636
-0.033299788945371125
-0.031660509767353406
-0.00847310108345468
0.07092547260431258
0.03271055165486326
0.08686504825662479
0.023199495492788186
0.01248805275297254
0.012697371414588229
-0.02114938297864511
-0.12601718805111053
-0.12184670915233319
-0.0071824092079903765
0.039179598483862495
0.05115305337891002
0.06540928724332375
0.11182402913538952
0.007199133361636439
-0.04626847738037199
-0.05808928925501133
-0.0439456102741423
-0.019864636766592038
0.002018966282889791
0.015281181305009568
0.018814902696317005
0.015067088102389556
0.007896263299285044
0.0008191268232320924
-0.003971871892607872
-0.005808351112154332
-0.005193942530608517
-0.003215292211574479
-0.000987725179860873
0.0007040638930660671
0.00152990225351829
0.001550536162836233
0.0010553193384997964
0.00038812690755552935
-0.0001798512133956957
-0.0005079614603352722
-0.0005819996384861572
-0.0004722000768364633
-0.0002803252088009108
-9.635566827263751e-05
2.5240559760164146e-05
6.945078279602942e-05
5.0909729961600277e-05
-1.5511493329602491e-06
-5.910780396143852e-05
-0.00010193055846413775
-0.00012206797515813262
-0.00012156921595317283
-0.00010817742685057491
-9.082650556042356e-05
-7.641488623050632e-05
-6.839166310440665e-05
-6.693121882508029e-05
-7.006303503861444e-05
-7.506163321315067e-05
-7.957734746524295e-05
-8.225793967275947e-05
-8.285446844747596e-05
-8.195659603973555e-05
-8.055214788118784e-05
-7.958081850416109e-05
-7.959419280367663e-05
-8.057876528168221e-05
-8.196187292528987e-05
-8.279910801152933e-05
-8.212036404242622e-05
-7.937496787363463e-05
-7.486169340828122e-05
-6.997393869108122e-05
-6.706913697958926e-05
-6.882551375197308e-05
-7.710437676838159e-05
-9.157929356178386e-05
-0.00010865692933372751
-0.00012137800606595953
-0.00012090916312140898
-9.981277803107788e-05
-5.6518184256571904e-05
5.073630576177832e-07
5.111363243435625e-05
6.66224957466218e-05
1.9013599972934713e-05
-0.00010488529006009932
-0.0002882903321032845
-0.00047534746661936445
-0.0005759816349055634
-0.0004904238335473367
-0.00015275042939711847
0.00041698583233254244
0.001072734653853008
0.0015412830592952142
0.0014830617086526523
0.0006209029761706118
-0.0010873046144840568
-0.0032917454808334395
-0.005196169535151029
-0.005692173051074266
-0.0037258221978576167
0.001149161720374506
0.008196363808107168
0.015171947975575688
0.018559459947564038
0.014582097327516527
0.0009631314104356712
-0.02096409048628995
-0.044572210173048604
-0.05765946929260681
-0.04437965737046154
0.010466256197062773
0.11566691339821004
0.06828386179748948
0.05111033110292768
0.034599862996291086
-0.01658990721955636
-0.1341218699140234
-0.1366179560744061
-0.023749117517576114
0.023955536339462187
0.03941659047183298
0.05943610330688216
0.11451628740387233
0.021295589377735326
-0.020274673181623883
-0.024573804779656122
-0.013957279763086044
-0.010577809399730293
-0.02875847206048089
-0.0699663571667544
-0.12185197187955722
0.038029657956987116
0.034465364776190874
0.08497710573566204
0.1917048901040639
0.13816682407511918
-0.10716807516068062
-0.1812275495572289
-0.11413487142473022
-0.11935735131959634
0.009884554765834814
0.09686120947141375
0.17228509151023014
0.06398790597908202
-0.010661118123077172
-0.047347454076339536
-0.05259629521793527
-0.03872607874106705
-0.01844484290404825
-0.000967169326304072
0.009540167236280735
0.013363698106618973
0.013296959528024404
0.012338886179929167
0.011910847250335727
0.011159026681141276
0.007528500145484862
-0.0015917712963329615
-0.01670662994847181
-0.03435487908268506
-0.04646357081140261
-0.04163427027306139
-0.008521041252645647
0.05941832915907548
0.1594560128075897
0.0775744060448643
-0.009430224617749958
-0.1276624696805713
-0.09769615863633281
-0.12738851888973382
-0.00904941092143017
0.07778463025670426
0.15921340320033237
0.05857046407926199
-0.009869350246194607
-0.04305270023800524
-0.047243606990992594
-0.033710809332396056
-0.014120073205951435
0.0027835687741621573
0.012562095403480876
0.014743512651941878
0.011441796105255276
0.005716239464971406
0.0002579623211388857
-0.003317583714574792
-0.004579369027774313
-0.00397921782029771
-0.0023856306424122472
-0.0006591253560777565
0.000613700517608746
0.0012028099897984576
0.0011756880633769725
0.0007671235453214618
0.00024459634458321106
-0.00018711668251888034
-0.00042676119540095844
-0.00047015779163169836
-0.00037585387809090706
-0.00022383091969713304
-8.269313254391191e-05
7.546026340100279e-06
3.744041293595886e-05
1.9830338314731893e-05
-2.2346428222277183e-05
-6.691569385997161e-05
-9.91009095282351e-05
-0.0001134140213327201
-0.00011195550160759472
-0.0001009724250891883
-8.738761637833269e-05
-7.639278041740355e-05
-7.046536351278191e-05
-6.959281930531483e-05
-7.219091447191258e-05
-7.6174847930455e-05
-7.979309851370497e-05
-8.20511800016376e-05
-8.27438253827278e-05
-8.222939013179414e-05
-8.111145315351131e-05
-7.996087049467111e-05
-7.914992587689623e-05
-7.880894837262732e-05
-7.887384667700292e-05
-7.917641658924155e-05
-7.953385629530433e-05
-7.981039197986555e-05
-7.994265557548738e-05
-7.993466917903347e-05
-7.983514070346458e-05
-7.970988170732367e-05
-7.961817643529104e-05
-7.959696568935498e-05
-7.965308995507204e-05
-7.97625029566577e-05
-7.987586960414671e-05
-7.99309325618799e-05
-7.98719144196591e-05
-7.967404687691488e-05
-7.936729006259006e-05
-7.904901885373271e-05
-7.88735684939277e-05
-7.900985908907953e-05
-7.956844578447354e-05
-8.051518403980336e-05
-8.160558537757735e-05
-8.238393757836065e-05
-8.228528105485227e-05
-8.084995582670804e-05
-7.80106393335911e-05
-7.435273714213975e-05
-7.120445789707925e-05
-7.041333435194089e-05
-7.373726235271265e-05
-8.192632608194845e-05
-9.376834465751557e-05
-0.00010554740692158941
-0.00011142193733535034
-0.00010506971366234696
-8.25245456435056e-05
-4.54983488387948e-05
-3.83318706891433e-06
2.463012210158424e-05
1.820160923865304e-05
-4.020271079258448e-05
-0.00015196789311872804
-0.0002929849655283483
-0.00041073408148346847
-0.0004336756184127262
-0.0002954649422645504
2.9338393966415557e-05
0.0004889926771402186
0.0009352733454739053
0.001140510042820546
0.0008636452362646075
-3.880949615753774e-05
-0.001485581891467275
-0.003080540091083308
-0.004125724349175412
-0.0037910887988624495
-0.0014484044793747087
0.0028999146313391155
0.00825367506929639
0.01252762888938386
0.012953321076457615
0.007064571448463965
-0.005862555977150398
-0.023327467868192446
-0.038727105703685816
-0.041769639647662914
-0.02058525217283926
0.03469346864302586
0.12792907944619922
0.054207168643118926
-0.00016754106121593464
