0
-1.46147400307581e-05
-1.4614740030757266e-05
-1.4614740030755667e-05
-1.4614740030753644e-05
-1.461474003075195e-05
-1.461474003075161e-05
-1.4614740030753574e-05
-1.4614740030758218e-05
-1.4614740030764804e-05
-1.4614740030771215e-05
-1.4614740030774188e-05
-1.4614740030770266e-05
-1.4614740030757378e-05
-1.461474003073667e-05
-1.4614740030713808e-05
-1.4614740030698814e-05
-1.4614740030703638e-05
-1.4614740030737408e-05
-1.4614740030800283e-05
-1.4614740030878171e-05
-1.4614740030941399e-05
-1.46147400309503e-05
-1.4614740030868952e-05
-1.4614740030685065e-05
-1.4614740030429742e-05
-1.461474003018735e-05
-1.4614740030084847e-05
-1.4614740030253945e-05
-1.4614740030768957e-05
-1.4614740031576852e-05
-1.4614740032449484e-05
-1.461474003299438e-05
-1.4614740032752776e-05
-1.461474003138723e-05
-1.4614740028918339e-05
-1.46147400259224e-05
-1.4614740023569954e-05
-1.4614740023393832e-05
-1.4614740026744037e-05
-1.4614740034016313e-05
-1.4614740043903244e-05
-1.461474005304999e-05
-1.4614740056519243e-05
-1.4614740049305897e-05
-1.4614740028764309e-05
-1.461473999728163e-05
-1.4614739964022557e-05
-1.4614739944346702e-05
-1.4614739955834808e-05
-1.4614740010913857e-05
-1.4614740107741407e-05
-1.4614740222831179e-05
-1.4614740310064767e-05
-1.4614740310283258e-05
-1.4614740172872711e-05
-1.4614739885667427e-05
-1.4614739503261962e-05
-1.4614739158855655e-05
-1.4614739044234187e-05
-1.4614739349259375e-05
-1.4614740167185098e-05
-1.4614741392625825e-05
-1.4614742658196073e-05
-1.4614743363491872e-05
-1.4614742835729768e-05
-1.4614740619295648e-05
-1.4614736826331602e-05
-1.461473241101352e-05
-1.4614729188058123e-05
-1.4614729437881607e-05
-1.4614735053074847e-05
-1.4614746380593823e-05
-1.4614761153638906e-05
-1.461477409167081e-05
-1.4614777753489957e-05
-1.4614764950282848e-05
-1.4614732434894811e-05
-1.4614684789948755e-05
-1.4614636714089548e-05
-1.461461164987309e-05
-1.4614635306078813e-05
-1.4614724303334794e-05
-1.4614872708120567e-05
-1.4615041865788703e-05
-1.4615160457932634e-05
-1.4615140690356232e-05
-1.4614911996616067e-05
-1.4614465813989517e-05
-1.4613895792223987e-05
-1.4613410968497594e-05
-1.4613299724478681e-05
-1.4613833720515455e-05
-1.4615124310827087e-05
-1.4616974619442128e-05
-1.4618797657956769e-05
-1.4619679170913015e-05
-1.4618638241830275e-05
-1.4615072014838125e-05
-1.460927223127846e-05
-1.4602800706134595e-05
-1.4598456826872486e-05
-1.4599616289028023e-05
-1.4608901998173659e-05
-1.4626454510986993e-05
-1.464842193408544e-05
-1.4666540866458068e-05
-1.4669648180323762e-05
-1.4647499325359235e-05
-1.4596350203114316e-05
-1.4524575391619378e-05
-1.4455575054123494e-05
-1.4424964221887023e-05
-1.4470110937058524e-05
-1.4612738093274937e-05
-1.4839137063403656e-05
-1.5086358011314517e-05
-1.5244651609735306e-05
-1.5184391660360432e-05
-1.480842012631863e-05
-1.4118773934474571e-05
-1.3273256972157784e-05
-1.259808338974335e-05
-1.2524863780407722e-05
-1.3439074872052829e-05
-1.5463311951711855e-05
-1.824428710509056e-05
-2.0850718655526702e-05
-2.1896798453739983e-05
-1.996132241947487e-05
-1.4267541154122972e-05
-5.440017658081447e-06
3.989804051726572e-06
9.724329017977377e-06
6.7926175548656185e-06
-8.390673089866171e-06
-3.54541215949444e-05
-6.795595833221007e-05
-9.303527566533189e-05
-9.402427046906086e-05
-5.645284440711142e-05
2.3544564864030093e-05
0.0001311685984470303
0.00022941437842876
0.0002644189259409098
0.0001822201060506372
-4.470840472413789e-05
-0.0003885484991968087
-0.0007477234949630848
-0.0009541424860277866
-0.0008174213103749022
-0.00020574008126796522
0.0008552635765747119
0.0021038643073307195
0.0030344425437404416
0.003005526823517813
0.0014777627684132775
-0.0016600019016992339
-0.005786162815577733
-0.009426417961880441
-0.010486153807783687
-0.006928591533785849
0.002169433565506541
0.015470845007080547
0.028627246061445857
0.0344796240954929
0.024597984371858228
-0.007909876952810176
-0.06505610980206586
-0.14144863328606672
-0.02408118943490887
0.10476861104189446
0.06219229702403338
0.05892851323471031
0.0957482941191327
-0.03648462095164117
-0.15323606581126564
-0.07101047446922767
-0.002853537811140597
0.04352597572442649
0.06482882244166385
0.05974995437310723
0.026877604061755732
-0.03592722590477013
-0.13072953762291062
-0.0583916454745711
-0.018364564076680426
0.19030743143640494
0.16796140739069745
0.11525399999435491
-0.16290216146882586
-0.25193549364545104
-0.3248687970991047
-0.14680865200772467
0.11160725410141623
0.45541822037701385
0.6499254936455122
0.21890197268741862
-0.13750380614550986
-0.5080550424866402
-0.5312868247469452
-0.7690752289958515
-0.10694630712440703
0.41517994455638846
0.9516406461666486
0.5994455703193077
0.5686115228427376
-0.212274602096002
-0.8577462671793827
-1.0721905903365758
-0.5066496312954458
0.05428580514953746
0.870767499978811
1.0041783676953078
0.4753547046488806
-0.15426479655208938
-0.5708007668367804
-0.8740797685628696
-0.340609880493938
0.19876478514891718
0.5589557446814506
0.3834786448729716
0.12246768692776086
-0.18278888032975577
-0.30443067285499015
-0.2247164715215547
0.06889581145730769
0.18563215095018898
0.12976493830264008
0.0982432774502091
-0.11925720620724942
-0.13680929887387358
0.03328633921246746
-0.014632101464991934
-0.077455115494369
0.055430374497200396
-0.0019136569234540577
-0.03737471516559997
0.1543602315693733
0.16945528053895179
-0.0035057405767031247
-0.17802864511085198
-0.16238355700857585
-0.15413080052407452
0.06011672474171205
0.0987369945642067
0.17520834483263317
0.08866953927171738
0.019219341638153226
-0.06985083879489053
-0.02355566348135811
-0.08334175164098313
-0.07557592424155839
-0.0036232470210071626
-0.04537687009284339
0.04357734059010117
0.1224883624904202
0.055900936017318714
-0.09571389819134613
-0.08382906441147861
-0.07806380921855502
0.12902484007785167
0.11899543097608559
0.047896985147427434
0.051600360179454643
0.05646868028783447
-0.20635978402050828
-0.18673556696283253
-0.10575919856436392
0.046043070510905816
0.10197948765575875
0.10650568557349749
0.10128700161023027
0.11469466500123407
-0.04241012943998504
-0.17445786769479435
-0.09484638032779079
-0.019020310610660646
0.04019289010809221
0.07411330535547976
0.07769618382859937
0.04890657611539181
-0.010631518726862079
-0.0937548444230558
-0.18618049013767374
-0.06742462295805367
0.08433962957593757
0.08411279418731324
0.13154101662613485
0.2061582290809562
0.0697484222480878
-0.12339562710126724
-0.21100141601309538
-0.20771456318598622
-0.09672840836940375
-0.032488733229474084
0.04522006546942123
0.1898263007226467
0.22616428199550834
0.1359999846760788
0.05673152177539233
0.09526145958058077
-0.04559507116826693
-0.23491162026563292
-0.4850373797125371
-0.13625787064596864
-0.06158027267262768
0.10735652905482379
0.13919355668256564
0.35781275512946803
0.2063720638705793
0.23147199751050831
0.4934650419287015
-0.39813806174025546
-0.43295566754311016
-0.5469016889558832
-0.38554209221649244
-0.4966191747086799
0.6453995759312774
0.7921937092378369
0.6706650780397334
0.14844996262663787
-0.37206276507569375
-0.533084645582011
-0.5882115385018135
-0.3749165907083896
0.09408686562895968
0.6186193992630163
0.5874328059687476
0.35883949588717284
0.05888358175250294
-0.3990597986676168
-0.6808840442254886
-0.3998779362595405
-0.10183224536724636
0.12478588493848747
0.41652501169636474
0.4927397185688066
0.21930159594195311
-0.009035066811455038
-0.0627069902655471
-0.2518156520995687
-0.2912897032248579
-0.2689804970632766
-0.026596140859279166
0.04198147318435836
0.1768363477721122
0.22959342661392765
0.24161557110826345
0.030812168049710015
-0.008852277589450811
-0.09614176920055656
-0.2450266248068832
-0.24851582132154318
-0.07095573488903108
-0.052739779271018354
0.073414671810251
0.36022952980345185
0.42627172733911367
0.24745731773332982
-0.43581839240366305
-0.2981117952448804
-0.20340147049131982
-0.18521986143709365
-0.03987940831482486
0.4661090895734407
0.17932895698993498
-0.058686286794699144
-0.024292769160776682
-0.11642907954753473
0.0458293056123852
0.030073755797825508
-0.0008980780244904565
-0.08069310911627736
-0.03256026788265699
-0.06554785175455549
0.025619950794178246
0.05714181023119746
0.050523103045769034
0.02669803061358214
0.0016694971732016239
-0.015403048706461003
-0.021768367323325866
-0.019135527740732943
-0.011281232491387143
-0.0020790928154904974
0.005613510342884581
0.010220173598501399
0.011175982259885165
0.008537373242265634
0.002792280957950646
-0.005025662991671118
-0.013062395241983469
-0.018531650089733013
-0.018122451678525695
-0.009125955179081791
0.008846698178306111
0.03209407834738467
0.051870780366410844
0.05517086791769618
0.027776160001710962
-0.040767243966786396
-0.1516960966957654
-0.09340210847709379
-0.041860289109675
0.03398612894665377
0.16316951820905903
0.16322068968245804
0.034128569037557094
-0.04166111686880225
-0.09320566435120609
-0.15158220250363766
-0.04081905746306899
0.02750383127611436
0.05469195246899178
0.05130156608439359
0.0316580492887572
0.008829858212938432
-0.008477186768114845
-0.016744334029537414
-0.016680456624763
-0.011374622064086423
-0.004426278552175656
0.0013767352216328375
0.004632576298291292
0.005253200380961112
0.0040080594837591165
0.001968022170459627
5.984173383404496e-05
-0.0011704931779295694
-0.0015885232430400379
-0.0013623009261793937
-0.0007989852635993906
-0.00019801961142020197
0.00023938951390640317
0.0004369286872364106
0.000421104558836261
0.00027521735513418396
9.252881057606427e-05
-5.6476722368040336e-05
-0.00013770516209053876
-0.0001507189433919102
-0.00011651248927837384
-6.309435474127896e-05
-1.4177372474629356e-05
1.6637980170420614e-05
2.6390686479095943e-05
1.9775053988104697e-05
4.865415693673597e-06
-1.0642988614930463e-05
-2.1694338187756786e-05
-2.647939329122716e-05
-2.5807317885075432e-05
-2.1891745847717633e-05
-1.7144754490792458e-05
-1.3351902511476704e-05
-1.1345604267142316e-05
-1.1095638384469474e-05
-1.203533738501827e-05
-1.3435169864804896e-05
-1.4689832732417923e-05
-1.5461155397522866e-05
-1.5685310713870357e-05
-1.549203538045686e-05
-1.5093447364221015e-05
-1.4688284885998637e-05
-1.4405610256164326e-05
-1.429073552203408e-05
-1.432186111040694e-05
-1.4440622888349995e-05
-1.4581829860995377e-05
-1.4693772438773773e-05
-1.4747107576300191e-05
-1.4735011837019863e-05
-1.4669021092377127e-05
-1.4574066145445666e-05
-1.4483867823376472e-05
-1.4435584023239215e-05
-1.4461692854002037e-05
-1.457820260891642e-05
-1.4771171045507884e-05
-1.4987047421923087e-05
-1.5134692274813207e-05
-1.5106109611657755e-05
-1.4817634665830445e-05
-1.4263811826804166e-05
-1.3564952389077901e-05
-1.2981081327769463e-05
-1.28655353121351e-05
-1.3545698632409046e-05
-1.5147120231978547e-05
-1.7414731829443623e-05
-1.9617618444773144e-05
-2.0632864261942396e-05
-1.9271203264052768e-05
-1.4824422866113566e-05
-7.693503840829327e-06
1.6519871848296752e-07
5.301258130601735e-06
3.6033434253174935e-06
-8.058306888639268e-06
-2.9719783419880483e-05
-5.651007028815602e-05
-7.820333287728538e-05
-8.115029353321741e-05
-5.3017795139754364e-05
1.0369204645655499e-05
9.823471471187517e-05
0.0001814839728984671
0.00021640858203988929
0.0001577438034767064
-1.992859568212284e-05
-0.0002981354332384249
-0.0005981406037519968
-0.0007847669819016293
-0.000700244475830181
-0.00022882189288682284
0.0006218610054991213
0.0016530463375964341
0.0024621239963179007
0.0025231601046309476
0.0013752249951662348
-0.0011116511600487437
-0.004478964753525053
-0.007562919249271403
-0.00865890772567749
-0.006052877404169349
0.0011220698046713721
0.011922825843346233
0.02291362441078032
0.028217786006542504
0.020634885242645184
-0.006204270968892589
-0.055206985310679475
-0.12377326494900745
-0.0035058628580600746
0.1177450055225508
0.05209288723308687
0.007692442092241373
-0.013626458304341674
-0.016364630288046703
-0.009315416085850717
-0.002457558990520003
-0.003838311299638556
-0.017283179304994185
-0.04148827024052811
-0.07075915114416034
0.10276233154877663
0.08616009799813032
0.08340787898507765
-0.10516831041079819
-0.08144755482886509
-0.04721225466675585
-0.002653089644143356
0.05332097431648369
0.1212898318683435
-0.0006698381774055631
-0.11794125086165316
-0.0389610052725235
0.025968954329230895
0.06597586259824989
0.07100365799144802
0.03382908659415484
-0.047051165296933845
-0.1644662985384686
-0.10136363401939608
-0.033195488370989956
0.06563018425440793
0.21305575959934941
0.21216775961229295
0.049403094144718704
-0.09998287142770317
-0.26092612231556955
-0.24699755030429457
-0.054089028229315134
0.13712764690800294
0.1507448488544718
0.20190140849640528
0.08603757539801322
-0.024162063741723253
-0.17287997485567128
-0.00861259673997536
0.03073307747222266
-0.06926820185369051
-0.09185465846464548
0.011632400367144925
-0.0851380553197897
-0.09728301347290545
0.05278430410903953
0.21592589065737397
0.2010249626823885
0.16915749985458536
0.04057908812162057
-0.0859233975781521
-0.30628717664947996
-0.28531279995391395
-0.24043798286123472
0.05910737291523382
0.277672693800095
0.28899647425079694
0.15190367453618972
0.09470625753553673
-0.08716805309866593
-0.22144208227851203
-0.14271821610262772
-0.0768789819699287
-0.032002155887761626
0.0016737298020225912
0.043807891768893395
0.11177959958126751
0.2092529088147716
0.12019036860470197
0.011208357761790454
-0.1579402510308179
-0.21940902573463936
-0.1837010170926955
-0.03311626338384599
0.0750358529162256
0.1968148662608646
0.18637079228699777
0.08284377622632735
-0.0963571120116532
-0.1550734126184569
-0.11316112138134217
-0.0003950045970030364
-0.052522282263340714
0.08987555288849214
0.18141960676838562
0.17384188900892822
0.022324692275943393
-0.10332892446744901
-0.2054584373798928
-0.2486032383756364
-0.15863192556890393
-0.03431879758087057
0.2297759273404014
0.31512729676883705
0.2547909794441034
0.02122838076283929
-0.06905929900274879
-0.1353510343334199
-0.1031567720321811
-0.0736907081544747
-0.10014820536949354
-0.17618142817434726
-0.03890226976478921
0.01449995026004841
0.10065749298978544
0.3212555398410637
0.33959689043940705
-0.03078470952164178
-0.22275891609491322
-0.3002579358528386
-0.1379811328970755
-0.0037485934530947524
0.2520717335576241
0.2002260574681293
0.03248632589194639
-0.23921921390936884
-0.18409266242798336
-0.15630573880330714
0.09638898943287191
0.21966407814884853
0.23905483869301486
0.15136642091661354
-0.07478986961850143
-0.2890753026767372
-0.14411385197551593
-0.0809311695355309
0.07983802136194185
0.13938411022266797
0.11668435214040762
0.04248356733457924
-0.04596071223143518
-0.30880588680856685
-0.10764150173863492
0.18872884519561564
0.19692575596341583
0.11284345220599137
0.11056456042583412
-0.051449729190774576
-0.21811425673775525
-0.2238477639429278
-0.08275930993486823
0.012864213451520291
0.08508156717557198
0.1570891082902461
0.24003975105164174
0.1257202127871647
-0.011425829636011109
-0.2034046134779898
-0.2734628958784194
-0.2234255922812601
-0.02962914639361061
0.1503433628592202
0.36305968039832387
0.24354281287863724
0.005671625229333092
-0.15751958176528233
-0.26520850018336184
-0.33768092466102717
0.010582756868661806
0.17006007934396541
0.32920446446022694
0.2672224505227508
0.1532262277902343
-0.24505913010920302
-0.34567424572279287
-0.337532807486764
-0.17514360611027105
0.011705047290677558
0.2947306152048622
0.5186700489277795
0.2794213588445586
0.1192297317490707
-0.057013814355263745
-0.34893750474817103
-0.6231542637470587
-0.2856786151302875
-0.07591592028138275
0.11421870057896957
0.40247316220280993
0.6738657682183512
0.35013069460600715
-0.016893686192534313
-0.32534685072795727
-0.48525151107308306
-0.5780290074893205
-0.22990456278281615
0.19111738015856342
0.5556988879214396
0.541848073134357
0.20685169490959485
-0.22597769878684046
-0.3631256289661764
-0.4258377571792719
-0.23516274603181078
0.19426328710245042
0.44996351056073286
0.3123871076064996
0.14940802814829393
-0.07927128444341103
-0.40817995399482987
-0.449509647427133
-0.18358461541605156
0.036633622470329
0.2669218053837871
0.5466183926835781
0.47887966746084076
0.027052879365393745
-0.2690513241385764
-0.46280523658432887
-0.569778208889315
-0.3512144196893972
0.07837939327462298
0.42020291610731614
0.5480627669195456
0.4708604518064133
0.3172232786474244
-0.049280161948897165
-0.387722440997829
-0.6245560744688438
-0.6058478750304475
-0.47583066973055765
0.10839180051697309
0.5297725649815607
0.9489270169676735
0.8507319747907288
0.22151804754931534
-0.6342731090151247
-1.0467897530192116
-0.9257226805481518
-0.32307494422249733
0.7714192142990332
1.605772286815253
-0.16913435830454362
-0.1233124916684846
-0.2493924429497013
-0.5466264199506744
-0.8010637466510387
0.8244744600122
0.1846630207049997
-0.06636038949622447
-0.09639322988730935
0.08860319061449254
0.43865160900806177
0.2666721717746028
-0.1319034189140603
-0.4508291390571309
-0.544998959717727
-0.41410021837705885
0.19370091845994966
0.5581416480380383
0.5530099488548411
0.21694723267607643
-0.05866239309918979
-0.3209518064307555
-0.43203415513807314
-0.2425569461950505
0.026237285086132184
0.18615293573540223
0.2728812119249459
0.13067771272711134
-0.0015685690356212773
-0.09814903934693874
-0.14775891508391087
-0.15081776449414075
0.08372821289766574
0.14030448023510303
0.197892153019516
0.03247724541119982
-0.1779974796850771
-0.2473420642518743
-0.17681366730070872
0.04393782584280605
0.2301530302804377
0.3928164776936088
0.13272849528431757
-0.15775522760477995
-0.28529381666473524
-0.24344317599387236
-0.20520412120285253
0.07428255706393484
0.24441362213492818
0.14007102254195844
0.16482065704815968
0.28388775042061537
0.030949193796508737
-0.272290737105455
-0.289857395055715
-0.2480159398282211
-0.32375333673021084
0.14971476753107002
0.4620085303623001
0.2971051338225019
0.10806004221977461
-0.0965367898317721
-0.3517887877259102
-0.12484077756444747
0.1015008856828345
0.24505039929430458
0.23884497901032523
-0.1555667564233555
-0.3368324766129347
-0.25797717550695093
-0.2309633306311524
0.055680211394265065
0.5088743126200959
0.4010811200191088
0.14942626675579065
-0.08789240261186396
-0.19656309082873502
-0.2786029100350785
-0.2226899432017877
-0.08240447001722848
0.13171758573677542
0.04601209613584434
0.1077707554011908
0.16619388559475584
0.05646037435429532
-0.008994017337639932
-0.04084354921480953
-0.06652687014156086
-0.12062991987622167
-0.03580447802714325
-0.037064570005854953
0.059506909282037126
0.04457760787377576
0.11226319442213578
0.05842877621392667
0.08254382614966642
-0.006647796008396651
-0.18349780196980456
-0.19956153928176049
-0.18380351282003504
-0.05193716429311869
0.07541643177550526
0.45033992444328863
0.2788275861172617
0.11364110728058949
-0.13676850168341978
-0.18508377932909062
-0.3353343490213117
-0.2567499090682935
0.03017541155777234
0.15184450254287393
0.16642247861791531
0.14229297751074346
0.1380896920803607
-0.009782892317470608
-0.08998696865213379
-0.1110396764452286
-0.09206655964647967
-0.05397939284290572
-0.014181763374305678
0.014404960287763233
0.221463805738458
0.19741125736107293
-0.06572647651422521
-0.16982456302690138
-0.10456757045927165
-0.24386887319412445
-0.1486950482672531
0.22253191699679703
0.29883235778504913
0.28315166525486696
0.14735558664545723
-0.16045246025833465
-0.2981429758723115
-0.30842166684609074
-0.20346992059037605
0.03791057188424222
0.2595846971544148
0.3088572382155903
0.21737957845063913
-0.0097838592346661
-0.19324426119318688
-0.16849556708063812
-0.17122921672595331
-0.025406473855444367
0.06169972332762067
0.09707628180102343
0.09490714259075084
0.06894964740328571
0.027772979771497328
-0.025637259892329706
-0.09061297022893121
-0.16423024304640596
-0.03827750907289253
0.10029643018405693
0.06547278005344563
0.06676489834067514
0.10511277982700538
-0.027880100448207594
-0.14706156968047704
-0.06869763864660221
-0.005719105819509485
0.034788844131974875
0.05137981088539135
0.046314025639792665
0.023476454869066313
-0.012694165713201951
-0.05707166253959965
-0.10322745313457031
0.05658539906388199
0.030194997478671826
0.02330462971294044
0.037385121488803894
0.0688296467224237
-0.090053583561787
-0.048539602085249635
-0.014556439177331968
0.007424832169782373
0.01695660862443306
0.01673981173440749
0.010984809553027943
0.003783969082701521
-0.0019760808870860165
-0.004990711409889707
-0.005321132047275605
-0.0038537720866826213
-0.0017124560789009138
0.00018199722280347726
0.0013248165490807487
0.0016317014362325034
0.0013106587183864481
0.0006901818532124849
7.329401413327319e-05
-0.00034689452418873467
-0.0005069019474810314
-0.00044599363574751284
-0.0002584310488581623
-4.710148664048996e-05
0.00010850803797726251
0.0001668504476288994
0.00012498217068245904
1.1340973623795921e-05
-0.0001246383919756948
-0.0002242987834004051
-0.00023355780442939773
-0.00011958076791826484
0.00011122113221505082
0.000399466951184877
0.0006324586675738444
0.0006665405936798103
0.00037625848866009544
-0.0002766826326715715
-0.001176169912288736
-0.002020032205085984
-0.0023605442738922912
-0.0017395445939927183
9.299261552687736e-05
0.002935894057376599
0.005974747307940704
0.007827942409108009
0.006899203434968216
0.0020411226930226196
-0.006616594402951998
-0.016987061101216505
-0.024917038163154548
-0.025038131493214797
-0.012726172621632446
0.013133197936971047
0.047428734372683266
0.07745566515008108
0.08423871518414318
0.04728801676729221
-0.04777505002503557
-0.20099695941389312
-0.1929382774333044
-0.18631872536117144
0.06376396894977635
0.19299127392336696
0.4103227847586982
0.28794678357178255
0.16533383195357354
-0.2312042627901651
-0.5592504735966822
-0.4329206634554658
-0.2100691387182312
-0.001695176615094796
0.29808174085894895
0.7724440181200551
0.4488053256016099
0.08670598800196566
-0.20721229977665515
-0.5427121314490427
-0.603060064877171
-0.41371344087549405
0.06452116732972721
0.5157961887282297
0.6325965529437159
0.27874598111704774
0.06751887234005088
-0.23790601622536062
-0.5051165907436042
-0.40545138043428947
0.008081537250972907
0.31014252118595714
0.299750587123346
0.1907295202850224
0.003658186283980734
-0.23646135451571731
-0.29799883720986375
-0.1408047904418078
0.08061601739614986
0.20760361370380626
0.26470749570395874
0.04965009235001758
-0.06923441281496273
-0.14668771415386136
-0.04774611651441377
-0.032910017155962035
0.054647775066166235
-0.002565398835578837
0.006785440235323853
-0.07913805832151581
-0.0022934767254590097
-0.29635596290587646
0.09797129452849834
0.21639646223277056
0.25770629512715854
0.17928791989489307
0.3058089687654339
-0.24885032246463434
-0.5521072336464942
-0.4261487707349169
-0.23581203541139803
0.10235534526428397
0.4919625394355173
0.6204822116915304
0.3297717464595865
-0.19468821232158115
-0.41283199930098863
-0.40436156721799066
-0.2411971476970257
0.030443316973020135
0.3934970043943681
0.25201203016267787
0.019242024531647778
-0.09085290372569879
-0.06549473553338488
-0.0896484311397692
0.059113732157405084
0.01390451536370945
-0.1823074056899367
-0.0826940604507948
-0.24770312103756537
0.1403382215321807
0.46343935301914907
0.6618543454233726
0.042644542905050126
-0.2947043212794657
-0.6216331758063428
-0.5466488665269125
-0.39996256269013125
0.15375139623374368
0.6764036777542477
0.5047632571580409
0.3051422038235112
0.05090828568841284
-0.17030072663522894
-0.32404211701189584
-0.18363182591953545
-0.28670876840394494
-0.10603173893788176
-0.0408966069863526
0.17117563041999545
0.22857089872432054
0.23495590693855087
0.07339986111841501
-0.008257077010888765
-0.19904217412976663
-0.11619382767734557
0.008721803284752775
0.1441109299718429
0.07015535846837928
-0.013103720597087755
-0.28239892249217596
-0.2944209250475125
-0.19750049988530247
0.2485489349843417
0.4493558331704993
0.5590853137430626
0.2799766801484271
-0.11621982951691666
-0.5487524111751405
-0.6837014697583268
-0.5031667643563765
-0.10248818838725994
0.280387518378742
0.612602710161135
0.8105048336366829
0.5019196791603445
-0.1784662374845641
-0.5591362140949534
-0.5800729736838065
-0.540843586594047
-0.2688207393462338
0.2817030641533866
0.6020491458355633
0.3869165133947821
0.09520322807660217
-0.07195997753156122
0.029585153985521057
-0.09249912636917115
-0.13532229646800514
-0.16797213546210588
-0.2070715665907192
-0.20764227902230653
-0.07235100422053149
0.1227079242321997
0.29260557172478635
0.509157149731786
0.17867426094606972
-0.16050105830931272
-0.21996362520217716
-0.1292395082958517
-0.200525224546824
-0.1006226987542228
-0.03695481694229852
0.04020131156251015
0.021456905537477616
0.01327523941372946
0.11089476743841042
0.37606986508243306
0.2253943323602671
-0.16766567172150745
-0.25827115759114244
-0.3092884961601349
-0.17257712005866238
-0.0795941074058827
0.35660392073700026
0.33176114196060774
0.24066717805136897
-0.12592462529631265
-0.17548201535757202
-0.3026620434418958
-0.2804619618517715
-0.060470507775503085
0.21516748817950607
0.19339354250646762
0.28949895629207156
0.2752510033348997
0.08233480610323475
-0.17811953052771876
-0.38564793931381836
-0.38073454115208044
-0.1466779274368628
-0.010593875992447406
0.13604186936119714
0.4042755643782437
0.27354354350401405
0.16828417676645374
0.0529405254550919
-0.1537536785964801
-0.35110646613650986
-0.22568355352935535
-0.22813099552749602
0.035182876253005334
0.19453493822617077
0.29815296924601137
0.19106766393100183
0.09996004132818587
-0.17123889507039053
-0.23553087242030826
-0.11162123178014718
-0.013394328357875076
0.055631488774626266
0.10201366526586425
0.13826666436116372
-0.022085697560345063
-0.16818233141160321
-0.09391091566281382
0.0006556479072876554
0.10783975066849118
0.21186790388092297
0.29150566193711447
-0.07251450343348273
-0.4864070944373013
-0.33345587310946
-0.17203537420517057
0.05424337031364615
0.5963237941487187
0.6780427187664984
-0.11593952267047417
-0.23555996073381347
-0.34567670407667617
-0.5008368996169456
-0.1264917173425176
0.38546012377414
0.26672615863617183
0.15506179915632975
0.07815167814199894
-0.15482819376639997
-0.15292472114230132
-0.13754896318647059
0.06448900153360679
0.02600976104685897
0.1221558548780743
0.13236583924986925
0.04358122619725428
-0.14472475437994362
-0.21532170603607848
-0.13113331467541747
-0.03948671497395109
0.11644721688690328
0.18166152891257784
0.1741565695122377
0.07652480332968103
0.03818220884213809
-0.011458639622569046
-0.1423429280102517
-0.20180388356870993
-0.19828306700137258
-0.09648182916844623
-0.02640583743584156
0.09570173733692262
0.3407977442016154
0.34363880643059
0.09093912974157872
-0.07425628257843356
-0.23334708554413947
-0.26522938833517756
-0.2215912513743306
-0.11317235196665043
0.08885407221205956
0.2380905999802453
0.19129345232518968
0.18852493997876976
0.04224993719589616
-0.06151720223101235
-0.15177659232700744
-0.2563491627140867
-0.18781535605075145
0.06301533138466843
0.5244035142514719
-0.3659078973000418
0.027273525439276858
0.12594419573230164
0.13171548454933982
-0.37702877515971583
0.3567023825940958
0.07483925281631834
-0.08559842529802678
-0.17990530128174936
-0.043124921080483755
0.1192898332752141
-0.06497297262809815
-0.13832838171259326
-0.022996417027086324
-0.03590103486334999
0.09363500015667434
0.20727119959601792
0.30693282302046215
-0.045845903897356495
-0.11915001745807395
-0.1912375636443224
-0.1286320651580087
-0.16887058811197023
0.0869798539898152
0.07063188095244893
0.0339757590359987
0.03209189761119109
0.10681940103817282
0.0748780367356908
-0.07702466923901401
0.010575165176487015
0.07937913498040698
0.06743485643355161
-0.07488120414143667
-0.1703771824875774
-0.20602415534785173
-0.1331417530912355
-0.07858497734090919
0.23490634221523346
0.46510223726304906
0.23181600463030114
-0.08899600252670845
-0.15588201105432878
-0.24096971804564465
-0.2056961582547947
-0.0819637763229129
0.13563890262453906
0.08568495630970391
0.027034331503059783
0.022322009449009222
0.12253142843555587
-0.04417616511997441
-0.0779300752676767
-0.0068955937714711025
0.11787741629743861
0.031537896482216596
0.06761501763240016
-0.027898971931701225
-0.08285544389449925
-0.2891794815871765
-0.2009638881884811
0.05695303094219976
0.1705719148823809
0.2132454273389386
0.2247233267320419
0.2001503286848653
-0.10689640267086933
-0.16837948529012972
-0.2587166892486916
-0.23318002347347316
-0.11547984889873582
0.10173900309358175
0.24521997407912563
0.34462424455362195
0.21943069605003357
-0.12472974800434923
-0.28941730828313567
-0.27120056659309394
-0.25181474084186517
0.0027811561431739917
0.3328565830464219
0.3691890610209171
0.11910942872391944
-0.03848862812485243
-0.14663517852802818
-0.25549655347126604
-0.20621997409691684
-0.020309938489417034
0.10178605250959137
0.17379832471986514
0.21307001456957667
0.03203540512019054
0.035729512817532706
-0.17420324181616761
-0.1920541495489723
-0.2020930713954964
0.021564542013104912
0.1078652422634792
0.27698668813906335
0.12909802448122423
0.03924890653650802
-0.03865859061672665
-0.1598470154920219
-0.17300106273572768
-0.10668015483513818
0.03761937307704162
0.08406390406932204
0.07426923477169992
0.05588496474456767
0.07185955970150211
-0.04693787419854628
-0.08487902445126233
-0.04122771264521283
0.07230526111854482
0.03497700226730285
0.021017736083360963
0.004234299001004284
-0.03710562524907762
-0.11610972535177377
-0.03522609800402346
0.01257808556724338
0.03942821504865708
0.05633059595760063
0.06747076026020071
0.06738475176036979
0.04247931267071895
-0.023125101311985558
-0.13915511402150035
-0.10123234575291781
-0.08686966380802986
-0.05786661623945246
0.030652550872918682
0.2169407931369811
0.11947897293505472
0.12888201409105582
0.008268881763557693
-0.09757076757030086
-0.2472649896040804
-0.08744649427977302
-0.04205459724414906
0.09068264743132784
0.13392557123685575
0.12352262552800124
-0.10138119811338092
-0.10592303185409598
-0.06470899735258272
0.034834274333607244
0.19076173525589443
0.18755187795567013
0.0010947629787164664
-0.19222367999719708
-0.20494158178462943
-0.23115453319171184
-0.04679090278470377
0.18111337766686517
0.27924411121798665
0.2535118153571673
0.08222280938385379
-0.07920171427401011
-0.2832851264429907
-0.17135575825123806
-0.15812895326207507
-0.02626987122594271
0.06700497175757145
0.1739552346927076
0.13702143047989077
0.17324134376787564
0.0679005713065499
-0.02039061470120907
-0.14499436520107334
-0.1520835649780175
-0.26381239091750747
-0.06985751670863237
0.0696448602750524
0.211036388778534
0.20909429467331614
0.1008344283193025
-0.10333151283691813
-0.01907200076807372
-0.07997234072899731
-0.12570558469806428
0.009274265078343348
0.10359968104298051
-0.04769336337063812
-0.03407755473002651
-0.03376779619315341
-0.02032874026371105
0.02945834848177526
0.12811817037058879
0.07253681323959887
0.04352964679880821
0.010755186449495918
-0.058062044378002234
-0.18649654092672177
-0.18129260085636315
-0.030202303580757074
0.0928845181629039
0.21737592991590166
0.16454659088304194
0.14045208341066975
-0.06358966849409972
-0.26349420508756766
-0.27210215371326885
-0.09185569402615018
0.08538677891996505
0.2713923864447271
0.2717448671066613
0.0793135742346745
-0.1246553650464931
-0.1618355451399162
-0.24486452533361688
-0.1683995628027485
0.09199111335243776
0.17214813632338097
0.10614148650739177
0.11336713352119364
0.19139126636733358
-0.08258727974220767
-0.14238359806474984
-0.21957881565405318
-0.13207495729829707
-0.07938934461520403
0.1534420704740772
0.1854848513822431
0.2282170880251472
0.07827372524771722
-0.0818722828216948
-0.27577888514574783
-0.12162510516974162
-0.023097655570487152
0.0333809099942355
0.07436652349576223
0.1304431582475636
0.02645392145555754
-0.02565693668533054
-0.029575883540719404
-0.0029058003975831973
