0
0.00017750176435665506
0.00017750173952439527
0.00017750171994429707
0.00017750171831431186
0.0001775017458565284
0.00017750180593008376
0.0001775018878118179
0.000177501963807043
0.00017750199304719641
0.00017750193398409776
0.00017750176447118833
0.00017750150393906677
0.00017750122795240204
0.00017750106355222335
0.00017750115652622988
0.00017750161044306865
0.00017750241110654622
0.0001775033651974113
0.0001775040915760774
0.00017750410009850545
0.000177502969898675
0.00017750059701024062
0.00017749742954146068
0.0001774945672803837
0.0001774935979541372
0.0001774960979826432
0.00017750284902671637
0.00017751299146835965
0.00017752349539729438
0.00017752939410179135
0.00017752510757633916
0.00017750683647668747
0.0001774754680578443
0.00017743885916589352
0.00017741200960583368
0.00017741381595541962
0.00017746002079036633
0.00017755362377177314
0.00017767600697513026
0.0001777835626306157
0.00017781467895660032
0.0001777096534969464
0.00017744122382562099
0.00017704683217264157
0.00017664772978952145
0.00017643786744699836
0.00017663050996758907
0.00017736434585661725
0.00017859185263906463
0.00017999463418741745
0.00018098310874837398
0.00018082966117487256
0.00017894710624680418
0.00017525957427538957
0.00017053668447899583
0.00016650501041405266
0.00016555263866302447
0.00016993623846162141
0.00018059265498003915
0.00019591114838692775
0.00021104849965120835
0.0002184396083550621
0.00020994585106233729
0.00018053305612299333
0.0001325543564164188
7.887833757344896e-05
4.2650638655871684e-05
5.185242934700073e-05
0.00012831736472288443
0.00027340314623738307
0.00045543716339597367
0.000606152863324959
0.0006330914525985874
0.0004511238584244759
2.865651775606017e-05
-0.0005657262796400107
-0.0011389139411314485
-0.001396148896723277
-0.0010272591679088379
0.0001495031220080261
0.002023507599877243
0.004076866530739044
0.005403830331533302
0.004932966289401355
0.0018604493720035388
-0.0037965427295389973
-0.010729785944636241
-0.01623488328205422
-0.016738624066313698
-0.009074841954450527
0.007667756922570956
0.03027115799904361
0.0503374815701109
0.054965911109153893
0.029694512916563255
-0.03658268729217775
-0.14610239481736184
-0.08835896811010473
-0.04009363840625554
0.029863967636241228
0.1519840112836738
0.1466233958506193
0.01740610325198772
-0.05010488895105852
-0.08424449609711067
-0.11961953053317272
0.010991911242066105
0.0828638256725565
0.0828794899215057
0.010955735458006011
-0.11991027320010082
-0.08498664203173538
-0.051328309315662506
0.01597018876812966
0.1455714442592471
0.15210811362103932
0.03184532237012437
-0.036105867143571675
-0.08313845495086274
-0.14149695693472294
-0.035216214480868306
0.025279271141557258
0.04362235092556505
0.033702444001814456
0.0135773633780283
-0.0007658462606427705
-0.00022164941771319347
0.014911410583322756
0.03502363846863923
0.04389348533905068
0.023638741966173406
-0.0389873128322833
-0.1465951624029669
-0.08763755482496727
-0.03732013590556826
0.03645099132471409
0.16358432902375372
0.162124525785617
0.03222210222113946
-0.04373177316411238
-0.09490855352757631
-0.15246645626376168
-0.04049037852715807
0.029315429016929746
0.05795174641058704
0.055442512817317526
0.03544633733823057
0.010490985105374587
-0.010755717102979621
-0.023956926152682356
-0.028020384795246187
-0.02355250918226586
-0.011821291681421887
0.005301775658915633
0.02458573514925362
0.04056754767158185
0.04548674690486337
0.03074464384913523
-0.010041396000070653
-0.07724379733091453
-0.16238937390229793
-0.048219743894602346
0.08723214961336918
0.06322198533251858
0.08811511542271457
0.1539293901905115
0.036402019626976125
-0.0986018389554494
-0.08404580334091018
-0.1398071814940446
-0.0642896445164735
-0.03284529652509702
-0.003926572133195748
0.06876216165946729
0.2219127446186583
0.07073992464256704
0.0035857474347737012
-0.015160202819850295
-0.03481985242064115
-0.10416922523268062
-0.05748894486165445
-0.10493490572812265
-0.029905189995197846
0.005908680670600617
0.051285785005966
0.15138934860916517
0.1350807832747923
0.007464054331124966
-0.0502999446743617
-0.07442112927420746
-0.10785448082429357
0.010812146410112864
0.05602924176963234
0.020066664965391993
-0.08621206866463432
-0.03609836068373664
0.0072677423500079824
0.08306432950847946
0.024184361325353926
0.04965458960908046
-0.040370869862405255
-0.0663409090945279
-0.06795217091903778
0.09978210235023312
0.17295029673508464
0.08815803270831825
-0.004785164333196783
-0.12824815307437673
-0.2638909751119209
-0.146645267127155
-0.0699932168486795
0.09609071807552927
0.07742969247640179
0.16467210115767542
0.18711878871085136
0.09854729470773597
-0.020575355486776838
0.056057792457533374
0.13342138381189636
-0.164576168035714
-0.35559872707724277
-0.2692277917162074
-0.03515479826116098
-0.09344943435936472
-0.025316332043429444
0.40304560254760186
0.39472363920005754
0.2864733164049281
-0.06797911038928821
-0.29346309982702484
-0.27294454147850883
-0.3211778858166048
-0.16228305548382013
0.4836082513907033
0.9060211872058901
-0.5921244022456685
-0.28794349346427944
-0.2299937299335745
-0.23341386404838593
-0.2841038865578082
1.0483228679275944
0.5956893096217964
-0.015767695074573505
-0.5588850959654833
-0.5893386938741927
-0.43202253761561016
-0.18332608545135942
0.2650559576834539
0.586803907638927
0.5816120429592105
0.3539603277488962
0.12285474896522662
-0.33578620883341986
-0.4247447811265226
-0.2583951920929935
-0.4141939063868826
-0.7195464118655568
-0.08168091368890783
0.24348503405404473
0.5596778753370889
0.8415614574850927
1.0776115701703142
0.4666462508333071
-0.12546866809328408
-1.4631146358467013
-1.2249935137838381
-0.7155502672127498
-0.2359408262072147
0.27527296250884586
1.347551816595992
1.0648993594679044
0.3735015415802098
0.04019911819534217
-0.32914242924637993
-0.62389757380174
-0.7421163792556974
-0.3124509460068336
-0.04659143267563431
0.2691091533386627
0.34802477922670466
0.3582393560719059
0.07508002693559117
0.04430217560175024
-0.2380681772286586
-0.1300340747188223
-0.0368267646839703
0.20183108723138563
0.1271570214511161
0.07813155790967417
-0.1914865823445662
-0.29889027502683485
-0.22540596133307667
-0.12143174593576762
0.27600303291394357
0.21739415694415598
0.31521930370500273
0.1281242235673746
-0.03890874838166218
-0.31783854974105136
-0.04921139334753457
0.050005503561656624
0.11500706337738285
-0.046930855983441176
-0.14834756792713386
-0.42785392037029707
-0.2728431206156718
-0.058423481542064344
0.4027714149914163
0.6116655316809346
0.7506938739482286
0.28294692197607973
-0.2119925147963333
-0.7735058441220691
-0.7871252444815928
-0.5290712627275037
-0.14848775171593773
0.3061054666428628
0.6260310328262289
0.5694557750960684
0.40187539437488345
0.2701084602621285
0.017768567687234373
-0.36367684266763656
-0.6655629426762621
-0.5976038954806518
-0.35018085640682106
-0.19641736513562472
0.2663625231627887
0.8499930417030824
0.7072317028145824
0.8868321724759262
-0.47141862626881875
-0.500649932305865
-0.7454783755043579
-0.500835129305716
-0.7754153570196507
0.7072399970730028
0.6730562718229003
0.44401392347621976
0.28954040731667424
0.0005120073120970319
-0.30786527277636694
-0.3698554616387323
-0.13232999662185488
-0.12063922163630773
-0.016312151238000235
0.15067785098424982
0.19782914187237982
0.17989531906313744
-0.02183766604157144
-0.10771558245831286
-0.16587356829635244
-0.27964137373715614
-0.13972040750885717
0.13784470105679786
0.39119303882864015
0.39698555739181324
0.26797240435535447
-0.13121494165333808
-0.3521412117628442
-0.5240754300092845
-0.32235843145284265
0.04502440666067067
0.22861870598110495
0.31135176033093853
0.3762971444961021
0.0805804945313308
-0.1564915153391532
-0.1497842133218328
-0.13395833322616071
-0.1460197912372696
-0.01163815850495222
0.06107147264242919
0.08022414876374213
0.06387382948522288
0.03231636788925341
0.001950352192862334
-0.017811587820307385
-0.024589836785552953
-0.021034606757975444
-0.012077670544044608
-0.0025265235947077706
0.004398365469432904
0.007485680814394654
0.007171161740582798
0.0047947727300419315
0.0018495617992814717
-0.0005403501683934101
-0.0018343062649400959
-0.0020287766205838993
-0.0014611335668236517
-0.0005804406987996529
0.0002308514191645776
0.0007477641272236229
0.0009111952665490261
0.0007834543253802767
0.0004863042713595823
0.00014858013942414694
-0.00012434463523877705
-0.00026098192980835756
-0.00022406970924079522
-1.1613693445301695e-05
0.0003362601395964102
0.0007283886262158643
0.0010230299632207872
0.0010514350227607923
0.0006723705760132356
-0.00014872293015250962
-0.0012610535508576918
-0.0022914979430784486
-0.002694344813653547
-0.001915632090068412
0.00034136041321896867
0.0038215558770022862
0.00752342815535851
0.009759149521099499
0.008588724881238642
0.002631818190467461
-0.007923729688975867
-0.020501122884855737
-0.030019587428810633
-0.0299620176215211
-0.014807824054997096
0.016532334699632095
0.05731282841471036
0.09114433619533502
0.09339620649292889
0.03671435688900589
-0.09994653930728434
-0.12126555440327769
-0.2083775331864024
-0.11847996568603754
0.006752061823291717
0.22527019825671155
0.17611957159037317
0.2650746669188135
0.06042928983594664
-0.09863539348764215
-0.2835745152248853
-0.15444105103818512
-0.1421889259381851
-0.04124707032773323
0.18595523293591779
0.19532635689560593
0.04396223396319366
-0.024672218498945707
0.010459828933255012
-0.05402468161468871
-0.04246082939205575
0.006658007438244997
0.04889294491403346
0.04222358796886456
-0.04522399109548403
-0.028887255526924158
-0.10407769703839845
-0.046205970318971966
-0.015691219955090444
0.03294725678165364
0.1398646655295884
0.12969143418747994
0.0055343421441762875
-0.05097480785573501
-0.07392381542039424
-0.10396202576494554
0.021206837462855323
0.07428915502949933
0.04283928890102184
-0.06917335290861414
-0.04225252607488212
-0.04465944172411283
-0.03820157887292732
0.013893637190378833
0.13848129044704433
0.14577698650435497
0.026942196256445415
-0.04262668282654294
-0.09507550844504961
-0.15986075643133482
-0.05537450647897393
0.014521664682088596
0.05815778015635709
0.08944178325989836
0.12006317033402374
-0.04630281642419994
-0.015836842492769843
-0.002319853694427712
-0.022125237075143286
-0.088450277906429
-0.006644856474478224
0.02813596585047341
0.03063584390824614
0.023111206572905545
0.03183990810572422
-0.11666461257645071
0.0005788714177446578
-0.0007227492149800099
0.0843883679528337
0.0477484508193691
0.06796670749636809
-0.08667863554113821
-0.052697630568504565
-0.06464512791404227
0.05101136518607624
0.08016787001829569
0.023221805011588943
-0.10469221390520764
-0.07538468338937115
-0.051702075396296565
0.0056638712223811396
0.12945406330994685
0.13742974027892146
0.02717363808841375
-0.02371487405072842
-0.05176244791299389
-0.09792582849611639
0.002924825978295903
0.03043501535413888
-0.01678455045216788
-0.12141859232645484
-0.05231326914411575
0.02686066564597191
0.14697089388572518
0.12382676393325837
0.15312956862299112
0.01244109066472699
-0.12990315442508618
-0.3020713520504324
-0.11737754489907896
0.03085673325754485
0.16619969471228704
0.11959817112331127
0.11791280509546864
-0.024999899077035793
-0.11229109375028994
-0.16358618798752866
-0.012009347653154387
0.09930681516840778
0.1209715039357108
0.20284802531590285
0.10315301752550433
-0.19874805959966413
-0.28879522262929447
-0.1095227587468922
-0.1620715745268415
-0.12206975552497805
0.13222865729579145
0.28607242987838755
0.35856170742946575
0.2877489225667823
0.13789765896794628
-0.07012104275384574
-0.3121092774929308
-0.5107580790085882
-0.49865693479082
-0.20722307264651788
0.11320021870183945
0.44753800510608305
0.5594993161401134
0.5438466650683682
0.20397063263403686
-0.13804247400227293
-0.6040412516963903
-0.7108388078743179
-0.3294896064182041
-0.06836750137226204
0.3154200140374284
0.6844766142467941
0.6862579684189715
0.13245426185859985
-0.19742968142080583
-0.5308004318599789
-0.6688477603792827
-0.5640532869988275
-0.12253766515068702
0.5659853522292121
0.7815543280766054
0.7311170850000466
0.3304613570765563
-0.17777597958797892
-0.7743368921521799
-0.8005004616308425
-0.5072956373953744
-0.03735016841604818
0.35337176820897537
0.4424959849456051
0.5767154958294388
0.418518222628284
-0.07877659216180244
-0.2615389163774987
-0.1373481035425719
-0.1208774982649415
-0.17977907023641757
-0.19388090755184853
-0.33650385035071534
-0.08148573729926943
0.16623509299673922
0.8245137892135534
-0.5153164728081073
0.2717208990567647
0.42282894763590295
0.0879046296611932
-0.8496898244729642
0.46211231574945083
0.08521842329329966
0.5297560747972101
-1.4177128994356867
-0.4833808537679564
0.28053469904805534
0.45699808697287847
-0.3916193586355367
1.4210024420281546
0.4693246282039197
-0.18643072724701024
-0.5668056447108584
-0.5147728328158324
-0.43279438946381693
-0.03560339422799071
0.26928457124176536
0.1725990246838582
0.03373432757122833
0.04160524406321867
-0.024375297791031696
-0.026612351796233134
0.30909238370668657
0.18520836654462008
-0.061561083331368054
-0.14148146755627472
-0.18498394804182497
-0.3151852315812031
-0.02690825469261706
0.22371679812022616
0.21961832263462025
0.17739544887740621
-0.0588092666611748
-0.22167607221233349
-0.22462454185081213
-0.16894435919460893
0.04298172407675626
0.2890357930803558
0.2081912521164959
0.18800580910052897
0.16485279497035119
-0.16125172139266822
-0.3008213637140696
-0.14604018455250167
-0.14826129182779987
-0.1091271018305548
0.012020801090543648
0.07690564496342729
0.13983722365906773
0.2208707605813404
0.2895638196657149
0.2660286714586072
0.04150400454759048
-0.2854292885883018
-0.5671175780336297
-0.3736432686525097
-0.1813248398874588
0.01032205278307389
0.23606107251477756
0.5087941119443751
0.5667112913188564
0.03973665499495558
-0.1553030893823894
-0.19113211595712085
-0.08725271420403637
-0.4614962679096161
-0.0887717206933137
0.12438314329075961
0.14674394678369468
0.013609114248976465
0.008160543851117317
0.03903581843947954
0.018650612207126528
0.04517263111523571
-0.010114632172861475
0.09079266498185758
-0.047536540339586736
-0.04873854978962099
0.044355763430275925
-0.019526744430777572
-0.08965622947055575
-0.004912464629583841
0.011280410038320634
-0.04785939886043592
0.025140996821165325
0.04711039583201241
0.03834828584941049
0.017350758169713154
-0.002636137643942721
-0.014765007333659687
-0.017758591139762386
-0.013930841056020835
-0.006980595386149191
-0.0002538240477580286
0.004200449315921546
0.005802135596457443
0.00508235177817601
0.003107860834588788
0.0009495331275678896
-0.0006548247837268922
-0.0014094290491670175
-0.0013912351401482238
-0.0008896293187127743
-0.0002386025711635209
0.00030349095548884767
0.000606626143395592
0.0006626981722066426
0.0005437434982207118
0.0003507298281913773
0.00017212839260698006
6.125475190392651e-05
3.218536963300783e-05
6.847295929620297e-05
0.00013734334637108855
0.00020350485894334106
0.00023943923198161142
0.00023151082161062083
0.0001825096227937735
0.0001112194483261471
4.883794705109654e-05
3.1479342026542154e-05
8.840002906896904e-05
0.0002273613951176429
0.0004212912595615144
0.0006029403292390793
0.0006748540529748402
0.0005390956180234735
0.00014411532854673542
-0.00046390532292756514
-0.001107679729600594
-0.0014902420553316157
-0.001271641092264247
-0.00021113552041875878
0.0016570533829991052
0.003881539916201023
0.005574752061731958
0.005598123436966671
0.002978952678586315
-0.002511969938131097
-0.009813688808750465
-0.016348222613862352
-0.01841489069124097
-0.012380956553533525
0.003437777670919498
0.026698384397057667
0.04960343165182103
0.05910893370199247
0.03947324034995749
-0.022921612279203633
-0.13366246812198596
-0.08549749473492357
-0.05704633234218699
-0.0164876603333009
0.07024215199090904
0.22927365261762517
0.07039956090699098
-0.016187090175001688
-0.05664686079621209
-0.08509340985644927
-0.13340371479915117
-0.022987217091159688
0.03894126952854129
0.058099647445392075
0.04832512450680373
0.02561047235562066
0.0031755657990338525
-0.011214575623763112
-0.015564936757075763
-0.012235801585690298
-0.005720919762891816
-0.00044794226339233073
0.000851342601681624
-0.0020528000566707254
-0.006950746726840244
-0.010052275302480637
-0.007483841388023724
0.0028499153450276273
0.019483990914045814
0.03629975580711107
0.042767984416576955
0.0259430700213587
-0.025947244898463902
-0.11926622504608902
-0.051689913151027264
-0.011504944086376952
0.019780969335103482
0.062237470841032975
0.13171749435499705
0.03588251013966999
-0.026249402614072104
-0.061103541087287765
-0.07527939240445265
-0.07077369286285244
-0.043032731761786853
0.017095752280980474
0.11817569590532674
0.06191915929211745
0.038606110896005026
0.026353368703413406
-0.005103608486623184
-0.08715951245714117
-0.043918998938740024
-0.08534206740450105
-0.004188926494652857
0.022266845126349067
0.026351542225592696
0.04180423727029022
0.09573838072697953
0.002969372503716991
-0.035970487599927485
-0.03304862731900369
-0.008191996100009138
0.016509109938622493
0.022511478123332443
-0.00048820340114716365
-0.051579207022193256
-0.11810194045525668
0.021785247587045368
-0.006667789629606436
0.017224841702509805
0.1016339739445543
0.23717559362652837
-0.002661891795428062
-0.054639913139981656
-0.1540070933830038
-0.12186029367336969
-0.15657254849814686
-0.03300496861982415
0.08968019268292522
0.25417133776727113
0.09014929298964085
0.0038117021799493694
-0.024769489194204426
-0.03616116502985466
-0.0803570509857259
-0.003490230920945392
-0.035963574059849054
0.015471471148959375
-0.0296779206507189
-0.1287316078944557
-0.0242061372152568
0.14381865940825445
0.023751664383374622
0.0403300219626513
0.18767267667257906
0.02987738161927391
-0.09044670557578745
-0.03760412919484573
-0.06606630221512973
-0.2063132794435657
-0.05743263051666969
0.011255386229294348
0.04999808667787813
0.11306071025230664
0.24287547255614197
0.05904341221242582
-0.04443575966893183
-0.09345154620801999
-0.12255292258303327
-0.16303109174245486
-0.034884189354229746
0.05488069293996122
0.10812745112366791
0.1287382467862578
0.11718090482334001
0.06979566771077943
-0.01628776873519796
-0.13471903830188625
-0.26269538988715707
-0.3607339044856621
-0.1839070355667605
0.09516749891819233
0.45748908974539
0.6147588808610298
0.6063810623433288
0.22641356602404222
-0.3196739645458319
-0.9417743932429974
-0.7994237896911472
-0.46999675450258627
-0.1689708488529128
0.17587990303518083
0.612429249868617
0.643441844148268
0.7306932907664268
0.45246221392266267
0.32999178501762705
0.12128278500827398
-0.43688982508647084
-1.4718258485266509
-0.8427285990776473
-0.670272768286256
-0.1495431206300978
0.3553601774114395
1.1603702374200489
0.6952767332445228
0.966542220279713
0.2831511845854406
-0.340172057849611
-0.5104644204657464
-0.3406753958984255
-0.7246255618898262
-0.6345971894226714
-0.06307385852433821
0.38441809330059945
0.45336430274055634
1.180015207335274
-0.9717730838131743
-0.16142104314476957
0.1945943468776372
0.003410393958018608
-0.7129242009341674
1.3833875114718415
0.1578299457661666
-0.5717560570994933
-0.3999162874043934
-0.29580464992575206
0.026171474263503643
0.3198575168130066
0.20483408979762865
-0.04677254542714367
-0.12789961908612268
-0.11490564949849519
-0.08585887038971367
0.06131446471459804
0.19231542917238276
0.3250514317759546
0.02736450561209961
-0.17390723176812198
-0.1741775160532546
-0.06798820604129578
-0.12814644958837593
0.00781740390982818
0.1419925231037341
0.11240738013350397
-0.01578677912123449
-0.16146487094645573
-0.03951562763821682
0.026682122055896443
0.0927425001906356
-0.017758512899044527
0.07959584877794695
0.12920955401908674
0.04227160827962869
-0.08896345433686571
0.02855064015382381
-0.08992028670014755
-0.2883923476733111
0.04112925770728454
0.16011985517089086
-0.02488842720254316
0.021607990392798655
0.043464346050975024
-0.2296401084548407
-0.10480838118906302
0.05324140990549083
0.2062519018112246
0.4364609401683058
0.3564236603852124
-0.06182359073432791
-0.24045886913106673
-0.3418911907538246
-0.4217881006062594
-0.40413894687466423
-0.0882928822206513
0.21094886853296188
0.19889647322540518
0.3284326838298459
0.5384827448742661
0.42014351139964534
0.02011420662283076
-0.1189710996597287
-0.4923746643482488
-0.560242529940995
-0.4888992783254528
-0.12286308796433526
0.20626073199396167
0.440062583016176
0.3384832566443195
0.4291085763401094
0.17657029808027308
-0.22024888065216197
-0.2053969025432649
0.5722587309273596
-1.3022015710668777
-0.5853477609342991
0.022982282193190214
0.2484291401293241
-0.010388414853180003
1.6639442277401846
0.7757596466191988
-0.07481096911199116
-0.7388209003964222
-1.0374557874105907
-0.8833455341346348
-0.4355079013927451
0.2940945114096583
0.7851216122519814
0.7258734374100444
0.5328095431660659
0.09876658348893384
-0.21724943919800588
-0.36185751943260547
-0.5359952665145281
-0.34038088208139455
0.06563471318877455
0.3837039261041169
0.17599656601639332
0.05216567509574325
-0.34789747941039306
0.029728450359110523
0.03986652292382518
0.32944216548373856
0.33521392494343494
0.29020625480043094
-0.562071516922067
-0.752125820206196
-0.5787753679828477
-0.12324222092645006
0.5156438643948843
1.1766779669913747
1.0031651156987347
0.2422089812669526
-0.9154372908081467
-0.8663195137900929
-0.9234191600133768
-0.6741533707433064
0.013551880621184407
1.138441149930213
1.0879441442087971
1.1675127386322377
-0.6342536165046297
-0.6337663862774637
-0.6048103939207061
-0.7203277334901159
-0.709042381729753
1.1595741668566306
1.065272950888312
0.41816510520884825
-0.3508905849273428
-0.582971581638362
-0.5742733110500087
-0.5663857333409916
-0.15824802517206674
0.6565349124518104
0.8367920032433073
0.2442850636732304
0.016810419021096985
-0.025567702098696875
-0.14299092998491983
-0.4186563150820777
-0.09799020792493941
-0.13918119042705915
-0.18567042139622078
-0.1651441561360238
0.0864850662065808
0.18287855542763118
0.3376103204575303
0.3195559051275853
0.22424926796905092
-0.13295073513015862
-0.4031794914535297
-0.2776523032627191
-0.059221134005025954
0.1593345941279232
0.10678301639379588
0.13633990379760727
0.023993503826615754
-0.23454289886365787
-0.22731766807355355
0.2693239892950842
0.0850172686446189
0.2501355171782222
-0.0063387948292051915
-0.05462549531677761
-0.4596292298886671
-0.17881133542632724
-0.16720657231721742
0.40913129404576243
0.35549119668211276
0.23519071729970306
0.16912318861743905
-0.14804124111439435
-0.21837328359440708
-0.3074472203454565
-0.41945132270961843
-0.2908128778581003
0.1934262934977434
0.36445582201208127
1.1272618612169427
-0.8744588551682703
0.12512947233908198
0.21911564175166828
0.050572048947160476
-0.9543871242077653
1.0493023364830956
-0.04202841341162316
-0.4570737057003907
-0.5389302550156411
-0.352460804090165
-0.11281457141736154
0.5683070570617104
0.8313210891159382
0.7312632182809379
0.23118341355452077
0.032608796790767204
-1.1669000289807663
-1.4134166892870277
-1.0630237043789819
-0.19558885166400145
1.5251887441498058
4.972516629425881
-3.1003363062884524
-0.8623803640630149
0.8496417354162944
-0.38308979719945463
-3.279259641319701
3.795294363532922
0.4392494755389706
-2.2127812239475952
-1.9542949224543549
-1.0045128006129938
1.466810031016809
3.4152541361938673
3.451724629130846
1.483425761655922
-1.911133048391311
-3.811038780560609
-4.080729869829695
-2.2107879733586646
-0.7522309595152032
2.649150604007523
4.093472869258762
4.271522111468882
2.045648870455775
-0.75201326768771
-2.90723111867473
-3.2826097960036864
-3.4783748478312346
-1.8172041605787275
1.4798902134819072
2.9371398606516665
2.5655172967978697
2.011707563442881
1.2081042070875665
-2.234032509890543
-1.9075022954802832
-1.4327796320676929
-1.0997040353799141
-0.7840733476177918
2.4439142773669835
1.6422232370805359
0.4969023835501711
-0.5557873094170885
-0.7630036761674845
-0.8506147549108488
-0.20198614229994036
0.3596612324224237
0.7782571885894876
0.5674423465042608
0.019920850549340875
-0.5704229577549492
-0.6786593981627623
-0.524917452791233
-0.0704707210016217
0.36078951732649306
0.6426927309837018
0.6058441498288715
0.4140976465992685
-0.22988377237592642
-0.4509224358413552
-0.5528355614428253
-0.575126640552552
-0.2728270252473896
0.2720312382525649
0.6116964974994813
0.48199973417992675
0.359180092691369
0.039586065575335595
-0.35260994867777035
-0.5358100193891252
-0.23295064758457804
0.06091214164419984
0.09678629459855832
0.274931209557333
0.23812265464661436
0.06150041664794637
-0.3571267876798366
-0.3070941737419935
-0.2785782433337742
0.01663627006425448
0.2187661435491127
0.6957143504599529
0.5326096253644343
0.14570604255457484
-0.27634899120869155
-0.512052474998283
-0.6452352374847116
-0.22298244935279193
-0.24948164289193422
-0.02122162749885278
0.20337793949495528
0.5168404842093084
0.2803496605276679
0.46850623252476625
0.45778244463535134
0.46568492535802647
-0.16433969401115175
-0.6497984588384097
-1.0560264395838017
-1.0158448660996113
-0.5094373917211131
0.08416317266091182
0.6750175171796357
1.3216591015096777
1.3053499803915283
0.6594623546970638
-0.22366411692448154
-0.912921359864895
-1.2158795686189057
-0.8577146424866938
-0.8028920867787236
0.15708192881158492
0.7519314811905281
1.1423809772243427
1.0300485471960075
0.6043139618413439
-0.25291632252508894
-0.50737860718365
-1.0826432899312106
-1.5777745854916163
-0.4277991459499766
0.47397119174655594
1.097674697457041
1.1718943602411422
0.8917254483917917
-0.1273659325253431
-0.43789450561241094
-1.302930627719692
-0.8212419972179408
-0.0652596656891737
0.5500880631952368
0.6687336298579148
0.9815838140444353
0.42204106552027704
-0.6189421934250751
-0.862156535581088
-0.9123975077253922
-0.6573828090821364
-0.10886809366981785
0.9164051811082934
1.0977499483316275
1.12735144956519
0.27493745285047705
-0.18333837677817458
-0.6787412470871012
-1.034373108455158
-1.158143637908735
-0.17822043540147034
0.36144192575320305
0.6500774600553113
0.7271998048697171
0.5997541267651543
0.1868474010862177
-0.09400669625019889
-0.5016348900839355
-0.5227260944936948
-0.4219516161998421
-0.21012048618096787
-0.04080327001075929
0.3659111830024713
0.48416771349973897
0.54480600962427
0.31579283426800736
-0.0903557929156004
-0.38424134117805353
-0.6551427324712108
-0.7331396360111521
-0.37456939610314405
0.5221026075534974
1.4769284189736802
-0.21575776878791628
0.4845676186830712
0.5649350523329367
-1.615024410111561
-1.4871348393082264
0.9499246671788232
0.129068834368381
-0.11231138018919053
1.4301814397044739
0.30046424278142886
-0.4206525863303466
-0.49040901827487215
-0.461475512286793
-0.23917963728041294
0.14594127378085386
0.14340522864598526
0.26840959737034553
0.07594725876801904
-0.06790495654015229
-0.21178809454028522
-0.03983105256746866
0.11283192301968768
0.2504590025844813
0.11506897277947614
-0.00498208968849529
-0.056012017393182255
-0.19271127766621893
-0.1502530854633854
-0.021056742777748362
0.15928253600269318
0.01528527474504294
-0.17507386405380318
-0.09517048682738706
-0.010780549778201675
0.005091218113724588
0.24764288519087405
0.36161376770533904
0.13423924158049247
-0.09703101684534317
-0.22379196852855934
-0.3398484336774512
-0.31792740698427463
0.0018873827733171616
0.20903533298850535
0.3083458738740144
0.30347331055506344
0.18724642069023648
-0.05545398823951662
-0.23313293795899143
-0.5285580767043854
-0.2854557511508678
-0.009864196673738437
0.21109923420969087
0.27826839385825436
0.4484775101254737
0.31408363661403016
0.0023943877054242025
-0.4042305277506564
-0.43509196404150824
-0.19734177429793706
-0.15383676941850735
0.0809453812756025
0.32854152695451055
0.42582520323166356
0.20662738259202515
-0.10615026821494176
-0.29590356309799165
-0.3399681434794048
-0.19815609792564087
0.3902560539618019
-0.3016307004837479
0.19504325026613742
0.32582853571203857
0.09802682449537818
-0.3251148125321926
0.38088933374968376
-0.08329758536342535
-0.22019749289127868
-0.11439389190792414
-0.21638286747805574
0.06435091259671549
0.15573379950108804
0.11127563388028767
-0.005302505124986138
0.06580223555157698
-0.02934464766521143
-0.06305119559556623
-0.026170484092761702
0.07483497684266965
0.022722385979489564
-0.004601844519417401
-0.02772784504064924
-0.059968729604207564
-0.10352743545214896
0.051195464847586566
0.022804587588049187
0.03349424516119919
0.1028254223520074
0.04264075476147328
-0.14567756332812656
-0.0716239663322098
0.04535995357797694
-0.02282535357542137
0.08865976509156184
0.14049301971865455
0.09464450653343744
-0.0772724283236098
-0.18429462508514924
-0.20855785154978276
-0.10409912113147883
-0.004654108467592336
0.16037239616050214
0.24639396617875262
0.2774819241888936
0.039885681418442766
-0.11190617178951179
-0.23873944657540114
-0.19646618192344095
-0.2196342169652408
0.08490922537566997
0.13304849613226538
0.15038524207437817
0.15749556020517297
0.15987995512355477
-0.05347189146236801
-0.10284564533484239
-0.20556867206746457
-0.1646424110048351
-0.16384589986567663
0.027787165943303754
0.24338906754565479
0.30286966677723315
0.2020459173592048
0.1123484112849346
-0.20727657283796025
-0.39042744906917376
-0.24378243620449164
-0.13723808838020282
-0.009085919995377069
0.2147072446025348
0.3941993075752881
0.35256325283910717
0.06605546364653037
-0.1286986733285199
-0.312895745219306
-0.3581953278316529
-0.30501176512441897
0.04508318375042452
0.32084750534329776
0.3619830929339481
0.19865785875520753
0.039331655178201565
-0.12859263026279924
-0.3273050390992666
-0.17316625753042686
-0.06527044147545422
0.01676517595348485
0.1053113232645367
0.23150003006687578
0.21252176283155946
0.04521069138707918
-0.09128779479384865
-0.22520214963318083
-0.1791857590715354
-0.1609089551657348
0.03848076214267633
0.237643237463288
0.25378231366029647
0.09270383436540454
-0.05490821072357926
-0.2096706941686213
-0.1948361933139722
-0.027586811297609974
0.08577745999003984
0.1497744494939704
0.17676676373391148
-0.015870936086347716
-0.2066660381422242
-0.1697910235556331
-0.07619568304622586
0.1017138037867835
0.18215254106465503
0.16585032244499484
0.031871856887219725
-0.05994419353549361
-0.16024694937677492
-0.11825536242742726
0.029157721828822723
0.06422158101338275
-0.010117718875082204
0.02717997921982758
0.01004077312495682
-0.021074128610515476
-0.025736135314760343
0.030219166420104054
-0.030743400466914962
-0.0019065919674457915
0.10583079628542434
0.06514618244212832
0.03717511783648444
-0.020126262580489485
-0.141713557694468
-0.1461497413541439
-0.030483933297171008
0.028578343780392083
0.0673617949728451
0.12423086447165567
0.02862372559638148
-0.006495125469045459
0.013161444293712266
0.06647629024025915
-0.07561276909539302
-0.04064036695823937
-0.04574885341894085
-0.09201360419099607
-0.16382910099966547
0.1661955151837868
0.12829304894317908
0.14575692667967344
0.028060393657792386
-0.03073814599316213
-0.24856731128542978
-0.049549354976091774
-0.059206475589672104
0.0973387740336658
0.1947268542902522
0.20692694943541282
-0.09014848468746707
-0.11211043383660355
-0.25783263233690923
-0.10379054093675873
-0.004963236226576815
