0
-5.940695347084191e-18
-5.940695347084131e-18
-5.940695347084118e-18
-5.9406953470841855e-18
-5.9406953470843465e-18
-5.940695347084578e-18
-5.940695347084803e-18
-5.9406953470849105e-18
-5.940695347084778e-18
-5.94069534708433e-18
-5.940695347083606e-18
-5.940695347082803e-18
-5.940695347082268e-18
-5.940695347082424e-18
-5.9406953470835916e-18
-5.940695347085785e-18
-5.940695347088518e-18
-5.9406953470907576e-18
-5.940695347091112e-18
-5.940695347088313e-18
-5.9406953470819114e-18
-5.940695347072968e-18
-5.940695347064418e-18
-5.940695347060701e-18
-5.940695347066454e-18
-5.94069534708434e-18
-5.940695347112587e-18
-5.940695347143287e-18
-5.9406953471627334e-18
-5.940695347154813e-18
-5.940695347107543e-18
-5.94069534702138e-18
-5.940695346916211e-18
-5.940695346832835e-18
-5.940695346824989e-18
-5.94069534694038e-18
-5.940695347193673e-18
-5.940695347540082e-18
-5.940695347862938e-18
-5.94069534798946e-18
-5.940695347743339e-18
-5.940695347029574e-18
-5.940695345928485e-18
-5.9406953447578956e-18
-5.940695344054353e-18
-5.940695344435665e-18
-5.940695346343597e-18
-5.9406953497239814e-18
-5.9406953537655616e-18
-5.9406953568603484e-18
-5.940695356933627e-18
-5.9406953521955065e-18
-5.940695342188335e-18
-5.940695328785512e-18
-5.940695316621254e-18
-5.9406953124092336e-18
-5.940695322840936e-18
-5.940695351275099e-18
-5.940695394148026e-18
-5.9406954387118534e-18
-5.9406954639861556e-18
-5.940695446319051e-18
-5.940695369492692e-18
-5.940695237030661e-18
-5.940695081920027e-18
-5.940694967456221e-18
-5.9406949736418e-18
-5.940695167457041e-18
-5.940695562292283e-18
-5.940696080243667e-18
-5.940696537515611e-18
-5.9406966735358295e-18
-5.940696234806587e-18
-5.940695103939355e-18
-5.9406934365080474e-18
-5.940691742815187e-18
-5.940690842300871e-18
-5.940691639140598e-18
-5.940694725833931e-18
-5.940699910303399e-18
-5.940705855160995e-18
-5.940710072023948e-18
-5.940709479762672e-18
-5.9407015788896985e-18
-5.9406860209563775e-18
-5.940666028804406e-18
-5.940648881177531e-18
-5.940644679793478e-18
-5.940663009572499e-18
-5.940707915046392e-18
-5.9407726913253615e-18
-5.940836949094053e-18
-5.940868719977956e-18
-5.9408334903039024e-18
-5.940709732705341e-18
-5.940507052860997e-18
-5.940279526223453e-18
-5.940124860272578e-18
-5.9401615678460735e-18
-5.9404826378989954e-18
-5.941094893976857e-18
-5.941865618371995e-18
-5.94250696379241e-18
-5.942627767804022e-18
-5.941866357591155e-18
-5.940085905687749e-18
-5.937572368289453e-18
-5.9351389575010165e-18
-5.934031411065218e-18
-5.9355651210843384e-18
-5.940517314049698e-18
-5.9484316512724855e-18
-5.9571271215520374e-18
-5.9627718303907e-18
-5.96081320453208e-18
-5.9478032798462115e-18
-5.9237390711014614e-18
-5.894063615671439e-18
-5.870144584518886e-18
-5.867110924984881e-18
-5.8985801975400745e-18
-5.969070334721161e-18
-6.066491414447473e-18
-6.15846408330971e-18
-6.196500085073377e-18
-6.130548062300049e-18
-5.932752517215845e-18
-5.624064680337696e-18
-5.2922462950268304e-18
-5.087397902089288e-18
-5.184169891552233e-18
-5.7099410585598166e-18
-6.654606081940722e-18
-7.795755570672193e-18
-8.68505565655967e-18
-8.738061634892741e-18
-7.443240159734435e-18
-4.656382335920212e-18
-8.848790221747946e-19
2.584122060693925e-18
3.865451445361524e-18
1.0578538879919232e-18
-6.828374619950456e-18
-1.885454984872644e-17
-3.1496903949790836e-17
-3.8882700668820746e-17
-3.43210141560751e-17
-1.3125238187056656e-17
2.3913898507095306e-17
6.773880298275832e-17
1.0069042293489559e-16
1.0021840017133848e-16
4.7155238029705787e-17
-6.28740846132278e-17
-2.0871001084213087e-16
-3.3926516557213855e-16
-3.8133012415529026e-16
-2.6281204558340105e-16
5.108854435511381e-17
5.19081703538142e-16
9.999718638686946e-16
1.2642532928355852e-15
1.055956800232305e-15
2.0343587105174485e-16
-1.2470992678177778e-15
-2.9279040953171755e-15
-4.144302617132021e-15
-4.027275364120371e-15
-1.860533878525365e-15
2.477829293277414e-15
8.110265198717191e-15
1.3012125332468406e-14
1.434363367477937e-14
9.376255482567872e-15
-3.098062515813095e-15
-2.1289006585602978e-14
-3.954985051142253e-14
-4.892188522243116e-14
-3.9627058560825335e-14
-5.411207835536274e-15
5.132839863719414e-14
1.1570292092341448e-13
1.6041894740363777e-13
1.520291941669041e-13
6.384404598364356e-14
-1.0699294806950202e-13
-3.2426385557221937e-13
-5.078452434998284e-13
-5.477103722748653e-13
-3.4079559894429333e-13
1.5416635917154192e-13
8.604406226026185e-13
1.5526144030267e-12
1.881387321537905e-12
1.4738048885137808e-12
1.0332778451858518e-13
-2.1135414766142114e-12
-4.575561025474566e-12
-6.2116949871305825e-12
-5.736256737300264e-12
-2.157929065848829e-12
4.560835263231095e-12
1.2931711885460017e-11
1.9788315396636283e-11
2.087265391547253e-11
1.2299943882386086e-11
-7.310275183651689e-12
-3.4700237530556994e-11
-6.08872680302534e-11
-7.22676955216452e-11
-5.46388238556831e-11
1.4940982772031177e-13
8.666479765102402e-11
1.806863824406521e-10
2.4023542026782284e-10
2.1595611085280898e-10
7.115717524985981e-11
-1.9275512358331068e-10
-5.148570189876722e-10
-7.701857940136982e-10
-7.941535244147905e-10
-4.4065934870124207e-10
3.35178865009438e-10
1.3961552876160528e-09
2.3849041990591792e-09
2.772228790158091e-09
2.018163032946903e-09
-1.6817387744234738e-10
-3.5406493065017893e-09
-7.125716643088251e-09
-9.279983429884443e-09
-8.111306224293906e-09
-2.2668910477119445e-09
8.08696961343631e-09
2.0465123947613568e-08
2.9942351699476374e-08
3.016431231222922e-08
1.564957558256855e-08
-1.5002364083278404e-08
-5.605219751789633e-08
-9.330506855361892e-08
-1.0619819972295971e-07
-7.423846983571499e-08
1.2857766785686417e-08
1.4417081377686263e-07
2.806519838394579e-07
3.58040574768588e-07
3.0389889531896823e-07
6.856471928521078e-08
-3.3715466648115903e-07
-8.12210113021946e-07
-1.1627303222518657e-06
-1.1436883507224704e-06
-5.499630905155267e-07
6.594106763581007e-07
2.2457726945712877e-06
3.6461501236711033e-06
4.062459872347376e-06
2.718353406253124e-06
-7.455689453682061e-07
-5.852629142411236e-06
-1.103970173137405e-05
-1.3796943119369239e-05
-1.13551841600366e-05
-1.9001069934914355e-06
1.3979400808229953e-05
3.2186566808521396e-05
4.509961497570063e-05
4.3281898020304184e-05
1.9079045685857463e-05
-2.8574330882696965e-05
-8.980515093558083e-05
-0.00014231849022122025
-0.00015517495244454725
-9.902075627199851e-05
3.852563139573604e-05
0.00023692003285287903
0.0004337053076177381
0.0005309626621485441
0.0004229831215390294
4.38391180700653e-05
-0.0005770365446308277
-0.0012740046612809864
-0.001747782113828687
-0.0016353338280076439
-0.0006517069882163105
0.001224375850394582
0.0035873008423446756
0.005557258137448082
0.0059395870819882535
0.003632341096761196
-0.0017746691178445937
-0.009393806161624463
-0.016722567540176418
-0.01994347121199233
-0.015060017222667007
0.00018757128838737497
0.024083656973977442
0.049230182381251215
0.06242164897821511
0.046936028837691816
-0.012665559531390319
-0.12428589348945626
-0.08275691546756322
-0.06762126160914612
-0.04608811226145356
0.018770415248009882
0.15668260800623088
0.1794806114836622
0.0752452180997683
0.010193187901203644
-0.06155973997450471
-0.1833637140411936
-0.1816438824149545
-0.05701089502753636
0.015836986700997452
0.07945646760700865
0.1795727821961941
0.15076388803083102
0.006867470209603232
-0.061109418193637646
-0.0798904166962661
-0.08454252289351814
-0.10871780577297721
0.022285380391973537
0.09430744211191545
0.1036747289554044
0.055103060678932884
-0.03997109005068404
-0.16411623294281888
-0.09475877068733399
-0.006826770910377997
0.12212186290958371
0.10554051412901047
0.14309509240791454
0.020177130613957674
-0.0872774446764335
-0.20425257931986968
-0.14798826136903648
0.07701911911816729
0.07841009399855853
0.07063967714441634
0.0679160677419564
0.07866340044850431
-0.09651143281810462
-0.06326535348451257
-0.029854357889072994
-0.003400928235292789
0.012384578163509435
0.01758339892172417
0.01501357513630097
0.008585930540609877
0.001827221761406344
-0.002998588116537069
-0.0050913157009931055
-0.004806960341485587
-0.003113800547013234
-0.0010627009803099794
0.0005714879669440374
0.0014299339984285525
0.0015284990793106269
0.0011148047029906603
0.000505631878925659
-3.7429057975874146e-05
-0.00036937837652519623
-0.00046425554975334577
-0.0003795424574019893
-0.00020760598365170512
-3.4088564551315604e-05
8.632621319082773e-05
0.00013559525244156097
0.0001244859312493626
7.863795870101416e-05
2.5106523277220406e-05
-1.65938562597245e-05
-3.780493821009649e-05
-3.943746090894936e-05
-2.8172801302186182e-05
-1.2260203636185421e-05
1.631368242718352e-06
9.912409928439542e-06
1.2061209607143135e-05
9.65984969664708e-06
5.12823109608382e-06
6.617881881331922e-07
-2.3706656554971453e-06
-3.55018310863852e-06
-3.1894724240111597e-06
-1.966678402803775e-06
-5.797090012409712e-07
4.786483002509738e-07
9.990573337218864e-07
1.0168088974971272e-06
7.109741950988273e-07
2.9576092741548636e-07
-5.91863733403563e-08
-2.6531948796006943e-07
-3.13014560788665e-07
-2.455872048711635e-07
-1.2634298199698488e-07
-1.1495590238563055e-08
6.475742638821043e-08
9.281266016006798e-08
8.16229535563905e-08
4.9090685063256455e-08
1.3198536123206176e-08
-1.3627457177449988e-08
-2.635191702948321e-08
-2.618598032920832e-08
-1.791553294637559e-08
-7.095982506982151e-09
1.9626740901905688e-09
7.0824259699918795e-09
8.113411550029655e-09
6.235788625388346e-09
3.103266714822617e-09
1.5352131365329813e-10
-1.760768871869932e-09
-2.4229621439579712e-09
-2.086416469636886e-09
-1.2228733967040817e-09
-2.9515325729667347e-10
3.8388753331632565e-10
6.938371125672816e-10
6.735982245043663e-10
4.507472828066571e-10
1.6918641044966277e-10
-6.172469159677174e-11
-1.8858378111633348e-10
-2.1004724431157733e-10
-1.5812995394894095e-10
-7.597094202388657e-11
-2.960833431578434e-13
4.7678659833472825e-11
6.316672370218867e-11
5.326963419720206e-11
3.0396536907621837e-11
6.445427959838713e-12
-1.0719217563750878e-11
-1.823743260723089e-11
-1.7307606745052548e-11
-1.1322320964114441e-11
-4.004613482408982e-12
1.8743221128793767e-12
5.009689700956304e-12
5.431408246589985e-12
4.004593234611731e-12
1.8530564384932797e-12
-8.613620405206297e-14
-1.2862810153121786e-12
-1.6445660036177619e-12
-1.358451277567333e-12
-7.538176821627091e-13
-1.3618493165595264e-13
2.9707933250815857e-13
4.785837171345709e-13
4.441921890326864e-13
2.8391909242460266e-13
9.397306049263174e-14
-5.551819853738027e-14
-1.3279698742224566e-13
-1.4028665879217322e-13
-1.0128257870248837e-13
-4.5022559833551605e-14
4.61266015503347e-15
3.457859245279843e-14
4.275486571176934e-14
3.459440704382396e-14
1.8641702315506654e-14
2.732999148921724e-15
-8.187125397689124e-15
-1.254561093953318e-14
-1.1393206606007841e-14
-7.113197363565357e-15
-2.188846598102382e-15
1.6076665844627082e-15
3.5067040785132082e-15
3.6129670417249025e-15
2.5517365254005056e-15
1.0827061841211933e-15
-1.8627400808377858e-16
-9.329745025582247e-16
-1.1163682194979277e-15
-8.861490738108776e-16
-4.66009193161906e-16
-5.670936633091304e-17
2.1810147123741564e-16
3.22122919158961e-16
2.8564276917703727e-16
1.716372437155504e-16
4.4128220009684594e-17
-5.216444339131089e-17
-9.867881002542769e-17
-9.919215803443602e-17
-7.043880211832649e-17
-3.2133292908061066e-17
2.7160496838753247e-19
1.8838288139151624e-17
2.285943333926138e-17
1.642315734400972e-17
5.3770593774999334e-18
-5.1413982806729334e-18
-1.2046075579404823e-17
-1.451112035709896e-17
-1.339837393225765e-17
-1.0368802777571617e-17
-7.071079379437518e-18
-4.631999447195114e-18
-3.496783528162387e-18
-3.5405620659610155e-18
-4.31668487473711e-18
-5.314175537454536e-18
-6.140691341472878e-18
-6.601296129576621e-18
-6.686746568098223e-18
-6.5081766824477776e-18
-6.218233515347347e-18
-5.948231786627996e-18
-5.7750411676158005e-18
-5.717111921810627e-18
-5.750176826397343e-18
-5.8305067827928624e-18
-5.9156942504112386e-18
-5.977391636835992e-18
-6.004987123861586e-18
-6.002400041707692e-18
-5.981521997461561e-18
-5.955580863619137e-18
-5.9345252327740426e-18
-5.923126542914536e-18
-5.921392583925031e-18
-5.9263145643236016e-18
-5.933913196514362e-18
-5.94083596514833e-18
-5.945172346064589e-18
-5.946519987056809e-18
-5.945556302806466e-18
-5.94343070524904e-18
-5.9412328487872664e-18
-5.939674775582477e-18
-5.939007512948527e-18
-5.939112031458272e-18
-5.939672188208799e-18
-5.9403456554378916e-18
-5.940880317374369e-18
-5.941159896242673e-18
-5.941190564286162e-18
-5.941054329238929e-18
-5.940855816020532e-18
-5.9406813195008635e-18
-5.940578269505465e-18
-5.940553992760414e-18
-5.9405872153565904e-18
-5.940644376402132e-18
-5.940694372992888e-18
-5.940718172646514e-18
-5.9407123873807785e-18
-5.940687620245871e-18
-5.94066308293631e-18
-5.940659038619628e-18
-5.9406885875280276e-18
-5.940750540014586e-18
-5.940825579320346e-18
-5.94087816649294e-18
-5.940866029216858e-18
-5.9407570835465484e-18
-5.940550275902594e-18
-5.940292948276934e-18
-5.9400846174860464e-18
-5.940057657941958e-18
-5.9403310205032755e-18
-5.940944019092138e-18
-5.941791069003737e-18
-5.942589936004195e-18
-5.942918501600883e-18
-5.942341670647415e-18
-5.9406182270697746e-18
-5.937932150426889e-18
-5.935048644034095e-18
-5.933274315319346e-18
-5.934127469381464e-18
-5.9387127378807324e-18
-5.946936611088932e-18
-5.956858113138406e-18
-5.964573049153004e-18
-5.964998565239118e-18
-5.953693944966826e-18
-5.92942178740368e-18
-5.896617115913404e-18
-5.866494159440561e-18
-5.8554546292193e-18
-5.8800156263791336e-18
-5.948736686393291e-18
-6.053382666629001e-18
-6.1632340275781875e-18
-6.22717535024312e-18
-6.187047558776125e-18
-6.00222143025025e-18
-5.6797952953592424e-18
-5.298799400612638e-18
-5.0129998562173814e-18
-5.018498868718506e-18
-5.4816651346216395e-18
-6.439886023721785e-18
-7.708277633262587e-18
-8.841785853835868e-18
-9.203506401634232e-18
-8.167207223795115e-18
-5.432141712417785e-18
-1.3601840274979278e-18
2.817903540395451e-18
5.104683353576026e-18
3.2754144476981393e-18
-4.157487932271344e-18
-1.6783474781197526e-17
-3.13944537982177e-17
-4.19420156785673e-17
-4.086959389171024e-17
-2.1961099017294427e-17
1.5817623131750496e-17
6.480138540451088e-17
1.0735383774638118e-16
1.1877141419522225e-16
7.535567523298195e-17
-3.332425703328889e-17
-1.9159026562141288e-16
-3.5022723438106666e-16
-4.312712523037684e-16
-3.4974497704133115e-16
-5.146522558035802e-17
4.423806680133634e-16
1.0019289778736496e-15
1.389559682440725e-15
1.3144549053447279e-15
5.450416516829644e-16
-9.424971780833273e-16
-2.831897320582101e-15
-4.4252802551973895e-15
-4.7655798838817254e-15
-2.9577618751782816e-15
1.354081728431167e-15
7.498408838784282e-15
1.3510811812302711e-14
1.635169457321154e-14
1.2780169001109771e-14
8.343883051827749e-16
-1.8459223415862837e-14
-3.9857326879185847e-14
-5.4036053770280826e-14
-4.9817515708494857e-14
-1.8602343353933538e-14
3.9895733202925226e-14
1.1268362476949607e-13
1.7218436573525332e-13
1.8136261809484675e-13
1.0648643745720692e-13
-6.433160978066827e-14
-3.0259686849470356e-13
-5.300362711571103e-13
-6.282798175608736e-13
-4.739219943571167e-13
3.58447691188455e-15
7.56481080305431e-13
1.5735714341532324e-12
2.0894383651321185e-12
1.875013711977035e-12
6.120860327899624e-13
-1.6855342439872187e-12
-4.4861050691938296e-12
-6.701381508635121e-12
-6.899911420253811e-12
-3.813273403547164e-12
2.9441936145049055e-12
1.2172948025357639e-11
2.0759301026101166e-11
2.409886960218056e-11
1.7500456382691536e-11
-1.5524314050573866e-12
-3.089914187079407e-11
-6.205192788368775e-11
-8.070642341780035e-11
-7.041495339898019e-11
-1.944820872098382e-11
7.068564776571683e-11
1.7830079273942346e-10
2.6050917707358805e-10
2.6205011945015827e-10
1.35342331411358e-10
-1.3160978735507884e-10
-4.886494592793024e-10
-8.121105486181689e-10
-9.230954070156509e-10
-6.43580856536509e-10
1.153411309160707e-10
1.257922720381271e-09
2.443766528783687e-09
3.11357756087646e-09
2.637739152696808e-09
5.8578281470056e-10
-2.945877174004942e-09
-7.075639413265205e-09
-1.0115437890697456e-08
-9.934555029205395e-09
-4.752749969287251e-09
5.778978309375844e-09
1.957566087611639e-08
3.173311844151612e-08
3.530847440425484e-08
2.355840954673572e-08
-6.6217764332506054e-09
-5.105614408092746e-08
-9.612018528753184e-08
-1.1997099038802712e-07
-9.854162242915124e-08
-1.6110853777067712e-08
1.2210501421432635e-07
2.8037005006016976e-07
3.9232547984248055e-07
3.7591806955766566e-07
1.6472792304233675e-07
-2.5022449278413727e-07
-7.827129011365017e-07
-1.2385387140720314e-06
-1.348565207142336e-06
-8.57856650656648e-07
3.4044195658188606e-07
2.0664941236975918e-06
3.7759939819172202e-06
4.616860942854099e-06
3.6705187596116745e-06
3.659907244189134e-07
-5.036954910413192e-06
-1.1093633372837415e-05
-1.5198648362212017e-05
-1.419616636179626e-05
-5.615678552008637e-06
1.0712703682773248e-05
3.123917419091962e-05
4.8284617450293647e-05
5.1428241457122386e-05
3.105178479359718e-05
-1.6454611706134427e-05
-8.342594046189164e-05
-0.00014815551930444693
-0.00017744226995710727
-0.00013628123064078013
-4.067852491005134e-06
0.00020688879894937794
0.0004383272840179928
0.0005880725736023205
0.0005348989580418661
0.0001872120904290322
-0.0004546151079713143
-0.0012450453766522471
-0.0018808337286781147
-0.001958902696557303
-0.0011169608468372116
0.0007644570401700589
0.0033625299914289775
0.005815197552352874
0.006834173656311977
0.005094304979115394
-0.00013211256913451302
-0.00826681414452318
-0.01695045517673393
-0.022174753020293363
-0.01931907822401034
-0.005126237439846588
0.019771359793463693
0.04862948988314821
0.06782778071237598
0.058609772006729496
0.0016962862435742018
-0.1160425825560466
-0.09494744541981148
-0.11872087178208436
0.044411568772792405
0.03505689529412687
0.09223879771798735
0.04248177966069718
0.0919336483517763
0.02408877244269425
0.003964138314636199
-0.01230791153782789
-0.06512356626450728
-0.17993186346154896
-0.1603478584765196
0.011572760839776644
0.16770490610390001
0.14162297838680943
0.15657951050543772
0.018395446864710945
-0.08436787866770523
-0.17388952251003909
-0.07373116303652272
-0.0007942844188751273
0.03861577984272019
0.04816018102909563
0.03773771180947844
0.018853457788692345
0.0009059571948714938
-0.010703576668634618
-0.014645822163660525
-0.012512783350828385
-0.007217389930393155
-0.0015880748260280817
0.002485519715569126
0.004296965556372256
0.004107755232029924
0.002709215252409216
0.000980348263649256
-0.00041900062958644027
-0.0011737354523555898
-0.0012853307981798713
-0.000955200435531646
-0.0004485053327568609
1.1923546793676603e-05
0.0002995169204752455
0.0003880802037069605
0.0003230984605073264
0.00018122881588563644
3.494937922935854e-05
-6.85058742198214e-05
-0.0001126042815118944
-0.0001053941727357263
-6.79674329240409e-05
-2.309206604972914e-05
1.2503046618901109e-05
3.112671125131591e-05
3.3204542025716413e-05
2.4165255364216562e-05
1.0910412380921847e-05
-8.785824546830144e-07
-8.063971772442628e-06
-1.009589516417346e-05
-8.233415709677508e-06
-4.487564902577972e-06
-7.180832778079082e-07
1.8909305161497844e-06
2.9521146358789774e-06
2.7030227633416544e-06
1.7025416113722304e-06
5.386027155694251e-07
-3.658165656163817e-07
-8.240068479432826e-07
-8.569753808227381e-07
-6.106091922390418e-07
-2.64320315020084e-07
3.721186910614771e-08
2.163993747839678e-07
2.6229944746031907e-07
2.0955058388188496e-07
1.1083114493461371e-07
1.3807564407870071e-08
-5.188856758534084e-08
-7.727688746587407e-08
-6.924416892828757e-08
-4.256946825183255e-08
-1.2417110496460148e-08
1.0533425926820022e-08
2.1770531284046172e-08
2.209207996140669e-08
1.5406665448746775e-08
6.372355306419916e-09
-1.3310651900840845e-09
-5.790258293155188e-09
-6.80621336757142e-09
-5.3266976091962564e-09
-2.729551185437134e-09
-2.350926074978412e-10
1.4165559376093405e-09
2.0198999743271854e-09
1.7718031091307593e-09
1.0623294502612177e-09
2.821566764508398e-10
-2.9947251233792696e-10
-5.741087404228849e-10
-5.688600718688489e-10
-3.88154039640862e-10
-1.5277805084596254e-10
4.379353734659838e-11
1.5451606928339443e-10
1.7639247938453834e-10
1.352308821023631e-10
6.701792209829649e-11
2.959046450529796e-12
-3.849619678369184e-11
-5.272244869870539e-11
-4.5283755360680403e-11
-2.6456383958748676e-11
-6.293806050257152e-12
8.426405654951336e-12
1.5112885793592283e-11
1.46310982282611e-11
9.763903190838317e-12
3.639605578003674e-12
-1.3703982804088725e-12
-4.113098986627974e-12
-4.565945392468173e-12
-3.428703157942125e-12
-1.6399711280678069e-12
3.2117556379045886e-15
1.0419139506394708e-12
1.3742440763129605e-12
1.1559962297484014e-12
6.574315554158e-13
1.369646599428237e-13
-2.3506584237186944e-13
-3.971663343755269e-13
-3.75888920454493e-13
-2.4521602899659146e-13
-8.607149682595547e-14
4.1462845555810606e-14
1.0922775211866836e-13
1.1804340148571441e-13
8.681062595747409e-14
3.997682994144854e-14
-2.1243715461813945e-15
-2.810285448741136e-14
-3.5779118108492584e-14
-2.948120388686469e-14
-1.6305134627895637e-14
-2.88562242060429e-15
6.503381331159227e-15
1.041439653372688e-14
9.639722142651268e-15
6.1417932967390085e-15
2.0114986432111122e-15
-1.2309877623144437e-15
-2.9006339512888008e-15
-3.0544450928423383e-15
-2.2011663813729332e-15
-9.767367951218123e-16
1.0072614856011162e-16
7.492173237022464e-16
9.240654243514472e-16
7.446991054960541e-16
3.9713854974026725e-16
5.1533171696221857e-17
-1.850665674221297e-16
-2.789164108336824e-16
-2.5317809614958407e-16
-1.597975739640034e-16
-5.273561819625772e-17
2.959847822044841e-17
7.061243933523205e-17
7.269235464284433e-17
4.948861846042251e-17
1.752244859083162e-17
-1.0020190499262838e-17
-2.6175396657115195e-17
-3.0087729237921614e-17
-2.503355624659861e-17
-1.5881946666134173e-17
-6.99143397527101e-18
-1.0384147539852451e-18
1.1996360211336802e-18
3.89201152700688e-19
-2.0974146956858684e-18
-4.86922538668286e-18
-6.957169045698329e-18
-7.961329716774927e-18
-7.966616083311691e-18
-7.33822750492299e-18
-6.504835702904081e-18
-5.801603109411994e-18
-5.4000130550705034e-18
-5.3145099015509065e-18
-5.45566924428194e-18
-5.696229677927478e-18
-5.924672192522595e-18
-6.0742130580337244e-18
-6.127199152676158e-18
-6.102568888364168e-18
-6.03650808382015e-18
-5.9648320060545635e-18
-5.911953351277454e-18
-5.887457467993401e-18
-5.888558909402245e-18
-5.905513316021778e-18
-5.92721168923914e-18
-5.9451456360531295e-18
-5.955105402117391e-18
-5.9569138634223856e-18
-5.953000740460942e-18
-5.946687569417617e-18
-5.940824442244811e-18
-5.93707441706583e-18
-5.935830868548794e-18
-5.936561095734881e-18
-5.938312501027887e-18
-5.9401638105250754e-18
-5.941500839389984e-18
-5.942095269405674e-18
-5.942034227639412e-18
-5.941577405023745e-18
-5.941012836400577e-18
-5.9405567368266366e-18
-5.94031237510175e-18
-5.940279083279726e-18
-5.940390203613113e-18
-5.940557630944524e-18
-5.9407068483921575e-18
-5.940795273041013e-18
-5.94081451189457e-18
-5.9407817376070445e-18
-5.9407265748061355e-18
-5.9406786144275784e-18
-5.940658388494278e-18
-5.940672596187243e-18
-5.940713249639771e-18
-5.940760215210236e-18
-5.940786874658376e-18
-5.94076865178939e-18
-5.9406934517898986e-18
-5.940571615364459e-18
-5.940441358709101e-18
-5.9403648926285995e-18
-5.9404116434300405e-18
-5.940628939859081e-18
-5.941006835025687e-18
-5.941450597072709e-18
-5.94177866821412e-18
-5.941761857075632e-18
-5.941208483669162e-18
-5.9400803365531226e-18
-5.938600312624042e-18
-5.9372939454751435e-18
-5.9369060060748396e-18
-5.938160743818938e-18
-5.941393127740168e-18
-5.946157901334661e-18
-5.950996209131501e-18
-5.95356625336636e-18
-5.9512848878584585e-18
-5.9424605347507725e-18
-5.9276442938607375e-18
-5.910660048879735e-18
-5.898619600018553e-18
-5.9003262437177305e-18
-5.922918146797518e-18
-5.9673840405162655e-18
-6.024506639465918e-18
-6.073481206132591e-18
-6.085442794962412e-18
-6.033013035236338e-18
-5.9046555498546426e-18
-5.719556476960357e-18
-5.536001485242528e-18
-5.4453460987180264e-18
-5.546188776487838e-18
-5.899983795789454e-18
-6.479195815507087e-18
-7.129217468593772e-18
-7.570806185575564e-18
-7.46535795512249e-18
-6.547322413029046e-18
-4.7974735665687754e-18
-2.595359018607677e-18
-7.637124544667599e-19
-4.2023422694718183e-19
-2.59797577795518e-18
-7.687099958812518e-18
-1.48694491076626e-17
-2.1820401576663586e-17
-2.4980089819100263e-17
-2.0590793851167412e-17
-6.43397536773059e-18
1.6182996857465814e-17
4.102459669300291e-17
5.713966780172849e-17
5.1521257788959354e-17
1.4323436793800462e-17
-5.44516909939425e-17
-1.392389201147503e-16
-2.075474581811506e-16
-2.161488531200031e-16
-1.2614830216877924e-16
7.533188666260951e-17
3.5370479267174965e-16
6.164140233391601e-16
7.24899935616909e-16
5.361826743588598e-16
-2.924034272779891e-17
-9.113699076956295e-16
-1.859302577142366e-15
-2.4440737872805176e-15
-2.1667073194866868e-15
-6.634830610707473e-16
2.0363081701444456e-15
5.296683956332046e-15
7.836251550964741e-15
7.98508572882048e-15
4.282182482673393e-15
-3.683266870816929e-15
-1.445985566869473e-14
-2.436835440235999e-14
-2.802180553365021e-14
-1.998909737247524e-14
2.554112223060452e-15
3.6920458038826025e-14
7.303608492569742e-14
9.411788195087942e-14
8.105024939306567e-14
2.0451770508962574e-14
-8.540188164662652e-14
-2.1061157771763498e-13
-3.0470651503281767e-13
-3.0325500042742504e-13
-1.515142449496993e-13
1.6296763848351698e-13
5.79668164930303e-13
9.525604883232972e-13
1.0724487465199704e-12
7.333983905820861e-13
-1.6388249919903028e-13
-1.5012116342328298e-12
-2.8749461608414352e-12
-3.6292151528967495e-12
-3.0327439252814427e-12
-5.954730244765103e-13
3.5499226258244246e-12
8.351964043077797e-12
1.182525409232355e-11
1.1486842816642514e-11
5.291075949627667e-12
-7.10844891182237e-12
-2.3201870356428166e-11
-3.72021051644958e-11
-4.099462867495404e-11
-2.678554323954437e-11
8.871343228363788e-12
6.085262708686292e-11
1.1301615792004319e-10
1.3976056621030617e-10
1.131516670680877e-10
1.533490406496866e-11
-1.4681506685752604e-10
-3.307287334508789e-10
-4.584023679747503e-10
-4.342725877859604e-10
-1.8211958712918688e-10
3.061427234388045e-10
9.2693482209339e-10
1.451243295071101e-09
1.5646771575134845e-09
9.72849748196199e-10
-4.419309578430861e-10
-2.4601025024251924e-09
-4.437299423120244e-09
-5.375339622351436e-09
-4.208780797160809e-09
-2.909501739426342e-10
6.0442963918807686e-09
1.3077975539052454e-08
1.7749152209385113e-08
1.6384514612764854e-08
6.153207677402915e-09
-1.3049081301474623e-08
-3.6966145735362305e-08
-5.6547816397505077e-08
-5.962748744516605e-08
-3.510916805622054e-08
2.0942790240528882e-08
9.920804868414601e-08
1.7400933048663053e-07
2.064725832097977e-07
1.560250120820578e-07
-5.959001774591451e-10
-2.4783077367534335e-07
-5.16432848727434e-07
-6.864322486418602e-07
-6.168180813647647e-07
-2.02818354013217e-07
5.514322732989844e-07
1.4717173264166832e-06
2.200874854967151e-06
2.2686262108018355e-06
1.2576816117414682e-06
-9.59855366464072e-07
-3.991485187819576e-06
-6.815689406047879e-06
-7.920251686457539e-06
-5.7626895457368445e-06
4.871494694325782e-07
1.0124515380350831e-05
2.036616546366155e-05
2.6515577347448078e-05
2.3166956944543133e-05
6.45763227484689e-06
-2.3132673666356624e-05
-5.849780209099708e-05
-8.556103124180781e-05
-8.616645636503974e-05
-4.4658968974648117e-05
4.2948871587393434e-05
0.0001602390828069026
0.00026663469892846217
0.0003033730636219616
0.00021190787719828512
-3.711474823005774e-05
-0.0004124479762285463
-0.0008024683236167192
-0.001023524480473221
-0.0008686092165822518
-0.00019574957878144912
0.0009644337624801709
0.0023239513625319076
0.003330570436379819
0.0032875999837811893
0.0016149888301810755
-0.00179484324338102
-0.006247129917065031
-0.01011982826364313
-0.01112789743706497
-0.007081113546524484
0.0029335412457686056
0.017246549659933795
0.030687806609715616
0.03463148242792316
0.018389312358632344
-0.028144329987189805
-0.1113439108578128
-0.03144122831046753
0.017995635418284035
0.04836320848188621
0.07293449776920187
0.1039574472040254
-0.04869658117052264
-0.17709167710783183
-0.0741077638781997
0.06666989104525753
0.04917805317345617
0.07201024396970199
0.12646052710625552
-0.0026526046086868113
-0.1328844961700427
-0.0781202919138607
-0.04318918609657876
-0.021660092211027278
0.002029530205320683
0.04680625171251416
0.1276986047776006
0.049807220624439874
0.005791417703758934
-0.022201267473269753
-0.056989819450812704
-0.1194011514764485
-0.022514240738128105
0.03095404871516582
0.047619261162232245
0.03975027679502473
0.020758309258355374
0.0015432194115192904
-0.01138782499673075
-0.015998169899673207
-0.01356897684313813
-0.007087034236628566
0.0001920701345665125
0.005676112949820697
0.00784123447207847
0.00628041234997857
0.0016049900530081724
-0.004679138393688677
-0.010342034804005702
-0.012779500928281343
-0.009682885950826352
-4.445812202583249e-05
0.014716600696951833
0.029968657760785757
0.038011770356321896
0.029615710111281175
-0.003033672533835238
-0.06267354274042239
-0.14398669593396904
-0.0329602870761307
0.09038161012003551
0.046276216318934665
0.04848300194185617
0.09909475542708299
-0.01309443493508112
-0.11007838277122649
-0.018938604227903437
0.035134634480678606
0.03518038079842604
-0.023128327127909454
-0.12976184998242468
-0.06185991514567516
0.011226211150952346
0.12006618587110215
0.08654407456812442
0.11748466338808779
0.0030336695164335523
-0.07946608185196347
-0.15763900215286442
-0.05544400725314436
0.012982090809074408
0.04516317897102301
0.04803777207809545
0.03339988488421216
0.013182078523018234
-0.0038507173059814546
-0.013403091922475664
-0.015204056692488097
-0.011542880181261166
-0.005583225619699753
-4.316278146764764e-05
0.00349229664053944
0.004649384605465683
0.003936303022092056
0.0022597913737694465
0.0004952057952188651
-0.0007754511876372838
-0.0013376008240988818
-0.001276239626449003
-0.0008395065371485001
-0.0003014356159222509
0.0001329859678160853
0.00036637313405405217
0.0003997905103745823
0.0002962641793423132
0.00013837344430217707
-4.679793467734692e-06
-9.373634040504752e-05
-0.00012085663670347508
-0.00010033052899379108
-5.605721450562164e-05
-1.0563663134055418e-05
2.1515924862375456e-05
3.5104736631840664e-05
3.2756371536661154e-05
2.105621003044334e-05
7.087207544492446e-06
-3.961491448651497e-06
-9.717137636278268e-06
-1.0328908030997376e-05
-7.4951833563748e-06
-3.3649875893238962e-06
2.976359254278224e-07
2.5223094399347856e-06
3.1434265937624767e-06
2.556231359868888e-06
1.3875923776453195e-06
2.1546265810314165e-07
-5.933760096263234e-07
-9.201299239742853e-07
-8.399599550644267e-07
-5.273124887346149e-07
-1.650589005764086e-07
1.15622548978589e-07
2.5716654739132804e-07
2.665358743619099e-07
1.8935156548993505e-07
8.146943860749928e-08
-1.2196005316553372e-08
-6.765874146507278e-08
-8.165445463180402e-08
-6.504815540781019e-08
-3.425704107238033e-08
-4.092094322285708e-09
1.6270456463604894e-08
2.4081091288309946e-08
2.151408792716207e-08
1.3181207059819661e-08
3.798435412801538e-09
-3.322856692791819e-09
-6.792623474002395e-09
-6.869967246435831e-09
-4.776675629495617e-09
-1.962680212850262e-09
4.2985731640154933e-10
1.8096682094170218e-09
2.1184276418006323e-09
1.6532122440717626e-09
8.433389064493413e-10
6.792616671193132e-11
-4.438886575985279e-10
-6.293180121933878e-10
-5.504090430309275e-10
-3.288487798602718e-10
-8.611561839794412e-11
9.432410121296004e-11
1.790826627233948e-10
1.768701746243014e-10
1.2031763948187556e-10
4.701656331445088e-11
-1.402482986799739e-11
-4.827479150725451e-11
-5.489276840330151e-11
-4.196326358615211e-11
-2.0697056306787515e-11
-7.872367594924471e-13
1.2055956962527559e-11
1.6422988857640336e-11
1.4065073048248924e-11
8.187279897077176e-12
1.9151687830753886e-12
-2.650639283699618e-12
-4.713068466530579e-12
-4.548394989528858e-12
-3.0258966305017123e-12
-1.1190033967205077e-12
4.3649371305912453e-13
1.2846054140640211e-12
1.4206641871779956e-12
1.06375287403934e-12
5.062142630415043e-13
-4.414342983491695e-15
-3.2613421913280646e-13
-4.2800379671105134e-13
-3.5900004384413845e-13
-2.0339522635669704e-13
-4.1516084330894624e-14
7.385504415637601e-14
1.2382310438529516e-13
1.1682679768082064e-13
7.596855207668314e-14
2.6425181357303368e-14
-1.3164725431019152e-14
-3.411155244815547e-14
-3.67304277564582e-14
-2.6935865283237103e-14
-1.2341032162066902e-14
7.400792921096804e-16
8.784378010526073e-15
1.1133273558092335e-14
9.146021373765187e-15
5.034795939681532e-15
8.616345949437969e-16
-2.0494184558553997e-15
-3.254146456699071e-15
-3.0035516601100285e-15
-1.9102594865931796e-15
-6.246762198820929e-16
3.8169961341132445e-16
8.975965637284074e-16
9.422787443740336e-16
6.748720233103139e-16
2.9337874492066675e-16
-4.134224437628501e-17
-2.4209409825368146e-16
-2.954789635811146e-16
-2.3897226350274195e-16
-1.3055312919231133e-16
-2.3094819721367802e-17
5.024731234270317e-17
7.91328786109292e-17
7.088179894160081e-17
4.17058186552588e-17
8.387652627677901e-18
-1.716198582080061e-17
-2.982915024653352e-17
-3.0395130476336574e-17
-2.3127735035444128e-17
-1.317001714309094e-17
-4.6150968574609404e-18
3.8457784831762274e-19
1.5756853821493786e-18
-1.4452817015443887e-20
-2.868547664304564e-18
-5.632417756260972e-18
-7.477354353312484e-18
-8.165548057691857e-18
-7.90722940944364e-18
-7.130565983761154e-18
-6.2681090632232465e-18
-5.620303211826084e-18
-5.310317712968985e-18
-5.3107455966066204e-18
-5.507450644209366e-18
-5.767010244921541e-18
-5.9854030932257034e-18
-6.109647711308857e-18
-6.135578468830619e-18
-6.091216365043368e-18
-6.0162104701179865e-18
-5.945203800120645e-18
-5.8988692754585654e-18
-5.882594054184353e-18
-5.890413547019435e-18
-5.911040383992374e-18
-5.933338953528364e-18
-5.949742033587388e-18
-5.9572999123681844e-18
-5.956904350875172e-18
-5.951599685282778e-18
-5.944842968353656e-18
-5.93927439792066e-18
-5.936194035371692e-18
-5.935648593664376e-18
-5.936877177293007e-18
-5.938845152053889e-18
-5.940667303822376e-18
-5.941828994558841e-18
-5.942210541279992e-18
-5.941979484591152e-18
-5.9414328592247346e-18
-5.94085701294978e-18
-5.940442241022013e-18
-5.940258723675496e-18
-5.940278755705594e-18
-5.9404213350940195e-18
-5.94059699521184e-18
-5.940738811363374e-18
-5.940814990736976e-18
-5.9408258836722864e-18
-5.940792069707991e-18
-5.9407405113657505e-18
-5.940693802822157e-18
-5.9406647291806335e-18
-5.9406558822711544e-18
-5.940662595493303e-18
-5.940677063523942e-18
-5.940691927320637e-18
-5.940702403452475e-18
-5.940706829199067e-18
