0
0.00018404348225796333
0.00018404348278242404
0.0001840434832035199
0.0001840434832537309
0.00018404348269303908
0.0001840434814431768
0.0001840434797200834
0.00018404347809825307
0.00018404347743572997
0.0001840434786158294
0.0001840434821264918
0.00018404348759032884
0.0001840434934483439
0.00018404349704239205
0.00018404349528718344
0.00018404348594284288
0.00018404346920946655
0.00018404344904474594
0.00018404343339456915
0.00018404343259201353
0.0001840434556506128
0.0001840435050564173
0.00018404357175406873
0.00018404363291045666
0.00018404365517026263
0.00018404360498666146
0.00018404346504265963
0.00018404325220552697
0.00018404302905590048
0.00018404289958034604
0.00018404298195814277
0.00018404335855824253
0.00018404401456090553
0.00018404478884981264
0.0001840453684980938
0.0001840453548689195
0.0001840444103223746
0.00018404246001514402
0.00018403988131997226
0.00018403758032962335
0.00018403685220312079
0.00018403896871357884
0.00018404453792101905
0.0001840528192695118
0.0001840613057683159
0.0001840659341896979
0.0001840621842144098
0.00018404704081840975
0.000184021353852383
0.00018399166251271357
0.00018397027497732993
0.00018397255120402198
0.0001840111046072083
0.0001840879917554747
0.00018418757133606645
0.0001842739400837916
0.00018429686590792918
0.00018420822629972602
0.00018398694846015614
0.00018366509485435382
0.00018334290359089793
0.00018317896048725715
0.00018334591186885212
0.00018395354242587962
0.00018495818444850572
0.0001860951695505218
0.00018688098649391043
0.00018672454128015642
0.0001851560148185521
0.00018212879016677594
0.00017828806587305224
0.00017505444139508813
0.00017437388623561828
0.00017806367142584998
0.00018684208448323074
0.00019933656044833682
0.00021154651248609012
0.00021728951089135772
0.0002099816911576429
0.00018564940070098018
0.00014640253694189043
0.00010292582826631894
7.419028474060283e-05
8.291350607211695e-05
0.00014653856695152968
0.0002655760443187917
0.00041352385453930667
0.0005342482813430806
0.0005524474334879696
0.0003996338833968829
5.183967258565059e-05
-0.00043273329727420756
-0.0008947017826312771
-0.0010933110204716095
-0.0007778245947387679
0.00019477239118541266
0.0017269239099252673
0.0033892588288741217
0.004440179872459863
0.004011116336065328
0.0014624655309827732
-0.003166053893473975
-0.008778106433207705
-0.013146220746078302
-0.013356279335391132
-0.0068619063137778085
0.00699880238219081
0.025468719987225427
0.041503685761423284
0.044284699035004454
0.021509073114389904
-0.03682577850844916
-0.13430994751081077
-0.0654866282777254
-0.016371639666935348
0.031349698485374985
0.09370059509519185
0.17811844617088365
0.0806146855982942
-0.011621695357042943
-0.11256976760424327
-0.22772394248486302
-0.14706773680615645
-0.044742399885305685
0.11324386794507417
0.15567457667089446
0.2925482501387425
0.10735320824037232
-0.04083727413934164
-0.20562852036860668
-0.23642904553175753
-0.16329521100403666
0.010486666787591246
0.10564709683649044
0.15604181780385046
0.19484790759515905
0.043679348772969695
-0.09149878093055089
-0.017123483496085543
-0.14400268486232468
-0.07857760366306309
-0.01720456092956775
0.05452958033682338
-0.04237046699364827
0.11261655765475428
0.13239261616667578
0.017719218449576336
-0.04311892995127175
-0.07066786283153302
-0.08860380566144574
-0.11868312756905063
0.021557674419070076
0.11795867261920598
0.1573543324795476
0.1264652807569527
0.014409249173995239
-0.18101014677134966
-0.24592666185932094
-0.14645009527353536
-0.03202607615538693
0.15307908126430253
0.2535192923525983
0.2881785495951558
0.04349098816984731
-0.12190782797499318
-0.2628557102485555
-0.2296569485210513
-0.05379569333818189
0.057392177852879936
0.11623425650528159
0.14378711841548283
0.15795066254941173
-0.034375447500861675
-0.03856681389541643
-0.0675576027657341
-0.13407439241555405
-0.04353772557350681
0.009503510120230903
0.04041576574690002
0.07002481179106776
0.11898591632033373
0.0034270913025921655
-0.06670247560836229
-0.08676662883247752
-0.05560617611238572
0.025401703272039645
-0.04862580949144154
0.11144777803874804
0.08637926955992746
0.04820290830922979
-0.036655476499609194
-0.000785770954371963
-0.0672692596236658
-0.041796541767660074
-0.10812301146013965
-0.028832522314910666
0.04797482056249616
-0.022867140078786832
0.00259194442744958
0.14487450810687702
0.19354160686218774
0.10776456313081349
0.026322082583663906
-0.11462646453350754
-0.3610005898251867
-0.32466664730716754
0.02169303592891264
0.1359536017411815
0.28713948875619316
0.3329595020278704
0.1031638418708581
-0.2054558205406758
-0.22219021257021032
-0.188527166786586
0.055914413516419834
0.08255291980507111
0.07670360768383004
0.0357231317317125
-0.03504407433164872
-0.12680685514587692
-0.03185670699721332
0.051966044668223146
0.11755376946111387
0.14729258303230386
0.11634540177709318
0.0013006370543025612
-0.20751137658626445
-0.29452928277678
-0.21424902544776334
-0.09799698939040072
0.12721597245256652
0.31270171693280246
0.4643999286115697
0.33202146298073193
0.01809237654570313
-0.3934014497645793
-0.39752778418130214
-0.4324608948085479
-0.2612764668215325
0.020481173211532165
0.35303112365540856
0.46713734073746216
0.4413577503998338
0.07674396963709919
-0.10269233129157486
-0.22490768588033536
-0.2295332265552046
-0.025724812131095523
-0.46075501048395173
-0.10787512399227252
0.12369049598260735
0.15989445208022549
-0.07716581039684302
0.6932799968287063
0.2862743218871971
0.047739864247201086
-0.32649283891488423
-0.35576809275991933
-0.33634111708818176
-0.11320895618798583
-0.07087383379580271
0.25572978642332655
0.3561070123418215
0.11495722044874794
-0.011261130311395766
-0.005846205546633839
-0.09055210054404596
-0.11464799492035517
0.06076869829656571
-0.02136847251978774
-0.0013149061456889878
-0.09475076666166479
-0.09111365140980075
-0.1584016837363527
0.14637444574149192
0.2637856420120619
0.22009879170521415
0.021578830506402885
-0.14271218177950937
-0.29139075906091305
-0.23969211280603372
0.007423020173771095
0.255165122491953
0.31354151758708065
0.1917264254416719
-0.1030909561262976
-0.3614710612044517
-0.3660095736485364
-0.0904106046592366
0.09247552327509127
0.39504861071588376
0.3988851754403784
0.24752103367205877
-0.14547216557524364
-0.27348535617253455
-0.40660520877760975
-0.16573005817839945
-0.11146386079564898
0.04741604855007296
0.2282413434634069
0.139516170574349
0.04735652998948607
0.153144721837933
0.3891963790247708
0.23513080145555124
-0.04721527442556976
-0.5682714419757618
-0.5681676347937494
-0.5930710369723777
-0.302553187440296
0.29021762359117087
1.1571914463712385
1.195698636640635
-0.005024163700218425
-0.35620169451670847
-0.6241713967664483
-0.9677707822472413
-0.6857616223758934
0.20456584821565352
0.751883353503214
0.629776698439172
0.49202842864383467
-0.0547750953366405
-0.05088091252772167
-0.5585429061326179
-0.42624453810256774
-0.25863532744015
-0.0048210840941523714
0.23103306374639312
0.3621374214606974
0.28595558619320305
0.0576635697624084
-0.12180472458580163
-0.10160040805019431
-0.16478832265372836
-0.006867106771741143
0.0848707710909398
0.04727737319687357
-0.14907504333897992
-0.09725755985376897
-0.1585529446715264
0.12622740232301552
0.22091468590178207
0.17794188817289927
0.027086079746419828
-0.027698384493880023
-0.20345392818966038
-0.12872081919566927
-0.03399418185953139
0.054328333547529715
0.1155880889472236
0.1336799454973302
-0.10434768706442077
-0.00803573012871342
0.018604161849991578
-0.020087942478232788
-0.1094953423359054
-0.025031337089102847
0.06464177203618911
-0.00824779758794793
-0.01779870171270407
0.04890202212188125
0.1876498874579385
-0.022900761502772163
-0.016518663252570426
-0.0308327970696892
-0.09746633699976288
-0.2343126184506361
-0.042996908909941844
0.08723313581892345
0.17074190863313743
0.21606583907525215
0.22093815172393785
-0.024776088764905155
-0.32868644106893863
-0.28285823016751366
-0.25546676601230345
0.006852660936579323
0.16479729735968254
0.46529383293126025
0.3226736898780802
0.1112383758597876
-0.22637938715992953
-0.35793669492810787
-0.3364356842172767
-0.18197739535526317
0.12194253379667928
0.21700623276513167
0.3494648386184424
0.14971530720044748
0.02031849157508575
-0.2639427528487157
-0.14594255679505486
-0.07165508433147806
0.12295241587751106
0.020095096492785004
0.022829278935195436
-0.04680936352042325
-0.1531431507941072
-0.05505433261607303
0.08379115215076076
0.28474996252241086
0.1474283271384809
0.049681886064130314
-0.24453551841024956
-0.17203569416184933
-0.15731347247448352
-0.004920649340123458
0.10001734823135851
0.1842933713136413
0.07611753838602157
-0.003811923677778163
-0.046719547825938776
-0.05525939891320829
-0.03974462379755851
-0.01339860435300839
0.011586295731111041
0.026430795385161573
0.02675600972350208
0.012777700469510133
-0.010781867553636844
-0.03498092574827277
-0.047503966579711926
-0.03457117397285345
0.015914489654414405
0.11054044000947416
0.04718895972462508
0.014008010545294
-0.008553321721030216
-0.04300388046760941
-0.10892312118614829
-0.018007233430977855
0.0282707126974687
0.037823536956303715
0.02462101288990813
0.004277885737813096
-0.010076303244696617
-0.010799030424598973
0.0027157226916473165
0.024006205397647452
0.04106944790105656
0.039462914882557265
0.00673374468613111
-0.06266856388919095
-0.16357124472947052
-0.07928869023449116
0.01478383065142456
0.14354526367687875
0.12302343264118144
0.15345618619107892
0.017883983894261636
-0.11277356825264222
-0.2701836401199095
-0.0787773427363241
0.05019983213933141
0.11887941024268121
0.1384661765805394
0.12371243359243783
-0.11080737220711435
-0.15168448293046222
-0.18637821358590476
-0.0040875754294158895
0.2009385432736929
0.22497947362393217
0.052662389807039856
0.06009682664807433
-0.17628886514423261
-0.26831901270741
-0.20736130376664513
0.03684844775249588
0.10825936397075929
0.2503001150496007
0.4915586093034203
-0.3623479627104933
-0.12766457824658947
-0.03394387269246853
-0.11322292152357738
-0.39218676740621106
0.5100469185790643
0.17944014330295432
0.003507028120861218
-0.02926884052849542
-0.12556085052626537
-0.08076789278440218
-0.07383669861441582
-0.0667599634593641
-0.010238500186844282
0.14540000374373088
0.036959171126069834
0.07677120595314003
0.04638529065735516
0.09774510805666403
-0.03795023712385837
-0.0355342776252178
-0.15883887757072768
-0.04580368921601993
-0.09992422484331005
-0.09067529899259034
0.03686851220920262
0.14560784463803675
0.08771427443331507
0.0891219950376301
0.14199526054204145
0.007792741748555926
0.03062897095008478
-0.04231820203763985
-0.2389974887705643
-0.34616504691068395
-0.10487536774386728
-0.021146164012156105
0.20985318771900488
0.2730951544764474
0.4067657542671475
0.18893937720369416
-0.05674712067237598
-0.4380089670306485
-0.26178073410317204
-0.2048191334971757
-0.09717833233985583
0.07703982395493388
0.3641877136242311
0.2185364375288256
0.08201195691070497
-0.026820943397176764
-0.1124384655576758
-0.1935283668896927
-0.09125574039707522
-0.020143009826629962
0.015221183755020925
0.017572661888072168
0.1909896534693638
0.13529614134844561
0.044219563777598225
-0.09122807285088248
-0.07547036220122717
-0.3009635796806536
-0.14523556804468277
0.0246107592757437
0.24043577705246233
0.3192005272439782
0.25361417668150177
0.013101420300264286
-0.24362822597820216
-0.3489980121566769
-0.30867852019779857
-0.09410675321394216
0.15026307993021917
0.2873377714729702
0.3634750550934631
0.19036432658504548
-0.059863079670193636
-0.24481669809346995
-0.23223389168073053
-0.27926369789273975
-0.018915921218201667
0.14213632435355045
0.2157551522199904
0.22022467287868172
0.17070541746900014
-0.12315140776716968
-0.252296610830344
-0.20028396471481916
-0.1383301694950885
-0.028100704818480968
0.16721019569422516
0.26753180382552866
0.26322382517275283
0.11176638163467267
-0.05286089369611453
-0.3001583176291711
-0.2794331565922385
-0.2016390431097605
-0.03414223833569491
0.08913904881180455
0.24574233991357225
0.2987675879342368
0.07623595183935687
-0.037481556991143986
-0.09603945676880704
0.025968389306137027
-0.14426555666594157
-0.055984378229480075
-0.11972237004528571
-0.10268504893818954
-0.13617767785279497
0.06621671418498258
0.18403247777689133
0.2657799288163686
0.31314819822712725
0.07976784074313123
-0.11371909269385105
-0.3525006800146139
-0.2975948234414616
-0.16390188831109376
-0.11447713001164218
0.1267891309721603
0.24860035970820807
0.3212074079012657
0.1717563908212356
0.1744706722394615
-0.1413208615833778
-0.2687485016045247
-0.2951157652037538
-0.27815963281022194
-0.035003450624449
0.25358330357315406
0.4274943779259076
0.12849308760536363
-0.01317717283742527
-0.1823176978876773
-0.1736600044155766
-0.18331452448609878
-0.0024380709099087196
0.1838292273837124
0.19283319946088942
0.03957706688434935
-0.06600053615632386
-0.1183782206894633
-0.11382397781809082
-0.048479533436164145
0.08085922818673329
0.07329515585373332
0.11969913933909439
0.0006341268158901375
0.08829604386947358
-0.047380517030692355
-0.23030363969142414
-0.0707176752559068
0.03809632905148404
-0.08288733057998811
-0.0064970770806782475
0.29017880707237675
0.21717455281720957
-0.03112637190879944
-0.07104430250761316
-0.11859052490479421
-0.17724040823387713
-0.23045976122513553
-0.043478539434397945
0.02465641339130452
0.2020458909313994
0.28492675212390195
0.42721067633889814
0.5452971505290944
-0.8605388349925712
-0.6747047910565341
-0.33781561250690373
-0.03443603353119194
0.09750066689667422
1.941773404562094
-0.6222875629095065
-0.33392691169899086
-0.34939812721214364
-0.4321739972766082
-0.7466961537324283
1.5374507444859922
0.433666266366309
-0.07135312863952271
-0.41618342036257605
-0.45176769046780607
-0.4256241167879376
0.026188559618425214
0.2744447143596012
0.6835291759168737
0.40013132542729435
-0.04557677222525609
-0.322354122433532
-0.46967779712226454
-0.47187721259420157
-0.24824866048209435
0.1333766208033126
0.4221071991505898
0.5402751853429092
0.34672596403565137
0.020869245538608708
-0.1269244429878187
-0.2231157327892501
-0.3892819496036746
-0.5059955014718172
-0.1947921921990969
0.1762579188424015
0.4671495798894685
0.5327089240351487
0.39690665653214235
0.04659686375562562
-0.35258219801875285
-0.6261368389912583
-0.5618006596992587
-0.297369333958219
0.2664664499144886
0.6319236746096207
0.6630082225130262
0.35618511606461317
0.03686508003597697
-0.4157738930716034
-0.7259310390683595
-0.5787409965727284
-0.19643614677605473
0.2573112274275307
0.6483105427447726
0.8326593874887455
-0.1741212235366514
-0.2064654959744848
-0.13453611531786733
-0.23455320833079737
-0.3564173019019026
0.30014412757225356
-0.005439619261224398
-0.16158452776778426
-0.2251046748422999
-0.0512002585660796
0.2726134518678163
0.5963177448999679
0.2902557402081713
0.04864644276273632
-0.28489247749415814
-0.47695341402033253
-0.4625711641343775
-0.11623106486584807
0.15572669458178592
0.40170719674792077
0.2989492813547455
0.12696341952019638
-0.050195670602614054
-0.18943155669148276
-0.26473808993632253
-0.060251946207424786
0.03387822901939101
0.020138766751015544
0.0880540887669028
0.2082314393334607
0.13050888998066493
-0.010705686024808196
-0.08362348681595363
-0.1417939206858108
-0.2077324651591811
-0.06316972440601495
-0.049720583072085336
0.11962928903764676
0.1413822005590326
0.10024981570113396
0.051575987431638215
0.011670202375490572
-0.04241658365130822
0.03528816666770561
-0.026485094116206254
-0.10025087759386314
-0.04515738627226672
-0.09682809929428418
-0.06364441249706956
0.0702277506101248
0.1367308865911653
0.1739655547133633
0.01798746468593211
-0.10138675889492295
-0.16100437472758314
-0.14349285294454886
-0.038014293146476696
0.15604569673817142
0.22396460824662906
0.13282451179359356
0.03458011560566589
-0.12372883432623975
-0.18503379120740351
-0.16777507814431966
-0.05760378906980926
-0.008864350182473094
0.044092150949370176
0.16921196535186744
0.2182573032772769
0.013289500844592848
-0.05800145693295091
-0.037404888584894005
0.0159192225847697
-0.1593022305803939
-0.012267082644601511
0.029705626475387215
-0.03530663750706229
-0.18699215552807139
0.008269370084810707
0.18487490641113893
0.1653901500753783
0.15231805484786368
0.1279972581150443
-0.13638426770008136
-0.26556829004750315
-0.2649225315191348
-0.11195558114924195
0.04090730272946983
0.25265243758298644
0.17432400774441695
0.23170270738886947
0.016766048381435
-0.10913212696504758
-0.2022277271041413
-0.11897139204775893
-0.10084664144250056
0.03382883757052111
0.08967576132269076
0.08742194059440336
0.054168695738400496
0.014514630482499026
-0.015027879611884122
-0.02767791947409933
-0.02487188041890684
-0.013036253733982978
-5.2563901413547935e-05
0.007633734553181138
0.006836801344692833
-0.0016683335648037618
-0.013482201359645703
-0.02188271574144444
-0.02002782587652291
-0.003856236470309446
0.0248425436447785
0.056126630270488385
0.07156216639845403
0.046862642229100644
-0.04224687233680856
-0.01193094509795207
-0.06214726323319039
-0.17148965032585145
-0.09768672589588873
0.01481415305805843
0.02098421913175985
0.15847301613726247
0.23331068811866368
0.21363374656921497
0.03512285300385029
-0.18198858013552532
-0.3090662067419071
-0.1864480398889835
-0.21030516639167576
0.06609294018318074
0.31731074730823267
0.22271774577506032
0.04393229804383518
0.01001769251093086
-0.08624955324665069
-0.08209961769046688
-0.03229087700040427
0.005185576089230466
-0.0182098818589342
0.06750911618857248
-0.1445580850891998
-0.03838185617638219
0.020164769035510434
0.07462188161306495
-0.03281154481388489
0.1284240038667724
-0.030061307790610052
0.08189117219341809
0.035996758467862766
-0.006519588535552909
-0.08385766697693481
-0.022358128691522663
-0.22840277782879978
-0.08646151678235528
0.035360692733792665
0.17351679911763418
0.1549185119232125
0.18599490962860618
0.0495486770200314
-0.08893148911637674
-0.2677454206485278
-0.11355840529122481
-0.030163967098835218
0.004383079701383467
0.031541832735662925
0.09949108067708298
0.04811457884514313
0.09633917282864733
0.035391624377943756
0.029781431892592587
0.025775866669613776
-0.03478219316626269
-0.19894284663107537
-0.08977745009825587
-0.10015454820932417
0.00462205441041578
0.07591160229515713
0.16601635833480097
0.11283797298498406
0.13004785752039372
0.006007679676187105
-0.08842745585460422
-0.18629160296959443
-0.11024363672546915
-0.06296074055956938
-0.02560141583024842
0.035334051403174305
0.15543625637718514
0.1587394413299088
0.047917211822425906
0.0017911571761038499
-0.01907430693357029
-0.06077606812923099
-0.16251383575187714
-0.14563784466357335
-0.00892210950742941
0.06854833814048931
0.1183495863411936
0.17134139898897524
0.04839104946151089
-0.043665193090331254
-0.11029391383789296
-0.1638143931044695
-0.017504288005288013
0.1181275908434737
0.036284126677545256
0.13335946266321966
0.008913442368476692
-0.13282430946564439
-0.08059666239065792
-0.014881024727864735
-0.10975261451067903
0.06146771413126969
0.11796995282765771
0.06336169381411204
0.0810351333969775
0.1355490765937626
-0.01931529438186914
-0.22762253534412327
-0.11750492885675028
-0.0915959138094931
-0.12576231262896556
0.02259517726953867
0.19896475358776483
0.23414440860821947
0.1312115613399885
0.062403234629362744
-0.022214320187005962
-0.17684999739972232
-0.23904391825756874
-0.21328373410645432
-0.06545672775455752
0.0693696262065671
0.2682688617207742
0.1973845472163365
0.09241861947049078
-0.05114839894636816
-0.07590722885104877
-0.05035148750017014
-0.05109155497372107
0.055741922851115164
0.03003712516527805
-0.1325035879808791
-0.19823054412954041
-0.10239920155863634
0.034971244055102255
0.08671441309263123
0.2950555171841916
0.25434910555681783
0.10662854383360139
-0.046879275461607334
-0.12035759862417857
-0.21122045348858048
-0.371055679899183
-0.18914850907474837
0.005621699074268021
0.12464242178672434
0.28760799132597026
0.38944520161806956
0.2773303870105792
-0.054684541438231905
-0.25265541263745694
-0.3777948833939772
-0.28061407909830505
-0.18491383368589145
0.11258732830636713
0.42854639805602623
0.37316358685314466
0.13465432229323535
-0.12424615963153753
-0.25646120814985474
-0.31275385199755845
-0.12448819348172306
0.10584549349093769
0.20384460058035178
0.2146797612197289
-0.008009873674595174
-0.21149463269309401
-0.15025266566117398
0.009619183194587556
0.08644669948510182
0.279865887211001
0.17085681116504722
-0.07282751236406272
-0.2861006481252827
-0.2946155351185524
-0.10714587222311002
0.0835497182399068
0.291626688934423
0.3257939256744429
0.18076222765129057
-0.16240789896627048
-0.3270723329199819
-0.32822670489305117
-0.1638329342255691
0.18438927450203194
0.34096282795836763
0.3233018573017128
0.13304879602895253
-0.04245419783878665
-0.419036320263907
-0.4013153543720329
-0.17404044267980207
0.09429558537684869
0.2354230906916787
0.4596680723726841
0.33937697242665954
0.006680134337425951
-0.23111694506814082
-0.2630814220889937
-0.34367922033234244
-0.2711782865637219
0.01626781835697277
0.22532643000810373
0.2786038229601069
0.2824860390587968
0.10242017431779292
-0.047412027609077305
-0.19905467861942971
-0.2148767530026741
-0.1681023026986628
0.07364367537584847
0.2585585030525061
0.15536315020207606
-0.044680735468748636
-0.12639344221369522
-0.2505952721828529
-0.15816298682265797
0.019200125376795822
0.14177129725261098
0.24237879969596868
0.3116052265385909
0.09428412545587204
-0.09944641780297621
-0.17061179326400083
-0.20246678609674268
-0.23568804207116104
-0.25619217778501446
-8.222452216742065e-05
0.2254445000398624
0.31205806333012964
0.3215838055706871
0.2688973582227328
-0.0776427910104288
-0.379334795939786
-0.501829513478311
-0.2928519660913198
0.027608664960893106
0.4621730998932726
0.6219187056174043
0.3140574790821494
-0.2594192620092246
-0.4907347361009665
-0.5506506854526149
-0.38035717199723507
0.09998185691077358
0.7662063383436059
0.659016180746868
0.1620946656444043
-0.1986530163928563
-0.33322899367530767
-0.5525157808974112
-0.33514291103279326
0.09080441149933362
0.3461338382242376
0.2830637820012786
0.16198596818649655
0.032815697191053386
-0.0731627469919092
-0.14097654803060353
-0.16362950494812564
-0.1337783786633747
-0.04023309575525888
0.12896454221181555
0.17866041482373465
0.09819068170232848
0.05713362836889847
0.008044525995243386
-0.10402126654546938
-0.12818069581379635
-0.09504823097637527
-0.008902850249508905
-0.04711280699522719
0.03324783606141003
0.08391004848454908
0.1527696330587093
0.07408176941291829
0.06446517938991393
-0.0744550278380933
-0.14855794873788816
-0.16272481551654414
-0.1156363739034905
-0.0006824414983524499
0.1872140665952507
0.24228704526971204
0.14138077409603914
0.04466483634480639
-0.09513674148652178
-0.3180199613044088
-0.24267556603046517
-0.05973881974784273
0.06398528591659224
0.1715392641063079
0.2978736010862004
0.2557903580916883
0.03215918016302308
-0.20361603932912592
-0.28246618507160026
-0.21759916795073767
-0.19388135690312738
0.0302323181209496
0.30870534625551543
0.2877580516533751
0.18822476126180324
-0.0020636079921797098
-0.12296722992585858
-0.22657227702157817
-0.15837554405282905
-0.1426996966981626
0.02245649321955774
0.16010033539537785
0.10153571306582869
0.07177387341560271
0.07862309114569109
0.10910743059725889
-0.06591563468479654
-0.08080597987640249
-0.16184873260483787
-0.11655346219530367
-0.12975914665323754
0.031597450929999105
0.20648392492717868
0.22501674288679155
0.09684278412199893
0.007446346601919422
-0.07615227979971316
-0.1927942708895126
-0.17287231067579875
-0.027858553734027347
0.05277791080249572
0.09700951769896221
0.1407821023829644
0.01772705413219343
-0.048492456254427066
-0.04764650896195878
0.017402855111089896
-0.06655320401544536
0.08071485958473651
0.036905862774797356
-0.01886240076702814
-0.10249466913241652
-0.022387656564290863
0.021286718835447964
0.03516020316639032
0.02965614494300354
0.01556414017406786
0.0013627945676390077
-0.00807468126621612
-0.011396585418697676
-0.009760410321691634
-0.005490779018741074
-0.0009088989855502661
0.0023900386065694424
0.003768407956882004
0.0034063755742435044
0.0019754019096882842
0.00029115826536510925
-0.0009524513539053337
-0.0013368272059063088
-0.0007761123667347931
0.0004907990268192282
0.0019556696138137222
0.0029478150432458577
0.002807745570067213
0.0011285656483837293
-0.0019754259195436993
-0.005668438319514139
-0.008397263030138203
-0.008228714511195742
-0.003569928345157461
0.0058306581019962
0.01788916870258909
0.027627228417539257
0.02747178590247451
0.008606367796710633
-0.03689403246567072
-0.11395699692304297
-0.023556388738114525
0.036270789701644324
0.06758271343693473
0.06916928959886894
0.03452939766793962
-0.047401604334001805
0.011445492674555776
0.0039190325677762195
-0.06653173341810056
0.01820637406110129
-0.10848213254955723
-0.20193995894480582
-0.014978510465305213
0.2902278777940201
0.5308363168458311
-0.30251672245958794
-0.0429000375379118
-0.13657764964943236
-0.22972179357477004
-0.35824623058839034
0.6557169613048706
0.20132205059328284
-0.12551490266026827
-0.12452767726469167
-0.19033680833357736
-0.11075578312447941
0.133011941773534
0.363649997177253
0.004473311816214421
-0.12172103740708712
-0.19103638129163641
-0.17632024246709532
-0.04789649980348053
0.22099919372272245
0.24552926297697758
0.021317507340205114
-0.07869498913306437
-0.1010180395010137
-0.10348370803421139
0.05470818587049503
0.12216674399319673
0.06259171273469417
-0.13997670954374045
-0.078318735175014
-0.12280767454166622
-0.027087208069889308
0.06136646868202414
0.1879962731656624
0.17922226096939417
0.036034744184166065
-0.06442476573473654
-0.15996010004739866
-0.09064783602591155
-0.08710926472709961
0.036567029826438634
0.08395095170660606
0.07260324137919653
0.028160428021274747
-0.02136732642877332
-0.049766403779732835
-0.035245440628494405
0.03778637192878233
-0.02281932442819075
-0.01831127684272351
0.04024081853701439
0.13260895955700905
0.03216298417844132
-0.08909796300324918
-0.054166418668705224
-0.07542399627433023
-0.15235230640397893
-0.07423681830469542
0.1724119293956101
0.19441794206165178
0.18500723939515024
0.12387382032476422
-0.013747982584136073
-0.24113629392830635
-0.3433851921071864
-0.2679722498567303
-0.12904371232377768
0.1731161762035288
0.5226123039376828
0.35893635954164793
0.05995075824276998
-0.0558606954828835
-0.10821659631525728
-0.4225316623647385
-0.29744025765654347
0.017091592199976705
0.1251537447547875
0.07426624337380487
0.13453900576568756
0.17564161239458462
0.048709288570726525
-0.02250325847408489
-0.040368459724003256
-0.02424095545161191
0.002494733198765224
-0.175406941700089
-0.1577514346186958
-0.12928386486792642
-0.06834736580192272
0.23880864071855495
0.5841444039768594
0.5322805032353889
-0.37076009745737154
-0.37502898289942616
-0.4991863177249646
-0.5119197465257566
-0.3339141052437024
0.7368402804844804
0.7851494311805297
0.44133806043722723
0.06412514177419752
-0.24759995708250193
-0.41856390439320224
-0.5514833007966891
-0.29033221538078813
-0.006384305166745279
0.1885276096405134
0.20737630692583278
0.3449717016716341
0.24174195475312243
0.26645185572082397
0.12379563014016075
-0.1149658266717634
-0.5676566902794012
-0.497717932692614
-0.28703918822372754
-0.03560659375132688
0.21100395033780092
0.615619733448974
0.5011593858385006
0.11672540439929478
-0.17132800767229642
-0.2628146430335748
-0.2903028246211545
-0.18197304860433852
-0.03252560338037934
0.11125649035642396
0.04972238978709749
0.018244637518796555
0.06955825179219267
0.05605260564135432
0.01622397176468654
0.16795001805106652
0.10961524371473143
-0.1717604446866933
-0.2883723468970733
-0.04015046537807322
-0.00863516189824664
0.04138255424796475
0.1534549235251745
0.16787582199357307
-0.08900310792083731
-0.21180835828919944
-0.018958350847584876
0.04803592905141742
0.3285635105577256
0.15132403156316585
0.04841560100409978
-0.22594853735144035
-0.2770030720194876
-0.6590933178425431
-0.08071315025252251
0.372834612929779
0.40497995366498063
0.47464047329474324
1.3790297252248451
-1.3383917941566699
-0.7575474457526187
-0.3438974553374121
-0.12280874907956336
-0.6792126039525009
1.618257640886564
0.5824849376266653
0.18203368823740515
-0.26069795511918864
-0.4451472557596857
-0.45353652075172163
-0.31527806985389495
-0.19054161134463524
0.02002471575899925
0.24293422787269287
0.5890056933793191
1.1163546068275576
-0.786415664733196
-0.19085902079626618
-0.19866759453646018
-0.3047585322140892
-0.7680338940097303
1.001337724690491
0.23765005671942754
0.004898605203488544
-0.21995635287599521
-0.16069937100091594
-0.15265614099050798
0.047172559121463384
0.25011741424156725
0.22864246411479586
0.11633927735601174
0.018291769328198718
-0.16878167218093754
-0.33158084611995337
-0.11813352388206723
-0.12577644145132802
0.0970922599303058
0.23677798457464974
0.193033059297497
0.057781719252121014
-0.10073568326134139
-0.2465071910584104
-0.17839277816229898
0.07070558944599571
0.4374916684048791
0.8369690069707562
-0.6208173605184365
-0.4066951294677725
-0.3482663482791527
-0.4173503022996962
-0.537987298214409
1.1847452515068824
0.8254844692632423
0.2060424732520215
-0.31528185897598193
-0.42819558258806634
-0.43730626086273744
-0.22693318079322658
0.16268747408474407
0.34219188823528107
0.16548955496365816
-0.08528424526555402
-0.1160258766753867
-0.23542656489966096
0.031589914882063905
0.13143718472716584
0.2721615771925255
0.22015566502034134
0.10672648693724891
-0.3551781404215355
-0.24843740148844143
-0.23126414566135708
-0.1265496622286735
0.07510269266593299
0.40074204503647737
0.2759534861060722
0.11009593202641972
-0.10778530870676768
-0.20152190295516084
-0.19346741519073157
-0.0904991456871357
-0.07666814295709566
0.08473875513033118
0.24106439249502498
0.03634141323441571
-0.10144863444164945
0.031715037341993976
0.014213814851003348
0.0031283043614052084
0.14381144329716883
0.18369712887068182
-0.1113968774996743
-0.3418334702231215
-0.26480248147522745
-0.19663244844177508
-0.029661903452719712
0.3389202464702879
0.5747920747542238
0.28255642498054295
0.00019027125791996053
-0.18476725006038947
-0.40269231676960304
-0.3649114426552764
-0.13541443992774072
0.07984464516657341
0.12450336461830812
0.2697430458640435
0.18820313571153505
0.13336155010772344
-0.06951870487122642
-0.01978165069887791
-0.12866728533484792
-0.20388481112600487
-0.2382957460533511
-0.007713423334409096
0.12076269999707319
0.17279777438817512
0.14959266960842774
0.21666424019312455
0.10402972173285883
-0.08074526784263716
-0.22981577350025115
-0.20965160206530373
-0.24147811595614818
-0.09444513824214082
0.10594393706927707
0.2570601052915904
0.2533834581836205
0.16466554543524134
0.024922394527152947
-0.16555039904897104
-0.22821883444880073
-0.1910096594260303
-0.07663077634258302
0.10125498860830699
0.134108916556515
0.21076088295418763
0.11129404653425008
0.00683721597906793
-0.13369109953885483
-0.13250375601094758
-0.19256058586965852
-0.09302091401380495
0.006515458244149971
0.15359233919310136
0.18641496872476643
0.11937779175331147
0.1362403282982145
-0.006101085590239514
-0.16416574045642054
-0.1892833153628065
-0.11034499292115273
-0.12400791068089535
0.00423351816577284
