0
-9.602647172768096e-05
-9.602647170618556e-05
-9.602647166685574e-05
-9.60264716187223e-05
-9.602647158039639e-05
-9.602647157645834e-05
-9.602647162880866e-05
-9.602647174431965e-05
-9.602647190272579e-05
-9.602647205085928e-05
-9.602647210975462e-05
-9.602647199859053e-05
-9.602647167344296e-05
-9.602647117034798e-05
-9.60264706339539e-05
-9.602647030927782e-05
-9.602647047921375e-05
-9.602647134710232e-05
-9.602647289034532e-05
-9.602647474040078e-05
-9.602647616361062e-05
-9.602647621083635e-05
-9.602647406014043e-05
-9.602646949568367e-05
-9.602646336589305e-05
-9.602645778307431e-05
-9.602645581602305e-05
-9.602646053284194e-05
-9.602647348852098e-05
-9.602649308035204e-05
-9.602651350494731e-05
-9.60265251800512e-05
-9.602651727348092e-05
-9.602648231592969e-05
-9.602642183389655e-05
-9.602635081884394e-05
-9.602629815461026e-05
-9.60263004464865e-05
-9.602638846322332e-05
-9.602656858591348e-05
-9.602680550791907e-05
-9.602701543778359e-05
-9.602707925111768e-05
-9.602688068896874e-05
-9.602636531556795e-05
-9.602560322937462e-05
-9.60248268007868e-05
-9.602441034338074e-05
-9.602476803348817e-05
-9.60261729340301e-05
-9.60285405174693e-05
-9.603126276595612e-05
-9.603320396375038e-05
-9.603295410669989e-05
-9.602936457282971e-05
-9.602226589878048e-05
-9.601311962849083e-05
-9.600524472454267e-05
-9.600326002545986e-05
-9.601156248507295e-05
-9.603203148371852e-05
-9.606164135721438e-05
-9.609110546017366e-05
-9.610581872879982e-05
-9.608996835115119e-05
-9.603362559842675e-05
-9.594105419010666e-05
-9.583684679112951e-05
-9.576560484249059e-05
-9.578157186124846e-05
-9.592749779339489e-05
-9.620689982611219e-05
-9.655955714376115e-05
-9.685419334558195e-05
-9.691192901641127e-05
-9.656680654102801e-05
-9.575507729520185e-05
-9.460594341180649e-05
-9.348987918442772e-05
-9.297609633519188e-05
-9.366737933081696e-05
-9.592250872755827e-05
-9.953782005245004e-05
-0.00010352111287898245
-0.00010612293478591776
-0.0001052592112285933
-9.934409078411711e-05
-8.836066592179953e-05
-7.477996858708009e-05
-6.378727651868348e-05
-6.230214398652106e-05
-7.657494423798559e-05
-0.0001087181556541142
-0.0001532635314678053
-0.00019545687034664967
-0.0002131393209452974
-0.00018336982835625182
-9.327698992206617e-05
4.775275091222654e-05
0.00019978142088549698
0.00029426802801019305
0.0002512437986781838
1.2087902818154649e-05
-0.00041919358976931406
-0.0009415921462071463
-0.0013505701194130757
-0.0013787584943414487
-0.0007912219147060325
0.00048000581945042026
0.00220566066012416
0.0037999981877658053
0.004403059906039128
0.0031461647354124865
-0.0004237724395264562
-0.005878068988979777
-0.011604180108648911
-0.014913345248789366
-0.012746601461746138
-0.002986935347884731
0.01390052357405843
0.03348728348311488
0.04703735653778365
0.04288879824116455
0.009766552828127863
-0.058612627641740016
-0.15922555833111937
-0.07782996696280008
0.008887377922275614
0.12703531102731655
0.0971282834690839
0.1269485936350861
0.00875082699176407
-0.07795107348110027
-0.1592551745701617
-0.05849030864612282
0.010054449543062782
0.043282243934257704
0.047393909999759315
0.033605870911819546
0.013585562039887894
-0.0038280999453175375
-0.014000517141420372
-0.016198317479330385
-0.012303337213434282
-0.0053066652986527435
0.001873566543532523
0.0070391129006747094
0.008901458381926918
0.007044944893955655
0.001884588092368869
-0.005292255305389773
-0.01228912696588106
-0.01618977435344043
-0.014003937618630223
-0.0038481982502694793
0.013548967925811537
0.033560840171131895
0.04735723571482204
0.04327644039573618
0.010100071359016407
-0.05838593254062739
-0.15910928734224294
-0.07781133272339387
0.008812115963059211
0.12685576571524004
0.0968376424249089
0.1265752304761236
0.008386172609064865
-0.07814923846389742
-0.1590999866697706
-0.057845812608808826
0.011169262945632856
0.04460614936971447
0.04840772455300879
0.03363817544712193
0.01205775474097457
-0.007058405565324128
-0.01831134090874205
-0.020063100520490443
-0.013520924843518377
-0.0017116747037117172
0.011273363994369904
0.02077658872607672
0.02210099308319336
0.011372456965101682
-0.01320701524911735
-0.050073759346433315
-0.09369064700094934
0.06469712774488738
0.0347841762918223
0.024099780567508784
0.035362802545523625
0.06548686944787216
-0.09329639125177908
-0.0506833700336161
-0.01513171233532195
0.008395624922427073
0.019047790872005387
0.019212752312135616
0.012891915165887939
0.0041386897666165524
-0.003917591435269893
-0.009350518538749037
-0.01123233413706634
-0.009304102756487067
-0.0038281152767211295
0.004259367250699695
0.01301669550302112
0.019296780789474298
0.01903581170922463
0.008241751194357721
-0.015435015743093337
-0.05107718090629084
-0.0936435667271546
0.06538110295572214
0.03568901114832294
0.02494788202775598
0.036040152869201224
0.06598015834865215
-0.09299595472926957
-0.050650642482609344
-0.015509516590057261
0.007475872715900535
0.017601649583066394
0.01753437826955723
0.011601229267806597
0.004070553334752886
-0.0020125403779149642
-0.0052454912270942025
-0.005660410023970784
-0.004167126425185181
-0.0019385429016485298
5.480789467573117e-05
0.001273796753449756
0.0016202440864195732
0.0013052597690509414
0.000669507125554515
2.9116720676809567e-05
-0.00041416150623170377
-0.000594172237616504
-0.0005515065514768307
-0.00038189271376297217
-0.00018615495407957468
-3.664934805894261e-05
3.545410726714313e-05
3.563529245874642e-05
-8.295169722213904e-06
-6.267121492343956e-05
-0.00010113183403005419
-0.00011185608924478022
-9.864414254646454e-05
-7.702133193292541e-05
-6.708556576064123e-05
-8.4942735411885e-05
-0.0001347073384666836
-0.00020332468035365157
-0.000260644904257014
-0.0002667112454249493
-0.00018658498273858834
-1.0078916717428171e-05
0.0002299031079601669
0.00044970213480264725
0.0005275044850184798
0.00034160923398509415
-0.00016955265148839796
-0.0009424452198912667
-0.001747466891136206
-0.002205985777295166
-0.0018905590447281049
-0.0005072004186344702
0.0018825149842281327
0.004685871856269816
0.006763576737755019
0.006675165425716149
0.003215893673492354
-0.0038502178821658985
-0.013108955822407361
-0.02123344577565692
-0.0235174533811964
-0.015413394554026882
0.00507926741051093
0.03481954799760191
0.06381391136657798
0.07563088443679168
0.050802387743984656
-0.02694282645716033
-0.16322364076225981
-0.1472470417113963
-0.15097058011662395
0.06492381865733515
0.13916691510850712
0.29616830804053274
0.1361052376608084
0.03355023443803568
-0.2541548266831743
-0.1719643723104285
-0.15175694300783962
-0.002548468002508318
0.09058970246360272
0.15971502172082924
0.04299245396725133
-0.026143947968760885
-0.02653228471594578
0.04755870627563768
-0.012813697102089003
-0.027746745973628258
-0.023528054307108123
-0.027536028984919164
-0.0641135603786145
0.047985127235125706
0.09672459029066298
0.07732215052228956
-0.00687656173680741
-0.14301174041637815
-0.10792755941438516
-0.06989555227500417
0.0058372826035260434
0.1482431991508364
0.17118152323917588
0.06738533551534599
0.00886882661213274
-0.04553585269626521
-0.13770098949274934
-0.09702071841008636
-0.13114317306621076
-0.02390011889565439
0.05882277648636155
0.15738905470868939
0.1051295490408851
0.11823826469860758
-0.007746839466678871
-0.09414963987478128
-0.17017724624909325
-0.06269326566631611
0.011340976946058186
0.0475601529110058
0.052197508183517136
0.037315857879630224
0.01565601880072985
-0.003113018162200599
-0.014010895496897114
-0.016440084427456484
-0.012708587133453679
-0.0062366825682603835
-9.605922279813481e-05
0.003808052057041475
0.004912164103637831
0.003720817359269126
0.001333450747919818
-0.0010259975055900367
-0.00236797351332875
-0.002160932294680838
-0.0004397754202695948
0.0021832762284889175
0.004617300443887925
0.005536888501527436
0.003795733909396161
-0.0010306340884176728
-0.008117310772174207
-0.015125093479170964
-0.018485621939155275
-0.01443939974802263
-0.0007901267329502188
0.021022286788956263
0.04429615399070533
0.056849224058157406
0.04298845219941095
-0.012206874926527642
-0.11719726396049308
-0.06880666381754637
-0.049853990603595945
-0.031221164211226903
0.02158357557170254
0.13912822196402425
0.1390967062848404
0.02093469436012277
-0.03381506841183764
-0.055600684703579796
-0.07766655154472364
-0.12700321142202858
-0.018562441484185496
0.04562375273113447
0.07281390106503513
0.07356621654022572
0.05625547464894455
0.024400804270441962
-0.022374523276960122
-0.08464745998625638
-0.15894821756561733
-0.03547453974884554
0.10062863888660416
0.06467983586772891
0.06665642337225576
0.1069895010376571
-0.02400373753409427
-0.14278002770485734
-0.06689056282084659
-0.009516553808683041
0.023610872118689914
0.034166936706279294
0.028813442231333822
0.015889294287295
0.0025789991046973777
-0.006677723295918373
-0.010439293270419866
-0.009548620498699511
-0.006002600100482439
-0.0018939467575885983
0.0012803072175079583
0.002867331293248592
0.002951416904943042
0.002056203267775482
0.0008194091233409054
-0.00024835128732392323
-0.0008763791491185616
-0.0010303538351640522
-0.0008363264143170906
-0.00048258711277026815
-0.00013814203402109443
9.288444816266658e-05
0.00017990796655992773
0.00014847643922848917
5.1790198983594715e-05
-5.593146544566602e-05
-0.00013665966182349528
-0.00017449398705323614
-0.00017266086598796657
-0.0001457907988397342
-0.00011154637610902883
-8.430447784437287e-05
-7.191516174958256e-05
-7.524491002422606e-05
-8.95680386474287e-05
-0.00010685012752777104
-0.00011829909199009531
-0.00011690967853516255
-9.984749017650355e-05
-7.0338972300562e-05
-3.838505186202809e-05
-1.9380511225849747e-05
-2.9918824593384386e-05
-8.089802028427614e-05
-0.00016945530219402563
-0.00027282617016305167
-0.0003482001812727378
-0.0003421570420779938
-0.0002106808151655602
5.387605914652933e-05
0.00039806282392755983
0.0006982855579262695
0.0007810098858174663
0.0004792534022601944
-0.00028137956241608864
-0.0013923463326373253
-0.0025094976080908627
-0.0030859005217603475
-0.0025235669815257466
-0.0004382664349948209
0.0030275618411464253
0.006970288013555311
0.009730341150189878
0.009274192434367322
0.00398381410428971
-0.0062990802693025805
-0.019342356770151656
-0.03023609997416803
-0.03227653044789957
-0.019293748370366175
0.01082926552741958
0.052384561870755714
0.0893466081579685
0.09584789483400093
0.040717720680461554
-0.10423430433831453
-0.15435303079071316
-0.10425680351284797
-0.12551361969135288
0.02830174885143554
0.21026972125618087
0.26642714758404756
0.024880946526558236
-0.1083405074044409
-0.14605607981765506
-0.11205901288490668
-0.03278046740983618
0.06838923881947763
0.17344771555155886
0.07023744223295653
-0.04701476809786844
-0.17630673037654773
-0.10672936893488008
-0.019668797931908504
0.10643794026764322
0.088699460711695
0.13251063507793462
0.02760650590152569
-0.050739763987656415
-0.13581315857967824
-0.06126831565349825
-0.053761148278525454
0.07138084656423506
0.11105168786889429
0.07303889603953484
-0.025852319911832407
-0.16142558915871058
-0.10411889688252263
-0.022827698011650653
0.10883318163501125
0.10507739109914362
0.1622376993720793
0.05793933207627288
-0.043316441067126
-0.1793666892466879
-0.17814714723415412
-0.04874444894323866
0.020715364663488764
0.05766098146060335
0.09453629024803198
0.1573725637046925
0.057783392836306464
-0.008847645664549781
-0.05872400569071642
-0.1108186301758372
-0.17775358963307716
-0.06024711802515014
0.05264428560201512
0.17795562745721122
0.1309443207793136
0.11902367047701395
-0.05950994239362603
-0.21172130131958533
-0.14389070034848234
-0.056929383679545885
0.053763758303638304
0.19393132470267435
0.16428883120001025
-0.04365775914535872
-0.047252117448870014
-0.06786073040777614
-0.12399708146563419
-0.02561078471524931
0.0281104078537619
0.04687597672384857
0.04457850453319806
0.03390672127327448
0.022380047885480172
0.01106180632615871
-0.0038896797562085854
-0.027655548583276093
-0.06266671142974505
-0.10570462844542546
0.05243846915333779
0.024318973801994024
0.02106016310658121
0.04724315615472163
0.09750513859999219
-0.04366881033759435
0.0014765288733327997
0.010242905035894145
-0.03315808001338085
-0.13140844374821076
-0.07122512827769688
-0.025301775853742436
0.04090852180609892
0.15939066862424928
0.1500584773302432
0.015063538729290143
-0.060991936129947445
-0.10537341306725015
-0.1487930596947846
-0.0178080454664546
0.06940009133853152
0.1034346506480347
0.0818231119408532
0.007115561110015593
-0.11367876557319619
-0.0685726365675244
-0.04047574262956743
-0.00892944623678521
0.045993493901765194
0.1388338948274033
0.07510444276615232
0.05085288720431503
-0.14395581246713127
-0.11961623761951827
-0.08128810702405925
-0.02689427326937091
0.05045071596860711
0.1566025413433305
0.09008213810674437
0.0386055555183167
-0.019523479067698142
-0.10938497859936182
-0.0511048445679922
-0.052517819104694836
-0.10571436298780522
0.011127969640995283
0.12715492345531004
0.06977985736260599
0.05642853249705452
0.09003901940423438
-0.040254739645856144
-0.15389531599331416
-0.07151363232489916
-0.008425334961211943
0.02870656448641164
0.041491442932509816
0.036807758788188316
0.023019584320654145
0.0070280807354580095
-0.007013277940503431
-0.017360739481279818
-0.023395995500021027
-0.024333706134229055
-0.018743044067705338
-0.005293989899569181
0.015434419648219328
0.038813115148572254
0.05478499138520936
0.04832617307134331
0.002305810218002561
-0.09764357666875641
-0.057668737511348
-0.0716391392567237
0.07987175227300342
0.02710057138212467
0.005944456203327876
0.05167887209156552
-0.00708760531382778
-0.15352272514611756
0.013327935352964317
0.07542170373819355
-0.005854966254100228
0.1116775734462378
0.15697324142585084
0.05730963944792551
-0.045386805853344515
-0.1766468232728946
-0.31542951673965547
-0.19011108462474627
-0.08878064047272753
0.11627616950157399
0.3355492598719379
0.4306984452398959
0.19527807974901645
-0.044720705151307064
-0.20982065069225486
-0.23215312164806629
-0.21801845079748558
-0.21954095033766813
-0.023469593338264982
0.04050652236744751
0.07537586077471568
0.1841720580960605
0.23889495543980024
0.2601709697658646
0.21382804989143456
-0.17441643742076365
-0.39094945503387396
-0.3028348087909273
-0.3346415394707657
-0.06223111775863625
0.37465750766724193
0.44701435871851564
0.20952540699956546
0.08301898806250653
-0.1477066421313
-0.3222422938924549
-0.2865234632291525
-0.0774519156979032
0.08353660826936192
0.18710886764025164
0.2271945608159756
0.19342975837940307
0.07049401990359234
-0.15396940399197853
-0.2760227071783581
-0.2635020104567481
-0.25291896130982455
0.04037741805523754
0.29998952830291087
0.38134496911471055
0.2901839412972486
0.17608059385039682
-0.25510355805382273
-0.3135370915403025
-0.2924310704744078
-0.2416670415477657
0.043036582201825234
0.21285248081485483
0.1445987361566369
0.11390885664231497
0.17175299591011423
-0.06930155281406358
-0.03663327876550392
0.011873081849193813
0.004622737630847508
-0.12409933730864195
-0.01621228351709727
-0.0774342837720902
-0.07317103261625894
-0.13396112265130633
0.030158754449995738
0.1091460024293564
0.17112725192149209
0.24526371736364594
0.11470164598823497
-0.07775883446825489
-0.21285770491281164
-0.1725268474082637
-0.2195286761594406
0.014525043768811079
0.1300389052610682
0.15088145106994705
0.11130439111345013
0.04389679031259914
-0.02761278995878467
-0.08981222940873934
-0.1369889770435886
0.03271216369106066
0.019953851865211647
0.024795147479948675
0.045830332655991686
0.07922278150540052
-0.08125645270142474
-0.04290792743292388
-0.012106882015231045
0.007368720869252478
0.014981293208500654
0.012997201686894418
0.005402140393432231
-0.003317526554311341
-0.009207781998908196
-0.009618918695685333
-0.0037742743731437652
0.006834051266630388
0.018329787430023774
0.024855062984413135
0.019721514579012944
-0.0026859465301704508
-0.04466802846693094
-0.10348406341975104
0.02886520465344975
-0.03622653410869165
0.11246174374034751
0.08208421838546352
0.07327443168497924
-0.11971064933131767
-0.10650591944988766
-0.09743439477804092
0.09851174843661807
0.07370971606023376
0.020833352918128642
0.13247789658542783
0.002872214397692925
-0.16838885037126095
-0.1723318047836067
0.011042173136385697
0.010042630236851067
0.05431294009599602
0.16602642801240358
0.15291422730423765
0.006274718926951146
-0.09495832552160383
-0.1758302577665315
-0.2565988276093233
0.0522442796634349
0.14911480597436638
0.2360092592154778
0.11270515262639194
-0.025451139634843627
-0.1846778978349894
-0.16681072165842772
-0.16443014080623392
0.03926214034088251
0.2649399333099104
0.12855122072119313
0.034062027958604364
-0.028765414428837496
-0.0806646693598104
-0.14528680525151572
-0.041314828683710926
0.022565725607776088
0.048421925603502926
0.046162943156084525
0.028869546450006257
0.008419267634069326
-0.007249077505042539
-0.014869617307037137
-0.014998164860767129
-0.010361487088300047
-0.004177587611772025
0.001039877690718595
0.004009082726026179
0.004625589214245736
0.0035591412508230976
0.001756881027705593
4.3402433925525464e-05
-0.0010920630484082127
-0.0015227728499880504
-0.0013854681029428792
-0.0009335338405775168
-0.000408312961636198
3.417024915342396e-05
0.00033478446373508194
0.000498276597100258
0.000544275190438653
0.00047056026554807444
0.0002473075968363339
-0.00015394708398754292
-0.0007091717332907938
-0.0012943987104244701
-0.00167372756791912
-0.0015488985172330556
-0.0006773269566905612
0.0009654613228086718
0.0030379428505846098
0.004783230785740169
0.005160334017418021
0.003195322142510382
-0.0014946206636075757
-0.008164056773833455
-0.01464861564345999
-0.017611292489271856
-0.013524681113901767
-0.00034995158534436004
0.020476480830415023
0.04248880347163957
0.05398897705197458
0.03993608954788346
-0.013964879756223196
-0.1158520035164666
-0.06279378539924432
-0.038522399583070216
-0.015287679054234494
0.04017795428731523
0.1582061002485654
-0.0421317356193002
0.04133884628144042
-0.007526404987264156
-0.020267818230992635
-0.03752008989636024
0.09919365526096492
-0.04396534495547755
-0.08567492604218706
-0.024529135710205135
-0.03802536196597442
-0.08624711732457054
0.08009310110604424
0.10892310543506108
0.036100977386432094
0.07764002459609402
0.026887007315559562
-0.14302480312839264
-0.07287147622357094
-0.009599953590532152
0.0006651293591707353
0.1179488830759178
0.11255110483458566
-0.031042444772334553
-0.11019085339674557
-0.1012620453091166
-0.1601872873190905
-0.028307888934626265
0.15651683296414895
0.24622345785198696
0.07085685817590225
0.03326094733040349
-0.08794948355205619
-0.1287010589539485
-0.12723368321970538
-0.11410098062800518
0.09229123705372652
0.08399008974492249
0.05767076775249116
0.008120809454892748
0.12423379783685216
-0.010674952231210254
-0.01417503451926792
-0.09723973342825608
-0.05677488658990973
-0.0713241099066837
-0.10241201284020955
-0.1023757058429899
0.17260937151547046
0.14784766205066668
0.21894131708365888
0.14922826588447008
0.07865534576614594
-0.2572097906270467
-0.30376397910844705
-0.26810125076143226
-0.11197195722269167
0.03903618662941991
0.2722601828256613
0.25841187515223357
0.22609570402070317
0.14944039198459502
-0.04678440403094688
-0.26634384384208865
-0.21210792579453291
-0.1576850399048708
-0.12873787755612123
0.10140071212765836
0.20229352056235136
0.0677594862296521
-0.005612074074602201
0.06272345526744885
-0.07570292519168396
-0.004629142038499075
0.05687414456573082
0.05952920070373136
-0.06690621632248962
-0.001545152497892631
-0.019133597487471225
0.022278792682088995
-0.10924380988322162
-0.01464208118695632
-0.06455264195591552
-0.005731275181006544
0.027828981984918073
0.10137681871543512
0.06662505451167368
0.1528839790486641
-0.03576385328354321
-0.11705431913325813
-0.12288314460978231
-0.09076947653137044
-0.05756551497338292
0.14332689186093972
0.28246992659516595
0.1355401630796243
-0.1124011389877879
-0.2597236018941006
-0.28174447971216654
-0.13015717115886055
0.05824047815686136
0.3447094535637732
0.3696050723071343
0.13936357026941468
-0.1746337471514182
-0.22488748727630778
-0.2696253350159542
-0.15573489511473668
0.09070269938720485
0.26433219291853105
0.1737630230771361
0.03343200846326858
-0.1415898881179849
-0.1367889142482253
-0.137407393857095
0.07143617085675741
0.10225511116282131
0.16131541791571696
0.04591650818286203
-0.05498819792035068
-0.15661655018041393
-0.07259003043831547
-0.010467848173553375
0.029355438118904002
0.05124147571405117
0.05999716829737954
0.05700704125852286
0.03875758384007638
-0.0014766104308588503
-0.06950029297266219
-0.16563108027094928
-0.08228459802025435
-0.005678836011997059
0.0782217210800649
0.17577447497279156
0.27965299194114146
-0.03148488214623043
-0.18623250809961173
-0.20872948553413537
-0.10699849553626366
-0.06653317995390472
0.14820392946021724
0.18543716977551916
0.09472596717648306
-0.08308066709516729
-0.12201753304425368
-0.013268653797470657
0.03496952644604065
-0.0013418206694904775
0.03982119598724818
0.1097283400141209
-0.04605269388209957
-0.08080426192207546
-0.0390270233995901
0.05032259270606352
-0.02178012017611352
-0.04319915924619107
0.017360291549780166
0.0054745927071344555
-0.026099507503771997
-0.025811203200753807
0.04820104022340704
0.020932398645350396
0.09619430038673762
0.056571472728889884
0.06836378233470171
-0.1091024695623165
-0.11204204211595824
-0.16215155600447306
-0.0614530947110758
0.006008790364277688
0.26639303232176986
0.14560202215640156
0.06055504739902865
-0.1847211152340757
-0.19808862468908367
-0.19590577749951565
0.19990770156680562
0.5637007556018696
-0.1310903867883842
-0.10560717409255248
-0.16604275992289924
-0.29516392452616297
-0.45071878290047956
0.4257007980589408
0.390968997294653
0.2809125776233158
0.09803440437938203
-0.1876014151460029
-0.22496148304059752
-0.26268584647848076
-0.13252684731839048
-0.04218603639558781
0.22074125114431828
0.2771852955157006
0.14402281742348189
0.02693675451957698
-0.07817288210633283
-0.1767488170643134
-0.26522872789192015
-0.12489137335739316
0.07595414551411375
0.17127597335509767
0.18213582790711824
0.10332516786827016
0.09750568067676772
-0.10047314614976884
-0.17022903539762851
0.01239032186308748
-0.006801716014656005
-0.04724003157542398
-0.08806437978344163
-0.07124923798510731
-0.11316320128495591
0.07724267636184684
0.17733252072013816
0.23219633420576388
0.24441629174724336
-0.02379633832613013
-0.2360981645443091
-0.2599028241935967
-0.1445808439951801
-0.10767512638350761
0.06668527463143334
0.21798784412083622
0.1931237186277771
0.030390005121810816
-0.05091734270192302
-0.05314874792236837
0.0036992219133934953
-0.11035971160832121
-0.027176600941805136
0.025809014728141455
0.02897002809651627
-0.028772771984036404
0.049118678645665416
0.06539235680502917
0.028041463497333247
-0.049892436246381205
-0.15026054189588461
-0.05071551778416454
0.07225243187926368
0.038100508549242317
0.05632633940695269
0.12227061003604318
0.01673650233629759
-0.08979454621515563
-0.029327316317890408
-0.027301783015621375
-0.09520716705532682
-0.027169316980409676
-0.0015814857797144845
0.012627140665178713
0.046870878885549194
0.12365658617201916
0.050105592997982056
0.016434465529884097
7.553865509816328e-05
-0.025727821385388434
-0.08156952492844884
-0.17327217613757778
-0.08829630414311214
0.00091348296902392
0.1270845328155053
0.11484247780907333
0.16877188896053538
0.06740585038509676
-0.03433467327413361
-0.19486068249191268
-0.07125173091383781
-0.10495544194443243
0.088210247836029
0.12208403255071078
0.03885001064103357
-0.09593523640652546
-0.0007839903773456529
-0.1881245459594707
-0.17699632488356745
0.09185082001342984
0.4410788906801513
0.24709236509926166
0.04107807149481165
-0.0766073625640972
-0.21149838741414478
-0.4474194931448263
-0.22605338243874992
0.0588035565917642
0.2505153948517661
0.20727449517746374
0.17740048305733533
0.18167936724157555
0.008577886158578893
-0.17715689258294048
-0.2169827132744425
-0.1396067169559277
-0.14811556911613183
-0.017928952627427767
0.09406201236903415
0.23308566645201545
0.22944750639351078
0.0876946163795943
-0.013693626311282854
-0.11210005196502258
-0.24439225457657093
-0.2312230614686977
-0.06852601444493335
0.07034579244687815
0.22297236998963493
0.22192907160020198
0.08144542541350237
-0.007932433282085267
-0.07501150920495064
-0.1563665500711573
-0.0825225501539724
-0.06727503872744314
-0.1038905920271006
0.030775068351550673
0.1660431797816488
0.12507461165437633
0.1153313196225389
0.1258059050075901
-0.06762181070506752
-0.29072007675882044
-0.15815392012378812
-0.06512515299199055
0.012717807937858745
0.1109497586607645
0.2632239486633873
0.08889776249631438
-0.013573375477923554
-0.06523135553505088
-0.09847531169256875
-0.14602180928609293
-0.031386506201483096
0.03598519616622379
0.06012596623183475
0.05388810772965596
0.032791795594668195
0.009829626813499408
-0.007330370847806696
-0.016519859513738765
-0.01932817243586649
-0.018586225193906087
-0.016199566029799002
-0.012118943481632545
-0.004746896696855536
0.007436316881607682
0.023686293933395813
0.03918607639512257
0.044575429522848264
0.027454554444085292
-0.02418313294642364
-0.11752970373177962
-0.05122961431598803
-0.014094467677063644
0.012802224719889694
0.05114699782088608
0.11932101486717225
0.0275595345751109
-0.023865076801749256
-0.04295734058984901
-0.0418116509927205
-0.031826937450304384
-0.020201985518415042
-0.008851934976162283
0.004113651881752552
0.02110965796660658
0.041355988989488744
0.058306298975673035
0.05958510188464295
0.030079637462322634
-0.042317171908391106
-0.16014770313129392
-0.11183073739617197
-0.07187303867131074
-0.007161040441154176
0.1118917445346941
0.29913589316262995
0.14455076240243764
0.014465924444487206
-0.13870352263723712
-0.16022120599692058
-0.27644548283547477
-0.08452717634951894
0.04742371469826995
0.16978795651809211
0.1347924371740317
0.18033130074738996
0.12027967195256695
-0.05557153432250345
-0.17283031372175606
-0.2595138885437415
-0.13488527960316332
-0.005145959341052518
0.13252083779113683
0.2803585644616064
0.23058421786635727
-0.038299841762299495
-0.1568684651838884
-0.15372458863063027
-0.24335481263556094
-0.018716267103994592
0.14806506792254123
0.09739739090041424
0.07008749633661937
0.0962241800090675
-0.011219010975648522
-0.05671937752392196
-0.05745982776372816
-0.035957665887909114
-0.012824376997872151
-0.0017238586275523313
-0.007473294360650862
-0.027219015046998977
-0.05393172695024459
0.11901036258469085
0.0937904136187482
0.06648230017349736
0.02900968256831845
-0.025465758198714605
-0.29585978867890705
-0.16870650918067562
-0.019225690182482193
0.1811013472877856
0.45303764556362175
-0.0006040375769897007
-0.1990605710327822
-0.18031600759732205
-0.1931222067145362
-0.08859172635157515
0.48632030012044175
0.49471453070251586
-0.08169412985824227
-0.43011153475865277
-0.49445481881578823
-0.37212413634055325
-0.12769738141105266
0.3754370175113098
0.8340710999362321
0.4702375325635001
0.017655400471281425
-0.2630849137261031
-0.34526489063706106
-0.587195022280181
-0.29130726767254156
0.11566597948688899
0.2774210297142518
0.2833720747578314
0.236146936294856
0.023218690343291055
-0.09978127766289216
-0.11257058627470769
-0.023816503520968417
-0.06010951644761688
-0.05509125899936657
-0.04176421265842289
-0.04907139817440168
0.09790399981745863
0.17621243896101582
0.16467396964420267
0.04727003537917248
-0.17944402547356447
-0.29773299123923896
-0.26403292571903714
-0.013125991191375634
0.12744984942577675
0.41653332787232705
0.2799117703229533
0.1007593911725613
-0.17536409593311575
-0.22252310553987792
-0.31055606167715255
-0.08458479032999754
0.04502152049245474
0.10000168714760525
0.12168896541365883
0.15446778653516147
0.03128069589175796
-0.03470055911245323
-0.05105924814732136
-0.041208561789105695
-0.0364059813845548
-0.06760233970143151
0.040859523332225825
0.07490100359717361
0.031981511746836735
-0.07927783156174856
-0.04065081366397675
-0.027138427092432377
-0.011323564291948116
0.031060860194937766
0.11555346969633278
0.045179452165174674
0.010099090502888106
-0.008689864165570799
-0.03246493768215413
-0.07686716939955227
-0.14569390751844724
-0.028757243118386434
0.0951344207287237
0.050932640694607685
0.058434192042839894
0.12493515319322133
0.041963637002823635
-0.2131087004382377
-0.07172035790598082
0.032569591868658605
0.0699110027158868
0.018301806470986556
0.0665360845221375
0.01673881467489402
-0.11347775593662199
-0.0902623422717421
-0.06580312794564132
0.015156014889900433
0.0048042646847530485
0.13982776694491103
0.030420941291278793
0.054308202714835066
0.1583693559447657
0.06866698893675453
-0.09257511345201576
-0.18689879949726065
-0.24224310258025025
-0.2444531658935784
0.05825494198025276
0.13811861499038236
0.2631530708838074
0.27354667237679303
0.16776011576653774
-0.09646957901169476
-0.18656856184178436
-0.17070262076332363
-0.09310749254482774
-0.1573475442253956
-0.12259205351300456
0.08622187708891181
0.15760454948941327
0.16855123054938723
0.16318470146916753
0.14168406201458056
0.06291328649593718
-0.1402337496230217
-0.33799143101547036
-0.1813187968888599
-0.08781738568550526
-0.040676683684815126
0.19976076421674627
0.27707454123183034
0.2203563425779883
0.033558262696690704
-0.10380103516435969
-0.2260418964589243
-0.16642791658770678
-0.14484904326223322
0.03692647788433274
0.19135697492725567
0.13550387655116572
0.08082706441122038
0.02715992580134071
-0.036847840112512895
-0.12761225564417306
-0.05787414210563064
-0.029093698223062472
-0.02792875444980181
-0.028038501482424164
0.003351580194640484
0.09609407219820701
0.06779810999209085
0.1175369499784738
0.024851444671976464
-0.04531636307753373
-0.1332092484302853
-0.07351473807488587
-0.08695938979151961
0.023098080710798146
0.06845162349101717
0.06971655582999672
0.04868378104375213
0.02218609239907128
-0.0007400504423521469
-0.018097014101237652
-0.03156398626173988
-0.04226503438107516
-0.04751628434948595
-0.03995725278205605
-0.009599378930316566
0.05179281364413998
0.14564630793302807
0.06309794781602546
-0.015023589951650138
-0.11426109858653975
-0.059962855413606665
-0.07057306464675396
0.046935055709717094
0.09852544814188026
0.10200835564344457
-0.11538782437577078
-0.12006910605262369
-0.07608658971870441
0.04918974922174777
0.07798062329055624
0.21547593722154784
0.04651605671945807
-0.062302646830117415
-0.15518108014264437
-0.07685558573895018
-0.06320680386922718
0.06435863239769164
0.09992372255402855
0.05064295343948386
-0.06710084968490626
-0.03145030774926979
-0.018313088115224977
-0.00435762897033313
0.030072247156934222
0.09851526847450155
0.007187185738846226
-0.0444456951171351
-0.06156085809161337
-0.051448224640225936
-0.02193123398503217
0.018469646330458993
0.05896430410121318
0.08487156125084415
0.07768463474123358
0.018008885907619794
-0.10881695921119487
-0.10627397366522685
-0.16235915301575785
-0.050155019786616496
0.0657985063699287
0.21914018005717512
0.23151418338902344
0.10734502491037469
-0.1636404925281926
-0.19715948452988746
-0.2030585935436116
-0.17793058762493902
0.0942313680766794
0.23336303239803058
0.25087820979818404
0.13973181406014729
-0.12799010147732381
-0.19486286410749565
-0.10646150681303403
-0.09956844781319202
0.0052717147669992664
0.20524619061160113
0.11222251574037431
-0.05190730324535226
-0.05908153587587435
-0.07759682178237456
-0.07444398906453777
-0.018867881790444106
0.11251287016688145
0.13027195120578106
0.028707263455125358
-0.013630138467200592
-0.028874608456822708
-0.05160300208120317
-0.11002342121617373
-0.019363453533833383
0.020632163039369496
0.0236430574746238
0.011163662145777103
0.005255384730625701
0.02175190282531778
0.06571417368233762
0.13043456375082235
0.0005531654911901143
-0.14133811151147163
-0.10674178744849838
-0.09516053491401995
-0.0927769955844067
0.12302860262534944
0.17486869394935897
0.07586828593271236
0.023571275898543312
-0.00018670125025089032
