0
5.026766477800322e-18
5.026789719686101e-18
5.026803033673391e-18
5.026794095923385e-18
5.026754395526323e-18
5.026685641977194e-18
5.026604854944736e-18
5.0265448631637534e-18
5.026547301900303e-18
5.026647205907383e-18
5.0268519125093045e-18
5.027121369186678e-18
5.0273603656634936e-18
5.027433440017857e-18
5.027208273515835e-18
5.026622724130809e-18
5.0257561840178404e-18
5.024872604419396e-18
5.0243975394333475e-18
5.024802224400887e-18
5.0263978572374946e-18
5.029089343670982e-18
5.032186336876215e-18
5.034397950107769e-18
5.0341203575437114e-18
5.030045549729327e-18
5.021977645780065e-18
5.0115749409913425e-18
5.002608889617852e-18
5.00033200552581e-18
5.009748979264249e-18
5.033006429805121e-18
5.066676097742616e-18
5.10020852263511e-18
5.116998646127463e-18
5.099054234635709e-18
5.035057624825658e-18
4.9298174045609835e-18
4.811258828030722e-18
4.7300793644186464e-18
4.747981748254951e-18
4.913653529476275e-18
5.231218533149369e-18
5.632338395156473e-18
5.9678316694862085e-18
6.034269369335367e-18
5.64274157449831e-18
4.720383044958374e-18
3.4136384859709544e-18
2.1433861826283296e-18
1.5568111643103666e-18
2.3398159192489583e-18
4.9014677947736885e-18
9.011719357929135e-18
1.354381799094875e-17
1.6509114906667834e-17
1.5536836744499904e-17
8.820649517791279e-18
-3.663528532157356e-18
-1.9111184566709686e-17
-3.1629522891836606e-17
-3.3349008409214494e-17
-1.715425802193914e-17
1.9371633977365517e-17
7.002885823432295e-17
1.1805486237921467e-16
1.382543029545878e-16
1.0452112263777345e-16
2.175490841102365e-18
-1.5816956852607882e-16
-3.311577145315706e-16
-4.388756335692654e-16
-3.903530831046731e-16
-1.1881606091494962e-16
3.71361485646133e-16
9.655167465155084e-16
1.431190924907032e-15
1.4643167834595204e-15
7.975048356758542e-16
-6.468932737609109e-16
-2.608386591978517e-15
-4.420453074943979e-15
-5.1033409293441715e-15
-3.6651001346000044e-15
4.166464976132682e-16
6.664711571861226e-15
1.3257331603854364e-14
1.7145532071352883e-14
1.48434070410324e-14
3.892429453775864e-15
-1.5330618796237974e-14
-3.8153630740275584e-14
-5.541853512333644e-14
-5.5390770328705766e-14
-2.8046818183306958e-14
2.899287853156484e-14
1.0485443447672899e-13
1.7307666441005558e-13
1.9560429194687796e-13
1.3481272268013556e-13
-2.769987970505737e-14
-2.7088634405888004e-13
-5.21725499738779e-13
-6.61041037762293e-13
-5.554439238598438e-13
-1.1481947160885376e-13
6.381447031508863e-13
1.5136656058426532e-12
2.1514060907098846e-12
2.099060745006777e-12
9.818791165120644e-13
-1.2676350401114076e-12
-4.19812050213343e-12
-6.760636768267393e-12
-7.478747773498523e-12
-4.9280051722027754e-12
1.5318819278237664e-12
1.0986350498381467e-11
2.051421173254534e-11
2.5462559037688077e-11
2.0734663653242898e-11
3.0441285638366393e-12
-2.64147417047886e-11
-5.995477835785303e-11
-8.341566740638489e-11
-7.938519979704917e-11
-3.3892828901109676e-11
5.4707738564166786e-11
1.6777384017134015e-10
2.637849673554569e-10
2.8552582780706647e-10
1.7917335918544404e-10
-7.720931638116227e-11
-4.4435426398965673e-10
-8.056155290760113e-10
-9.79541817010818e-10
-7.716840139812651e-10
-6.287896409319124e-11
1.0883264233285296e-09
2.3713797418820007e-09
3.2304972475974604e-09
2.996224482487098e-09
1.1493777887727761e-09
-2.335870566596018e-09
-6.692904937861127e-09
-1.028050994912755e-08
-1.0884046948735133e-08
-6.474036192540944e-09
3.686206090380112e-09
1.7927137477877374e-08
3.159912242879473e-08
3.76341201293487e-08
2.8625228154647053e-08
2.802549865665575e-10
-4.4655133990490925e-08
-9.366554081129108e-08
-1.2496299856893374e-07
-1.1284239745264477e-07
-3.807580641065932e-08
9.885209203045868e-08
2.665410503546199e-07
4.002055257625625e-07
4.1422433191489294e-07
2.322426874317105e-07
-1.6982022914714067e-07
-7.215623793159001e-07
-1.2379535089909084e-06
-1.4439877057079212e-06
-1.0579867303666293e-06
7.345656919315754e-08
1.8254238647952014e-06
3.6946846696927088e-06
4.828113510820913e-06
4.240036019671195e-06
1.2210519768644351e-06
-4.152001071540647e-06
-1.0597557979162351e-05
-1.5561643659185276e-05
-1.5737972845976735e-05
-8.26068406724757e-06
7.627675872589936e-06
2.8979080486205857e-05
4.844209187767605e-05
5.532891095583469e-05
3.894599744327193e-05
-6.139286672202352e-06
-7.43677851830895e-05
-0.00014554824118582601
-0.00018631504532523084
-0.00015892473778583203
-3.731588851003905e-05
0.00017326625631754972
0.00042068249418614163
0.000604374667175591
0.0005968164984972472
0.0002907048240642865
-0.0003364242271009108
-0.0011618816832957796
-0.0018940295194347795
-0.0021179108710759585
-0.001428088500065944
0.0003662075343663751
0.0030228431990654524
0.005735551627522345
0.007205088150027476
0.005995405004365633
0.0011648912657469827
-0.006979038750991618
-0.016303777965230134
-0.02284559391010309
-0.021718057634808892
-0.00903951453973507
0.015436676028173826
0.04580135131539181
0.06875683928916428
0.06483411033958224
0.012626704231874097
-0.10454483615334084
-0.09146250241668627
-0.1360908295901805
-0.009329475897785626
0.1297640332048318
0.12472424520196931
0.011494130867126867
0.010500616858272587
-0.0772126525345462
-0.06983657723093122
-0.0018007777456806268
0.08093930820354825
0.12701659694318068
0.08752685683850189
-0.07430183617096292
-0.17307571781605854
-0.19400570929048186
-0.09224184682533872
-0.0010462369039832364
0.15215477397154492
0.22631124917580667
0.2503938970250163
0.01606299256641851
-0.11794419448916227
-0.21157492172057807
-0.1249830662210894
-0.10254987642420112
0.03566169371536101
0.09359069567345318
0.09197832472749169
0.05820294979498628
0.01710046777037028
-0.014691790563020926
-0.0302328872607663
-0.030511353853672086
-0.021037699182177686
-0.008378822574944761
0.0023130167681943894
0.00839869011678618
0.00965369052064287
0.007449551877334853
0.0037376780268291027
0.00022597109529473648
-0.0020656211395679463
-0.0028713040985666105
-0.00248580920392028
-0.0014668741959501278
-0.0003648537820206637
0.00044613057524451255
0.0008201075705956517
0.0008009776352974903
0.0005390916349447448
0.00020527470704815234
-6.995858377326841e-05
-0.000222295901969246
-0.00024936700406842335
-0.00018873378597122277
-9.151244525309344e-05
-1.4569038818586381e-06
5.598032470527785e-05
7.486354716362534e-05
6.345813130180152e-05
3.6439896788366665e-05
7.967444088969562e-06
-1.2540318680561158e-05
-2.159976616247289e-05
-2.0571538091194703e-05
-1.346356321272247e-05
-4.718485789806092e-06
2.3217366865825105e-06
6.048629492946126e-06
6.456677438232109e-06
4.573863033811246e-06
1.7909354556501089e-06
-6.718431831344497e-07
-2.058789529805588e-06
-2.1473027585423923e-06
-1.1663905585026779e-06
3.523850912295904e-07
1.7385730220400409e-06
2.345992075313148e-06
1.7219104117220712e-06
-2.1851944985962252e-07
-3.046170865099403e-06
-5.773568076824778e-06
-7.004417956144663e-06
-5.340352961678918e-06
-1.8880340447516898e-08
8.379901148374751e-06
1.7458646935777716e-05
2.3130066346639273e-05
2.0639289923369407e-05
6.504708293475417e-06
-1.9039976798648398e-05
-5.0011869582434996e-05
-7.429207114293956e-05
-7.6034150624387e-05
-4.1305716679811395e-05
3.3938546404283926e-05
0.00013612712142726716
0.00023053536301789008
0.0002661196951029764
0.0001911990000013121
-2.1448190253254264e-05
-0.0003469732120659071
-0.0006904808364995117
-0.0008931362626163674
-0.0007733210520613808
-0.00020289156770489069
0.0007986814784175506
0.0019883327341902665
0.002889606919950207
0.002892351057527683
0.0014763855148096797
-0.0014790615081435655
-0.005402926182263334
-0.008911245110720504
-0.01001771507384582
-0.006767346365773
0.0017675655668392002
0.014398002080102352
0.027096606256528637
0.03317683877610883
0.02475147500626045
-0.004581810024004583
-0.05651930235220022
-0.12559856020416688
0.000980174047455628
-0.05968715809680567
0.10790225924939911
0.11084453098205004
0.14299035811394012
-0.015290168157572429
0.008240379216033112
-0.21281803694697718
-0.09332619145630913
-0.029780839476538954
0.0003730161985035766
0.03294672809230518
0.10680403489827713
0.05273534405839065
0.08497245312375852
-0.002171019395423114
-0.03182257400793375
-0.03738635279645019
-0.053180944988198926
-0.1058176656983125
-0.008775597587175348
0.0385753002939358
0.04779891151176023
0.03568839638151535
0.018221413579299708
0.00603985880224679
0.0024591859182704068
0.004106490547690618
0.0036212118493416812
-0.006537578610847991
-0.030332415333316636
-0.0656528374729875
-0.10414828850670992
0.06609698357114216
0.055571173654840995
0.067779968847852
0.09562663082934784
0.12190089242965778
-0.07537723622494392
-0.11410704346117967
-0.1990951668708201
-0.1171179858571958
-0.03928607757937154
0.0688735751594888
0.23271020583314161
0.25484022254656685
0.10877631493186213
-0.05637805814489996
-0.1006491498461463
-0.2722563557317689
-0.18850201199171018
-0.025526009369383578
0.07920839165294787
0.012275019206360654
0.061876917375791075
0.09397596901937849
0.13328280719514765
0.15417305203122683
0.08446466793881549
0.022075215137202207
-0.13884324155914082
-0.27884328834645644
-0.22948379066507235
-0.16255830936217838
0.0036746929470653413
0.1825311222005692
0.2877680246928276
0.2029793538576157
0.16092124981499775
-0.06147752281040891
-0.13215346833000777
-0.1418700364071609
-0.17892214402001566
-0.10839807508260144
0.03867855212692352
0.06476100448857754
-0.004220628585573838
0.06608313317300614
0.10336441764261738
0.11802238420875905
0.1000618106434763
0.024591371224998087
-0.1356026034484018
-0.19453285426007283
-0.1402688584464944
-0.13036169187728974
-0.09830948482671173
0.22999678960879577
0.314896411732383
0.18416592695203815
0.02390362911057514
-0.017366806186783403
-0.21300177288896507
-0.23692343910203412
-0.14434247863954075
0.03927245203232097
0.11853299927299096
0.11962230309420141
0.07762873302427245
0.024791470828731125
-0.016937424635773943
-0.03804305146346627
-0.03934982684171913
-0.02771747524330077
-0.011570838976538394
0.0023482497050283328
0.010479683857929913
0.012388247456200515
0.009749002111621689
0.005046672413788525
0.0005008561790900161
-0.0025305245164873847
-0.0036592984096603916
-0.0032325579949411412
-0.0019547209334929098
-0.0005368019712318564
0.0005276527290692091
0.0010365720765118703
0.0010353168636492059
0.0007116637597546036
0.0002849507170220639
-7.39067339284851e-05
-0.0002779256255505937
-0.00032035258912969196
-0.00024730374547527736
-0.00012396719824352893
-7.271117637446584e-06
6.883445311742474e-05
9.552514881367481e-05
8.26262700435189e-05
4.869970873022966e-05
1.2047266637755834e-05
-1.4900792049448047e-05
-2.7305426466522826e-05
-2.663979435314789e-05
-1.791165933596971e-05
-6.803720118080804e-06
2.346276295589311e-06
7.404205408165929e-06
8.295734251510867e-06
6.273018744161722e-06
3.037081802307753e-06
4.253981769913375e-08
-1.8654880657860853e-06
-2.491064838109577e-06
-2.110114336471403e-06
-1.2110850094753692e-06
-2.645872568357631e-07
4.1680360588859275e-07
7.179761026488722e-07
6.846564666290162e-07
4.5008058982129885e-07
1.6130878985031412e-07
-7.170850205860646e-08
-1.9678705243168778e-07
-2.1456590952900326e-07
-1.589081896777161e-07
-7.413978742027956e-08
2.6151351565313836e-09
5.0365486750297e-08
6.487375043752383e-08
5.3824410972565994e-08
3.004924881932595e-08
5.635663526462454e-09
-1.1569101779825479e-08
-1.8847684858777115e-08
-1.757594057331703e-08
-1.1290634594789886e-08
-3.792971454982446e-09
2.1338355683820604e-09
5.218572242877357e-09
5.543121625131953e-09
4.019990703327127e-09
1.8027116274593076e-09
-1.6237806286038157e-10
-1.3551329416140783e-09
-1.6872704020710638e-09
-1.371292952276321e-09
-7.437578392048457e-10
-1.1476947020004326e-10
3.190039043096321e-10
4.939956392883494e-10
4.5067933093110624e-10
2.827381782931767e-10
8.831036284865336e-11
-6.224906770100763e-11
-1.381030204028876e-10
-1.4303473296405733e-10
-1.0155335985489153e-10
-4.363957113336621e-11
6.612656270200301e-12
3.634719760907974e-11
4.38274189157331e-11
3.4893945911455755e-11
1.83605752362016e-11
2.1739787796007484e-12
-8.745808875741004e-12
-1.292801554849322e-11
-1.1542975253441247e-11
-7.067212523896899e-12
-2.031486145859149e-12
1.7882837538988927e-12
3.6475696872903346e-12
3.686608853064196e-12
2.561733874696164e-12
1.0511698137416786e-12
-2.324025058544099e-13
-9.72097941263953e-13
-1.1370055766141403e-12
-8.868002910054567e-13
-4.519573124340201e-13
-3.5881974399004e-14
2.3857550456698726e-13
3.3784306715790023e-13
2.9530703203574003e-13
1.763101793768475e-13
4.603984536007845e-14
-5.07420563352332e-14
-9.615547278888451e-14
-9.490500508038826e-14
-6.451842944175404e-14
-2.517163610774189e-14
7.57528075858241e-15
2.593486338846435e-14
2.946604284577409e-14
2.2513642259366384e-14
1.109587873832727e-14
4.131424962573644e-16
-6.47329360101903e-15
-8.810286170283709e-15
-7.54002473208962e-15
-4.3836177141159295e-15
-1.018306756934049e-15
1.4295227045490038e-15
2.5334107563451863e-15
2.4428969504390793e-15
1.625433425209255e-15
6.03808654940649e-16
-2.274460467951797e-16
-6.784151109300871e-16
-7.483871914242371e-16
-5.569740050632046e-16
-2.6261026562229085e-16
1.7412411605321993e-18
1.619978474750344e-16
2.0615121076057766e-16
1.6674277555677878e-16
9.48311608789237e-17
3.5848336645474415e-17
1.3778687738587685e-17
2.6036958011519924e-17
4.8388877900511295e-17
4.7401336976761593e-17
-3.217692333676342e-18
-1.0691634427362482e-16
-2.3448058473490094e-16
-3.253778403432219e-16
-3.0395722686224345e-16
-1.1022660247535091e-16
2.6137186134299187e-16
7.28903144752839e-16
1.114297055782056e-15
1.1768250526695968e-15
6.9626017440663e-16
-4.064733120381796e-16
-1.948678679069686e-15
-3.4244864197453076e-15
-4.067067146117572e-15
-3.0753990251999013e-15
1.0696098996122606e-17
4.885976362111549e-15
1.018607210604912e-14
1.3545274722939558e-14
1.2181308699028864e-14
4.024755615828346e-15
-1.0847333418628742e-14
-2.900356709579468e-14
-4.3402349836760334e-14
-4.476667449760393e-14
-2.485852286095573e-14
1.885822070435674e-14
7.86583713826904e-14
1.3440659407855888e-13
1.562772451267395e-13
1.138284531070272e-13
-9.353239491677533e-15
-1.9942149640106464e-13
-4.015301992163002e-13
-5.230650870160173e-13
-4.57363976854546e-13
-1.2812800927098397e-13
4.553530507352475e-13
1.1531006919308152e-12
1.6875758543869774e-12
1.7006108984310697e-12
8.831219056274829e-13
-8.440793450378858e-13
-3.1578213712745845e-12
-5.258295819462335e-12
-5.98656297841391e-12
-4.187247700460261e-12
7.200014059825372e-13
8.120742482319097e-12
1.5815053679832323e-11
2.0181433545111298e-11
1.7136414951070622e-11
3.878833911916368e-12
-1.8985416586760442e-11
-4.576442037262944e-11
-6.553323399154062e-11
-6.44804893632573e-11
-3.1039520711458624e-11
3.710847414573729e-11
1.2652393859116919e-10
2.0548557902401667e-10
2.2901191736334928e-10
1.533323720582925e-10
-4.1838949124606515e-11
-3.296747451972951e-10
-6.221095536849466e-10
-7.776955098562832e-10
-6.403256657572609e-10
-1.07657790765093e-10
7.87242778808244e-10
1.8136035992723707e-09
2.5419187084870135e-09
2.44026600194047e-09
1.077002765561793e-09
-1.6083075571711938e-09
-5.059651554714641e-09
-8.020772856376562e-09
-8.747835753864045e-09
-5.5858134820895e-09
2.164336563968249e-09
1.3346288886919686e-08
2.4441295292474394e-08
2.993106562459701e-08
2.3856686931576658e-08
2.49953468554358e-09
-3.2485787538598776e-08
-7.176807912684555e-08
-9.848239555253515e-08
-9.216858601253875e-08
-3.6767664428749894e-08
6.890945322787701e-08
2.0196499432810353e-07
3.127180166196258e-07
3.336423122463711e-07
2.0228662473146166e-07
-1.0500255945564771e-07
-5.389047100908368e-07
-9.590749245181908e-07
-1.150475120487773e-06
-8.859945378665575e-07
-3.1366759218325725e-08
1.3347715854033322e-06
2.8360588734037302e-06
3.8110776327743757e-06
3.473858035205951e-06
1.2289242933498989e-06
-2.9246752266746925e-06
-8.047818767148269e-06
-1.2178479963134154e-05
-1.2704925066525454e-05
-7.275713133554304e-06
4.890388697935107e-06
2.1708002247154194e-05
3.7588982032247005e-05
4.4163243002072976e-05
3.2788970566482725e-05
-1.346252414362996e-06
-5.463109666159587e-05
-0.00011192081765251615
-0.0001473065310317675
-0.00013063579355374313
-3.990929050613319e-05
0.00012314496511682595
0.0003201507738122199
0.00047372384619687055
0.00048296564918338594
0.00025953815844681087
-0.00022151281052032996
-0.0008726709968500462
-0.0014717962851786683
-0.0016934494292440707
-0.0012092862563950453
0.00015188713600940046
0.002228687490074155
0.004413953886455034
0.0056957793145155184
0.00492220411382201
0.0012890669549411157
-0.005059890344594602
-0.01255169344418436
-0.01812926473006417
-0.017901521840247694
-0.008596019572081918
0.010418186637153748
0.035170159423726845
0.056133831974436506
0.05924403691643073
0.02939256002438902
-0.044033704611767636
-0.16121926596315564
-0.10815292543116922
-0.057506259888811716
0.024827085874269385
0.16896297693577728
0.18976171689750151
0.0796932205881849
0.009269555266808728
-0.06443096002869747
-0.1839649529272704
-0.17752116577842275
-0.0499795771785567
0.017655274352522485
0.060431164497877256
0.11645985219677843
0.2138851305454822
0.16287303911832818
-0.04429565882227098
-0.22535583329849393
-0.19635848081426505
-0.1621529141769507
-0.11425122624775991
0.1622220217956458
0.2753627747141366
0.21348504081498754
0.13938315625545628
-0.0036660233643482365
-0.07458287310766382
-0.31131521090488795
-0.31045659981532525
-0.2183271504916023
0.06120655954961184
0.04282248157168123
0.4267164801964385
0.4675883425419149
0.1568894106834763
-0.17483981323818895
-0.23627502772206743
-0.34241249222939546
-0.18237884774453078
0.0015360245306416853
0.01832558479769342
0.11714110189139176
0.16627499534410153
0.029933062896062238
0.14986795104220899
0.13659182632725567
-0.02827894181435091
-0.1803043011254079
-0.15574525976427933
-0.17646554361926592
-0.041642278394757155
0.07114883329986701
0.19673828757744816
0.1694038450410015
0.011459315879958803
-0.0727957420475035
-0.09695233677594256
-0.08812639589043009
-0.08136983025606834
0.08493402530927217
0.17239002251598975
0.14606800807742315
-0.02002539262978113
-0.13507345664132606
-0.18326468543808713
-0.11925389624359971
-0.07103769483227504
0.04836527628178109
0.12248867805226338
0.2112682234920962
0.13541986241625137
0.07055644489284923
-0.04676535600708654
-0.10277636855870173
-0.1850286185132577
-0.16228685749574687
-0.07158503144339083
0.08447030305840257
0.13074503046792815
0.1067209640282033
0.0528356999713959
0.00030806210702675145
-0.033475269027929945
-0.044306272636616066
-0.037098328804545465
-0.020743703797474092
-0.0037630870132584152
0.008259769503669174
0.013353170260504397
0.012445646677357583
0.008007458896593192
0.0027101111045188895
-0.001483640863084706
-0.0036735410900681706
-0.003913548782181538
-0.002845237157391537
-0.0012822727447242704
0.00010634562095599249
0.0009516971902674681
0.0011897467258788113
0.0009693347333839732
0.00052758623427048
8.354927891379903e-05
-0.00022346765810554587
-0.00034804808637844937
-0.00031834520254723196
-0.00020028288847753076
-6.312681883338858e-05
4.334186670635708e-05
9.71937729201154e-05
0.00010096056569985841
7.18619478569702e-05
3.104177381011905e-05
-4.466331798855794e-06
-2.554096539756125e-05
-3.0911380023405935e-05
-2.4670496470630123e-05
-1.302876068536035e-05
-1.599884928360635e-06
6.130492656139255e-06
9.110159206598867e-06
8.154731032648636e-06
5.007342545524852e-06
1.4544513161827175e-06
-1.247135618494683e-06
-2.567645967869246e-06
-2.602526962883815e-06
-1.8130636106896576e-06
-7.4818030580677e-07
1.5891426582919705e-07
6.833146917681978e-07
8.020483332376533e-07
6.270767024167066e-07
3.2082694424004657e-07
2.7008863927255338e-08
-1.6732328228322623e-07
-2.3810912679877535e-07
-2.0864961192653667e-07
-1.2494719325986238e-07
-3.302372213518626e-08
3.5437458128125667e-08
6.770520446840052e-08
6.701005943382013e-08
4.5674778159059466e-08
1.7932563813447478e-08
-5.212839584733368e-09
-1.823233856970665e-08
-2.0784975035802914e-08
-1.5918844772165642e-08
-7.875955865936858e-09
-3.309853162890471e-10
4.5462197658035995e-09
6.2145898976320695e-09
5.332365593392301e-09
3.1113812482845176e-09
7.35870868742425e-10
-9.966696145085253e-10
-1.7821279755976565e-09
-1.7234049725877585e-09
-1.1488472442510403e-09
-4.27062954124607e-10
1.6280618926514486e-10
4.85271035307598e-10
5.379861707405418e-10
4.0358293466089375e-10
1.926942177775239e-10
-8.278321590467497e-13
-1.2301495506520426e-10
-1.6196443197361372e-10
-1.3610233629982552e-10
-7.729949519942736e-11
-1.5995036135436508e-11
2.7771140396460404e-11
4.679058346028527e-11
4.422421064363591e-11
2.8809926835242736e-11
1.0088763278782571e-11
-4.8696309228892615e-12
-1.2771559807160979e-11
-1.3748710459478236e-11
-1.0065948056592608e-11
-4.6315449447841984e-12
1.5704471794746757e-13
2.9960942185748673e-12
3.7108464355818235e-12
2.9225920428554217e-12
1.571353874189018e-12
4.81021470125885e-13
7.9691026099237e-14
3.140125809299255e-13
7.424189064858874e-13
7.602920947861598e-13
-1.0825525693678276e-13
-1.9316516326288326e-12
-4.196920390346351e-12
-5.832884797079827e-12
-5.495629941579689e-12
-2.1119894741359907e-12
4.433877289863181e-12
1.271199342562741e-11
1.9586433702633623e-11
2.0798017555018307e-11
1.2427085921825681e-11
-6.97431025233007e-12
-3.4239597074851105e-11
-6.047914744687948e-11
-7.214831821126565e-11
-5.5026436763644457e-11
-8.347198052860234e-13
8.523586526856596e-11
1.7926710301910532e-10
2.3953378293243027e-10
2.1673298798793764e-10
7.388411084281843e-11
-1.8829420355545703e-10
-5.098570598803181e-10
-7.667993559588774e-10
-7.94985957395827e-10
-4.477481990842553e-10
3.2169693466541876e-10
1.3792146996107219e-09
2.370846640305058e-09
2.769655586689779e-09
2.035007961936299e-09
-1.2894177658756163e-10
-3.485370455965516e-09
-7.072319656112734e-09
-9.255875682968166e-09
-8.145368794800695e-09
-2.376101021587545e-09
7.912815156498972e-09
2.027415583009951e-08
2.981892340522195e-08
3.020845379234968e-08
1.5936795770611242e-08
-1.4472522210521701e-08
-5.5400024694594685e-08
-9.278096292399363e-08
-1.0613478438522425e-07
-7.493439595228372e-08
1.1304719155866641e-08
1.4202851530741978e-07
2.7863417933800375e-07
3.5721393572140006e-07
3.053621940681968e-07
7.292596606052761e-08
-3.303627157719096e-07
-8.04923801210433e-07
-1.1582535358457358e-06
-1.1458580683574278e-06
-5.615678722199847e-07
6.386134776969796e-07
2.220696758806088e-06
3.6266698234014236e-06
4.061423339577607e-06
2.7469767978019396e-06
-6.841762260594358e-07
-5.769702227644092e-06
-1.0963609421665413e-05
-1.3769152126751849e-05
-1.1417425980407111e-05
-2.073965543532873e-06
1.371482042321976e-05
3.190899692336979e-05
4.493830764709478e-05
4.338383086957338e-05
1.9546777079703108e-05
-2.775898680202266e-05
-8.884224561501196e-05
-0.00014159691207568824
-0.00015519038229531025
-0.00010019337230803391
3.6102049257822336e-05
0.0002337137711257364
0.00043084217980388784
0.0005300528361625026
0.00042560873367083904
5.07582968453072e-05
-0.0005667415773489084
-0.0012634480396203653
-0.0017420144569056152
-0.0016399771956971006
-0.0006705159062456642
0.0011924486655403713
0.0035503754780045124
0.005530631014700898
0.005942357920406696
0.003680207672838042
-0.0016791219247755276
-0.009269991774006928
-0.016615099590888655
-0.01991480526513926
-0.015170029252119833
-8.741202955443919e-05
0.023683440037560583
0.048829244015749736
0.06221712825640983
0.04714272106163769
-0.011910738491369028
-0.12303642867894896
-0.0813405341895897
-0.06663701682426125
-0.04626763490384469
0.0168481221819853
0.15296735010251208
0.17478524108281893
0.07134747691303148
0.00951627848039826
-0.05678370150019562
-0.1723534105788546
-0.16641124437661342
-0.043234486498991996
0.019009011215564402
0.06104786451817414
0.12970497892220906
0.06400515214248204
0.0846341248379591
-0.010342931606727671
-0.04287458190394015
-0.04698812209052574
-0.05850692658886116
-0.10572563176182678
-0.0036420624893035384
0.047078488993402695
0.056909857913028224
0.041879228351930926
0.0178791259516194
-0.003343912685369337
-0.01579070182363446
-0.018669311052425475
-0.014574564848313253
-0.00736137776743318
-0.00044852898889371546
0.004098304247867885
0.0057160601424899515
0.004967173450575775
0.0029492699235679504
0.0007549443124381251
-0.0008680924642867009
-0.001624142101880292
-0.0015960887322583582
-0.0010807149004760802
-0.00041770075901536766
0.00013200567452472542
0.00043862515237439023
0.0004958369129024784
0.0003774079247619982
0.00018477896192210355
5.271150401162482e-06
-0.00010995593348995688
-0.00014857570752224255
-0.00012667671504957334
-7.331113542241662e-05
-1.6676137721165216e-05
2.4363281792872846e-05
4.272921173897903e-05
4.101056941702255e-05
2.710946373671903e-05
9.831403612937254e-06
-4.186710426579077e-06
-1.1746969103347686e-05
-1.282772797191956e-05
-9.434601414332123e-06
-4.248110939514397e-06
4.4034031107413026e-07
3.2867477497331444e-06
3.968959330707665e-06
2.939803286742976e-06
1.0544142824127574e-06
-7.774027324408778e-07
-1.8395645819971565e-06
-1.7517531095017569e-06
-5.311375787407414e-07
1.40428622131886e-06
3.2953536198230804e-06
4.193334298856297e-06
3.2304750801050016e-06
-4.742254135828589e-09
-5.076232867471783e-06
-1.0461075194559308e-05
-1.367092675387029e-05
-1.1896307456199586e-05
-3.1750652227357275e-06
1.2174351319439419e-05
3.040102662497667e-05
4.4181355001435965e-05
4.414981487550432e-05
2.2320770261822186e-05
-2.3183377477149234e-05
-8.366709131075848e-05
-0.00013801211725652848
-0.00015587369637238952
-0.00010727745824837936
2.2396035484294025e-05
0.00021629562074411754
0.0004161378087515338
0.0005268802190881181
0.0004422219575482299
9.045301263420466e-05
-0.0005101304725739055
-0.001207999926002431
-0.001715729079057862
-0.0016727342669252542
-0.0007804409471902418
0.0010147400049951615
0.0033531214500226157
0.005399705135424051
0.005980796665064332
0.003967398208316155
-0.0011402876583983131
-0.008598940756140979
-0.01606572805698738
-0.019828439788304137
-0.015858059874344133
-0.0016606835042879526
0.02148518720428325
0.046723612207097726
0.061289267751433
0.04852124986591949
-0.007588622135110245
-0.11622916727958568
-0.07401658242293814
-0.06217987662674642
-0.04861031329778954
0.004906713692957939
0.13196206392832105
0.15061282585453217
0.05618858424573739
0.0208101439535837
0.0004113787128271257
-0.052590995691848795
-0.1749013243619388
-0.18099529622444066
-0.05893776131473378
0.02472005803699869
0.11233535139146943
0.2393850718345199
0.22162248203610316
0.05047183254184406
-0.10126184428761721
-0.2657425155115888
-0.26458957981467507
-0.09860204874646265
0.05254558081062697
0.22059552773393343
0.23362567266104906
0.1025729201507066
0.015313603453954943
-0.05938115125177082
-0.1600031673315559
-0.11761694838380811
-0.1441409513831035
-0.027957580508022915
0.06175082217904801
0.16387538838239435
0.11188715343304137
0.12309538848692324
-0.0055784608799551594
-0.09433626729127276
-0.171777065598953
-0.06466914647906241
0.009768984896767257
0.04677198938483814
0.05220470708069829
0.03789057316844602
0.01647941034690469
-0.0023357832056250787
-0.013488048089168984
-0.016274782476064387
-0.012903495042606508
-0.006703041085934362
-0.000661471468450567
0.003384084808237234
0.004897655088327849
0.004332705758077343
0.0026263088836424656
0.0007285214314907615
-0.000699172568848214
-0.001384471729073992
-0.0013864166203090137
-0.0009553837711475733
-0.0003847861126788096
9.620724099797472e-05
0.0003705307454538532
0.00042855370421113393
0.0003316271995788985
0.00016688535150221248
1.0606416764536142e-05
-9.158516793201488e-05
-0.00012768730152677165
-0.00011071437589892846
-6.545135067223492e-05
-1.6402241030803562e-05
1.9747703241913235e-05
3.6463363641189446e-05
3.566982259000212e-05
2.4044970627394975e-05
9.191648046813707e-06
-3.072812502018809e-06
-9.874830825578087e-06
-1.1099508727768704e-05
-8.413301568742985e-06
-4.0901533125860344e-06
-7.931620858906073e-08
2.4832287877454925e-06
3.330316673690092e-06
2.827824821253311e-06
1.6280912249563549e-06
3.612930967152954e-07
-5.529195749695445e-07
-9.58963051759811e-07
-9.168535107412442e-07
-6.043109927685095e-07
-2.181137231045052e-07
9.426166183134607e-08
2.6252050903089753e-07
2.8712385615160614e-07
2.1315884792782868e-07
9.988998298886813e-08
-2.927851988422441e-09
-6.707170626779541e-08
-8.674335210105804e-08
-7.21415883616994e-08
-4.0406909086558045e-08
-7.727247371903856e-09
1.5359994044394437e-08
2.517855160650702e-08
2.353982289677853e-08
1.5162621874911068e-08
5.133951758119714e-09
-2.812473230068148e-09
-6.9634841000178105e-09
-7.4185987548302505e-09
-5.393260207827982e-09
-2.4299946218253677e-09
2.0271242239651718e-10
1.805317426636455e-09
2.2564040238539233e-09
1.8382200127264338e-09
1.0004151468640791e-09
1.583486935453514e-10
-4.238365547866858e-10
-6.600447573313436e-10
-6.036841532770711e-10
-3.797785814649794e-10
-1.1968024499867005e-10
8.221339974479732e-11
1.8432311923636762e-10
1.914552780637966e-10
1.3626746179673446e-10
5.88563405048436e-11
-8.477577057611293e-12
-4.843883367341934e-11
-5.861941253095738e-11
-4.678203860413049e-11
-2.470424522136114e-11
-3.031357108596948e-12
1.1627175549615971e-11
1.727655115114652e-11
1.5463864999324742e-11
9.494884416855012e-12
2.7573346447539505e-12
-2.3655797715211518e-12
-4.869397119113702e-12
-4.935256398058887e-12
-3.437988438040739e-12
-1.418555359457085e-12
3.015613950374012e-13
1.2959130701710707e-12
1.5209809539523491e-12
1.189111265857614e-12
6.083309564704148e-13
5.115727128567509e-14
-3.1733870088080866e-13
-4.515445747271448e-13
-3.956572193739202e-13
-2.3691759845922353e-13
-6.259839895356616e-14
6.722145680251636e-14
1.28403727985829e-13
1.2707815289625863e-13
8.661478654237651e-14
3.400492525142022e-14
-9.885405538520901e-15
-3.4572432834959963e-14
-3.941074383446923e-14
-3.018129396472766e-14
-1.4928602611278365e-14
-6.209487159393071e-16
8.627253962696719e-15
1.1790321437090099e-14
1.0116763147365841e-14
5.904742029647543e-15
1.3999520164216487e-15
-1.8853764574372944e-15
-3.3746555680408564e-15
-3.2631095746947775e-15
-2.173442307217289e-15
-8.046656556629549e-16
3.1389505569690313e-16
9.2533883628503e-16
1.02524638398016e-15
7.703314059243487e-16
3.703954065646426e-16
3.4091690456280253e-18
-2.2829285955289936e-16
-3.021447521435103e-16
-2.530898470733796e-16
-1.4156360674859566e-16
-2.528603943396986e-17
5.773958225679242e-17
9.383591346796025e-17
8.898251052093577e-17
5.9732036344891e-17
2.416562847000277e-17
-4.3066076564664045e-18
-1.941172077535941e-17
-2.134877925074522e-17
-1.434987476592099e-17
-3.879275789430546e-18
5.52300065209278e-18
1.1317439726807648e-17
1.3022207078680262e-17
1.1607690784608895e-17
8.660564777282998e-18
5.662685784316274e-18
3.567508110891297e-18
2.6968341173371364e-18
2.872449337349359e-18
3.6553310517978785e-18
4.5783314608330504e-18
5.302175466807323e-18
5.674292571471345e-18
5.707822870282285e-18
5.516660564703968e-18
5.242935787004444e-18
5.0023248582698725e-18
4.857694936326828e-18
4.818895198536413e-18
4.859157066002116e-18
4.936889606741207e-18
5.0140923183956346e-18
5.06688602312049e-18
5.087772786174573e-18
5.081957767019509e-18
5.0610607648749895e-18
5.037137022279213e-18
5.018758173280828e-18
5.00961878480721e-18
5.0091754545527895e-18
5.0143726992959444e-18
5.021518321930464e-18
5.027668572474856e-18
5.031271208381668e-18
5.032138476431927e-18
5.031004534952754e-18
5.028957942283922e-18
5.02697205930298e-18
5.025643838376222e-18
5.0251459187151455e-18
5.025328626853241e-18
5.025885021572076e-18
5.026504364302273e-18
5.026970409910107e-18
5.027194133641382e-18
5.027194768187486e-18
5.027054047684291e-18
5.026867766579693e-18
5.0267107446880465e-18
5.0266211996436996e-18
5.0266022722341355e-18
5.0266339293879e-18
5.026687721853769e-18
5.026738746335154e-18
5.026772108677995e-18
5.0267838922759784e-18
5.026778347740281e-18
5.0267635679490466e-18
5.026747553367125e-18
5.0267357512380404e-18
5.026730294694454e-18
5.026730554737655e-18
5.026734350799014e-18
5.026739200528027e-18
5.0267432046849335e-18
5.026745425217889e-18
5.026745824764285e-18
5.026744947513146e-18
5.026743535931828e-18
5.026742226425934e-18
5.02674138984427e-18
5.026741113367492e-18
5.026741277503276e-18
5.0267416692500195e-18
5.026742082858477e-18
5.026742381326082e-18
5.026742513869834e-18
5.0267425000966236e-18
5.0267423980378325e-18
5.026742271941848e-18
5.026742169956525e-18
5.026742115028564e-18
5.026742107003551e-18
5.026742131158257e-18
5.026742168142269e-18
5.026742201711327e-18
5.026742222651929e-18
5.0267422290722044e-18
5.0267422243029024e-18
5.02674221394071e-18
5.026742203270872e-18
5.026742195733503e-18
5.0267421925285096e-18
5.026742193064177e-18
5.0267421957996716e-18
5.0267421990740845e-18
5.026742201668448e-18
5.026742203023529e-18
5.026742203171919e-18
5.0267422025105174e-18
5.026742201542971e-18
5.026742200683421e-18
5.026742200160233e-18
5.026742200013018e-18
5.026742200149601e-18
5.026742200423164e-18
5.026742200698096e-18
5.0267422008881626e-18
5.026742200965265e-18
5.026742200946847e-18
5.0267422008737335e-18
5.026742200788811e-18
5.026742200722896e-18
5.026742200689564e-18
5.02674220068724e-18
5.0267422007052624e-18
5.0267422007305375e-18
5.026742200752522e-18
5.026742200765567e-18
5.02674220076889e-18
5.026742200765023e-18
5.026742200757814e-18
5.026742200750738e-18
5.026742200745953e-18
5.026742200744109e-18
5.026742200744701e-18
5.02674220074665e-18
5.02674220074885e-18
5.0267422007505225e-18
5.02674220075134e-18
5.0267422007513615e-18
5.026742200750872e-18
5.026742200750213e-18
5.026742200749651e-18
5.026742200749327e-18
5.026742200749253e-18
5.0267422007493616e-18
5.026742200749551e-18
5.026742200749733e-18
5.026742200749854e-18
5.026742200749897e-18
5.026742200749879e-18
5.026742200749827e-18
5.02674220074977e-18
5.0267422007497275e-18
5.026742200749708e-18
5.026742200749708e-18
5.026742200749721e-18
