0
1.7741182953306544e-12
2.6739773611391433e-12
2.777865819725743e-12
1.5725795086450892e-12
-1.1077798338606198e-12
-4.798459732288898e-12
-8.267046341584102e-12
-9.675246296714282e-12
-7.133160378527076e-12
3.9929288710467503e-13
1.2106545312116834e-11
2.4642229530862454e-11
3.2309376351303514e-11
2.8503624223194035e-11
8.441291924987527e-12
-2.7426355694128383e-11
-7.059697440903754e-11
-1.0403415685476141e-10
-1.0560985393168756e-10
-5.605413936750342e-11
4.988927167725768e-11
1.927386765312005e-10
3.2351663315694046e-10
3.707667067169764e-10
2.627210161068895e-10
-3.751200194911489e-11
-4.935234533725701e-10
-9.710011047096122e-10
-1.2470947994665758e-09
-1.0688509758917162e-09
-2.6039990409160617e-10
1.145630618028729e-09
2.803176418608186e-09
4.041355580171737e-09
4.006557150619134e-09
1.9770547888699004e-09
-2.2047632499706024e-09
-7.727290539730145e-09
-1.2647112850727338e-08
-1.4189822242121084e-08
-9.634962024196228e-09
2.3119669672762623e-09
2.0053883331780944e-08
3.8210833327648034e-08
4.807563507193923e-08
3.997371222933582e-08
7.46939816829252e-09
-4.758248509194573e-08
-1.1113866084929139e-07
-1.5681362693893955e-07
-1.517191082612254e-07
-6.889759514047364e-08
9.595009800168908e-08
3.091945210008854e-07
4.938358462536105e-07
5.422772944052734e-07
3.515913950790445e-07
-1.2304524329690398e-07
-8.125367301294524e-07
-1.5017973413622622e-06
-1.85101271224835e-06
-1.4907102631222548e-06
-1.866275633410695e-07
1.9663586541587586e-06
4.399946924909737e-06
6.0776901191863215e-06
5.7340494713101615e-06
2.3651035683127333e-06
-4.124849809679603e-06
-1.2348971270052549e-05
-1.926082669577567e-05
-2.0692445858909923e-05
-1.2757400472179691e-05
6.070477123076333e-06
3.283500299000468e-05
5.8952809537819565e-05
7.117719820444111e-05
5.54196181614416e-05
3.2041291089630825e-06
-8.089776856503526e-05
-0.0001739469312288575
-0.000235280305321453
-0.00021626304236420854
-7.962982528210221e-05
0.0001755503738217142
0.0004923250228947942
0.0007503263710843455
0.0007882804313157737
0.00045973944063871136
-0.00028614352572428685
-0.0013240672691794506
-0.0023120832584502646
-0.0027343341989989013
-0.0020542531132497093
3.3215367790525696e-05
0.0033172883743756644
0.006876547824704991
0.009121849860246093
0.008194013401024212
0.002726385417264945
-0.007192001691944294
-0.019212391560539197
-0.02857433210021976
-0.029069536815573217
-0.015316358200537476
0.01397206391137937
0.05268140211794853
0.08542709218069328
0.08867667351099288
0.035778311895438175
-0.09458582208002095
-0.10877556896475132
-0.19100112467085975
-0.10220702240042212
0.01301967229822668
0.2125939438591948
0.14034422048689518
0.21259408304157343
0.0130198180760088
-0.10220707816804778
-0.19100156497080636
-0.10877643482802934
-0.09458692065061679
0.035777426351300656
0.08867660478585884
0.08542838108274506
0.052684217158218125
0.013975903564012017
-0.015312801455290662
-0.029068193179462992
-0.028577159369560855
-0.019220423621524773
-0.007204302527997382
0.0027134024093601002
0.008186354338740974
0.009126383055101736
0.0068981183492692185
0.003355155699904961
7.817656027729229e-05
-0.0020202392826011617
-0.002734385652937522
-0.0023659479557620678
-0.001436434864294534
-0.0004355939757876447
0.0003253343450005073
0.0007438909572692891
0.0008700758530557339
0.0008124681207541046
0.0006546245506452319
0.00041451731185240874
5.8161806097086536e-05
-0.0004433871301224772
-0.001042158855475249
-0.0015645724686876516
-0.001722090035659631
-0.0012015730133466298
0.00017380039874556244
0.0022601929674460814
0.004467347647461422
0.005788146672268253
0.005057108213092306
0.0014402453597990549
-0.0049537262185736
-0.012573845177576764
-0.01835209978419908
-0.018340279737785094
-0.009165572683367974
0.009920389202800457
0.035031809907658744
0.056634149941722056
0.060510068389975045
0.03124764918833964
-0.04215884741069681
-0.1602325936540062
-0.1090477309933231
-0.06091754759208273
0.019148242496389925
0.16254468883620188
0.18540243275732077
0.08081014304148829
0.01853332239158014
-0.04695567402984744
-0.16261681269750722
-0.16198433787742494
-0.054617177609825776
-0.023617708151458198
-0.032061579090270825
0.16396699122160444
0.20033980758339662
0.09321276512149103
0.034960763326938926
-0.0008359288342933123
-0.24738871404336776
-0.1304339777814488
-0.05726074960763314
-0.013137213932110441
0.03379274996151325
0.12127898976680936
0.07964216211537102
0.12106128288304664
0.0350862420319272
-0.008190085096418482
-0.04844916156020654
-0.12231537890499919
-0.2519084171115445
-0.038982362038470705
0.1331207770063721
0.0905992156680611
0.05722200834423244
0.24432053036245394
0.0468386993324857
-0.1530483785278761
-0.1764470375678014
-0.036667440527744316
-0.1315155449280359
-0.042336408939206545
0.05974278373475718
0.20290094918427926
0.2035920484580669
0.06021800809477802
-0.04555414717473937
-0.14035123378134373
-0.24747071614296226
-0.17764389657605795
0.0733105708144777
0.11879110644859331
0.17056701354723589
0.228344323372881
0.07525461451827963
-0.1179249074810039
-0.18107964918203184
-0.13040711242712671
-0.15758450501966584
-0.027234667116954242
0.11588258401337984
0.13228667790898757
0.07079439181379724
0.1547595533264931
-0.024281227385952887
-0.1040550382017981
0.05862207977120498
0.0024166821089981632
-0.12350280152445653
-0.14777459983685226
-0.07155099674909934
-0.0712845075972978
0.09102332507317977
0.2534408616629753
0.24089095530260285
0.05839179277505746
-0.10648573904063713
-0.2734226324106004
-0.2567236385167139
-0.056754483238170284
0.14031026534684768
0.15465244385077598
0.2012574279230318
0.08061695449259405
-0.023838977197205426
-0.14058144614322776
-0.09964500552294747
-0.12166739050876768
-0.010638675520288762
0.04731772715100894
0.07945858965803926
0.11862483312525209
-0.004762825393546524
-0.06856519317281175
-0.06187419553488975
0.014326095334224862
-0.052257605175424014
0.11610451726328122
0.08961189608135371
0.03525974182030215
-0.07669592857693104
-0.06516278146585099
-0.1318636589550181
-0.05893768743289357
-0.012240500751339591
0.04990926926229456
0.1649931278005685
0.15547796261339095
0.022806837510773798
-0.051630770146410765
-0.09913709720755266
-0.15305582983166768
-0.03897762968400552
0.030890634548367584
0.058014357546625275
0.05355637041814339
0.03254085717828324
0.008574628211137499
-0.009368123150387852
-0.017755129154686595
-0.017447406598143485
-0.011743638601665435
-0.004423934024575805
0.0016178453797706337
0.004954114569169199
0.005529910311737107
0.0041746707613645505
0.002017570482507314
2.4425355704791533e-05
-0.0012440694778528688
-0.0016587446959760877
-0.0014039455293708128
-0.0008050050358105398
-0.00017506375456488073
0.0002780784404194947
0.0004780656192167608
0.0004555201627922415
0.00029920571526522154
0.00010699652823348114
-4.798722894863117e-05
-0.00013108830962357902
-0.00014279304107869378
-0.00010567256387844089
-4.923355457154611e-05
1.829920875946284e-06
3.356918627461169e-05
4.318415237363732e-05
3.580201533902092e-05
1.9967082572614972e-05
3.7214676712922844e-06
-7.718209201182007e-06
-1.2549802384749268e-05
-1.1693591901254067e-05
-7.505475752190071e-06
-2.5150945412699035e-06
1.426783456799523e-06
3.4760552728232724e-06
3.688786824882867e-06
2.673133024989895e-06
1.1969387818496493e-06
-1.1034245630344737e-07
-9.03102435430155e-07
-1.1231021852260865e-06
-9.120928165502801e-07
-4.941653309958836e-07
-7.563311531801743e-08
2.1277277691311055e-07
3.289104245569516e-07
2.998326070317104e-07
1.8793853233408594e-07
5.853480938918524e-08
-4.159658449710923e-08
-9.198273208049181e-08
-9.518145385494474e-08
-6.752541820917799e-08
-2.897023392757286e-08
4.458780207030694e-09
2.4220253194601335e-08
2.9171614225770912e-08
2.3208082948893624e-08
1.2197856188162941e-08
1.427657365019804e-09
-5.832245323081446e-09
-8.607225687742311e-09
-7.679112458346602e-09
-4.6973175020990065e-09
-1.3458777408695711e-09
1.1943867110735302e-09
2.429270194529953e-09
2.4531205103916674e-09
1.7032660282648652e-09
6.976821515934982e-10
-1.5614507705749807e-10
-6.4770500271115e-10
-7.567635005673503e-10
-5.897913011366013e-10
-3.0022993804184377e-10
-2.3394232392787958e-11
1.5906506197784601e-10
2.2491330426192896e-10
1.9644405820460056e-10
1.171739113661051e-10
3.047850611223735e-11
-3.3881322059020523e-11
-6.403953740784196e-11
-6.315296907946816e-11
-4.289961622798472e-11
-1.6707656538823833e-11
5.0745727884010956e-12
1.7274343065754043e-11
1.960672186305526e-11
1.4968324223020385e-11
7.365615715892017e-12
2.5798991477898315e-13
-4.320039819695935e-12
-5.8699498886212154e-12
-5.020549299641932e-12
-2.9178756716101404e-12
-6.778739214907345e-13
9.505313968071612e-13
1.68417707088536e-12
1.62290250540219e-12
1.0777555563569958e-12
3.9643206312184594e-13
-1.5860268586481106e-13
-4.606541304737407e-13
-5.084409625788823e-13
-3.8043574520347817e-13
-1.8110686848548866e-13
1.2008074550164806e-15
1.1588811830303429e-13
1.5201386613326806e-13
1.2714187678575387e-13
7.140089003842806e-14
1.3486352732792736e-14
-2.774629192996744e-14
-4.553419169157769e-14
-4.2870780345107154e-14
-2.80017141489703e-14
-9.957075398314855e-15
4.5047084192388684e-15
1.2121319913870119e-14
1.2833737845148557e-14
8.65067685347421e-15
2.3510052813106084e-15
-3.517058541897586e-15
-7.175059993131527e-15
-7.764453184599772e-15
-5.292271426390331e-15
-5.363932111799521e-16
5.034644400064143e-15
9.39939584317887e-15
1.0323019910877875e-14
6.00838456883974e-15
-3.982912452613914e-15
-1.7808195858036956e-14
-3.089821183654784e-14
-3.653514619713965e-14
-2.781445116493785e-14
-8.624598698385863e-16
4.153230229714388e-14
8.742665670414282e-14
1.1627190873465367e-13
1.040151304841992e-13
3.289309825463635e-14
-9.617768221217655e-14
-2.5321350790913977e-13
-3.770633281809945e-13
-3.8744579071498797e-13
-2.1340116723387192e-13
1.6633331648932544e-13
6.840010905158572e-13
1.1645474429071947e-12
1.3496081240940808e-12
9.764779514090399e-13
-9.494477983467044e-14
-1.7419516310225397e-12
-3.486953812778417e-12
-4.526862583395104e-12
-3.939935154019637e-12
-1.0711554118022615e-12
3.99014597947488e-12
1.0022273506843408e-11
1.46159811188158e-11
1.4672501799351923e-11
7.530457624217345e-12
-7.468690001715512e-12
-2.7493590384624462e-11
-4.55927055118139e-11
-5.1728671870792276e-11
-3.5933789717384486e-11
6.7372754533140724e-12
7.085520430521876e-11
1.372699218409252e-10
1.7458415613219626e-10
1.4751794102585205e-10
3.2041598898310524e-11
-1.662519742940072e-10
-3.9770973157182814e-10
-5.675145361376216e-10
-5.561981598026746e-10
-2.642091745766156e-10
3.2746593702751987e-10
1.1011858699229703e-09
1.7813116094692862e-09
1.978339660413881e-09
1.3147660886266589e-09
-3.819076515088592e-10
-2.8751727666157153e-09
-5.398668488637002e-09
-6.7263163050398726e-09
-5.509719664229355e-09
-8.716815162057435e-10
6.887997986252726e-09
1.57571028818626e-08
2.200871937506267e-08
2.1042664010202962e-08
9.145666253448127e-09
-1.416387146464361e-08
-4.402277041891158e-08
-6.951746605206808e-08
-7.55505826630657e-08
-4.7852785293893353e-08
1.950440797635839e-08
1.1634567103199668e-07
2.1205930902039313e-07
2.5882136505022404e-07
2.0517361894279873e-07
1.9273709367168445e-08
-2.840267100017264e-07
-6.233984861312626e-07
-8.525298741591465e-07
-7.945137569767744e-07
-3.112722375005445e-07
6.058583403349817e-07
1.7567417442552067e-06
2.709878756562392e-06
2.880767707709932e-06
1.731150326524208e-06
-9.38883540837564e-07
-4.69598877277948e-06
-8.3195644361016e-06
-9.94634073123661e-06
-7.615607695787354e-06
-1.78931727697525e-07
1.1662405236816249e-05
2.4629379008020624e-05
3.2984986602505254e-05
2.9934861945702874e-05
1.0361940535286607e-05
-2.5678198078578557e-05
-6.998236165870272e-05
-0.00010551331858201697
-0.00010966855283912965
-6.21890369360788e-05
4.3496305591940985e-05
0.0001890869457917143
0.00032599263325453566
0.0003816973185381621
0.0002816074060494384
-1.5395200000597597e-05
-0.0004772610434098759
-0.0009720983993611015
-0.001275211910827367
-0.0011259423389087567
-0.0003351786453512547
0.0010800722783388904
0.002785743822676407
0.004111896504202591
0.004188932374527368
0.00226185443129409
-0.0018688967984976216
-0.007424144919034506
-0.012460393208390408
-0.014155177825685797
-0.009704808007028222
0.0022343605951044656
0.019921237380807314
0.03735448479179318
0.04428512832056732
0.027950861813096865
-0.023512533737473803
-0.11685442884203681
-0.05026455626973154
-0.012357131426595846
0.015573651004175881
0.054588500928522035
0.12225091137162371
0.028170912017521848
-0.027357569399014944
-0.05131845400954316
-0.053748678407188895
-0.04341270097580617
-0.025311513616953687
-0.0010008296977682886
0.028570732176578746
0.05909007985363544
0.07976371772534722
0.07294943671729352
0.01756080017111869
-0.10422208423554276
-0.09905460458021569
-0.15652639260036988
-0.04820945729390753
0.06710849421930894
0.23337353593890448
0.08601132439574996
0.04366729555724915
-0.09440734687563707
-0.14547144944352824
-0.13741037430914455
0.09708478025630485
0.12456880859556488
0.11355417342281242
0.03756720854183519
-0.12034483110625019
-0.16245463741829694
-0.07305169453565358
-0.01965519034297302
0.040249991740894775
0.14845615915772964
0.13472151642417518
0.008799380527152139
-0.04158511155628845
-0.046534313496789464
-0.045457228857299734
-0.0771940863188332
0.028482375433013896
0.05631805448169875
0.007529407580587999
-0.10139484645151052
-0.04250630259000291
0.017684155237168906
0.11103674023626263
0.06094925598461775
0.07785624923951244
-0.041519152931220375
-0.11122131215286447
-0.15106365283681855
0.01811069991777885
0.17734967635778992
0.11084355492042758
0.006948853914707997
-0.13987008934143427
-0.1267043255490792
-0.1415057602869346
0.03403015473569845
0.21798615857546272
0.2206714305145221
0.03987698674622098
-0.13822026608366358
-0.1326800812275994
-0.1591656337424776
-0.023344321960147876
0.08081344694944395
0.16779104142712087
0.0547200612592304
-0.04389601874124047
-0.11897436583581386
0.03291395674756395
0.010749366787508157
0.0106283111238479
0.02730002719288439
0.055761658841129796
-0.10708492879398598
-0.061139140085918364
-0.002915916321300964
0.07301113960813051
-0.028779904293754235
0.09242443480979523
0.03161092421124306
-0.021740105431573425
-0.08131843317001895
0.03958672672942313
-0.06847663209103982
-0.00902470334348413
0.020548033131604453
0.027405458637005775
0.020702754248220705
0.009001875731892478
-0.0015225627018050803
-0.00773871049330361
-0.009199087379710483
-0.007182631891283371
-0.003609211289580957
-0.00018342969610185583
0.0020654810030164643
0.0028580059224031663
0.002475418320963084
0.0014649056406874212
0.00037023484867504717
-0.00043729202184304223
-0.0008117456104127379
-0.000795572498505728
-0.0005373206311239834
-0.00020642313671195655
6.727309619402341e-05
0.00021944571268471116
0.000247285831217745
0.00018778222668884668
9.157208319174906e-05
2.1395305303664523e-06
-5.511596936459708e-05
-7.415748519864506e-05
-6.308165282756624e-05
-3.640304564264472e-05
-8.171008211216199e-06
1.2240470577134674e-05
2.1338747757983528e-05
2.0441637788608642e-05
1.3499791778150728e-05
4.897845099996961e-06
-2.0722096076569855e-06
-5.836264773048621e-06
-6.398032608961869e-06
-4.758415934549341e-06
-2.237172089699981e-06
5.572364973850879e-08
1.4891516388782677e-06
1.931781850296584e-06
1.6094725577430146e-06
9.036605878638772e-07
1.7528167606628267e-07
-3.402491937106721e-07
-5.603472481088503e-07
-5.248813429442371e-07
-3.3876937470425873e-07
-1.1537223002107047e-07
6.195579675126873e-08
1.5483872933231778e-07
1.6532672086286097e-07
1.2040981508643605e-07
5.444231186518939e-08
-4.274380403114667e-09
-4.0093849480116767e-08
-5.0255938283245505e-08
-4.1014810244291336e-08
-2.2378132299927057e-08
-3.607914297946252e-09
9.393769654240899e-09
1.4691223529146797e-08
1.3462031692269236e-08
8.48647111571811e-09
2.6919436833954995e-09
-1.8138952340691665e-09
-4.099296084383681e-09
-4.267093684795098e-09
-3.042678013549079e-09
-1.319158857360144e-09
1.827254505108037e-10
1.0760471739130358e-09
1.3057473723822717e-09
1.0439221406784673e-09
5.527334492885679e-10
6.958269082019655e-11
-2.578234954823323e-10
-3.8459049660783195e-10
-3.448761358749746e-10
-2.12206504116702e-10
-6.209022233565181e-11
5.2255167802345895e-11
1.0831113446134512e-10
1.1000544957086899e-10
7.677470847724584e-11
3.1807717353428625e-11
-6.563406159295726e-12
-2.8795978879514066e-11
-3.388438441422278e-11
-2.6538316400746573e-11
-1.3615164922289383e-11
-1.1929427731849324e-12
7.0387580374279245e-12
1.0052100349062904e-11
8.823948245844209e-12
5.29500706079204e-12
1.4106807321612948e-12
-1.4872800993944581e-12
-2.8574715313925225e-12
-2.833723558276493e-12
-1.9353812688939515e-12
-7.637751372228504e-13
2.1539912188614022e-13
7.674829022386355e-13
8.771762437476459e-13
6.727468269260695e-13
3.333060320625005e-13
1.428454973727826e-14
-1.9233785182277895e-13
-2.634108889923356e-13
-2.2655420888682683e-13
-1.3289905711218363e-13
-3.2509360830224044e-14
4.083748861770734e-14
7.42018702663553e-14
7.186393125599026e-14
4.766477637590211e-14
1.7179092672639273e-14
-7.778109726997935e-15
-2.14549338799652e-14
-2.3729438181723046e-14
-1.8079999000140648e-14
-9.178410772530625e-15
-9.948088141703377e-16
4.182626250397131e-15
5.84346683480614e-15
4.76130954198199e-15
2.280986006611929e-15
-3.105714278344894e-16
-2.1643572880993856e-15
-2.973204494347931e-15
-2.868588329238309e-15
-2.2185640042050873e-15
-1.4261482670910985e-15
-7.908368386784666e-16
-4.532336072240674e-16
-4.0951748024199625e-16
-5.655830631663521e-16
-7.994195587601133e-16
-1.0092938737828142e-15
-1.1379886775656439e-15
-1.1743928898819273e-15
-1.1402966416724504e-15
-1.071908622904099e-15
-1.0036792652570372e-15
-9.58433618387554e-16
-9.443559559021583e-16
-9.571020376996068e-16
-9.845319760283911e-16
-1.011931931544316e-15
-1.0265017182735599e-15
-1.0207151398405634e-15
-9.945325520919715e-16
-9.563135541702496e-16
-9.218960672068293e-16
-9.11101854520373e-16
-9.413015118536713e-16
-1.018798993159355e-15
-1.1304621045685637e-15
-1.2395805627118318e-15
-1.2904195359048758e-15
-1.2244167570696151e-15
-1.0070079918928338e-15
-6.582137508176562e-16
-2.7420759855647517e-16
-2.4032348083908422e-17
-1.0862711634873095e-16
-6.804223082522797e-16
-1.7401810320780476e-15
-3.0486780884161677e-15
-4.105338848581165e-15
-4.243235096547892e-15
-2.861175213429305e-15
2.418975570907136e-16
4.535599557684186e-15
8.594955459285368e-15
1.0283406835250004e-14
7.39271640372016e-15
-1.3103868325617865e-15
-1.4910537876172463e-14
-2.9547715801174714e-14
-3.8610365879948474e-14
-3.4396619187924976e-14
-1.1277060826037814e-14
3.032807695123898e-14
8.064461244767737e-14
1.1993199058147168e-13
1.224270008774336e-13
6.554462675965516e-14
-5.71469198766868e-14
-2.233806609908131e-13
-3.765067774058824e-13
-4.3345381923822803e-13
-3.1033191692503313e-13
3.669977826152009e-14
5.665818215789073e-13
1.1243105657805028e-12
1.4511900741842035e-12
1.2521360369040641e-12
3.19977828411495e-13
-1.3114161551319338e-12
-3.2439229478264225e-12
-4.699942721543381e-12
-4.685354208623449e-12
-2.353760266643288e-12
2.490648318219884e-12
8.918973035864685e-12
1.468257076897965e-11
1.655520597198419e-11
1.1355574181693683e-11
-2.458813000492758e-12
-2.3080241501332064e-11
-4.4297108300398894e-11
-5.599896046626616e-11
-4.6896099740050355e-11
-9.398883788089803e-12
5.4494330754222574e-11
1.286168435550279e-10
1.823771132347832e-10
1.7746220905740352e-10
8.223739702383744e-11
-1.0878744663060743e-10
-3.5707705892604805e-10
-5.735079803416405e-10
-6.329272842784162e-10
-4.1491763109033447e-10
1.341101617167151e-10
9.357182469599758e-10
1.7414647872019943e-09
2.15666509505849e-09
1.7500156529708464e-09
2.448937476067026e-10
-2.25453621545415e-09
-5.0936362081129864e-09
-7.070400336922444e-09
-6.710116270392785e-09
-2.8338434406308375e-09
4.6889081740062136e-09
1.4267316962711465e-08
2.237413332661197e-08
2.4160010595804407e-08
1.5075966503885935e-08
-6.710453534478555e-09
-3.7835352098718614e-08
-6.838014676798988e-08
-8.295508837032282e-08
-6.510797881934895e-08
-4.815439876922948e-09
9.284589464663223e-08
2.0143672276896844e-07
2.7378529587177944e-07
2.532007729228771e-07
9.588633757775661e-08
-1.9999283034638362e-07
-5.690492784326695e-07
-8.718795352086607e-07
-9.208035237801279e-07
-5.44335531696031e-07
3.1890475173114566e-07
1.5260342964022913e-06
2.6817613524237404e-06
3.186686678989131e-06
2.4142282443654008e-06
3.6346876126622646e-09
-3.807933385533278e-06
-7.955233881436358e-06
-1.0589270006137358e-05
-9.533594450408238e-06
-3.166840263471432e-06
8.45605396506484e-06
2.2657939586324086e-05
3.393679488265436e-05
3.503758011037856e-05
1.9510150345906034e-05
-1.4644806998185904e-05
-6.140707345439407e-05
-0.00010504899532181097
-0.00012225188294567684
-8.919186245762861e-05
7.012408818897985e-06
0.00015560000478848573
0.0003137478569043087
0.00040906428915336797
0.00035810148817707645
0.00010106147905615239
-0.00035500871061435124
-0.0009008918235572135
-0.001319719640978465
-0.001331355111554878
-0.0006936959926668914
0.0006560061873393805
0.002466267269258147
0.004113200849294852
0.004692338155644625
0.003302356050510318
-0.00050763185883329
-0.0062527651355069715
-0.012206690017571757
-0.015531816776121867
-0.013038283938764774
-0.0025708714285718796
0.01527849672709851
0.0357568587670668
0.04965232896993842
0.044824034959573746
0.009751815595685805
-0.06159913403856143
-0.16529695281952728
-0.08559652166836418
0.0025024937692582527
0.1262106294859456
0.10556378071725883
0.14535952808752575
0.03189068850308931
-0.06395681719476362
-0.17841015130130364
-0.14472150396911115
0.014738538735827965
0.09165712494862668
0.09025672094317996
0.02326447364671833
0.10813433009973905
-0.034739978886938264
-0.1818715781094591
-0.10622032915073376
0.02140859661366223
0.027919770221166422
0.13128163390236539
0.13433131091408793
0.02210105674135444
-0.0354979474100593
-0.07604752244195029
-0.13458776051374194
-0.034677449246093076
0.01653186437891383
0.028008220358844742
0.020075649859901585
0.017212634890002004
0.04080937648775045
0.10393288946361715
0.009407061164325605
-0.04853278820592792
-0.08002319840983867
-0.0948823540132494
-0.09977871078855875
0.10133485917159002
0.10390063514565549
0.09868300357892044
0.06975651315110457
-0.003537663758054034
-0.14082482010746114
-0.15341370487474548
-0.03886282597167358
0.01987435742302345
0.05006779138074017
0.08132096302258693
0.13738061242340754
0.030853836222255144
-0.03729769882319856
-0.07370040738221706
-0.08611265758379652
-0.07768225544988618
-0.04459015836048991
0.02180421753300492
0.12920203332271138
0.07753480559128458
0.05423199866298052
0.034012414940686624
-0.016166632623103652
-0.12842684203319407
-0.12449139402941407
-0.008740485290086348
0.03382511206534604
0.034243465916326765
0.032301633166153865
0.06772995763949163
-0.02777117409368857
-0.036115022906795975
0.04457763631206396
0.00028390677808309725
0.003908005015896959
0.02017673694728906
0.01199537844494364
-0.05261240147651045
0.005860865448491982
-0.017108808906186667
-0.10866689515653676
-0.041007469719604485
0.02238798209152697
0.11786377287446187
0.07239456138225145
0.096943638212144
-0.015443976148791779
-0.08637518744758163
-0.14522067680190248
-0.021375265938512255
0.061770620711413295
0.09003258199182099
0.05934019617971533
-0.02441440459422378
-0.14593894743153513
-0.08202189973217994
-0.004997605082383135
0.1114577973902747
0.08545507228907684
0.12149091594949499
0.009007123500020623
-0.07411817383169378
-0.15436036305930032
-0.05450059393990833
0.012152591673158653
0.043471665251573845
0.04633108588961243
0.03221908931487354
0.01270428522116992
-0.0037358578731191707
-0.012954792940754087
-0.014694765965436892
-0.011166037500964144
-0.005417113435996654
-6.25123424744291e-05
0.003375835302919713
0.004537961620735939
0.003903347744146812
0.002323703799694154
0.00061353692989561
-0.0006907157658581802
-0.0013861712799803033
-0.0015235742145966625
-0.0012706401215519323
-0.0007918326649312367
-0.00018997898722371672
0.0004809906795960993
0.0011555205798536637
0.0016922433112649693
0.0018542382058409372
0.0013672505103752752
5.801127070893523e-05
-0.0019668100174202964
-0.004180097079034204
-0.005631891210333291
-0.005168606466335959
-0.0018934228450165765
0.00421933000988542
0.011764539508768282
0.017695384649740662
0.017741422022499082
0.007574599502732821
-0.015467533139567407
-0.05066811589423776
-0.09305270372132826
0.0659327164514577
0.03607374680944335
0.025137012542899146
0.03607648673831129
0.06593842154235663
-0.09304413727554386
-0.05065793626193928
-0.01545871102522593
0.00757756361517586
0.017733804064942602
0.01767457562708551
0.011732759325346646
0.004185512239076396
-0.00191403118174518
-0.005158266243800039
-0.005577696501829543
-0.004083197716391603
-0.00185005978595922
0.0001486812478983612
0.001372057623761534
0.0017209751613065476
0.0014064198166629089
0.0007694153582777886
0.00012665804376786122
-0.00031947346808377256
-0.0005021402541211457
-0.00046116076182687536
-0.0002914504279322334
-9.320209852968866e-05
6.128981271634316e-05
0.00013992497021861035
0.00014604492457702612
0.00010437499555960078
4.546121766151276e-05
-5.992124142076481e-06
-3.668027384410875e-05
-4.466004024536128e-05
-3.578300347809599e-05
-1.9008091183937095e-05
-2.466732199892825e-06
8.768828530371489e-06
1.3143667816056612e-05
1.1813273585010681e-05
7.287805496207966e-06
2.1518448182304468e-06
-1.7688760215231367e-06
-3.6980875861180928e-06
-3.7656170224904106e-06
-2.634130622045311e-06
-1.096806562472263e-06
2.1793009446515504e-07
9.818588363214402e-07
1.159057690468652e-06
9.097546901576186e-07
4.6832642186408224e-07
4.2981574379448715e-08
-2.395533569944543e-07
-3.4362535675919865e-07
-3.023246473991375e-07
-1.8191959411315427e-07
-4.9007503043265836e-08
5.037291510366777e-08
9.754720812986428e-08
9.697851955934504e-08
6.637832596063322e-08
2.6317950567586897e-08
-7.236407774651292e-09
-2.6211056803660288e-08
-3.004378135817329e-08
-2.3100482177087094e-08
-1.1503871526630983e-08
-5.790475089922323e-10
6.514073840698619e-09
8.970913136529912e-09
7.728092119168504e-09
4.531895614876885e-09
1.0963777951203038e-09
-1.4192863168642041e-09
-2.5684754316052e-09
-2.4946964942955323e-09
-1.670104371833147e-09
-6.275723580581944e-10
2.277707568068818e-10
6.979545172508932e-10
7.778177913721185e-10
5.858067577704543e-10
2.816442129571627e-10
1.3646519828376288e-12
-1.7640494304624624e-10
-2.338794376301849e-10
-1.9731655048526128e-10
-1.1265379946126464e-10
-2.395639162002619e-11
3.9635798791063544e-11
6.751328643078003e-11
6.409978847394048e-11
4.1951685298848036e-11
1.485581092442096e-11
-6.92152938884912e-12
-1.8542899852326788e-11
-2.011435615999227e-11
-1.483682198400003e-11
-6.871334842139121e-12
3.1108350263629143e-13
4.7583636411296936e-12
6.0882409932118426e-12
5.0309271824667435e-12
2.7928421788207437e-12
5.055291025009809e-13
-1.0996902569170807e-12
-1.7727743533224818e-12
-1.6461756165410712e-12
-1.0530632261319001e-12
-3.4971703554688087e-13
2.0405717615975155e-13
4.905105504332597e-13
5.184962335684296e-13
3.7421273603659824e-13
1.6591909893618386e-13
-1.7924997802424987e-14
-1.2897166985671943e-13
-1.5932941857156573e-13
-1.2916583934888578e-13
-7.011383715551559e-14
-1.1196921047972752e-14
2.9262732155650366e-14
4.542741310020261e-14
4.117916513615509e-14
2.5339576634761746e-14
7.104882733267093e-15
-6.959247239927161e-15
-1.3998947206445267e-14
-1.439886081893753e-14
-1.0472820821756882e-14
-5.033821003119956e-15
-3.3353090109340396e-16
2.4336792436735074e-15
3.1148684044289984e-15
2.26373910913983e-15
7.084561843255292e-16
-8.073953968952414e-16
-1.825616269216537e-15
-2.21145979531154e-15
-2.0768578454819853e-15
-1.654922155193692e-15
-1.182749510204977e-15
-8.260254011220804e-16
-6.535856837609958e-16
-6.515209272662213e-16
-7.579028612894331e-16
-8.997306382693457e-16
-1.0197608772267268e-15
-1.0885704955661242e-15
-1.1035142560925685e-15
-1.0797151552319306e-15
-1.0388231062670191e-15
-9.998668639258568e-16
-9.742830259038228e-16
-9.651381164029024e-16
-9.692463694069432e-16
-9.80459354975842e-16
-9.92671287166741e-16
-1.0017073014604505e-15
-1.0059161308688213e-15
-1.0057581933856702e-15
-1.0028864820036338e-15
-9.991931330421048e-16
-9.96131581987503e-16
-9.944244632439622e-16
-9.941066692862608e-16
-9.947670512323997e-16
-9.958404391797073e-16
-9.968404424603425e-16
-9.974821860305202e-16
-9.976971328628393e-16
-9.975750029686256e-16
-9.97277674751838e-16
-9.969622062387618e-16
-9.967336307398197e-16
-9.96631311459468e-16
-9.966407851331033e-16
-9.96718040413786e-16
-9.968140935908215e-16
-9.968920891093973e-16
-9.969343378661374e-16
-9.969407940260769e-16
-9.96922589627112e-16
-9.96894458129172e-16
-9.968688174851406e-16
-9.968527483041133e-16
-9.96847746137225e-16
-9.968513063020052e-16
-9.96859174036518e-16
-9.968673139783404e-16
-9.968730879159815e-16
-9.968755643307974e-16
-9.968751820660547e-16
-9.968731102037008e-16
-9.968706153266226e-16
-9.968686307576664e-16
-9.968675879193888e-16
-9.968674661340675e-16
-9.968679651104338e-16
-9.968687012733148e-16
-9.968693579590481e-16
-9.968697595852402e-16
-9.968698745881333e-16
-9.968697723725276e-16
-9.968695645877691e-16
-9.9686935479787e-16
-9.968692091570521e-16
-9.968691495203469e-16
-9.968691628980175e-16
-9.96869218303219e-16
-9.968692830241228e-16
-9.968693334578135e-16
-9.968693591249263e-16
-9.96869361117608e-16
-9.968693475091897e-16
-9.968693282728004e-16
-9.968693114737696e-16
-9.968693014553138e-16
-9.968692988511995e-16
-9.968693017504556e-16
-9.96869307227846e-16
-9.96869312628533e-16
-9.968693162966153e-16
-9.968693177246103e-16
-9.968693172899304e-16
-9.968693158122077e-16
-9.96869314135303e-16
-9.968693128552695e-16
-9.968693122254986e-16
-9.968693122035527e-16
-9.968693125730447e-16
-9.968693130749973e-16
-9.968693135042415e-16
-9.968693137536312e-16
-9.968693138114537e-16
-9.968693137300338e-16
-9.968693135858987e-16
-9.96869313447026e-16
-9.968693133547873e-16
-9.96869313320818e-16
-9.968693133343104e-16
-9.968693133736267e-16
-9.968693134170225e-16
-9.968693134494681e-16
-9.968693134648675e-16
-9.968693134646792e-16
-9.968693134546867e-16
-9.968693134416066e-16
-9.968693134306516e-16
-9.968693134244571e-16
-9.968693134232066e-16
-9.968693134254742e-16
-9.968693134292607e-16
-9.968693134328275e-16
-9.968693134351432e-16
-9.96869313435945e-16
-9.968693134355392e-16
-9.968693134344956e-16
-9.968693134333738e-16
-9.968693134325526e-16
-9.968693134321773e-16
-9.968693134322016e-16
-9.968693134324708e-16
-9.968693134328111e-16
-9.968693134330904e-16
-9.96869313433244e-16
-9.9686931343327e-16
-9.968693134332074e-16
-9.96869313433108e-16
-9.968693134330165e-16
-9.968693134329585e-16
-9.968693134329397e-16
-9.968693134329516e-16
-9.968693134329794e-16
-9.968693134330082e-16
-9.96869313433029e-16
-9.968693134330381e-16
-9.96869313433037e-16
-9.968693134330297e-16
-9.96869313433021e-16
-9.968693134330139e-16
-9.9686931343301e-16
-9.968693134330095e-16
-9.968693134330111e-16
-9.968693134330139e-16
-9.968693134330163e-16
-9.968693134330176e-16
-9.96869313433018e-16
-9.968693134330176e-16
-9.96869313433017e-16
-9.968693134330163e-16
-9.968693134330157e-16
-9.968693134330155e-16
-9.968693134330155e-16
-9.968693134330157e-16
-9.968693134330159e-16
-9.96869313433016e-16
-9.968693134330163e-16
-9.968693134330163e-16
-9.968693134330163e-16
-9.96869313433016e-16
-9.96869313433016e-16
-9.96869313433016e-16
-9.96869313433016e-16
-9.96869313433016e-16
-9.96869313433016e-16
-9.96869313433016e-16
-9.96869313433016e-16
-9.96869313433016e-16
-9.96869313433016e-16
-9.96869313433016e-16
-9.96869313433016e-16
-9.96869313433016e-16
-9.96869313433016e-16
-9.96869313433016e-16
-9.96869313433016e-16
-9.96869313433016e-16
-9.96869313433016e-16
-9.96869313433016e-16
-9.96869313433016e-16
-9.96869313433016e-16
-9.96869313433016e-16
-9.96869313433016e-16
-9.96869313433016e-16
-9.96869313433016e-16
-9.96869313433016e-16
-9.96869313433016e-16
-9.96869313433016e-16
-9.96869313433016e-16
-9.96869313433016e-16
-9.96869313433016e-16
-9.96869313433016e-16
-9.96869313433016e-16
-9.96869313433016e-16
-9.96869313433016e-16
-9.96869313433016e-16
-9.96869313433016e-16
-9.96869313433016e-16
-9.96869313433016e-16
-9.96869313433016e-16
-9.96869313433016e-16
-9.96869313433016e-16
-9.96869313433016e-16
-9.96869313433016e-16
-9.96869313433016e-16
-9.96869313433016e-16
-9.96869313433016e-16
-9.96869313433016e-16
-9.96869313433016e-16
-9.96869313433016e-16
-9.96869313433016e-16
-9.96869313433016e-16
-9.96869313433016e-16
-9.96869313433016e-16
-9.96869313433016e-16
-9.96869313433016e-16
-9.96869313433016e-16
-9.96869313433016e-16
-9.96869313433016e-16
-9.96869313433016e-16
-9.96869313433016e-16
-9.96869313433016e-16
-9.96869313433016e-16
-9.96869313433016e-16
-9.96869313433016e-16
-9.96869313433016e-16
-9.96869313433016e-16
-9.96869313433016e-16
-9.96869313433016e-16
-9.96869313433016e-16
-9.96869313433016e-16
-9.96869313433016e-16
-9.96869313433016e-16
-9.96869313433016e-16
-9.96869313433016e-16
-9.96869313433016e-16
-9.96869313433016e-16
-9.96869313433016e-16
-9.96869313433016e-16
-9.96869313433016e-16
-9.96869313433016e-16
-9.96869313433016e-16
-9.96869313433016e-16
-9.96869313433016e-16
-9.96869313433016e-16
-9.96869313433016e-16
-9.96869313433016e-16
-9.96869313433016e-16
-9.96869313433016e-16
-9.96869313433016e-16
-9.96869313433016e-16
-9.96869313433016e-16
-9.96869313433016e-16
-9.96869313433016e-16
-9.96869313433016e-16
-9.96869313433016e-16
-9.96869313433016e-16
-9.96869313433016e-16
-9.96869313433016e-16
-9.96869313433016e-16
-9.96869313433016e-16
-9.96869313433016e-16
-9.96869313433016e-16
-9.96869313433016e-16
-9.96869313433016e-16
-9.96869313433016e-16
