0
1.6668459640903374e-17
1.8865196607206252e-17
2.2077306610044025e-17
2.5311156503116665e-17
2.6985663844992177e-17
2.537050974558354e-17
1.935225050899857e-17
9.341096731837909e-18
-2.0468698772706446e-18
-9.998593911118917e-18
-8.600817222580898e-18
6.884350029999644e-18
3.700228957813795e-17
7.540363920041162e-17
1.0797145258758896e-16
1.1526974462404215e-16
7.903456879479462e-17
-8.144885156294515e-18
-1.3287461039784335e-16
-2.554808362452214e-16
-3.143084055374391e-16
-2.433468966625312e-16
-2.2338478788179357e-18
3.8896700528935234e-16
8.245802716378193e-16
1.115706030111805e-15
1.0350071026920902e-15
4.0643483870649866e-16
-7.782414080292324e-16
-2.2579712934547095e-15
-3.4747748805982423e-15
-3.6763783178080745e-15
-2.1741740750439664e-15
1.2804666422467706e-15
6.1182877364812945e-15
1.0757962393694004e-14
1.279796292728591e-14
9.724007962958302e-15
8.270099663741203e-17
-1.5186438507332087e-14
-3.182506506209232e-14
-4.242824896363397e-14
-3.826738738952327e-14
-1.2823520157750869e-14
3.371746123212117e-14
9.066472063013906e-14
1.3599372324516906e-13
1.406219031430233e-13
7.864438877428434e-14
-5.805516562147115e-14
-2.454796832156488e-13
-4.207052413858245e-13
-4.902967949791286e-13
-3.5864509084172514e-13
2.6177304302322518e-14
6.214709236027654e-13
1.256028100095993e-12
1.6399171242613811e-12
1.4384548305592226e-12
4.111695099354399e-13
-1.415006941684371e-12
-3.6038022185658614e-12
-5.287012792822813e-12
-5.341664377237472e-12
-2.795557546894669e-12
2.6061000270471254e-12
9.858721897817162e-12
1.6462439120147583e-11
1.878617352377907e-11
1.3200511195727029e-11
-2.1326893316770244e-12
-2.5314716972430526e-11
-4.947674292816543e-11
-6.328009599927687e-11
-5.390973407358372e-11
-1.2532802099783608e-11
5.903698902698219e-11
1.430535958230895e-10
2.0533660050877257e-10
2.025769318830561e-10
9.838182202204835e-11
-1.1477572882191923e-10
-3.9509292119852474e-10
-6.434058035799438e-10
-7.187649083837794e-10
-4.836441438845489e-10
1.2629677460340637e-10
1.0280249334477851e-09
1.946514401791544e-09
2.4388453912296793e-09
2.0150325082491916e-09
3.5218026882255946e-10
-2.449403881665616e-09
-5.670002832509123e-09
-7.965655122676156e-09
-7.668153198681923e-09
-3.4189644220573833e-09
4.981514039037185e-09
1.580290846739902e-08
2.5117410511184113e-08
2.746001450405107e-08
1.7629536214321846e-08
-6.595017376348048e-09
-4.163010634671192e-08
-7.648456165755187e-08
-9.387661869103859e-08
-7.509943334957375e-08
-8.412999989555006e-09
1.0112638801753547e-07
2.244088804866297e-07
3.086555122561561e-07
2.896903639454632e-07
1.1695249469646526e-07
-2.1368413693482136e-07
-6.309250287283309e-07
-9.794139609945066e-07
-1.0475033845109596e-06
-6.388850092676407e-07
3.2176246283082585e-07
1.681429010161805e-06
3.0016488790980874e-06
3.608897248171837e-06
2.790080127950976e-06
1.2099307699864768e-07
-4.156942559908196e-06
-8.86930668594076e-06
-1.1945914906169816e-05
-1.0921114124514254e-05
-3.91935935002237e-06
9.077966582943577e-06
2.51455605642991e-05
3.814710144467995e-05
3.9895570006384876e-05
2.2997676744608005e-05
-1.5041881971127552e-05
-6.77477525684907e-05
-0.00011765826609005154
-0.00013855411717792637
-0.00010329662194938608
3.331254999938199e-06
0.0001702055474749416
0.00035005348972303005
0.00046176726065404823
0.0004107345921262666
0.00012762455130065783
-0.0003827731988618378
-0.001000886937960867
-0.0014846589422113086
-0.0015177128964708742
-0.0008220596274220547
0.0006827880136549915
0.0027258470911862903
0.004614832612552953
0.005333883746825381
0.0038581361396706317
-0.0003439205927731709
-0.006759166436254886
-0.013474317249045976
-0.01730885201199466
-0.014663534344025791
-0.0031008885704353712
0.016659325476475046
0.03900560862816046
0.052857003336889974
0.043031941707904996
-0.00619716458570425
-0.10605003308835413
-0.05832094066827302
-0.05265035610394451
-0.06750749453694423
0.1249931384484185
0.1519932381867208
0.03317517467210058
-0.023071597028072818
-0.01961363657927054
-0.16768462821292024
-0.08346423637379508
0.01368183390410981
0.10058693051312628
0.1486176564095721
0.12365235389374048
-0.009872025161461117
-0.08037519703901058
-0.0982111835973067
-0.2465942614299464
-0.07879652951640433
0.07574674483711734
0.0969961940810502
0.05538698746478716
0.19416206766101957
0.11847472276463582
-0.00524156621684376
-0.039201700774561345
-0.05629821402520525
-0.11946922289889472
-0.26454403592865566
-0.09185843928071948
0.03054570737488947
0.15298976991089006
0.12408199269708005
0.17130720283164771
0.08883638986864895
0.036612509919057644
-0.04888752874497552
-0.03541102376855885
-0.1729837191313747
-0.27604114951344694
-0.11560563477750828
-0.02478487394872884
0.08334178996608779
0.2909257915126379
0.4522225735478396
0.18081037661775212
-0.14778318021736114
-0.37943952953886045
-0.3587146957824191
-0.3110009286569103
-0.03821745089672154
0.2701313682127382
0.6166805362820189
0.578147391852015
-0.29949382957827597
-0.28815791234981764
-0.2520847939962195
-0.4213274266155008
-0.37653228674180717
0.5482036141832594
0.24586792937767102
0.2090168721137732
0.10528029310037916
-0.03597299191316528
-0.22361917731869405
-0.09460381586657611
-0.09938594855081077
0.11172910594470052
0.09857027997327657
0.03716957431876253
-0.0771304940623542
-0.029039630884551866
-0.18576676622570534
-0.1036173699528486
0.0611070067925906
0.3388529053374676
0.1353399951187841
0.026628958232909592
-0.03648168907002966
-0.11575028132975795
-0.2690291765132061
-0.13605428330880084
0.06868775115704172
0.15443780689350292
0.14617529394170276
0.07466979793267638
-0.031167352141070578
-0.147665407747011
-0.056217282352689614
0.05827408407258673
0.008388507892713755
0.0039391830833366585
0.05088717139475958
-0.049870975123772955
-0.10340736357685908
0.07876776841088005
0.0788662346793838
0.07421488618346374
0.04064764920867462
-0.042022267711956766
-0.18379278913510597
-0.180159380405045
-0.012428111947871282
0.1462496993245886
0.12082813073604391
0.12439340233297777
0.15281464257141816
-0.013227642573217324
-0.19926368601646954
-0.22472277739290322
-0.09264170782644467
0.013991941314850263
0.12765732191589016
0.0855516354306605
0.11716343277868958
0.03485381192501249
0.030453237277420882
-0.12163041818465663
-0.056577887965316605
-0.009659536425839535
-0.008094497231409476
-0.06625004953855994
0.015178952064632791
0.0465027217111539
0.0441812357554184
0.02550386980938379
0.0043974711095976894
-0.010713029716556053
-0.016940968784106357
-0.015493060766464626
-0.009632461250217382
-0.0028331307547787765
0.0024106584702435364
0.005011976551778517
0.005114628561799654
0.0035948319265466473
0.001517060096348646
-0.0002686256128112671
-0.0013140030012272327
-0.0015655576263110549
-0.0012365975294003813
-0.0006429502988284729
-6.692899375726641e-05
0.0003183471793066866
0.0004628162777588528
0.00040988551165393073
0.0002485684245311213
6.898037447153708e-05
-6.616476967797616e-05
-0.00013104569047444852
-0.0001312353682047454
-9.043290366559212e-05
-3.6416255303430616e-05
9.117772834687728e-06
3.5085835822582194e-05
4.057623054678959e-05
3.139754747959514e-05
1.579930339369914e-05
1.0030743398344003e-06
-8.671853639364816e-06
-1.2089450178045267e-05
-1.0482098237490127e-05
-6.196480066522562e-06
-1.5525835820882e-06
1.8699247368693434e-06
3.4523884901460515e-06
3.3771323518738377e-06
2.276439321524591e-06
8.70136606478563e-07
-2.910163491977125e-07
-9.34976595836369e-07
-1.0508858120272727e-06
-7.965332218017417e-07
-3.872152109565109e-07
-7.480303562008103e-09
2.351252517798383e-07
3.153131813193006e-07
2.6772854819224064e-07
1.5413535343631494e-07
3.41972201436723e-08
-5.2355850070379525e-08
-9.079545332070731e-08
-8.680535636539881e-08
-5.721255554925261e-08
-2.0647716627618445e-08
8.926757132796608e-09
2.4856084690905066e-08
2.718443057897085e-08
2.0180870443583897e-08
9.45653903060715e-09
-2.7795018342077826e-10
-6.3506672157798994e-09
-8.212811750966158e-09
-6.830099833268677e-09
-3.825406005004359e-09
-7.313610413934993e-10
1.4544181610918324e-09
2.383920991735553e-09
2.228686471451567e-09
1.4355026102868153e-09
4.859982979918583e-10
-2.663365028169623e-10
-6.59317435288468e-10
-7.023798160702485e-10
-5.106072148971948e-10
-2.3004497246753123e-10
1.9211499560375312e-11
1.7093511225786394e-10
2.136346395177153e-10
1.740356122084223e-10
9.471108328861853e-11
1.498608520118542e-11
-4.013204410500809e-11
-6.24932491096671e-11
-5.7155118343910006e-11
-3.5955131964435194e-11
-1.1329427679325057e-11
7.784980079179202e-12
1.7451899031399872e-11
1.8126740545740518e-11
1.2901608329111258e-11
5.572694230428697e-12
-8.021073994496945e-13
-4.585606444900405e-12
-5.550035695781818e-12
-4.430346467301325e-12
-2.341296952670046e-12
-2.901680246736076e-13
1.0979861265519684e-12
1.6348375765856918e-12
1.4668535201632948e-12
9.061649952563929e-13
2.717641403767409e-13
-2.1300852057531243e-13
-4.550737296238868e-13
-4.721708465136264e-13
-3.4516651915135046e-13
-1.6759679023026408e-13
-9.860129754615024e-15
9.513370683789508e-14
1.4718903205808023e-13
1.6280522140399227e-13
1.574182476022133e-13
1.3387091213282812e-13
8.155923597385198e-14
-1.367696539478129e-14
-1.5313979267999682e-13
-3.098678429522828e-13
-4.2315146712454346e-13
-4.103560352375866e-13
-1.9838950698439754e-13
2.3109920760861113e-13
7.982924595849361e-13
1.3064129816783059e-12
1.4709500767908046e-12
1.0098557539447679e-12
-2.1491616449655345e-13
-2.0449014274290465e-12
-3.930638107279986e-12
-4.975439198149914e-12
-4.1759723302702174e-12
-8.551467933318942e-13
4.8145481752611e-12
1.140274408779832e-11
1.6195938317753038e-11
1.5790030677726494e-11
7.36717435436513e-12
-9.575163683496413e-12
-3.163259934076975e-11
-5.090385127065805e-11
-5.6274504825045826e-11
-3.7029422983650384e-11
1.1634854286707747e-11
8.281153293627376e-11
1.544903542892039e-10
1.9163813681964107e-10
1.559048728123742e-10
2.259814019831445e-11
-1.9922072227981887e-10
-4.516104766045006e-10
-6.279330877706815e-10
-5.971417876505384e-10
-2.5419575956533716e-10
4.1307914475056803e-10
1.2640880656532707e-09
1.9860830108917646e-09
2.148367827903205e-09
1.3460924541636846e-09
-5.852276230358887e-10
-3.349134745339311e-09
-6.066783768847095e-09
-7.372017433151923e-09
-5.801782831918328e-09
-4.609096677062048e-10
8.20711662623108e-09
1.7861715419588325e-08
2.4317559390841524e-08
2.25364329652638e-08
8.615115214690893e-09
-1.7632254715324026e-08
-5.0424910937734685e-08
-7.740111391151522e-08
-8.189044288843793e-08
-4.8628394993753854e-08
2.7904947554563022e-08
1.3510854080526384e-07
2.3795243839195204e-07
2.832227658648031e-07
2.1519198526244682e-07
1.6234467357290214e-09
-3.36706955539353e-07
-7.054794040475318e-07
-9.406255333181377e-07
-8.487001314034166e-07
-2.8516328082343083e-07
7.460015515403555e-07
2.0080430637858227e-06
3.013011865259647e-06
3.1164277890812133e-06
1.7440363046522202e-06
-1.284427107794627e-06
-5.437715250792911e-06
-9.321894160154963e-06
-1.0866569304692204e-05
-7.952575432390573e-06
5.719679603204986e-07
1.3762547080216574e-05
2.7826916274717935e-05
3.634107616981161e-05
3.18875895263342e-05
9.13441106491358e-06
-3.1326955236746736e-05
-7.983475228180843e-05
-0.0001171538216876467
-0.00011839838899104967
-6.201653907875276e-05
5.765332090203132e-05
0.0002183686936420397
0.00036474740330970574
0.0004163245020754292
0.0002926463449267131
-4.7075991835207314e-05
-0.0005608444703461877
-0.001096518834153869
-0.0014028557297818662
-0.0011957754930541817
-0.0002792317827830284
0.001307232012355656
0.0031715404337733484
0.004558270428837507
0.004511045158211578
0.0022288063843758756
-0.0024470159439571653
-0.008578876190238777
-0.013957433664917798
-0.015455505744388842
-0.010053342526314662
0.0035623120833626455
0.023245752068563597
0.04219950333733439
0.04915288525539627
0.030470173624432852
-0.025919853533821462
-0.12581688468640764
-0.06510127508999534
-0.029073168115208405
0.004221469198473876
0.05733490294953073
0.1456964057609564
0.07187315250722685
0.024400794398265854
-0.01786079330307825
-0.07709212927257618
-0.1666935001678829
-0.08408143059310515
-0.009120133406640666
0.09086425262283765
0.051073596023248145
0.09767697257012946
0.03855548092109962
0.05920931387751009
-0.07511962882190656
-0.011955538611136957
-0.0009930450849682203
-0.08327363396087943
-0.08282618549880334
-0.0027143338464708728
-0.026270530993892562
0.07714537132420744
0.14386513131874656
0.007773221498424914
-0.10543887151972285
0.019314502508821513
-0.013015413246526166
-0.005335026719945855
0.034795605153760865
0.09886412981076392
-0.01868517043786277
-0.1170039054040037
-0.1872321085381986
-0.014457156936843444
0.015872741983928716
0.10828550046632616
0.24788898295794673
0.19584189242047775
-0.10677261535365276
-0.12621993282454483
-0.11786034574619472
-0.1082011551156073
-0.08308688588785715
0.014316511493835218
0.07515461641304588
0.008279893826735182
-0.08078063699028314
0.0890047684989866
0.15692892737379396
0.11082597314621698
0.08756671643564881
-0.015419212209677647
-0.11954851893230094
-0.14007584639722737
-0.1628051295837251
-0.028197428984095083
0.07372024778620702
-0.0025991138808115306
0.02728327844521482
0.05871032935340547
-0.021644558437606733
0.04766118685515026
0.0919751964521257
0.09718847208970065
0.01460975991765733
-0.026674339778506386
-0.10250932884921272
-0.07554275187569733
-0.18087211279702922
-0.019235800812550153
0.04057479171849798
0.05111846792756881
0.07097190441066738
0.1493552881983878
0.11514211130580213
-0.02691571939163012
-0.09238988366070199
-0.10805753788228989
-0.10143023397774084
-0.09292941601511168
0.10690844123662648
0.0952677491626761
0.07213997602882428
0.03570276948506262
-0.01972347220228089
-0.10258545209044453
-0.020949289865004817
0.020902531956028283
0.024654359334814184
-0.0016842456974891912
-0.04515376941906595
-0.09063606886669041
0.07532280234937482
0.06039383000137708
0.06338696782692282
0.07382519128546576
0.0751899875162758
-0.14858523268493637
-0.2055368659936654
-0.09031840196297049
0.01599540290496353
0.14016851898956437
0.10724707732067155
0.13123195929068754
0.009888937312471069
-0.07439162982134273
-0.1484765244807033
-0.039940774253931936
0.030640516126705365
0.0544204975999338
0.035633219368645
-0.009649100576146217
-0.05645922320374727
-0.07522302722374109
-0.037431175913233646
0.07757036631114929
0.07587887004045442
0.1445658189634113
0.05168040748891811
-0.04820561921404263
-0.20394264406592497
-0.056258649804116094
-0.028434048993891525
0.07820031188456512
0.08351626171553263
0.024012944043494872
-0.05362881800523211
-0.09958093622018992
-0.06817293178369625
0.07460242205109481
0.14422481053896852
0.13338319105486546
0.01255656439827814
-0.06356806909892243
-0.14516807000174936
-0.07523051352663646
-0.08032572473047293
0.033031965821896006
0.07594810179475188
0.07036427168225846
0.04087365099323972
0.00795369534098799
-0.015721873954686955
-0.02568877174827132
-0.023716628368379424
-0.014807036164530588
-0.004383644176811751
0.0035833465173277365
0.007316361473137738
0.007039000477162016
0.004252850399665386
0.0008793426153798938
-0.0014566587361281344
-0.0018741891605380315
-0.00040064072334566566
0.002107809660694211
0.004246615537866299
0.0045098811147723065
0.001855787362620105
-0.0037120712501821067
-0.010730894490755505
-0.016278654667593057
-0.016617007881107548
-0.008558250687297023
0.0086487108585426
0.03147798566065294
0.051186858193786225
0.054661878321006
0.027541145739993902
-0.0407510551035046
-0.15152144932048378
-0.09317709918685883
-0.04166901988122747
0.03410096416893324
0.16320473926554538
0.1631991100762631
0.03408233567310128
-0.04170397569996462
-0.09322846630284119
-0.15158064623591908
-0.04079801685238057
0.027535196632182863
0.05472462742304486
0.05132943803843265
0.031678748262714294
0.008844121345818362
-0.008466886201350981
-0.01673519546330832
-0.016670345691439128
-0.011362491475302937
-0.0044120954278464115
0.0013923516533391113
0.004648787286164211
0.0052692898170645696
0.00402361216202297
0.0019829427488871013
7.426699075839507e-05
-0.001156322243872955
-0.001574374838856685
-0.0013480213629277014
-0.0007845181960429139
-0.00018338785705170044
0.0002541201641355903
0.00045168576790684717
0.00043583397917255787
0.0002898935183391258
0.00010715213037105447
-4.1889505550136196e-05
-0.0001231322011175303
-0.0001361419768609876
-0.00010192122233627811
-4.848674344450455e-05
4.427744579780353e-07
3.126434961204957e-05
4.101736404916744e-05
3.439823512494793e-05
1.9483821472971887e-05
3.9713477977949125e-06
-7.0823611383385155e-06
-1.1868010986782487e-05
-1.119533022168586e-05
-7.278711073318966e-06
-2.5308275246829244e-06
1.2625187387960197e-06
3.269030669809624e-06
3.519261905920064e-06
2.5801977803774958e-06
1.181444361937048e-06
-7.200550886686832e-08
-8.426587257997567e-07
-1.0675185508954541e-06
-8.769167269812946e-07
-4.82870683212894e-07
-8.297113949872422e-08
1.9593332073108166e-07
3.113100135972944e-07
2.872389652986765e-07
1.8243988492215925e-07
5.9240058149109395e-08
-3.718580410195074e-08
-8.66027109507368e-08
-9.086578322726324e-08
-6.52289386576953e-08
-2.866747512857513e-08
3.4056270116889457e-09
2.2637562086835733e-08
2.774738747306118e-08
2.232823303925841e-08
1.1936814387973145e-08
1.6395591495375535e-09
-5.3871698796604e-09
-8.153397715110872e-09
-7.361261072307411e-09
-4.5646173743317595e-09
-1.3717086715673483e-09
1.0763023259078587e-09
2.2896355610856605e-09
2.3433918987432904e-09
1.6466759948579278e-09
6.923605987257983e-10
-1.2736825397015313e-10
-6.063263074002018e-10
-7.203132852428223e-10
-5.678236627404183e-10
-2.9427298667147116e-10
-2.9421937254959826e-11
1.4733631151618433e-10
2.132345593873647e-10
1.8843476493258894e-10
1.139759694181763e-10
3.1311835386648593e-11
-3.076579006389376e-11
-6.045323542487723e-11
-6.037689669672814e-11
-4.147762472467114e-11
-1.6551227156634586e-11
4.415606185265587e-12
1.632164939832426e-11
1.8746340793377838e-11
1.4368893302272358e-11
7.010999256377971e-12
4.9095366540332203e-14
-4.4520001070896666e-12
-5.890515032227585e-12
-4.791957818121313e-12
-2.277231501630813e-12
4.315323930287145e-13
2.3473866420283553e-12
2.8860573066615225e-12
1.9171109622046285e-12
-2.416766142423678e-13
-2.8633753875608148e-12
-4.9101133059796174e-12
-5.24406558385162e-12
-2.985919562092653e-12
2.016354227240442e-12
8.750563832910957e-12
1.4870265243020798e-11
1.704775491509021e-11
1.2001885346815665e-11
-1.895843367244941e-12
-2.2882652702458587e-11
-4.471141365026025e-11
-5.7120549176644064e-11
-4.854899299818217e-11
-1.106730741098875e-11
5.3615040846112564e-11
1.294008515918814e-10
1.8538631753676937e-10
1.8249356867479797e-10
8.798074685206641e-11
-1.0474749681200353e-10
-3.577149273315791e-10
-5.812184984155677e-10
-6.480110367106537e-10
-4.34218111031001e-10
1.1765768677131948e-10
9.318742536777707e-10
1.7594408899126114e-09
2.200266490129137e-09
1.8126281529725228e-09
3.0669568736064784e-10
-2.224471691762139e-09
-5.12854586636655e-09
-7.190792127300793e-09
-6.9062745689062665e-09
-3.0530744291405194e-09
4.541253930687516e-09
1.4305551937683664e-08
2.268731084083076e-08
2.475337655177913e-08
1.581972970538289e-08
-6.0955376058151156e-09
-3.7727111786879887e-08
-6.912601458712436e-08
-8.468323718104252e-08
-6.753689078597412e-08
-7.154846478064334e-09
9.180084836790245e-08
2.029523422557859e-07
2.7860094611851273e-07
2.6085865318633105e-07
1.0426222193842357e-07
-1.9460998004676937e-07
-5.710494794626836e-07
-8.84562402888402e-07
-9.44119257030523e-07
-5.729653508383768e-07
2.959856906163947e-07
1.5234356313370516e-06
2.712558341721506e-06
3.2550858709520326e-06
2.5083467384227903e-06
9.201743235859119e-08
-3.772172245071314e-06
-8.020261305204357e-06
-1.0781540084546673e-05
-9.832208517238413e-06
-3.486361136247649e-06
8.260957120042546e-06
2.275563366854135e-05
3.444907938898026e-05
3.595263293248211e-05
2.06107958036021e-05
-1.3793263553357655e-05
-6.136887485928723e-05
-0.00010631505714966781
-0.00012495529995563127
-9.283462701328591e-05
3.680290269617022e-06
0.00015440096682479743
0.00031651090671630793
0.00041672745069494603
0.00036973236941649035
0.00011323112185992796
-0.00034798506064101324
-0.0009054624889727898
-0.0013403618235087724
-0.001367224254691973
-0.0007359528811272247
0.0006244800513850406
0.0024672396631026947
0.004165061165826479
0.0047990759458420755
0.0034432397655988303
-0.0003821833847502163
-0.006213491109586858
-0.012322910601087296
-0.01583646801168375
-0.013490629032581131
-0.0030339610741090773
0.015025866069582052
0.03595942582075807
0.05047031087289843
0.046203254283820654
0.011323119819507196
-0.060524553399043536
-0.16557745586100125
-0.08793614553225469
-0.0019991247077213387
0.1204838821547239
0.10083340482968826
0.1450160726828874
0.0399802645478512
-0.04343905445558017
-0.14192407123772177
-0.08860782736889433
-0.10368918640674533
0.009996974021743042
0.06538001429136303
0.08491209037880094
0.09272993657843642
0.10849802500839414
-0.05497470474095755
-0.19031046350993214
-0.09228097853574531
0.04456143739566585
0.025475820765900884
0.052495562056039106
0.12064301784130115
0.015752173994057758
-0.08454875640979477
-0.0066254841786204275
0.025325010902614273
-0.004493586560188255
-0.09893181924795294
-0.04638416507142867
-0.023147891233214857
0.00035515407515307907
0.05071710292156201
0.1424408277356478
0.07153282011525756
0.014227138770559956
-0.06827458667726523
-0.020202773860872197
-0.07953316059797043
-0.0675223457826847
0.017805917802860807
0.0027776624975056037
-0.0661972899700701
0.06894005820625855
0.06726311778151238
-0.021681781832281883
0.03384495547316563
0.04333748518925732
-0.005822583716978367
0.0562278441476129
-0.009995531650413053
-0.04321232017323743
-0.0716204235939754
-0.10611605535573508
-0.13877158583568572
0.052396852993174065
0.09340030627673886
0.20225420473381733
0.17955511677500433
0.005673319506372521
-0.15402023040851076
-0.13801221521182888
-0.1763829948485439
-0.08257700186698164
0.14773589467643247
0.13105086819702563
0.0869344746588964
0.02971471313049136
-0.03595686486123419
-0.11492844276653996
-0.018056773657576613
0.04250529038026247
0.05761732813885876
0.024391662961494497
-0.05177146068411796
-0.15671770514864408
-0.06944580085885269
0.03304925530099765
0.16875232629819617
0.14393705921990274
0.1501852807354576
-0.03253602219571785
-0.22714977571917475
-0.2486326168035299
-0.09624707518311115
0.04707868807337021
0.20765141928843817
0.20958308746032575
0.06452474196505817
-0.032821138286811664
-0.10195509667996756
-0.168663921377834
-0.05601325566194434
0.02191398094091721
0.06169203512752851
0.06824186960580374
0.05073654681236684
0.019095013543927526
-0.017544941193020913
-0.05040164147452866
-0.06985784694492125
-0.06513341156784301
-0.026023904734267047
0.05325996598848667
0.1695807565773474
0.1081756865096234
0.044157519070088865
-0.050971976116319
-0.1994947758307462
-0.20821180725009533
-0.06412952401715931
0.062265887684904285
0.20690151956869385
0.1992503199256436
0.05216344439074818
-0.04148299763597315
-0.10450306714871503
-0.16604730308420054
-0.05153931322556101
0.024182454395661152
0.058698084412562516
0.059442328693050266
0.038936346002994525
0.010187656577869726
-0.01624751474656387
-0.03326885349627288
-0.03698347143599365
-0.026243055248962276
-0.0027502655749838912
0.02815060181026301
0.056635386271006234
0.06862344668155329
0.04807504384412522
-0.018396558064533542
-0.13561510279470468
-0.09485683318197821
-0.07243193822720667
-0.03359585788764196
0.05844839687329846
0.2310056596745599
0.09191368027841215
0.025208209442855158
-0.005364129696068388
-0.045708231875220225
-0.13700265485681562
-0.10233687201922789
-0.1388907748089538
-0.01850714920050634
0.10318424305476717
0.07185560798408448
0.1186737063438336
0.24899501633088486
0.03963068648590909
-0.154090924165795
-0.18378544307973851
-0.09120542710904193
-0.09513317948642253
0.013818314376753283
0.06950115763995032
0.11969691889290097
0.012612323250532955
-0.01558079595624843
0.05072817198868812
0.0033345519783595104
0.012316219571676784
0.0327427882608961
0.014651014953200562
-0.08561730144980213
-0.09509331867552569
-0.01739137021336447
-0.03142780819311441
-0.09634361341217329
0.03833284861329439
0.21982681586772643
0.08022251484157254
0.02930098232699713
0.0545094932158549
-0.07205316667412982
-0.18231104607314766
-0.10075895408100415
-0.03703791552693526
0.014999976883017992
0.07193925820587264
0.15181565711483067
0.06536026321303853
0.010909027799759973
-0.025356125833887595
-0.06445118055299141
-0.12732832122563506
-0.028338408729547623
0.028225956993412852
0.04771581924435666
0.041719893729943426
0.02352095496658323
0.004229116370056991
-0.009346708374972876
-0.014943988344652338
-0.013728841737938835
-0.008600552837404888
-0.002620267154589076
0.0020136850244270024
0.004336518542757475
0.004463855378796813
0.003157257978292946
0.0013481070277612617
-0.0002162020440633045
-0.0011383817869637905
-0.0013669249778606684
-0.0010853726757403025
-0.0005688561707887374
-6.471138413156493e-05
0.00027442081712939566
0.00040340874554997
0.0003592188005825059
0.00021923818571622266
6.230000488874914e-05
-5.642883365597792e-05
-0.00011395765123834551
-0.00011482354956323706
-7.95664915629486e-05
-3.244705959367892e-05
7.485111236333013e-06
3.0417740726833213e-05
3.544310914248416e-05
2.7570809929109286e-05
1.3992431344774778e-05
1.0376735945010242e-06
-7.482875296721493e-06
-1.054080610755329e-05
-9.188786674564321e-06
-5.468014797454209e-06
-1.4086724557051984e-06
1.5990906544363616e-06
3.0035819844125637e-06
2.9556650620005815e-06
2.003694819367198e-06
7.765434441531518e-07
-2.4206878174607543e-07
-8.111010690429784e-07
-9.182279881866564e-07
-6.996845711976878e-07
-3.4322427866875637e-07
-1.065198846125747e-08
2.031009612113571e-07
2.7501871385205344e-07
2.3476605586400364e-07
1.3609062729567474e-07
3.121834662436709e-08
-4.487308588123935e-08
-7.902652077259853e-08
-7.599425047860705e-08
-5.037868075631377e-08
-1.8461365718009242e-08
7.490679726450053e-09
2.1575761721739232e-08
2.3760069796071645e-08
1.7733173889124912e-08
8.39006968525792e-09
-1.3791130215878412e-10
-5.490891450447255e-09
-7.1657304275004255e-09
-5.99100952938055e-09
-3.3795693249706607e-09
-6.733743682366687e-10
1.2489153738989343e-09
2.0757791819762752e-09
1.951687400509528e-09
1.2645840919124091e-09
4.354977872382532e-10
-2.2489652984507638e-10
-5.726251853000377e-10
-6.140875335516791e-10
-4.4883429652639514e-10
-2.043142400703799e-10
1.411345289133128e-11
1.4792020082913855e-10
1.8645965653714842e-10
1.527022210282564e-10
8.37261623913985e-11
1.3974399127783499e-11
-3.451781371059326e-11
-5.443718244992006e-11
-5.0066039935451e-11
-3.168838174890464e-11
-1.0178877661421575e-11
6.6050579209866075e-12
1.516528620192267e-11
1.585275956881419e-11
1.1344463863169953e-11
4.954404447171215e-12
-6.337372763964498e-13
-3.9719502510351535e-12
-4.845606555529033e-12
-3.8874140540882035e-12
-2.068928474122482e-12
-2.7315201450769927e-13
9.482868590000359e-13
1.4254444425929003e-12
1.282876544971622e-12
7.926405807413813e-13
2.352895507640241e-13
-1.9073159817811648e-13
-4.008110377076743e-13
-4.087476833960361e-13
-2.863058943034997e-13
-1.1954906698519648e-13
2.324859607126087e-14
1.0635843346940061e-13
1.2578571297264076e-13
9.88606492005631e-14
5.1002577456430944e-14
4.822740065990642e-15
-2.5895168830899967e-14
-3.7251092693424776e-14
-3.281487244741816e-14
-1.9769675985523843e-14
-5.345069414761034e-15
5.4543852765954096e-15
1.0592521874504517e-14
1.0546321590839377e-14
7.234196666997754e-15
2.8883990822608157e-15
-7.563133888440442e-16
-2.8209083255113134e-15
-3.241908537176089e-15
-2.4916640631180106e-15
-1.2342728952034207e-15
-4.807679659566786e-17
7.231853918700306e-16
9.914036877392604e-16
8.576893310165813e-16
5.113521205701725e-16
1.3847690836311628e-16
-1.3491797899171374e-16
-2.6011634594733837e-16
-2.5250499936978055e-16
-1.6323320587015347e-16
-5.012888908887288e-17
4.278639517351799e-17
9.39539532138137e-17
1.0275076304669532e-16
8.199488839400902e-17
4.901209196197227e-17
1.8577720241930678e-17
-7.539553212354107e-19
-7.032417588504277e-18
-3.093821661945196e-18
6.0813492321848425e-18
1.5708853264070853e-17
2.2620466088989305e-17
2.5658413018414196e-17
2.529803236387886e-17
2.2899773844121802e-17
1.995990877512748e-17
1.7594072721513914e-17
1.632917477817998e-17
1.6155310344942235e-17
1.672600047772487e-17
1.758984351056611e-17
1.836980758903747e-17
1.8853485618004667e-17
1.8998868893153853e-17
1.8884865761721098e-17
1.8642287856232495e-17
1.8393997646620458e-17
1.821951622510244e-17
1.8146144219505985e-17
1.815962731589968e-17
1.822386263326782e-17
1.8300180648575843e-17
1.8360345962837575e-17
1.8391529765633964e-17
1.8394651941252214e-17
1.8379044863220774e-17
1.835645374260133e-17
1.8336488031671928e-17
1.832440933434009e-17
1.8321087500640234e-17
1.8324342306260515e-17
1.8330743475764468e-17
1.8337139424755935e-17
1.8341537651416615e-17
1.8343300363040278e-17
1.8342845823870523e-17
1.83411300809514e-17
1.8339151337651282e-17
1.8337623206153566e-17
1.8336856704381316e-17
1.833681112997484e-17
1.8337235925535345e-17
1.8337825880391505e-17
1.833833637505441e-17
1.8338637406987455e-17
1.8338712034334144e-17
1.8338620136016755e-17
1.8338451526677784e-17
1.833828695596779e-17
1.833817625797625e-17
1.8338134165784846e-17
1.8338148608557428e-17
1.833819431957209e-17
1.83382455613628e-17
1.8338284324200137e-17
1.8338303103883787e-17
1.8338303383469243e-17
1.8338291870143062e-17
1.8338276485131316e-17
1.8338263447790775e-17
1.8338255961286313e-17
1.8338254321493133e-17
1.83382568924701e-17
1.8338261326068857e-17
1.8338265555712144e-17
1.8338268337394842e-17
1.8338269335497488e-17
1.833826889382613e-17
1.8338267678878235e-17
1.8338266353499845e-17
1.8338265371534394e-17
1.8338264913061363e-17
1.8338264928785814e-17
1.8338265239650123e-17
1.8338265640325497e-17
1.8338265972887068e-17
1.8338266158649264e-17
1.8338266193600436e-17
1.833826612222896e-17
1.833826600583846e-17
1.833826589725618e-17
1.833826582747318e-17
1.8338265804000093e-17
1.8338265817148592e-17
1.8338265849368953e-17
1.8338265883609695e-17
1.8338265908451677e-17
1.833826591960034e-17
1.8338265918608273e-17
1.8338265910243648e-17
1.833826589982242e-17
1.8338265891349505e-17
1.833826588675143e-17
1.8338265886038915e-17
1.8338265888007123e-17
1.8338265891057793e-17
1.8338265893842102e-17
1.8338265895589657e-17
1.8338265896136282e-17
1.8338265895752585e-17
1.833826589489988e-17
1.8338265894016314e-17
1.8338265893388735e-17
1.8338265893118828e-17
1.8338265893159395e-17
1.8338265893383762e-17
1.8338265893654464e-17
1.833826589387007e-17
1.8338265893983586e-17
1.8338265893997107e-17
1.833826589394314e-17
1.8338265893863303e-17
1.8338265893791988e-17
1.8338265893748305e-17
1.8338265893735726e-17
1.8338265893746752e-17
1.8338265893769274e-17
1.833826589379205e-17
1.833826589380788e-17
1.833826589381438e-17
1.8338265893812954e-17
1.8338265893806952e-17
1.833826589379993e-17
1.833826589379445e-17
1.8338265893791655e-17
1.833826589379143e-17
1.8338265893792903e-17
1.833826589379499e-17
1.8338265893796814e-17
1.8338265893797904e-17
1.8338265893798188e-17
1.8338265893797877e-17
1.8338265893797282e-17
1.8338265893796696e-17
1.83382658937963e-17
1.8338265893796142e-17
1.8338265893796188e-17
1.8338265893796348e-17
1.833826589379653e-17
1.833826589379667e-17
1.8338265893796737e-17
1.833826589379674e-17
1.83382658937967e-17
1.8338265893796647e-17
1.83382658937966e-17
1.8338265893796573e-17
1.8338265893796567e-17
1.8338265893796576e-17
1.8338265893796592e-17
1.8338265893796604e-17
1.8338265893796616e-17
1.833826589379662e-17
1.8338265893796616e-17
1.8338265893796613e-17
1.833826589379661e-17
1.8338265893796604e-17
1.8338265893796604e-17
1.8338265893796604e-17
1.8338265893796604e-17
1.8338265893796607e-17
1.8338265893796607e-17
1.8338265893796607e-17
1.8338265893796607e-17
1.8338265893796607e-17
1.8338265893796607e-17
1.8338265893796607e-17
1.8338265893796607e-17
1.8338265893796607e-17
1.8338265893796607e-17
1.8338265893796607e-17
1.8338265893796607e-17
1.8338265893796607e-17
1.8338265893796607e-17
1.8338265893796607e-17
1.8338265893796607e-17
1.8338265893796607e-17
1.8338265893796607e-17
1.8338265893796607e-17
1.8338265893796607e-17
1.8338265893796607e-17
1.8338265893796607e-17
1.8338265893796607e-17
1.8338265893796607e-17
1.8338265893796607e-17
1.8338265893796607e-17
1.8338265893796607e-17
1.8338265893796607e-17
1.8338265893796607e-17
1.8338265893796607e-17
1.8338265893796607e-17
1.8338265893796607e-17
1.8338265893796607e-17
1.8338265893796607e-17
1.8338265893796607e-17
1.8338265893796607e-17
1.8338265893796607e-17
1.8338265893796607e-17
1.8338265893796607e-17
1.8338265893796607e-17
1.8338265893796607e-17
1.8338265893796607e-17
1.8338265893796607e-17
1.8338265893796607e-17
1.8338265893796607e-17
1.8338265893796607e-17
1.8338265893796607e-17
1.8338265893796607e-17
1.8338265893796607e-17
1.8338265893796607e-17
1.8338265893796607e-17
1.8338265893796607e-17
1.8338265893796607e-17
1.8338265893796607e-17
1.8338265893796607e-17
1.8338265893796607e-17
1.8338265893796607e-17
1.8338265893796607e-17
1.8338265893796607e-17
1.8338265893796607e-17
1.8338265893796607e-17
1.8338265893796607e-17
1.8338265893796607e-17
1.8338265893796607e-17
1.8338265893796607e-17
1.8338265893796607e-17
1.8338265893796607e-17
1.8338265893796607e-17
1.8338265893796607e-17
1.8338265893796607e-17
1.8338265893796607e-17
1.8338265893796607e-17
1.8338265893796607e-17
1.8338265893796607e-17
1.8338265893796607e-17
1.8338265893796607e-17
