0
-0.0016675971041797005
-0.011527466738227177
-0.017459848795017566
-0.016133773482652686
-0.0058191262275479145
0.01233644069059726
0.033247973327956724
0.047744367816643575
0.044004688090034674
0.010820119081296313
-0.05790290720095392
-0.1589306148768068
-0.07786092473130458
0.008697635989343647
0.1268543751148768
0.09707056227887151
0.12705175626175508
0.008978695692156154
-0.07768667780687868
-0.15906099456835432
-0.05845284640053663
0.009906555473795688
0.04300570116686006
0.04713626143239062
0.03357703063932034
0.013989562213077192
-0.002893038135953061
-0.01264583818549872
-0.014806586701462095
-0.011493846751431683
-0.005766807057467862
-0.0003135458624535056
0.0032544361539874724
0.004509403838421634
0.003905033182367226
0.002310186256504476
0.0005846867605799305
-0.0006860134606027414
-0.0012729515339200861
-0.0012443063618831798
-0.0008351036974087716
-0.0003126973765089531
0.00011845220137823293
0.00035742893646325316
0.00040029997747118755
0.00030572438380672024
0.00015367509851553057
1.2674431867763821e-05
-7.736695797304172e-05
-0.00010708688779455862
-8.937152259913429e-05
-4.716606668145135e-05
-2.625511656125816e-06
2.9503664997243963e-05
4.3760976854450006e-05
4.2264265856397214e-05
3.126607977349955e-05
1.7685451488950817e-05
6.7055941150504685e-06
7.951422928734272e-07
-6.467177497980355e-08
2.5393601164316958e-06
6.523098366410361e-06
1.0137599677171086e-05
1.2391377342148436e-05
1.3081387535534957e-05
1.2566779016352048e-05
1.1450429823029723e-05
1.0301442156536663e-05
9.490086267009092e-06
9.145363938349551e-06
9.203391018157284e-06
9.498157853369856e-06
9.850802478565537e-06
1.0130105034375912e-05
1.027590884592874e-05
1.0291780189894516e-05
1.0220492781990734e-05
1.0116289232724149e-05
1.0023752922337696e-05
9.967451391685587e-06
9.951625639460061e-06
9.966333723393157e-06
9.995763156549985e-06
1.0025323343130289e-05
1.0045753019111624e-05
1.005405543817828e-05
1.0052131373711503e-05
1.0044379000564965e-05
1.0035388166139334e-05
1.0028416947531466e-05
1.0024846234675386e-05
1.0024434259939653e-05
1.0026008320622569e-05
1.0028221711674464e-05
1.0030108375681258e-05
1.0031314161646982e-05
1.0032016366236426e-05
1.0032633570295492e-05
1.0033470149052177e-05
1.0034441394287708e-05
1.0034995057233312e-05
1.0034288734923848e-05
1.0031603046473842e-05
1.0026875671075178e-05
1.0021150927736102e-05
1.001668855906042e-05
1.0016506892340294e-05
1.0023283324221086e-05
1.0037798627410842e-05
1.0057433787262352e-05
1.0075488466453322e-05
1.0082126680830295e-05
1.0067420006630238e-05
1.0026199869119382e-05
9.96337464349142e-06
9.897360912788176e-06
9.858845096654571e-06
9.882777778338218e-06
9.993620194418832e-06
1.0187198234254354e-05
1.041613779855482e-05
1.0588137573755432e-05
1.0585380965339673e-05
1.0307789782624868e-05
9.732641507768721e-06
8.970667427445163e-06
8.288942882695124e-06
8.07001420632642e-06
8.690395354934574e-06
1.033151316701015e-05
1.2777062077623064e-05
1.528874725418265e-05
1.6667151251182797e-05
1.5575179338137205e-05
1.1117092420255883e-05
3.536120373213935e-06
-5.244313185328761e-06
-1.1593252977425286e-05
-1.0970509412557355e-05
3.6360029186611967e-07
2.3040629170038927e-05
5.24687060391992e-05
7.806365935207762e-05
8.49869788337883e-05
5.898916138662792e-05
-6.225989325899238e-06
-0.00010128213740884634
-0.0001966544413150652
-0.00024552518242954935
-0.000196819224368386
-1.790396102802208e-05
0.00027862349043138065
0.0006148904953661466
0.0008482360715856555
0.0008039086122105326
0.0003425560589084084
-0.0005505564970402994
-0.0016859556707082245
-0.0026447988044824683
-0.0028521182590088992
-0.001769456068094149
0.0008188158131070173
0.00451233653137451
0.008135459695481878
0.009868307861290634
0.007772472806801755
0.0006816298040781814
-0.010770240662142888
-0.023411536755823727
-0.03162402439866994
-0.028710829040880324
-0.009636155911292167
0.02536232386424206
0.0674611420585546
0.09787312105183724
0.08993716474847001
0.015289037965870408
-0.14696097135631905
-0.2010205610021828
-0.12925577520266818
-0.09446406459819433
0.1497118133725843
0.2431856428671974
0.20447878045006687
0.022724705351286602
0.06052157621701661
-0.13269174220073487
-0.20115278403724413
-0.16394421582147198
-0.003442149635830733
-0.06527019057434934
-0.07034522836636102
0.06393580165545153
0.19892421443144453
0.15334766136286462
0.2922633140875495
0.13122200764818875
-0.04354342279205806
-0.34335739127318177
-0.24296478634014396
-0.3553446797796859
-0.22491382842180185
0.05710639462987085
0.4190179167726962
0.36743272381049386
0.35263859558984345
0.152690036680554
-0.11842404790658524
-0.38204418116680017
-0.35637872961883316
-0.32209526594553783
0.09678626425417891
0.13215573894696825
0.2544020635037538
0.14680492461437405
0.08127775913941615
-0.0976386476367482
0.022054274465947266
0.02425375480970656
-0.12458147006627177
-0.06253693474315757
-0.02075054778734812
-0.015973329705208913
-0.04837884379351406
0.09573535707274747
0.03791278109899968
0.0003157878432355564
-0.0006538054015286087
0.04145776478992354
-0.07833037266173025
0.02467569785537175
0.12817158315947774
0.007944862492148548
-0.1559410570007697
0.026880116310219658
-0.03889184855157651
-0.1339561677599856
-0.028747711091292007
0.10822591001982139
0.10023259536917684
0.1537361571441659
0.054824676835603006
-0.027440015608214057
-0.13144136196339493
-0.09039434814008715
-0.12114334147139161
-0.018254601686845263
0.04475447272928786
0.10777828456580812
0.012829939758962024
-0.007403913404024915
0.06181462122044153
0.013270494169990798
0.019042300672091596
0.03669103269582855
0.01924197037878629
-0.07300493757538755
-0.0615096658266711
-0.14240412163176885
-0.08594935462277363
-0.043838570045109174
0.03661937127853644
0.19498784336518088
0.2423897869085483
0.15427447388629434
0.07521645421114463
-0.06428454850213451
-0.3238017820164549
-0.330250060528836
-0.26573092557503863
-0.07235180542366285
0.12567955074568568
0.3895653635327659
0.535314639952496
0.5184391336342796
0.04297195720674379
-0.405392008455807
-0.7131962447299935
-0.699121636014435
-0.4990298269867307
0.013434017768101464
0.775044648179996
1.069237780996844
0.877740760099066
0.07149877448345388
-0.35002984213108657
-0.7821985555567849
-0.7282369355650284
-0.9343964381474905
0.027714602968896128
0.3227308689319117
0.36703813670700325
0.32269397473994366
0.9999121849034117
-0.20530970980783772
0.07811707525941802
0.8410801244010079
1.1857263402451688
-2.9559493146408906
-0.7060566256695034
-0.3623711015505238
-0.38549591058479726
-0.85847743207479
2.800373387285202
1.3104856086921683
0.43288551297650113
-0.46200249395260473
-0.7561795763692927
-0.6971176018102606
-0.49874355198556797
-0.26509551187379615
-0.15788125486241125
0.1876914634768324
0.40882219424911176
0.34177741864312217
-0.04900512797792484
0.2792769811606471
0.8311440647279701
-0.006316464628678318
-0.5090729893327642
0.05882019555647854
-0.6796988692719178
-1.3625078859335413
-0.2773372792638441
0.6014813683876216
0.7390017356181215
1.3546436549966165
0.5585171081761227
-0.06685488094103753
-0.6347866976269542
-1.0894803079678093
-1.138218212619137
-0.010528983438320878
0.5399309382152914
0.7957541162769705
0.6204019854950663
0.4142987406618479
0.10201131180821307
-0.4450478430705825
-0.761314912787573
-0.33567034812238955
-0.1771253891446001
-0.011143623198837
-0.10829304673844742
0.06405704623162395
0.18360112358118824
1.0286603394662948
2.667205174966274
-1.7077409629753033
-0.8996524182004524
-0.8122967956179764
-1.1761409763964774
-2.5346383475927152
2.293688907156553
1.2925006578071276
1.3079319881910292
1.1478978876310149
1.9641505771460883
-2.670990268195027
-1.418978396523865
-1.0145745757758262
-0.9512351343643961
-1.854332093100681
2.650483905924509
1.8025659268047636
1.1584077904744843
0.0859886518356281
-0.46557323909557474
-0.7223525359713019
-1.1972124528700467
-0.9963565906239809
0.44689529175119225
1.7978127311060854
-0.787339521826281
0.3163625324541227
0.38183751186176107
-0.28254570926833383
-1.5400753591797298
1.1658146395079205
0.196371596792909
-0.10390067243877782
-0.2293335651133411
0.07008717680042056
0.18031574630801822
0.22458760549445528
0.07556120425552815
-0.021786877275579687
-0.2195152653239159
-0.23473404766101566
-0.12442201104383528
-0.0740114907095415
-0.0030155004440122262
0.013693841451131526
0.11433513123040595
0.21615494393932297
0.18711546289755143
0.030170920965546112
0.08378669024522507
0.03815009172848426
-0.2375291458621485
-0.26410845312052544
-0.12645072229831256
-0.05919803827623561
-0.047569912183240574
0.15846768818461376
0.222423449557044
0.19973149483025254
0.12373905212168716
0.0034904231902984683
-0.16703211657854075
-0.19301319392765287
-0.2636667837671297
-0.1449809368508856
0.015704435184543244
0.2743055274357198
0.2696529739805471
0.2066403172365618
0.05024662958898463
-0.06652291322855738
-0.22338366338255758
-0.28929486386073977
-0.10339577017306184
-0.06711079810987669
0.050244582448331875
0.09514216912467466
0.30949641239148673
0.314502297092942
0.10550226919281587
-0.13941016369034856
-0.24017705056356398
-0.3933012856116234
-0.35850067338639785
-0.06141281051797278
0.1860887849586996
0.4543052172473002
0.5652602225931651
0.27697783955287747
-0.10882933012944286
-0.3163545752346757
-0.45306230905966044
-0.571031508424977
-0.24753080690143212
0.20720628264166374
0.5177745547217539
0.39945605315301147
0.31899209644742854
0.07419435921052259
-0.20207485340848197
-0.4177264367281903
-0.28813660350301484
-0.10640685393897092
0.07378391160345478
0.2403960238324841
0.2141947241518837
0.035753070106062344
-0.04572557081811097
-0.1792248243159815
-0.11537872033939234
-0.009227144012204057
0.17588229106585446
0.06355343070048194
0.06079834250359702
-0.042224012790461375
-0.06858577688583108
-0.04829219771464154
-0.011492015879986044
0.016823656141417398
0.019604593941004802
-0.01204313759558492
-0.08071369983316955
0.014025358913142646
0.07174953560065588
0.08784768999405883
0.05217210218090953
-0.04929612531019805
-0.02990148703336088
-0.09640305222932798
-0.04398248281722194
-0.05417436578266521
0.10346805296556345
0.06669726867027573
0.07475292473719711
-0.036605888645886216
-0.03817647578681115
-0.1088521133989501
-0.03689504881751387
-0.022058478542235374
0.12146713061728612
0.16275767026132798
0.05478393067110801
-0.060348144940129016
-0.041777542878445574
-0.13836620386947007
-0.17903201527346974
0.03171198294998383
0.111616864573046
0.09320227764793805
0.014167767285781972
0.10934461353704822
0.0065892475641552714
-0.07295887728255109
-0.11169804715885603
-0.09206451532530269
0.004700530067026824
-0.003794030713544741
0.09363849495097284
0.0959009580103857
0.1861415448259513
-0.06706671033674452
-0.10357017865670756
-0.16258031809872428
-0.07440880426450165
-0.056450730002004894
0.08517394698629979
0.14969221878908567
0.1349476688705757
0.03378659617377299
0.0360161183520541
-0.06429773885731226
-0.2591335969416364
-0.11894671812999028
0.008532914844377678
-0.008853518033064507
0.09812596744957713
0.18308951901847204
0.06965850664560014
0.14443282498459087
-0.04026417116880098
-0.15462476171208622
-0.07424813340564299
-0.06292591321738866
-0.16023843838340515
0.023044177645215744
0.10143121110766821
0.10527035520387959
0.06923828752235839
0.022687569243936244
-0.015631984286744515
-0.03803343086091356
-0.04484026817083051
-0.03998527006275588
-0.02734036447032151
-0.009099015407925942
0.013526095564261133
0.03803593431727365
0.058237519030236384
0.06329072886407139
0.039355828700281086
-0.02603387366081128
-0.1380892819032572
-0.08972235846582768
-0.05995845358932635
-0.017415368653432017
0.07155591671322792
0.23263632573926102
0.07505594948919153
-0.011648822266959069
-0.054197622561685
-0.08681327089557572
-0.14064071137570985
-0.035300156946189674
0.02463975704021369
0.04762305089990581
0.04898038918571352
0.04344645932026472
0.03911534578993237
0.0347815859600376
0.02134903421970752
-0.013326955066489898
-0.07795462020974758
-0.1722520011349407
-0.08496511153325094
0.002929034328293909
0.11035606762865482
0.24663797327610842
0.2049146398745367
-0.03751934736210293
-0.11085600715616947
-0.23925823919448452
-0.22801279543530456
-0.05740738764139094
0.11336684155582669
0.13339113964096136
0.2432640661324013
0.06093712852355967
-0.024710323986994544
-0.05077404738460877
-0.06955358953107081
-0.13431167040122519
-0.08623138878167934
0.053935092523355384
0.0881559923461082
0.03814273148415206
-0.060830842599562236
0.03273444867624345
-0.04066367046750178
-0.04805292509023415
0.030656876913166636
0.19925580984106625
0.04483862131818853
-0.058784108451673436
-0.14436616174872668
-0.043395685819643016
-0.18020641217203517
0.029731130904668383
0.17728359883968148
0.255298628089888
0.056163139850413844
-0.025855932902976955
-0.18760318533292994
-0.2089335263143921
-0.2489100951606068
-0.05064115691148953
0.24458381291064923
0.27795339081368053
0.2561663531611521
0.14456206903289637
-0.12555570223270218
-0.2371057844287938
-0.261862608461345
-0.23872488769328434
0.036872225607740026
0.2096266463880333
0.14983927371882919
0.13408127306455758
0.02784196503671143
-0.12553925220450907
-0.10886423460533914
0.07020036243994413
-0.016865945435912667
-0.01443658976234731
0.0226616735664866
0.035036164245353184
-0.03465782758145081
0.16571920050139072
0.0057629264208196385
-0.11998361817487013
-0.18707098791019733
-0.14152919974368755
-0.10789166209980136
0.19518360293962952
0.2351541430424006
0.24788394627471558
0.028440941946533425
-0.06591437792990246
-0.1014731298464212
-0.1476734968195201
-0.2576456393573215
-0.05606616883983483
0.06225592030950019
0.12371064224545364
0.16149796429832783
0.20173446032790776
0.05554662120958886
-0.08026774460583921
-0.2153121103678124
-0.15493650902929812
-0.09249989191309033
-0.008629884150233753
0.12185001105256443
0.11823780192830403
0.18262733885081123
0.09408153407432464
0.011396983711589313
-0.1157764610895319
-0.13107446923619825
-0.2565626336643702
-0.0846281232315393
0.01993002780725896
0.10799623335088968
0.22871001743727076
0.2131272968600294
0.06527061672778961
-0.036036895905290085
-0.12551047578276325
-0.23487593787491712
-0.17844792365380036
-0.1470236321505989
0.08696361721425558
0.15468365183554528
0.27237720042853875
0.22691227351118654
0.17215553339595113
-0.16118196093674533
-0.24513043543498256
-0.33121039459077356
-0.23393185463426153
-0.12839986514030288
0.236228705135189
0.31243961727808633
0.3292596484674673
0.27747972566081847
0.11272773158710438
-0.22306377207056458
-0.3690059111276357
-0.5142153507166753
-0.3821886037714516
-0.039822751733432846
0.26864831780431675
0.47267280140395024
0.6284125326219108
0.2918593453988255
0.12415641444250428
-0.06965335788951244
-0.47916305709234586
-1.023966110958088
-0.30798530019565457
-0.009656276332192567
0.08718947995882376
0.431253650924691
0.8307777940497545
0.39318582116209505
0.09608558353587124
-0.40272897977098987
-0.3217422939725919
-0.09383515596287306
-0.10411587869659744
-0.042263716705611375
0.12162965394943141
-0.2661706949249439
-0.7742569062261223
-0.5431643044146152
0.038593534334956
1.4552507236895857
2.807052099555323
-0.995246942657246
0.23151468311842505
-0.5381071412896783
-1.999509480937275
-3.0104409902587372
1.442041277872999
0.383010261486353
0.9188536277699592
1.882898377164595
2.5139888223671485
-2.391448001118273
-1.0450818555868795
-0.17460275578197637
0.48328251688043455
-3.7343902185284183
2.6204156345107057
1.4984490493354627
0.11736319623231395
-1.8758559364742768
1.7741588100241457
0.1304075156045305
-0.7235069287862747
-0.8670015047981828
-0.13515188440817477
-0.13182519007086163
0.13289461358705507
0.3889972881087548
0.6539219439160183
0.6011900609585366
0.3660280485800792
-0.20687300386616564
-0.4822091846237086
-0.9407519610763793
-0.5010263304059143
-0.07953436223643404
0.198942657897979
0.14479316290401878
0.4170095256419185
0.02849071153256088
0.2641388224107496
0.2276328519207198
0.42618300594805747
0.19565196298079307
-0.03893994151120717
-0.6803788500456681
-0.6732979803917145
-0.4372645522332714
-0.03613238800342797
0.210390282303913
0.4803833901654419
0.3858552359293397
0.1115150820408588
0.1721934735387826
-0.003313899818626425
-0.2628801179767364
-0.1035014197227575
-0.03598845923461414
-0.15206717317829888
-0.10150146044437913
-0.08340371540179609
-0.05246937125092093
0.06236367524127225
0.1322157061660883
0.20291156354870954
0.2777739882533573
0.11468217568084746
0.03971191809364261
-0.22550733756791153
-0.33059598362307463
-0.2681699994192327
-0.16063258102123512
-0.06772978081965769
0.18603743917338628
0.37153708143935504
0.21411827080922108
0.163340537412764
-0.01882026332737583
-0.049558822450668207
-0.30087972846029953
-0.16730424824711904
-0.03420709164248673
0.14708014391373236
0.07522747427601674
0.10711295227006438
0.06062395168323769
-0.18668628757845637
-0.30391356848851436
-0.12028247384353455
0.15279647749138467
0.09278522359628447
0.23568397647031364
0.2518814099749736
0.1347773520952235
-0.19498514022048727
-0.2719036992924767
-0.26108783044641326
-0.13456512998343872
0.14638130429226712
0.44270474187295766
0.4473830376152069
0.09906471908180886
-0.39868418562670216
-0.5578873654188384
-0.59776071601486
-0.25905311205817544
0.1541937466188258
0.7123841904690315
0.7952949424184584
0.44621720713070245
-0.037673337473093725
-0.2744221845434585
-0.5362903341511351
-0.6792277824372835
-0.28520138745565965
0.16682144612958172
0.29710784322528133
0.39612116188444957
0.18445491493235183
-0.024177169177511122
-0.1481759414423984
-0.14955427246879352
-0.034421524533310995
0.15362024072614527
0.1446179456112236
0.05713417749702606
0.016252019217787503
-0.2274871001064174
-0.28264961370535746
-0.11042844431095965
-0.031073011023141334
0.056688535030433355
0.24785258246607564
0.20302889224174936
0.1288467286139297
0.1735468082659628
0.040093217245327016
-0.18601922795307596
-0.20167059837877566
-0.25390747760958776
-0.32074225656159405
-0.11188093974838444
0.1093993783552876
0.28867485062140574
0.3380585122964509
0.30227321454474554
0.14396185766806224
-0.046988954215874075
-0.22304187540522985
-0.33710176492057226
-0.3020474304699497
-0.16361211364263284
0.10644598208311824
0.19694797825546265
0.23005844853655116
0.1298484066917347
-0.004376416934215483
-0.11459071941360469
0.010667150899910847
-0.059754656273334365
0.010507530692634347
0.1390146968094621
0.0399319410953446
-0.16041133813979977
-0.10991043371994393
-0.021804085307765987
-0.07306710380909502
-0.011075665171784675
0.03266234010319367
0.12487389318303473
0.11329575644284248
0.014203094522671648
0.00784214969687054
0.04286771818168914
0.04876433916805258
-0.04639302297809885
-0.09658166187243918
-0.12129136101262211
-0.09620259363180468
-0.1543687187459247
0.0010931810582271238
0.07482847134113184
0.15264718111564252
0.27764276836100904
0.2363430096521334
-0.040059301318655004
-0.058740622565570506
-0.1370381577765134
-0.37141726847779605
-0.21317480494624413
-0.05830121049185068
0.1459114136830788
0.28083211327374064
0.2309097048249255
0.06162881671283856
0.00753066899921729
-0.12798236627453632
-0.164031083602051
-0.1304898177442859
-0.05871648567728669
0.021796818628482574
0.08071298650608981
0.08088765525353053
0.17354555637179014
0.09880989899992479
-0.005963445649426041
0.009592767661402747
-0.07131378801794436
-0.21447463062003141
-0.3248022238124172
-0.05034400197571256
-0.002671967604285597
0.008626767025454
0.1345233371899553
0.4486616811409248
0.524178210354211
0.03383741241480192
-0.22398579874445249
-0.27931111036621054
-0.3376712239191214
-0.536173527533999
-0.12124260858755263
0.346803184148028
0.36650941006154747
0.2569884117271808
0.12248483899277651
0.03021553925061119
-0.19492688765929217
-0.1617641600002826
-0.09708962059863904
-0.02996319379755983
0.019034230509251203
0.04192497378298718
0.04187334374219781
0.028540555975310355
0.012756026158106545
0.0023258634495545724
-0.00012563801422024403
0.0028170546402353286
0.005045897475293122
-0.0003614796874410041
-0.018223749321510697
-0.04900164431998414
-0.08802113417219701
0.07334632341303582
0.04477635944630567
0.03344464884480888
0.041393160500863314
0.06504902400260923
-0.10283533400981966
-0.06971904248539113
-0.04001544447653495
-0.013793236946643809
0.01170692975875557
0.0382437869427752
0.06206882123342925
0.07082609793467012
0.04360092134287906
-0.045173414953498546
-0.018666190513723757
-0.08947935454496597
-0.053031571812871964
-0.08488926405094747
0.05669369154225789
0.023384145245244743
0.06643247047794502
0.026194507438488855
0.12425554470049148
-0.0400108714087925
-0.08802651460919936
-0.056759090849979814
0.008451594018731572
0.06120098787246454
0.06054448550788007
-0.02338697745011753
-0.004767191216671883
-0.07916361208538408
-0.2236760201065298
-0.001366682145652036
0.23000970072071725
0.10702232360486004
0.05099807812139683
0.06336434606463086
-0.07271652619456101
-0.18581173486912134
-0.10812050358190926
-0.06939142688919715
0.10517255846087661
0.1937513014475346
0.176535562534588
0.03767592904870786
-0.027775309372445683
-0.20360762913393438
-0.24365832519075567
-0.2704064314459734
0.014811119121290513
0.10996742793080048
0.28416175511829717
0.3523140951192639
0.4626134127619842
-0.2968813340173953
-0.2728075333617308
-0.20984489112979926
-0.2147767681553679
-0.3324779602453123
0.25990832033306055
0.2409558585475832
0.12112345164094229
0.015780679572643973
0.02269317632078032
0.008141011961298204
0.002370586793020769
0.0028569224981656394
-0.01721219117130752
-0.09824938867218348
-0.08443592221896126
-0.01734881790628357
-0.13452886700475547
-0.07271976310016554
0.3265863899788276
0.6135470550476607
-0.2669617756919046
-0.16327357225917735
-0.09852732272254403
-0.25326638899522275
-0.5575688340574947
0.3016727143239644
0.2583441355350795
0.2357868066363402
0.11667225811716228
0.12369456085391975
0.016387992046345036
-0.09617964587969186
-0.13167687214129292
-0.20720451250538918
-0.2161958415395422
-0.015298223937254517
0.17679307927048454
0.1709595624504955
0.1953238254340218
0.08500652577752016
-0.12236546426081783
-0.185673257189648
-0.25752562579659205
-0.08446988682154336
0.1868701758063042
0.1986235457496858
0.16992992222494635
0.09020022463728888
-0.07904069317581816
-0.19399672496574638
-0.11393494959361739
-0.0873017386875563
0.057163543031488566
0.11285657727061132
0.09260683311361337
0.023584990555659748
-0.05785696034243527
-0.11068169382879636
-0.0937965060488885
0.027974534842960842
0.07632495826374337
0.05170559523609859
0.12799327519321926
0.05221679448878762
-0.04929678200297666
-0.058978729101371884
-0.052782035669947915
-0.08514760153966461
0.02256606042314228
0.08809978747378452
-0.03192891163909068
-0.04824460700837745
-0.050688017592971306
-0.12521560165407195
-0.17545893179062344
0.05310147995789551
0.3504757107888484
0.6273851396971083
-0.48479420309856924
-0.015409778775520973
0.18136258067392697
0.07363039171550814
-0.2979021597134682
0.2252857064900421
-0.24875645467810156
-0.45251219008548305
-0.3777824458089569
-0.32674090720817134
0.2074886226762599
0.24217914239346794
0.40808965166998246
0.47862666156873
1.147949287652311
1.8730311091064111
-1.8198490062442636
-1.3842437424220535
-0.8985685879337358
-0.9551811696976938
-1.4295043198936868
2.2625064632218534
1.4412096301100172
0.6186104194646757
-0.2211845748845649
-0.28701976260011525
-0.3873174807617682
-0.29312398874881596
-0.07823771530657442
0.3468355247370375
0.29762579151641144
0.1710720081254392
-0.10976875538644729
-0.6684737645634866
-1.0766661190233957
-0.7956748885349284
-0.4623955022141703
0.792959433432631
2.429770208049211
4.02749803160106
-1.493137419890813
-1.1442228138265582
-1.4715061317589422
-2.3515924429433723
-3.263425952737952
2.113208361487413
1.5664909804159752
1.1323132219416228
0.6584147459772022
0.6249090299185812
0.6678702301508196
0.42062646731858166
1.4593894374909064
-2.8831229469785487
-2.0910560784529766
-1.2899232684087958
-0.17639668669562733
-1.0754792003267655
3.2957578551167974
1.8144427011616893
0.7593341440826024
-0.10190505680663536
-0.7210076314131107
-0.8871188357040655
-0.4941139561731399
-0.20203039458296024
-0.12719674256936536
-0.17924785610218735
0.15177535857209984
0.3653641722125417
0.0901874190173203
0.007443791890604284
-0.2302813208805657
-0.4766796930488832
-0.3603219576331719
0.4628550861509859
1.2854328397459336
2.5699106522306616
-0.7701526203291759
-1.0316483858927938
-1.5550948450470075
-1.78026490552028
-1.9765163092433118
1.9227160831688734
1.3896468902101136
1.1203422595276482
0.662351273498854
0.5033323526708013
-0.15496019215741857
-0.7429878997148265
-0.6178959054210694
-0.544151415244234
-0.5961784433970453
-0.5069767402022992
0.5300828144445998
0.6161078952435345
0.8808391930383446
0.22319098174898844
0.07928654159136012
-0.17448515817305804
-0.39068273467873754
-0.8097175970254297
-0.42842614387752026
0.006912946407552794
0.3794116984534446
0.5613206299545381
0.5726402473551401
0.35748675983871536
-0.01015178722394576
-0.49180651902966765
-0.6336449852841705
-0.518840600554921
-0.14155677828811936
0.1878870582931847
0.40950507881490933
0.4650905923411278
0.252227538480046
-0.004391929303436798
-0.15747342789234642
-0.11948872173497549
-0.23124149849358716
-0.02698545496169131
-0.004776813071558562
-0.007193553037383771
-0.013977284873971284
0.05432800260816533
-0.07610758126087705
-0.051151150649892764
0.08902143787463487
0.08714779513873866
0.048902928558090974
0.028858666102466138
0.024498796586779732
-0.021182119471338447
-0.009512587360145604
-0.07048159095325804
0.055911795334819554
0.03889318640154267
-0.025300601595590458
0.001109930873877702
-0.09319989800082241
-0.26657919762231014
-0.031278389643301686
0.13060904770343695
0.14469270287359912
0.12045971010160261
0.13212307573073118
0.008733285686490134
-0.06493672083516445
-0.13853471683238933
-0.0814048686408552
0.032336412503191185
-0.06461344871946723
-0.026031730873649864
0.11001457021230825
0.12042188517248223
-0.004588549110334578
-0.06247105652665553
-0.03851504088585246
-0.10632178741099674
-0.030224979498202287
0.029433279498657434
0.10871360215416624
0.03211582131918819
0.0067628285209370845
0.02074692256800393
0.04644631410873804
0.04835369695912438
-0.006079922604014027
-0.13500197189229146
-0.1333128084155602
-0.16977582798929958
0.0076633793848165
0.058598059196968415
0.23230410290127518
0.15105613304560428
0.200688004606186
-0.06768539124424154
-0.12480300336909757
-0.24339318523089712
-0.07796028175490735
-0.05064477910518164
0.05310793369121312
0.07899327236485668
0.09125632969322217
-0.04285489014581199
-0.06790721544580829
0.04811720255632842
0.10693165160989529
0.07886673480121666
0.10839113846012287
-0.07399479376191676
-0.13555085897893449
-0.12470272008406544
-0.05877483262467859
-0.11981067228212569
0.14015834389132825
-0.01411054573381474
0.08150521073361816
0.07363733902757381
0.17958433177551272
-0.016431620301006047
0.04208002627915202
-0.10320454279272027
-0.10872510275045484
-0.21359005602383133
-0.030059445713574433
0.057358993043839186
0.08455232969889806
0.09538198725765554
0.1288180155175252
0.009771017161845107
-0.054153549412665834
-0.07018194968587893
-0.054316759705807786
-0.024562417102894037
0.004256234437360986
0.023040053070221753
0.028537148240583236
0.021998303052827402
0.007441955946853524
-0.009758299824235914
-0.02380876300258146
-0.029259626323338447
-0.02206193936353666
-0.0011664014395387442
0.029588860841153843
0.06011923049723728
0.07440445500079038
0.05340567968179897
-0.01934286662551942
-0.1507631529956244
-0.13248109596667132
-0.1393024117464402
0.06618839166103266
0.12351457890766879
0.2620776463206196
0.09171836168670836
0.00011995430280961339
-0.24190648730254258
-0.06981694339779965
-0.11414659819778601
0.006880883212031321
0.08894005809580839
0.13821024027475554
-0.03435609172096963
-0.01830621693521466
-0.006852033930536748
0.0023096643996359254
0.007941510898545126
0.007253853623806127
-0.0016759514792012667
-0.017634281762129885
-0.034794357061128794
-0.042678129132748474
-0.027978411556387396
0.021884783828034136
0.1143811812289817
0.048242359546024786
0.012250673261010649
-0.01267764501579215
-0.04859989838208251
-0.11456605158022878
-0.021754905530864545
0.028563144706773992
0.043772429414170394
0.036267618235712104
0.01909608026071838
0.0024661506260078856
-0.008003166970025588
-0.011230665886304805
-0.009332143946271777
-0.005725370730995292
-0.003354284917648412
-0.003495698015980291
-0.005373532776998971
-0.006602234790016816
-0.004316958177872182
0.0033007347973156836
0.01553853484805196
0.0282581954927092
0.03413431546461018
0.024358970382555356
-0.008329929986525831
-0.06610425113947249
-0.1433997517131107
-0.02671264595412011
0.10234448911120023
0.061402643087833025
0.06125620392413214
0.10195303179198165
-0.027211342617748244
-0.14379931802015755
-0.06617513664933473
-0.00789374846060966
0.025334859237206665
0.03545051112566523
0.02945125084004343
0.01595275037671537
0.0022923652095500147
-0.007063399442975447
-0.010734295588992835
-0.009661194243285787
-0.005931580780583051
-0.0016958459928789326
0.0015301138613118138
0.003105043582171569
0.00314045618487535
0.002188616104653208
0.0009078194748311523
-0.0001822589656828698
-0.0008119738467554656
-0.0009541191525105527
-0.0007434543628010986
-0.0003752389685575858
-2.2143767001802167e-05
0.00021128973074727896
0.00029622501125476535
0.00026071913426506496
0.00016007967686110193
4.961101328439635e-05
-3.262933339281244e-05
-7.136357787104862e-05
-7.049137204441658e-05
-4.4830562533798815e-05
-1.1486728062861686e-05
1.6320993892997816e-05
3.1954640702212516e-05
3.501030298516211e-05
2.9154548504936098e-05
1.94861646094611e-05
1.0420227734511396e-05
4.562470584240473e-06
2.5612499948458065e-06
3.624240830689871e-06
6.294609528328981e-06
9.149339848650594e-06
1.1230545605582089e-05
1.217333963287594e-05
1.2101829315043482e-05
1.1410828026534333e-05
1.0543322499616046e-05
9.834646121114124e-06
9.447450375748236e-06
9.3844053522193e-06
9.546122102708439e-06
9.79962696262044e-06
1.0032160475401954e-05
1.0178914756506166e-05
1.0225631483259595e-05
1.0194483108388639e-05
1.0123779316374059e-05
1.0050094513004253e-05
9.997500298594959e-06
9.974651127935062e-06
9.977747751264625e-06
9.99629567927222e-06
1.0018836532783583e-05
1.003687505535076e-05
1.0046439909640479e-05
1.004766058114101e-05
1.0043220928163283e-05
1.0036584164705078e-05
1.0030626715381924e-05
1.0026956778256759e-05
1.0025878618311278e-05
1.0026776573945266e-05
1.0028644889224922e-05
1.0030544600606911e-05
1.0031871799331274e-05
1.0032422892864974e-05
1.0032311069596495e-05
1.0031814662481996e-05
1.0031229706577216e-05
1.0030771126504582e-05
1.0030535506220637e-05
1.0030514433624638e-05
1.0030635684643625e-05
1.0030809180192062e-05
1.003096163256875e-05
1.003105323159671e-05
1.0031077763450084e-05
1.0031052209646213e-05
1.0031002933028147e-05
1.0030954011764619e-05
1.0030920570238634e-05
1.0030907351259388e-05
1.0030911049883303e-05
1.0030924299606475e-05
1.0030939461080792e-05
1.0030951104461379e-05
1.0030956891105153e-05
1.0030957167540813e-05
1.0030953871253484e-05
1.003094934223178e-05
1.0030945445476623e-05
1.0030943163891309e-05
1.0030942615746932e-05
1.0030943335346846e-05
1.0030944632709288e-05
1.0030945891090396e-05
1.0030946732402227e-05
1.0030947047462384e-05
1.0030946931285419e-05
1.0030946578467846e-05
1.0030946185942675e-05
1.0030945890717283e-05
1.0030945749157766e-05
1.0030945749018127e-05
1.0030945838437401e-05
1.003094595663552e-05
1.0030946056121711e-05
