0
2.1533240647558982e-18
-7.061899586467138e-18
-1.6794259751910106e-17
-2.2547631673809327e-17
-1.917711931501742e-17
-3.047988178876228e-18
2.5296525841835253e-17
5.897790963479988e-17
8.449503989699747e-17
8.453381780443242e-17
4.428670748055988e-17
-3.979495004404129e-17
-1.5171709103211966e-16
-2.524818970303147e-16
-2.8595454774653458e-16
-1.9658065011629093e-16
4.28986329062108e-17
4.0158930632337837e-16
7.719159681918641e-16
9.781286889900608e-16
8.233452136261783e-16
1.743123158602336e-16
-9.359922904612302e-16
-2.228126387845379e-15
-3.1708419033790487e-15
-3.0967378465374338e-15
-1.4521404689231343e-15
1.864025271399923e-15
6.18772174514798e-15
9.972953549437874e-15
1.1041746964520817e-14
7.290675820751379e-15
-2.2292615318795893e-15
-1.617489291263203e-14
-3.024236362811203e-14
-3.756968364881556e-14
-3.063362197918384e-14
-4.573489073595418e-15
3.886800400913243e-14
8.837076741550879e-14
1.230570743247968e-13
1.1723294154550422e-13
5.0255094451474125e-14
-8.036405826035703e-14
-2.4719237230118824e-13
-3.8903069319253293e-13
-4.214735104502124e-13
-2.650358635806574e-13
1.1281896179403714e-13
6.543945230224124e-13
1.1878209717412475e-12
1.4454859056315975e-12
1.1403467564868762e-12
9.611279818708627e-14
-1.6015917259702776e-12
-3.4954012453114443e-12
-4.7658368727660364e-12
-4.424978941388984e-12
-1.705563810912157e-12
3.432818843986705e-12
9.861922886302365e-12
1.516254181538305e-11
1.606742499814457e-11
9.579208018546943e-12
-5.3957804596775205e-12
-2.6403574793010446e-11
-4.659277348322483e-11
-5.553862829361504e-11
-4.2306471493443317e-11
-5.445489693778691e-13
6.572565293731851e-11
1.3807031988727834e-10
1.8436247179106504e-10
1.6666679407284277e-10
5.6563523888380036e-11
-1.4532264475172656e-10
-3.927721187360372e-10
-5.902835822344196e-10
-6.115341694320026e-10
-3.437439227116307e-10
2.4888343781905673e-10
1.0628357338798208e-09
1.8254460950716074e-09
2.1310856017591557e-09
1.5638894129769595e-09
-1.0323860607406573e-10
-2.6871415070207798e-09
-5.446548779619609e-09
-7.1234417383904685e-09
-6.263091705435687e-09
-1.8168005910951209e-09
6.105608582599142e-09
1.561747293374482e-08
2.295373910242633e-08
2.3236175022476052e-08
1.2231329347059789e-08
-1.1188894833002418e-08
-4.268884903351264e-08
-7.143449984222891e-08
-8.166077662924282e-08
-5.757876265164368e-08
8.857076221810507e-09
1.0948940443935487e-07
2.145734545992989e-07
2.749057835827416e-07
2.347782194665876e-07
5.5656331207157705e-08
-2.548619206254339e-07
-6.200139292020396e-07
-8.91557167312243e-07
-8.813366812689314e-07
-4.308449177042077e-07
4.9345455628975e-07
1.711062566967265e-06
2.792164758572722e-06
3.1247417845103635e-06
2.1104263182302004e-06
-5.326864214291147e-07
-4.447426109886676e-06
-8.44262842409077e-06
-1.0596086790444365e-05
-8.777531567866028e-06
-1.5776997496719101e-06
1.0578660088254433e-05
2.4577595386926747e-05
3.4589666871672863e-05
3.336665298426044e-05
1.4990104006181179e-05
-2.14400950563087e-05
-6.844933782809796e-05
-0.000109010988357161
-0.00011939317054844327
-7.696244477564437e-05
2.8024242548819467e-05
0.00018013562767984996
0.0003317582842272151
0.0004078807187431626
0.0003271560148645568
3.8311639729859364e-05
-0.00043712832065462634
-0.0009731966504735559
-0.001340931463662799
-0.0012614034256178117
-0.0005141036747690037
0.0009206325376106169
0.0027356722395127523
0.004259345128951114
0.004575871820156671
0.0028365796045573804
-0.0012806660382096615
-0.007104533284644624
-0.01272294329648815
-0.015208574050424428
-0.011489152312702007
0.0001740122088918244
0.01844022107017682
0.037520003492661186
0.046974555167864175
0.03331163028854229
-0.016554837872761904
-0.1107683936530037
-0.048494421606483075
-0.01817704658532796
0.0007860636706504893
0.03313247830791387
0.10105799254612181
0.01791410152068638
-0.015777176857755763
-0.012964705843741618
0.0025154837441369133
0.0008100560268513467
-0.04801994737423248
0.031849150654268306
0.02684249456018484
-0.06287148548273178
-0.022455484182820954
-0.02410251632950452
-0.031514173127710834
-0.006743188147885768
0.08180185061901674
0.05210058106260478
0.10420129896908015
0.0205607390711583
-0.0285036346081607
-0.0755187096737295
-0.14548128793198403
-0.047721122813003974
0.02743741668412003
0.1064648878843625
0.026101034224626663
0.024872531799501277
-0.06515704648509864
-0.025213234280089303
-0.05493287750893429
0.024300251615964174
0.16840418799584883
0.11329263830877057
-0.017538702112762546
-0.1005015292601363
0.0035149382184399723
-0.13621044783154926
-0.11047566348062386
-0.0683980027512428
0.07522527419029966
0.024759104069607494
0.08427370913973425
0.13842242488434237
0.038021299024971984
-0.006781170830660503
-0.02502616158791988
-0.07658936207444846
-0.03978474585872613
0.001942459911873698
-0.028239377008118714
0.008267135608372403
0.07104268237172952
-0.05673126799430092
0.03193008847065999
-0.034033197154572606
-0.007515945777150199
-0.028965898709483903
-0.03385451898210211
0.038656028836204906
0.036921155278217474
-0.010567652462910356
0.10053343313561292
0.1505952557476512
-0.09884663377821244
-0.09586187646849792
-0.08723443790541871
-0.10923492691252529
0.01716481697351978
0.08571369680726444
0.10022839400453441
0.06859798783007962
-0.0018125509650345109
-0.10592579288062845
-0.040216792621379234
-0.0009883695551361107
0.016812723927048388
0.019557120668672205
0.013929525955600956
0.005669211101897511
-0.0013211643653769833
-0.005218998502855679
-0.005936655938053023
-0.004444050394822873
-0.002051409173883613
0.00013263282100296859
0.001475358643446267
0.0018452827102677298
0.0014737031333914962
0.000754627205234722
6.50207679010975e-05
-0.00034974587869848484
-0.0004161199106018899
-0.00021263109413460505
8.654744424864915e-05
0.00028327385182152365
0.0002266394526193724
-0.00012800501506535523
-0.000683935046390882
-0.0012057568121051283
-0.0013731784858204167
-0.0008901779164470534
0.0003658645852737419
0.0021979394953998348
0.004014002315870731
0.004897698946851314
0.0038750022950058472
0.000360637923692305
-0.005329481683671694
-0.011613477721132904
-0.01569448311136751
-0.01425203348393456
-0.004823392905155531
0.012370022424829458
0.032730485768764896
0.04653640801656391
0.03990651110970861
-0.0021935004675266226
-0.09135778812608528
-0.03086094766145198
-0.01222357285247256
-0.014651709909007372
-0.007885791790883414
0.042010060967425066
-0.0348846029894664
-0.020068782322091503
0.08711520545310342
0.0662955822162227
0.0774004896002745
0.06729860719983392
-0.018785587595747968
-0.22342787659771013
-0.16465094384199863
-0.029344098958601694
0.024763768740192007
0.058767733848060374
0.13709407242741678
0.11171961911217536
0.010759505428237049
0.034332434955240104
-0.041868356317314497
-0.057166431485889624
-0.05396252627326051
-0.06692420392333043
-0.11633893094926852
-0.007295636603048185
0.06548662321567429
0.10931385114560849
0.12521280405599522
0.10341706262128766
0.025050644077567623
-0.13007999809969428
-0.1723859676412313
-0.09264201869560433
-0.05781864500092661
-0.015000139701037269
0.09725827960834957
0.13354186024196155
0.127054376355528
0.08062602572055222
-0.033959302300781605
-0.06836660302109233
-0.08460573172172964
-0.14075298396816635
-0.07976312538636504
0.07591871188172712
0.123635161236898
0.07560727850600243
-0.04722802172155293
-0.02029623822830787
-0.018556376088433774
-0.018206981482992577
0.002243447813503617
0.061004605871668935
-0.02796796133529483
-0.05584223247045826
-0.019644112278186167
0.07711209928122245
0.02407471623131403
0.004476647205134418
-0.0032107182677610516
-0.0224272942367958
-0.07512017066973191
0.021296197460487897
0.055925296375057276
0.025187247084060616
-0.06724760137374676
-0.011059082921335025
0.009637466007579887
0.014660250769214341
0.025752535263789463
0.0646312296914712
-0.04852755723077767
-0.09622224171405944
-0.06495222990929987
0.0526193354867309
0.05472624567799085
0.12796363825609294
0.04698261480711145
-0.02225903340530016
-0.11589553966927194
-0.06413310443319603
-0.08464395591536841
0.020264196066938304
0.06192002772073382
0.060046616210912854
0.03623149944413473
0.00841165136148449
-0.012181207141743205
-0.021367387959310556
-0.020360693775808583
-0.013224309289185388
-0.004473699849051973
0.00253049944528761
0.0062160959105889155
0.006633281609398319
0.004840782965032768
0.0022026990219101384
-0.00015106796981954133
-0.0015925121467191706
-0.002007861710475934
-0.0016446665685411717
-0.0009021505209334382
-0.000151136176791168
0.0003711058907458993
0.000585777438662501
0.0005389189379308871
0.00034120559172577935
0.00010970047571477924
-7.099260077593047e-05
-0.00016318814394374268
-0.00017063800781380004
-0.00012214256414228266
-5.337035389727171e-05
6.786838378228538e-06
4.2734408703113414e-05
5.21542176091042e-05
4.185152384184284e-05
2.2282262972996343e-05
2.951867921835981e-06
-1.019968537136005e-05
-1.5340660698617163e-05
-1.3809947428927027e-05
-8.535113760004455e-06
-2.5360569928384826e-06
2.050585728873478e-06
4.313307777550532e-06
4.400020969442454e-06
3.0828495958514574e-06
1.288113455046925e-06
-2.4915218184368563e-07
-1.1441478223696918e-06
-1.353671977344821e-06
-1.0641367846517045e-06
-5.491117982652179e-07
-5.2008524753864207e-08
2.787455772712025e-07
4.0110658730100944e-07
3.5345393728634835e-07
2.1308635411601751e-07
5.78246090636488e-08
-5.84466990208781e-08
-1.137909009184875e-07
-1.1332643219067974e-07
-7.76944854435183e-08
-3.0921657160976385e-08
8.315481683153666e-09
3.0549357807200597e-08
3.509151896253926e-08
2.702308251868215e-08
1.3491377557534841e-08
7.223884856300891e-10
-7.582291409604781e-09
-1.0472603651558323e-08
-9.035751961351337e-09
-5.308985667526795e-09
-1.29542534878687e-09
1.648026526738905e-09
2.9964811413552135e-09
2.9151914839034266e-09
1.954588030142029e-09
7.372054543928719e-10
-2.629113703855141e-10
-8.135134153302042e-10
-9.078255175690629e-10
-6.839408816175391e-10
-3.286492819137295e-10
-1.3608501822071567e-12
2.0558204790793642e-10
2.7122743259444215e-10
2.2660466473253334e-10
1.2628344163075176e-10
2.2954565501668082e-11
-4.8318605158366226e-11
-7.496033285764196e-11
-6.336794026602526e-11
-3.10338377883704e-11
2.0193419226396143e-12
2.011272328918436e-11
1.6105444609697013e-11
-7.162177179245562e-12
-3.793280851376969e-11
-5.891064464909557e-11
-5.276280482454239e-11
-9.147548054373086e-12
6.822409672080088e-11
1.570808076130557e-10
2.178739228071704e-10
2.0351454367644255e-10
7.788311751469376e-11
-1.6060013151631662e-10
-4.5873461052517623e-10
-7.033576204226932e-10
-7.424618465599926e-10
-4.375117150039798e-10
2.606256870224956e-10
1.2357570765234107e-09
2.167803209098662e-09
2.572265787598387e-09
1.9435650258785305e-09
-8.078129763525829e-12
-3.088630693708053e-09
-6.4350976769401665e-09
-8.552562551928852e-09
-7.684128958235432e-09
-2.524681484631158e-09
6.873717390536591e-09
1.8339751599970226e-08
2.7422845635522968e-08
2.826354115049161e-08
1.566338546135904e-08
-1.196951108580729e-08
-4.9742606240995654e-08
-8.492629927015984e-08
-9.867844327732308e-08
-7.178219187003463e-08
6.101072352822021e-09
1.2618347835640663e-07
2.537798862780507e-07
3.3036978804565935e-07
2.886025081125599e-07
8.036355700039948e-08
-2.883483815527271e-07
-7.289687501715671e-07
-1.0660895754104152e-06
-1.0734971462308677e-06
-5.56165083806029e-07
5.355309626673376e-07
1.996961674866564e-06
3.322512460958736e-06
3.780058480432794e-06
2.6402957156828303e-06
-4.622072454891103e-07
-5.1377149143744805e-06
-9.995071445777744e-06
-1.274603245233441e-05
-1.0812255965783365e-05
-2.4275750804196422e-06
1.2020191284440915e-05
2.8930123392313737e-05
4.1397818390923474e-05
4.070056525211534e-05
1.954065719344853e-05
-2.3531046508062144e-05
-8.000627234492823e-05
-0.00012983279147918956
-0.00014459610312452195
-9.66690043645124e-05
2.6716033802950134e-05
0.00020854938078212844
0.0003931426197689902
0.0004911213200613737
0.000403916323195834
6.700145533059646e-05
-0.0004985488955403739
-0.001146759447201859
-0.0016061877904250997
-0.0015408418890433507
-0.0006782237852703957
0.0010196831004401952
0.003201894493540963
0.0050761920147183925
0.0055444354722153635
0.0035677454210349207
-0.0012849499126331022
-0.008269281858117726
-0.015148843404163458
-0.018435259756323638
-0.014398606594979865
-0.0008156410585804284
0.020942719011538272
0.044255213021441475
0.0569921895237737
0.043448333359013144
-0.011395207810686089
-0.11617359963525659
-0.06791272871120366
-0.0495738935689088
-0.032017775026899536
0.0195138110102346
0.13610790719303942
0.13610790719303917
0.019513811010234087
-0.032017775026900064
-0.04957389356890926
-0.06791272871120405
-0.11617359963525693
-0.011395207810686394
0.043448333359012915
0.056992189523773544
0.04425521302144139
0.020942719011538224
-0.0008156410585804492
-0.014398606594979848
-0.018435259756323593
-0.01514884340416341
-0.008269281858117702
-0.0012849499126330987
0.0035677454210349176
0.0055444354722153566
0.005076192014718383
0.003201894493540954
0.0010196831004401915
-0.0006782237852703958
-0.0015408418890433498
-0.0016061877904251013
-0.0011467594472018624
-0.000498548895540378
6.700145533059294e-05
0.0004039163231958326
0.0004911213200613753
0.0003931426197689945
0.00020854938078213397
2.6716033802955345e-05
-9.666900436450936e-05
-0.00014459610312452298
-0.00012983279147919566
-8.000627234493833e-05
-2.353104650807281e-05
1.9540657193442674e-05
4.0700565252120054e-05
4.139781839094251e-05
2.8930123392345928e-05
1.2020191284477917e-05
-2.4275750803933613e-06
-1.0812255965787022e-05
-1.2746032452383596e-05
-9.995071445874644e-06
-5.137714914499046e-06
-4.622072455960104e-07
2.640295715656541e-06
3.7800584805468595e-06
3.3225124612383963e-06
1.9969616752700927e-06
5.355309630677465e-07
-5.561650836078905e-07
-1.0734971464500563e-06
-1.0660895761811458e-06
-7.289687514341444e-07
-2.8834838297041263e-07
8.036355603623948e-08
2.8860250834032346e-07
3.303697900449321e-07
2.5377989009179477e-07
1.2618348315831458e-07
6.101076349986045e-09
-7.178219111458922e-08
-9.867844801748779e-08
-8.492631035971654e-08
-4.974262190018996e-08
-1.1969526249858272e-08
1.566337855297247e-08
2.8263550694193538e-08
2.74228764773029e-08
1.8339800902493965e-08
6.8737715717977245e-09
-2.5246462943884043e-09
-7.684141124388287e-09
-8.55264356589232e-09
-6.435247574940124e-09
-3.0888155856717126e-09
-8.22720909789178e-12
1.94354601498259e-09
2.572461709814607e-09
2.1682422641808898e-09
1.2363640118703122e-09
2.611988365957571e-10
-4.372744202087555e-10
-7.428722903230473e-10
-7.045894960136956e-10
-4.6065761139675055e-10
-1.62667717860709e-10
7.660596854074209e-11
2.041160290220875e-10
2.2114803697362923e-10
1.629652832809487e-10
7.533409033455714e-11
-3.6046440488120977e-12
-5.242822326369518e-11
-6.697234528368571e-11
-5.529129882260371e-11
-3.06590174556295e-11
-5.512957403691721e-12
1.211701107295518e-11
1.9493785535597217e-11
1.808270102690713e-11
1.1551209178477017e-11
3.816521781284558e-12
-2.267602416941819e-12
-5.410167018107727e-12
-5.7115614060538275e-12
-4.121254768756433e-12
-1.829893451213564e-12
1.9054778599118146e-13
1.4095425582706858e-12
1.7413175755445063e-12
1.4082583711166364e-12
7.583890707772064e-13
1.1070746263808152e-13
-3.3362635582286984e-13
-5.107395854783237e-13
-4.635435853479798e-13
-2.8913534371653584e-13
-8.861989500612747e-14
6.588879403116845e-14
1.4310749357390747e-13
1.473430694469815e-13
1.0407863163930547e-13
4.425004134139358e-14
-7.403259098460051e-15
-3.777692739819025e-14
-4.5214866653549284e-14
-3.582114191818172e-14
-1.8706571529097032e-14
-2.043479215092267e-15
9.137970788991352e-15
1.336431297760566e-14
1.1872006884870313e-14
7.226627428584655e-15
2.034721542367289e-15
-1.8840258966015867e-15
-3.775231140894001e-15
-3.793803137752626e-15
-2.621691162861758e-15
-1.061675506217588e-15
2.5733391877138875e-16
1.0125487141739262e-15
1.1755264287070886e-15
9.129371818100103e-16
4.629372917872032e-16
3.465895104947345e-17
-2.4633307018617042e-16
-3.4649478135361467e-16
-3.009624008762345e-16
-1.7737801466947046e-16
-4.28781492406302e-17
5.662412088894777e-17
1.0292652716230553e-16
1.0101293442605072e-16
6.899007081761567e-17
2.7671936201538867e-17
-6.81007941946045e-18
-2.6199000371951954e-17
-2.96970870565009e-17
-2.1458118804974066e-17
-7.592978717977568e-18
6.1786656444854754e-18
1.578069536017366e-17
1.9075124682940325e-17
1.5651088548457832e-17
6.561592778613875e-18
-5.77312860586054e-18
-1.7600306200041284e-17
-2.4158783598869742e-17
-2.067759644312336e-17
-4.1900111454732934e-18
2.417676369714917e-17
5.733459033604893e-17
8.206763553656803e-17
8.175372033211922e-17
4.239509879474129e-17
-3.905399822550416e-17
-1.4683750057605578e-16
-2.432002540172383e-16
-2.741557677194507e-16
-1.8660944014989187e-16
4.4994398230793824e-17
3.901034370287745e-16
7.445369589844433e-16
9.39071986040891e-16
7.850673102006321e-16
1.5614503221546346e-16
-9.133937853112937e-16
-2.1522087460483734e-15
-3.048051364425054e-15
-2.9603739682493466e-15
-1.3615299303717985e-15
1.837663373765515e-15
5.989475724104568e-15
9.600749084275796e-15
1.0578039127563562e-14
6.91087692980256e-15
-2.289274233925628e-15
-1.5699927576166864e-14
-2.915597184000054e-14
-3.6052367173478154e-14
-2.918302005839608e-14
-3.943208758301207e-15
3.789120808712709e-14
8.533548073115531e-14
1.1826432988310347e-13
1.1202460918551227e-13
4.695671650940347e-14
-7.901838326972603e-14
-2.391702653696949e-13
-3.7441038855678476e-13
-4.0363036569233977e-13
-2.5089267365410427e-13
1.141446031902677e-13
6.348096128112717e-13
1.1448401830209823e-12
1.3867112717457416e-12
1.0855762651487304e-12
7.466248744251353e-14
-1.5598106812636864e-12
-3.3742778769881036e-12
-4.579010269695834e-12
-4.226384509813075e-12
-1.5862421417938884e-12
3.3680514601718945e-12
9.538134020208302e-12
1.4588956503019927e-11
1.5381727074124522e-11
9.054248448034117e-12
-5.407994383327411e-12
-2.5599410356684987e-11
-4.4894686468074344e-11
-5.3264606967806566e-11
-4.0242905436230535e-11
1.6944359694913956e-13
6.395486900650041e-11
1.3324519318736115e-10
1.77088078654018e-10
1.5910645961941798e-10
5.227715135288053e-11
-1.4232234285284761e-10
-3.797343348937915e-10
-5.678075114665534e-10
-5.85218160212547e-10
-3.2432817107158997e-10
2.478253675439284e-10
1.029941637435534e-09
1.7584481743032392e-09
2.0432067526023472e-09
1.4863180171344523e-09
-1.2629116681948336e-10
-2.6126700833164874e-09
-5.254648321019669e-09
-6.840524883198968e-09
-5.975756366948449e-09
-1.6640863057504472e-09
5.970303162953395e-09
1.5093653254685702e-08
2.207404745713802e-08
2.2227580579780666e-08
1.1516066895307553e-08
-1.1088071769311084e-08
-4.1347946594372274e-08
-6.87945590066574e-08
-7.826880684444617e-08
-5.4669888356598234e-08
9.568904459880947e-09
1.0637815089038702e-07
2.069533673029488e-07
2.6391511542240343e-07
2.2387698507437734e-07
5.026877033823101e-08
-2.4888041147239647e-07
-5.990121875747614e-07
-8.571670308490667e-07
-8.427352049745425e-07
-4.046112297925195e-07
4.872133622309475e-07
1.6565728385642619e-06
2.688275095443445e-06
2.993977677903477e-06
2.0016319747165655e-06
-5.531432088526287e-07
-4.318190003100355e-06
-8.140502967669943e-06
-1.016961465140155e-05
-8.364711422847892e-06
-1.3899010287816746e-06
1.0318277301644372e-05
2.3737214107676755e-05
3.3246793425916656e-05
3.189141820295652e-05
1.4032704254579447e-05
-2.1107267933059416e-05
-6.624141942795385e-05
-0.00010492772046282871
-0.00011435835200699939
-7.290501791865127e-05
2.8537393456827833e-05
0.00017479440229984194
0.0003197968700454625
0.00039135134745800964
0.00031155326067814054
3.1862628057922124e-05
-0.00042593234182912036
-0.0009396316532660538
-0.0012885553304202945
-0.001205109590309109
-0.00047936073833194996
0.0009041943578870279
0.0026464485473611426
0.004099064090741325
0.004382287704115042
0.0026857812227813077
-0.0012894970338358815
-0.0068845896851583615
-0.012249747884172685
-0.014568220552769325
-0.01090007933722447
0.0003917702916356902
0.01796356488396091
0.036179729337670746
0.044927072520503056
0.03114900639980037
-0.0178470515020932
-0.11007370182802913
-0.045047128586574926
-0.012152167719670573
0.0078067367070586485
0.03813129059799618
0.10028445082058436
0.008455626703966667
-0.03371661005143009
-0.03359144502420171
-0.00752352871859648
0.022653379478314282
0.033801506727655396
0.005789653521003129
-0.07446012223305447
-0.009764539482215166
0.00895486861214145
0.002186577101004855
-0.0008176174529548025
0.03357993267385846
-0.06207372974249667
-0.0622815643836456
0.04559541699174388
0.05661024179858772
0.14601701003915876
0.07119676512772526
-0.021404281125184072
-0.18520510298281623
-0.06115143891029608
-0.06797829351737736
0.0017464007180758494
-0.02136089380775678
0.10770151214332817
0.03645114109111722
0.003322467547072566
0.029290150921176764
0.11463863674676986
0.041573099290465855
-0.01791097114004501
-0.09090421806454707
-0.19258501844170514
-0.11934704947160797
-0.049188398097928555
0.049952656849899545
0.20646990360677964
0.23116511110673044
0.10903468188269827
0.0008508938360995427
-0.1451778912014558
-0.17553557771956751
-0.11381308669244167
-0.1499364700779578
-0.04034245727766434
0.08050418386009019
0.0806518327616251
0.2094068683765965
0.28132589739410985
0.07115824571682669
-0.07801261072590923
-0.23588105423269606
-0.2619524771221494
-0.18691294188317678
-0.005025564128923997
0.12025941327406509
0.24054673125162573
0.20334542895332153
0.03689965853912358
-0.0561060985947058
-0.09524241286537803
-0.11249050680366439
-0.14075787175917326
-0.005189432511920997
0.0804157196871316
0.11244933634928568
0.09399003624636823
0.03180892576630706
-0.06443935124014656
-0.18120758054457853
-0.10025765529537475
-0.0003242669274346577
0.1379909802701375
0.12567844641801207
0.1604064498890989
0.026339378254923215
-0.10031389476954952
-0.24203037619427492
-0.21129506965998957
-0.006996419918936484
0.18201541817268643
0.16794630363555482
0.1544440119990188
0.13159330041532455
-0.12160623621802417
-0.22825104347422934
-0.20235647011088045
-0.04095167606290698
0.07683150878032782
0.18360356496794328
0.11386543094337798
0.09519329332168093
-0.05600488713700884
-0.13343616801010832
-0.13663443282998547
-0.06683087393987641
0.07432060491544251
0.08264851306723842
0.1477932328439547
0.05083655340643725
-0.034594763709801316
-0.1375818064378425
-0.083474602340276
-0.08872339938174184
0.04073024429533378
0.10715152770854482
0.11653759722409643
0.07478550095585856
-0.01321048499533713
-0.1410921761243512
-0.09688543015880535
-0.060023492639280814
-0.0019503673762957623
0.10909186460789305
0.10057244961057768
-0.011815066501099505
-0.0291094510633103
0.02977307527457233
-0.06940628180799774
0.029131896663098403
0.0782707738894659
0.03595681769911339
-0.12683529014558712
-0.019385840556618107
-0.027468950297128637
-0.11415662267393292
-0.025890276030279925
0.09692429197000485
0.10708654049949742
0.038927954621453875
0.10124031813233937
0.07702337757460695
-0.06981958073250671
-0.1829704846622016
-0.10121711309252412
-0.04925225626524689
-0.03465269580709549
0.14865552113452665
0.1127471980642285
0.06759738572103101
0.01595501611153437
-0.04717069666355151
-0.13106764533842485
-0.044238389755916735
0.00968794481133289
0.03340069853522193
0.034628656183549586
0.023271405636784693
0.008422822352217623
-0.0036291854937778667
-0.010035797948676893
-0.010860614239770756
-0.007918584459987665
-0.003536576131008229
0.0003707443143756057
0.002748330679151368
0.0034121286805601342
0.0027832170083302602
0.00153055286249578
0.00026822707806978583
-0.0006173225493165233
-0.0010029609502437153
-0.0009661083650222222
-0.0006799011638272341
-0.00031652505480462195
1.0630289651885705e-05
0.00025820302243174427
0.000428242147267095
0.0005289592958965479
0.0005437468845909731
0.0004255255122442808
0.00012231627132444606
-0.00037385234471027875
-0.0009756416854791195
-0.001475821116716048
-0.0015773610026490474
-0.0009922292317232739
0.0004039378579166745
0.0024085894136848013
0.004398028548313832
0.0053893075844261
0.004317881193985569
0.0005183998768258837
-0.005711512163272174
-0.012695353617455824
-0.01740231739212473
-0.01615970539777805
-0.0061097519268206455
0.012857687206505505
0.036339955322059005
0.05473351841464535
0.05449497598426403
0.021728881519198818
-0.05247126455143844
-0.1666497112016047
-0.10608661033726222
-0.04461188590345949
0.048244238506132645
0.1966415391975601
0.2083955951082571
0.07007340664988396
-0.04995114335190319
-0.191036300476948
-0.18635136248894257
-0.05102289584326425
0.02316996305750922
0.06504548967255244
0.11493207914037981
0.012903337998710924
-0.0118706862493102
0.05195813944579558
-0.004215865002629168
-0.0064894179642227936
0.007620277389076074
-0.0026247924972723187
-0.07261364866838946
-0.025258734255199634
-0.06687526857975976
0.013015702183319083
0.03806461973551212
0.038859600648740736
0.04603419830801244
0.0847255930545037
-0.028273885214226743
-0.08448373264691422
-0.08183716499027292
-0.022591266652961534
0.0876181997657598
0.03938289939198754
0.01871323442006541
0.007050350762135781
-0.017242210323844796
-0.07615795883305244
0.01102765828675616
0.030269976664063742
-0.025761182159997533
0.04287901076583583
0.043469130182035604
-0.009470883661581272
-0.09444799784830615
0.016056946091548358
-0.04677310983027834
-0.05229901786027563
0.023888465785327054
0.19413200477791392
0.05475696217361789
-0.014031599440091452
-0.04364946155066612
-0.06918464705768598
-0.12067175223917151
-0.0165464177855358
0.03876632556174802
0.05290355588888117
0.0406417513118211
0.018158593776933258
-0.0016173168876527546
-0.011551933171803266
-0.010662245088142498
-0.002798350227674621
0.005642836685326054
0.00834502292452255
0.0015608750464714482
-0.013949056786711888
-0.031963621429601845
-0.0412868518624592
-0.02795897537127075
0.020987924865168397
0.11312028716825535
0.047060718574606884
0.011401674509648994
-0.01310729183790595
-0.04861656575167872
-0.11420311861985415
-0.021053076042730563
0.029522120939924085
0.044804536192744104
0.03704645686974983
0.019185758124770625
0.0014577857510999937
-0.010265214500279292
-0.014404049521215729
-0.012434536688725111
-0.007232518480840927
-0.0016321348311730533
0.00245334706338064
0.004292069001357889
0.004126966142552127
0.002740390884464426
0.001010629772986025
-0.0003982096539875719
-0.0011652618970449252
-0.0012872674890878444
-0.0009631437697758424
-0.0004578047230481219
4.6389725573890976e-06
0.0002957600447902158
0.0003877153309940713
0.00032498698326627307
0.00018395073936100913
3.734813535516378e-05
-6.7060360479811e-05
-0.00011221296369597404
-0.00010579198966427758
-6.874051457297125e-05
-2.3861499576415694e-05
1.1975877162160592e-05
3.0917236896077755e-05
3.3261418555856924e-05
2.4372934947908474e-05
1.1148755613317e-05
-6.951563088277499e-07
-7.972489635315724e-06
-1.0091115559770812e-05
-8.284986403641655e-06
-4.558709534741798e-06
-7.794284137525106e-07
1.8549148464495112e-06
2.943356480017994e-06
2.71424249389455e-06
1.7229035195791497e-06
5.583998693050393e-07
-3.525500115434731e-07
-8.190093071209893e-07
-8.587683261073013e-07
-6.161396559560671e-07
-2.7049111286440977e-07
3.2560118288908174e-08
2.1415931785294377e-07
2.6228386939471814e-07
2.1094737754337482e-07
1.1268604530226118e-07
1.5373921690422114e-08
-5.0993212626453e-08
-7.708529608685938e-08
-6.955761911476404e-08
-4.310473610781499e-08
-1.2925820901038018e-08
1.0200148260821864e-08
2.1652181148857758e-08
2.2146627389065794e-08
1.5553602602926086e-08
6.531932296025073e-09
-1.21325063613058e-09
-5.7356060155640685e-09
-6.808568276024235e-09
-5.364388852845068e-09
-2.7778480107583686e-09
-2.750398180145876e-10
1.3943484083754328e-09
2.015841903165853e-09
1.7804943163785358e-09
1.0763774844004802e-09
2.952136521469003e-10
-2.9111411123123585e-10
-5.713296684739714e-10
-5.704778403254492e-10
-3.920493956458747e-10
-1.5689985134284697e-10
4.0813741275138043e-11
1.5318804240997424e-10
1.765237061278108e-10
1.3624451809840368e-10
6.827381795585793e-11
3.9766120474954445e-12
-3.7946732041261226e-11
-5.2640503860610805e-11
-4.552317827375158e-11
-2.6824487870647525e-11
-6.628544578853837e-12
8.217161369148378e-12
1.5048296966231316e-11
1.4678181663098147e-11
9.866966896503809e-12
3.745955002885452e-12
-1.295129593873753e-12
-4.080964266825425e-12
-4.571120919783751e-12
-3.4558697577405108e-12
-1.67257839014308e-12
-2.2667545654432317e-14
1.028364221188913e-12
1.3727236021200842e-12
1.1625639619841928e-12
6.670717317034081e-13
1.4554554687163554e-13
-2.2982823952477066e-13
-3.9567466690480773e-13
-3.7722988379927995e-13
-2.479284538018558e-13
-8.880318809132264e-14
3.957348183352053e-14
1.084632207978865e-13
1.1823170307868497e-13
8.754581224761843e-14
4.0831509225530146e-14
-1.4578875246562885e-15
-2.7760567968555814e-14
-3.574598998189461e-14
-2.9651314896354786e-14
-1.6548090433985175e-14
-3.096202611251964e-15
6.3816582544480695e-15
1.0389560704404725e-14
9.686642636668918e-15
6.222193362043526e-15
2.0907193144746233e-15
-1.1745087920022933e-15
-2.8734485508411447e-15
-3.051564405857218e-15
-2.211854938797336e-15
-9.899706146751158e-16
9.271604540383373e-17
7.497177837806092e-16
9.32502353702857e-16
7.582344601956574e-16
4.123867709707301e-16
6.581796983206581e-17
-1.731381648926406e-16
-2.6949100774302555e-16
-2.4556795572349006e-16
-1.5300149352847654e-16
-4.586625342861684e-17
3.707973258241829e-17
7.885557704069551e-17
8.155470800615568e-17
5.86868289556793e-17
2.6772495514626165e-17
-9.141819770655752e-19
-1.7292449313376974e-17
-2.1408287716364787e-17
-1.6481788838023722e-17
-7.370059679888787e-18
1.5485587896484273e-18
7.563937201798461e-18
9.866575453249368e-18
9.101997970657466e-18
6.635088757325213e-18
3.860293078224912e-18
1.7559373557230264e-18
7.31986487145772e-19
7.109435319999259e-19
1.3310410464810524e-18
2.16345087581464e-18
2.870632446543533e-18
3.278060090748932e-18
3.3687755246532485e-18
3.2308074838974557e-18
2.9911644716946056e-18
2.761914529838404e-18
2.610726632890598e-18
2.5560758407140103e-18
2.579549322736653e-18
2.645135436680498e-18
2.7169164327843556e-18
2.7702340360486728e-18
2.795243353472754e-18
2.7945423808248487e-18
2.7777920913217955e-18
2.7561099415341807e-18
2.7380682566313217e-18
2.727955890012297e-18
2.7260140030549082e-18
2.7298474251394958e-18
2.736139751066365e-18
2.742025814031838e-18
2.7458193949461724e-18
2.747106046551197e-18
2.7464052561286103e-18
2.744665458263799e-18
2.7428107531833117e-18
2.7414616859331325e-18
2.7408532287370773e-18
2.740903116638129e-18
2.741354008708418e-18
2.7419180320896218e-18
2.7423777612448735e-18
2.742628144187203e-18
2.7426679899078258e-18
2.7425621956546688e-18
2.7423972386716014e-18
2.7422462849051973e-18
2.742151262730065e-18
2.7421212609666436e-18
2.7421417554507822e-18
2.74218781016971e-18
2.7422356768113405e-18
2.742269763893897e-18
2.7422845028980183e-18
2.7422824036270496e-18
2.742270304732156e-18
2.7422556514295716e-18
2.742243951125532e-18
2.742237767749771e-18
2.7422370032819344e-18
2.7422399059478167e-18
2.742244223826622e-18
2.742248090741422e-18
2.7422504665116943e-18
2.7422511579515522e-18
2.7422505680417336e-18
2.7422493513211096e-18
2.7422481173973227e-18
2.7422472573571587e-18
2.7422469020700023e-18
2.7422469769472015e-18
2.7422473006574653e-18
2.7422476808729922e-18
2.7422479782807464e-18
2.7422481305535304e-18
2.742248143511272e-18
2.7422480642784296e-18
2.742247951419838e-18
2.742247852477102e-18
2.7422477931923218e-18
2.7422477774871666e-18
2.742247794253797e-18
2.7422478263383245e-18
2.742247858110311e-18
2.742247879777229e-18
2.7422478882939836e-18
2.74224788583438e-18
2.7422478771965754e-18
2.7422478673430694e-18
2.742247859792916e-18
2.7422478560545115e-18
2.7422478558936782e-18
2.742247858046665e-18
2.7422478609923393e-18
2.742247863521042e-18
2.742247864997397e-18
2.7422478653475256e-18
2.7422478648758684e-18
2.74224786403131e-18
2.742247863214157e-18
2.742247862669154e-18
2.7422478624662962e-18
2.7422478625431836e-18
2.7422478627731007e-18
2.742247863028152e-18
2.742247863219575e-18
2.7422478633110476e-18
2.7422478633107537e-18
2.7422478632524878e-18
2.7422478631757094e-18
2.742247863111159e-18
2.7422478630744737e-18
2.7422478630668594e-18
2.742247863080014e-18
2.742247863102208e-18
2.7422478631232e-18
2.742247863136887e-18
2.742247863141683e-18
2.742247863139358e-18
2.7422478631332523e-18
2.7422478631266583e-18
2.7422478631218115e-18
2.7422478631195817e-18
2.7422478631197026e-18
2.742247863121274e-18
2.7422478631232725e-18
2.7422478631249184e-18
2.742247863125828e-18
2.7422478631259877e-18
2.7422478631256233e-18
2.742247863125041e-18
2.7422478631245024e-18
2.7422478631241592e-18
2.7422478631240468e-18
2.7422478631241157e-18
2.7422478631242775e-18
2.7422478631244477e-18
2.7422478631245702e-18
2.742247863124624e-18
2.7422478631246184e-18
2.742247863124576e-18
2.742247863124524e-18
2.742247863124482e-18
2.7422478631244597e-18
2.7422478631244566e-18
2.7422478631244666e-18
2.7422478631244816e-18
2.7422478631244955e-18
2.7422478631245044e-18
2.7422478631245067e-18
2.7422478631245048e-18
2.7422478631245005e-18
2.7422478631244963e-18
2.7422478631244932e-18
2.7422478631244917e-18
2.742247863124492e-18
2.7422478631244932e-18
2.7422478631244944e-18
2.7422478631244955e-18
2.742247863124496e-18
2.7422478631244963e-18
2.742247863124496e-18
2.7422478631244955e-18
2.742247863124495e-18
2.7422478631244947e-18
2.7422478631244947e-18
2.7422478631244947e-18
2.742247863124495e-18
2.742247863124495e-18
2.742247863124495e-18
2.742247863124495e-18
2.742247863124495e-18
2.742247863124495e-18
2.742247863124495e-18
2.742247863124495e-18
2.742247863124495e-18
2.742247863124495e-18
2.742247863124495e-18
2.742247863124495e-18
2.742247863124495e-18
2.742247863124495e-18
2.742247863124495e-18
