0
-8.757108170418063e-12
-2.4371445285874808e-11
-3.7028329572482576e-11
-3.877361742817919e-11
-2.2413769993870034e-11
1.4497559484338337e-11
6.569850336060743e-11
1.1425042605607147e-10
1.3468846944725745e-10
1.0062222137973256e-10
-2.795822111509746e-12
-1.6485327097053033e-10
-3.397213500500928e-10
-4.486575274961675e-10
-3.997071240481957e-10
-1.2535153726183259e-10
3.7003388794524916e-10
9.706066346691497e-10
1.441447344097034e-09
1.4752165240117273e-09
8.015822361767727e-10
-6.580750008403093e-10
-2.6406412272821504e-09
-4.4725837792693e-09
-5.163660887051655e-09
-3.7111033247247105e-09
4.1347372071503684e-10
6.728325438935597e-09
1.3392679592963135e-08
1.732508143007839e-08
1.500186090282773e-08
3.936986877331901e-09
-1.5490493026750134e-08
-3.8560273591433754e-08
-5.601724511531516e-08
-5.6000441311891524e-08
-2.8375822603535514e-08
2.9267120240313592e-08
1.0594444623649883e-07
1.7491629908484655e-07
1.9771958056101074e-07
1.3631874265183585e-07
-2.7901428589682772e-08
-2.736897280492304e-07
-5.272618126822132e-07
-6.681706270146254e-07
-5.615804521412414e-07
-1.1636481243135499e-07
6.446145138232652e-07
1.5296118837113026e-06
2.1744681518341545e-06
2.1220008792153303e-06
9.933186788223854e-07
-1.280011552964387e-06
-4.242039907116744e-06
-6.8327657859829215e-06
-7.559915900430112e-06
-4.983459368742079e-06
1.5443958664807977e-06
1.1100120073439448e-05
2.073195181669512e-05
2.5737334070213835e-05
2.0964207726458225e-05
3.0891385659760833e-06
-2.6683443952909027e-05
-6.058671165726937e-05
-8.431009279248324e-05
-8.025368886095052e-05
-3.429280704245872e-05
5.524360750309311e-05
0.00016952022169392831
0.00026657390078314023
0.0002885678425102548
0.00018107832986687182
-7.810614866855068e-05
-0.0004493429554953894
-0.0008147643590203182
-0.0009909369110539972
-0.0007811389574002917
-6.444405839492204e-05
0.0011010064913980827
0.0024033273226247345
0.0032843927363909306
0.003073746605161855
0.0012564679709812813
-0.0021794100223867657
-0.006442064941005106
-0.00986032609597713
-0.01020970613452853
-0.005530435327566426
0.004644461787093919
0.017952930807043587
0.02824413660952375
0.02551393320415962
-0.002949633853053595
-0.070327356494731
0.012468238382459229
0.03919594513350085
0.009659928152599877
-0.07035110663070296
0.009159232814691462
-0.14137623853458833
-0.11684955495077978
0.07571483285642329
0.41184909161244254
0.24987560274649057
0.14054449650248235
-0.15327447856192808
-0.4317787766626677
-0.6383353590281836
-0.2557546866195967
0.07454361009307124
0.5129783753084498
0.5742285654139888
0.48935657292393453
0.5930344513980323
-1.0582821235641242
-0.644210315677333
-0.131169728100901
0.16580717008648405
-0.4004606481790858
0.9857466386686854
0.18488443096383134
-0.31913350307948585
-0.4367937705984202
-0.08677677637172432
0.19154314662590433
0.22567850740101808
0.20061151899642815
0.057573291783668795
0.10462719148204591
-0.16153490823407365
-0.22759054266628104
-0.13716933585851687
-0.07400634898703755
-0.16024902226776325
-0.07146411801934753
0.13446224764905954
0.18108256664755032
0.13881889525440816
0.20151178483013385
0.2815302404211597
0.22681815385876755
-0.14217979188821286
-0.3838008136625476
-0.5879017291647978
-0.34513910485577937
-0.1443417927940261
0.1991159585798843
0.4916930685292248
0.5028636654416446
0.11764475460267056
0.11481596427874462
0.17639167999673333
-0.27575247413837056
-0.427693372443191
-0.2212036267738709
-0.3165511278180537
-0.2807954812680556
0.19576782874239984
0.46096010833790907
0.25262771200263684
0.2564890398239225
0.08257789679609555
0.0661494750166877
-0.10897455570768254
-0.3730460859106943
-0.43096032936435485
-0.1325496450215551
0.9396273135638009
-1.136445725929711
0.1560464989012167
1.3426657655312488
-1.0733368520167574
-0.6359771727322491
1.849941200678685
0.7201010560528317
-2.1318976545249058
0.3754220908110555
-0.45691717027645484
-0.08782017440948607
0.6672589858075748
0.42660734219034774
0.22918701825640092
-0.2737102288182002
-0.8211120463421958
-1.1456648343991749
1.0147049641002872
1.0962581784920018
0.6905348442462619
-0.2576136532453682
-0.42720972452781913
-0.6808647572915111
-0.8261995347773482
-0.399177086813577
0.7202519414935019
0.6650950616125609
0.5288806091647775
0.3260165487776881
-0.21952119465235706
-0.454675910012845
-0.3567177567541227
-0.08733666428767199
0.04435070367040121
0.20210589349843866
0.025299574952388226
-0.1828313079361945
-0.2776358610634888
-0.1030493134597261
0.2746776339667615
0.5359665814331998
0.48862261161840126
0.068419185291188
-0.43826196572378145
-0.5566014872914332
-0.38433574133119747
-0.16631606100200622
0.3090273348447461
0.49296055177824916
0.24927521320158463
-0.1711214392038342
-0.14534267748777663
-0.08126298836099015
0.1895526837765981
0.22497740892254828
-0.011502506050312668
-0.3346207133786743
-0.3258180019640385
-0.33224665015813165
-0.0803794248963377
0.29718347029394293
0.630287370572118
0.6888705459297745
0.7828164908201255
-1.2107707639260668
-0.8007604587551974
-0.43522205381095413
-0.27665136946542723
-0.4117280762756591
1.507975364837012
1.0123485083486763
0.17009315815242054
-0.6251374181715524
-0.6377048505152013
-0.5557905891111946
-0.25994400905362847
0.19160970557102913
0.7594802053714423
1.2114049200472288
-0.6838604420672413
-0.5492010084500071
-0.3823553898223593
-0.3427521473395982
-0.7547358743777932
1.0690614927753685
0.7925230742801853
0.42611321676761155
0.319548740133266
-0.21527514965200603
-0.8585251558650291
-1.0338943134604992
-0.4812457176707109
-0.26706425793544475
0.7670210431929133
1.536046331940773
0.8543510018652053
0.8180586188341415
-1.1599153693404776
-1.2742802773183493
-1.243855382189409
-0.2581271970165402
-0.37858570801333635
1.605445711945803
1.0909497979552045
0.582061359228807
0.04963382180420474
-0.45710054585225574
-0.7560044008533454
-0.6596195090776121
-0.3131577362977557
0.036986286142660155
0.4385399361197987
0.4008415633899202
0.2510577194783175
0.09592566673041665
-0.00017090148985119023
-0.21830971807019545
-0.17376119275195875
-0.0982527580174954
-0.023444288100806
0.02954419664758119
0.05334413883533713
0.05189259871803956
0.03519390953898778
0.014013219970884836
-0.0037391803165452205
-0.014351525465467018
-0.017748040741683832
-0.015894347256417553
-0.01111177380807579
-0.004990486793664831
0.0018114834639142146
0.009001554487945792
0.01573764661371101
0.019917762118668362
0.018163073788639125
0.00672536095389075
-0.01685612638618012
-0.05196500392157689
-0.09388717949866515
0.06565102774108109
0.03622965998702306
0.025521192743270544
0.036485301743110675
0.06623534440332439
-0.09291060124420779
-0.05066942140697141
-0.015558375333580761
0.007453182810448928
0.01763256928625237
0.017619553825738533
0.011724135472009093
0.0042089353103735416
-0.0018776346819349022
-0.005125010302268631
-0.00555679775843227
-0.0040766346094549466
-0.0018546139353861485
0.00013851287842726962
0.0013615076749632542
0.0017134735140552056
0.0014031861519115084
0.0007698905502971005
0.00012933179641822594
-0.000316242344720075
-0.0004995640068938755
-0.000459802219354815
-0.0002912860024893653
-9.384450927140528e-05
6.033720538971016e-05
0.00013907313661032077
0.00014552247773948727
0.00010422387669058378
4.5592175105634365e-05
-5.7235219179851376e-06
-3.6408335407353436e-05
-4.447078815241757e-05
-3.5705083838414074e-05
-1.902491321968494e-05
-2.538255425089884e-06
8.684996502695412e-06
1.3078188490449798e-05
1.1779824846882234e-05
7.285053924725476e-06
2.1693745512056067e-06
-1.74397972926043e-06
-3.6762934748523317e-06
-3.7525817316011954e-06
-2.6307021043764546e-06
-1.100525715155302e-06
2.1084806609413213e-07
9.748573485897006e-07
1.1542904118534564e-06
9.078876472005456e-07
4.6887666839218407e-07
4.488975948576836e-08
-2.373809653777686e-07
-3.419631916220037e-07
-3.015036210160241e-07
-1.818867992107847e-07
-4.9483672701352256e-08
4.972319182661301e-08
9.699027710170609e-08
9.665397323454986e-08
6.63020267033596e-08
2.642252578780434e-08
-7.049988115631128e-09
-2.603097370584853e-08
-2.9923854525070705e-08
-2.3056007812514502e-08
-1.1521001370073785e-08
-6.298110354468817e-10
6.457861189780086e-09
8.928783725967753e-09
7.708014825696506e-09
4.5320398178374815e-09
1.1092846939472028e-09
-1.4023109668734596e-09
-2.5541991359325664e-09
-2.486562664383268e-09
-1.6683863130245933e-09
-6.304583600396991e-10
2.2284502962510318e-10
6.93235998241223e-10
7.746671706647438e-10
5.846219887377579e-10
2.821125083976546e-10
2.8327659965077343e-12
-1.746130925679309e-10
-2.3228528490625316e-10
-1.96250617609289e-10
-1.1230197086610406e-10
-2.441056467870413e-11
3.838121101754797e-11
6.563105393716015e-11
6.202368098493123e-11
4.041236661175821e-11
1.477092152451382e-11
-4.750371675244519e-12
-1.388798175750686e-11
-1.378699542395053e-11
-8.919621580882964e-12
-4.455514766124289e-12
-3.952044072792946e-12
-7.936215687209877e-12
-1.3670332411390431e-11
-1.6159009701248186e-11
-1.0222635329143856e-11
6.821467683021665e-12
3.26600450478658e-11
5.873291757086023e-11
7.132540556107252e-11
5.5673501572663825e-11
2.7612684100297296e-12
-8.294118837195748e-11
-1.7799047454563764e-10
-2.406658872466362e-10
-2.2103959052690963e-10
-8.087609695380502e-11
1.8073639638764682e-10
5.053073139665262e-10
7.693365045190402e-10
8.074834916270806e-10
4.697878373074424e-10
-2.9549532495785005e-10
-1.3593947403248872e-09
-2.37090259525326e-09
-2.8010935967445887e-09
-2.1005288060238973e-09
4.187436135144312e-11
3.4071867609165804e-09
7.046728266980128e-09
9.326028788797157e-09
8.33227455802375e-09
2.655420192799469e-09
-7.625092572614077e-09
-2.0114941684698904e-08
-2.994126382090182e-08
-3.071547026059002e-08
-1.6801887954884952e-08
1.3467861015033131e-08
5.466991114194945e-08
9.284457702147444e-08
1.0742149001011054e-07
7.752001053396365e-08
-7.94049791324907e-09
-1.3909170097796585e-07
-2.778201589532508e-07
-3.601559992147218e-07
-3.127905757842733e-07
-8.378381039605131e-08
3.1943579873499003e-07
7.99272716131894e-07
1.1637255081405117e-06
1.1662125857725633e-06
5.954121515345535e-07
-6.001286405185755e-07
-2.1938438778326625e-06
-3.6314340511867496e-06
-4.113808352950335e-06
-2.8488069295622835e-06
5.543851691377509e-07
5.659684137703569e-06
1.0939059892628087e-05
1.3891778044394924e-05
1.1712220259099998e-05
2.495580721161251e-06
-1.3300550785855961e-05
-3.171048971168424e-05
-4.5178611863396524e-05
-4.4199191247528917e-05
-2.086909588890456e-05
2.6287210951222532e-05
8.7859728951461e-05
0.00014187204727013954
0.0001573178004643243
0.00010419991818521912
-3.110044842496759e-05
-0.0002296059338627402
-0.00043017566142289045
-0.0005351639696671508
-0.0004373543013487628
-6.72438441010064e-05
0.0005508111010595725
0.0012561147997200684
0.0017516829224215997
0.0016714860053404991
0.0007207498094626369
-0.0011374173810094002
-0.003514133567689294
-0.005539156965594504
-0.006010091825554899
-0.003791549961921605
0.001587662339899076
0.009319170519618168
0.016974853177350663
0.020770012127778844
0.016650878199633002
0.0021480614432618002
-0.02147776354966108
-0.047699900583619656
-0.06494391410558503
-0.05954218153000654
-0.021696000433291732
0.046495741820927514
0.1232775490171872
0.16308713557660043
0.09930545266451804
0.05569201212285902
-0.03449314118217784
-0.20591266145309245
-0.2418553323486277
-0.26559582529553877
-0.1478411939746272
0.06876803146778122
0.33297431217593343
0.34606029338482247
0.3330314203826418
0.03377368628990791
-0.08201855500009296
-0.18006502828527254
-0.2170478116032259
-0.29936485103330385
-0.256696527087845
-0.03753718777618317
0.0725105361704277
0.21551502651298216
0.31991878989916367
0.465777242683107
0.06690973714631797
-0.12551278799892612
-0.40118173064402896
-0.46057034671124053
-0.1888711572529883
0.15695867387236068
0.34624220671865075
0.3634028323080277
-0.003054160081825673
0.03627881888904198
-0.12142834850624233
-0.25796512163466956
-0.12140168992980906
-0.021084807435366844
-0.23470583300740638
-0.02776452872167692
0.3184358434594855
0.07757115136733365
0.45699878425190726
0.39263407849133664
0.563942111388552
-1.9744311467053697
-0.5560904518879222
0.523168160773715
1.2111193979004897
-1.1128152808483591
1.1447077691642407
0.1791778259628366
-0.6125370080593829
-1.2244811212853304
0.7671680892843331
0.6073089774482332
0.3591676054498168
-0.29927588427442287
-0.47601536727304117
-0.4659291433696658
-0.1594034692300054
0.13625467907303201
0.4654151222528099
0.3936269516279517
0.3924499149199784
0.8509910352288075
-1.0832100948758727
-0.44278073219390124
-0.17700815059774294
-0.30732464832971096
-0.9170819565509787
0.8201840750416655
0.381755648568848
0.22329365794056766
0.31425683944837435
0.2992451324509245
0.2948444521857311
-0.07846090026215151
-0.439031822540939
-0.7784890753517043
-0.407924899033065
-0.13260335469397533
0.33808467305667134
0.351331661810219
0.45808039162773323
0.16553417167463758
0.10991097004833876
0.6559452289087322
-1.2798065212011467
-0.19271816869776648
0.044216062314235596
-0.00013870038163603558
-0.9160388711930936
1.328671675712354
0.3621502042008859
-0.013315158851117991
-0.22844572859857032
-0.13662356090856256
0.008515952543513046
-0.021936109203201524
-0.21351432366422765
-0.3024019059044325
-0.3855805443094686
0.05318607301390046
0.5073009767398392
1.4129982070784826
-0.6687296939973761
0.35626964837784664
-0.25054543168151067
-0.8130662868890884
-1.3989471360983372
0.999234094597285
0.2531338150581924
0.46519615516348156
0.5297398198888048
0.10587354391648952
-0.389047730357435
-0.5681005886184646
-0.4565838143826628
-0.07935454991358364
0.5397196753835901
0.7691370337038338
0.16190441598267763
-0.34194631027336797
-0.40032683837239047
-0.4485296183354617
-0.28436543749596876
0.3329985231389413
0.6706605139306454
0.40394769315263845
-0.19711804833950436
-0.4714243313191958
-0.36328968671195205
-0.22034784109074507
-0.0002028559193373598
0.5133247719878281
0.4911428186129551
0.047755318007191724
-0.15323021016162275
0.7249628186718057
-1.4710908819793354
-0.24737363135287116
0.5637193310317326
0.21005852938591418
-0.9931230276371961
1.1103747782270728
0.08603485679896268
-0.3206621578479266
-0.005497400270926567
0.08338366853991878
0.14350917485581066
-0.07685356448437282
-0.2686878634585713
-0.1495963563057687
0.14922647038983766
0.29582259856343696
0.5719506629131039
-0.10826866710752682
-0.3761856019592156
-0.589544677905583
-0.6277538880963489
-0.511595686005223
0.7509462740563592
0.9038736596037634
0.7893579017356905
0.524943214138803
0.1260630662596941
-0.8297816535898639
-1.319113877666202
-0.8012350517650619
-0.38931718632801104
0.12244492621412172
0.9847674101210734
1.8013625832483429
0.6564491301286072
-0.3089252891528055
-0.6638874200031842
-1.0153666785508186
-1.1297777978888432
-0.28201926525573207
0.5498823983380502
0.6480119723071104
1.0979091952811006
0.7415166173120651
-0.03762603314046924
-0.8915978064768434
-1.0619363345691708
-0.9366314583163226
-0.23530879302259888
0.9673837017428167
1.391067491135247
0.8978417145222198
-0.3336265919086958
-0.7958856005268545
-1.011224153338162
-0.4841534043126966
0.3293202744927037
0.8257010312992394
0.43713088613539347
-0.19185881050939374
-0.42163669987720154
-0.22507619663604927
0.6111146752237012
-0.7133856242335269
0.38725599999988025
0.2851691320063633
-0.058683708810674445
-0.6879193706979349
1.5600173879173744
-0.9330235233694818
-0.5540284847462164
-0.2537522035354314
0.0457585393430221
-0.17035212778225714
1.3615183225047989
0.660940777683055
-0.0995024273508786
-0.7732140374159916
-1.0040419015490722
-0.5958131914901464
0.09459334543134902
0.7348300913871363
0.9761054259051879
0.4150743314325896
-0.021303233612466516
-0.45987163499669453
-0.6417806788422095
-0.47733351084118775
-0.014068164642929747
0.17080008188388687
0.35392445842641485
0.23501687498491836
0.10480792426481313
0.022483475155129187
0.007619071604693247
-0.1541889433422501
-0.09675966009488142
-0.056123851084014006
-0.0563656694461214
-0.10218196323935093
0.02070625276921133
0.1385524730304449
0.07911654051053657
0.06173158848058799
0.09139091287278386
-0.04144162825132297
-0.15589616785851199
-0.07313941663468912
-0.009433569870418547
0.0277090559487944
0.03956027213886317
0.033375711925631754
0.01853361240356394
0.0032153665758368217
-0.007480286401611024
-0.011872121040700016
-0.010903532148111324
-0.006855803757053873
-0.0021337321974112464
0.0015333581251661859
0.0033832628734030913
0.0035027759422149806
0.00248803948978228
0.0010709494293023609
-0.0001593634201663007
-0.0008880774683811051
-0.0010722602668231014
-0.0008544827230091926
-0.0004502732387828789
-5.413347902622068e-05
0.00021338329179520474
0.0003161036594619874
0.00028252453095186926
0.00017317682505943593
4.998618952111992e-05
-4.354873472040809e-05
-8.915245349887969e-05
-9.020771129085654e-05
-6.274633153442689e-05
-2.5804518653344884e-05
5.616530664566419e-06
2.3746489604664946e-05
2.7813271720079938e-05
2.171360548560541e-05
1.1083260537198002e-05
9.009888162582589e-07
-5.8226799512353345e-06
-8.261346464297902e-06
-7.228287953365124e-06
-4.320668258444255e-06
-1.1336105619575406e-06
1.236452986390976e-06
2.3505267338918305e-06
2.322490572601147e-06
1.580539555508314e-06
6.182260511295946e-07
-1.8344560821178176e-07
-6.334914072844757e-07
-7.207142067788986e-07
-5.511665379256478e-07
-2.720194675952821e-07
-1.0569681622048912e-08
1.5815574989795818e-07
2.155980864128836e-07
1.847153368612621e-07
1.0757584010480111e-07
2.5221788466022944e-08
-3.475188284357472e-08
-6.186356494402633e-08
-5.972822305167547e-08
-3.975289681914305e-08
-1.471787752058101e-08
5.712828238290354e-09
1.686029360807095e-08
1.865848135527808e-08
1.3980235415391474e-08
6.661734840228204e-09
-4.7585051845200645e-11
-4.282331203729674e-09
-5.63344108164996e-09
-4.739365142185512e-09
-2.7008104509444314e-09
-5.670966233987626e-10
9.712180683641074e-10
1.662889148994994e-09
1.608192634635091e-09
1.0933229970064921e-09
4.295219562818674e-10
-1.5189120228111515e-10
-5.343304863879755e-10
-6.955531077624819e-10
-6.620448083391598e-10
-4.685786196671507e-10
-1.4279684825542516e-10
2.814080441059317e-10
7.338759927871841e-10
1.0844882228900214e-09
1.1505968854529625e-09
7.511767814754293e-10
-1.962620681630705e-10
-1.565503537118232e-09
-2.9506829042169127e-09
-3.695929449474362e-09
-3.0704318792573178e-09
-5.861697419874949e-10
3.617312869189957e-09
8.473679271941032e-09
1.1974547630118407e-08
1.1611102838683864e-08
5.320005550218225e-09
-7.240344402994435e-09
-2.352098671514067e-08
-3.765985407154125e-08
-4.144713281259319e-08
-2.7008388234630887e-08
9.11991530558124e-09
6.172297348785715e-08
1.1444010790378891e-07
1.4135799726435245e-07
1.1423651842827224e-07
1.507548536561085e-08
-1.4907086101620527e-07
-3.3502785046584015e-07
-4.638121701190163e-07
-4.387718207103039e-07
-1.8296255545892523e-07
3.1149355984530795e-07
9.394374957572297e-07
1.4688873867950944e-06
1.5817515575267657e-06
9.806091678087622e-07
-4.5271730158573726e-07
-2.4948835770082773e-06
-4.492861874741542e-06
-5.436363284396596e-06
-4.248361083136747e-06
-2.771321490108269e-07
6.135703444297902e-06
1.3246973569440093e-05
1.7957519680849844e-05
1.6552466046316705e-05
6.174600797677831e-06
-1.3269722745403225e-05
-3.746038708278785e-05
-5.7230696143910366e-05
-6.027188444113015e-05
-3.537556461982965e-05
2.1403442844166954e-05
0.00010058624438862575
0.0001761480779784035
0.00020873778840728693
0.00015733250141841673
-1.5196966460112557e-06
-0.0002519460888272994
-0.0005237427116606864
-0.0006954145819557383
-0.0006242143783917715
-0.00020399833122177136
0.0005615538281056194
0.0014976647689145747
0.0022464776847766193
0.00233916103025881
0.0013656307879775789
-0.0007851160595042105
-0.003692473270407391
-0.006301946146706589
-0.007087636478848881
-0.004572015883393827
0.001807516987324891
0.010639460682007953
0.017572270494923246
0.014773377281124043
-0.00895635314480702
-0.0674199546272498
0.024143978044981963
0.05037038518014552
-0.002808806275963303
0.05357809603340628
0.013687396677914479
-0.12104011420520994
-0.14089568668931401
-0.029274690857264602
0.03317863880206257
0.2630205056659889
0.2701776182883149
0.05917868792307274
-0.3634713157699805
0.021319307502198914
-0.5471794275943216
-0.2115154904422222
0.08928974506928407
0.5955713296560978
0.30279325095009924
0.5495846467664314
0.02723703073909489
-0.3886602028173999
-0.59403521105308
-0.6163794534547794
-0.19611249998636285
0.0010202347633781732
0.5428953365838273
0.5751819321237889
0.3705412853928942
0.10064169758073457
0.04002032846247995
-0.40060462693935095
-0.4234450106573993
-0.1914841697074688
0.010116744941760276
-0.009768465957871538
0.04426949945784574
-0.07248688923890502
0.016936138063212213
0.07021540083977075
0.3908670091241599
0.6079820292303332
0.07678620371512235
-0.49911883641813254
-0.43080216237804814
-0.40588478112683296
-0.26372422974017745
0.20756788500543075
0.4535225365253314
0.32510342168341305
0.2535956531629724
0.03968691411759796
0.06063084222298756
-0.30893312678444806
-0.6732433688324977
-0.6018230092800342
-0.2360366134619566
0.4829824800248057
1.3758916580938376
1.596365372872417
-1.1685382681616976
-0.8630100102374135
-0.6061897538943039
-0.8419891845341273
-0.3192830977777944
1.4892157765858205
0.7400616749696183
-0.03336297493495542
-0.1574895980935504
-0.629956250364228
0.09032350956845926
0.10405814777701679
0.09462469340859411
-0.050862008730412356
-0.023497250090694578
-0.07822119204343124
-0.02450890062634405
-0.023610809237914896
0.006927655678377732
-0.018099861517514224
0.03169196299794198
0.08226674796280689
-0.16577307903209637
-0.2567965497953619
0.003941880223617007
0.5415501627867133
1.2152334531117428
-0.7601124681627475
-0.3740268420019965
-0.17101223482745048
-0.4074123642892664
-1.0305564536956742
0.9112052186894191
0.6298428440709807
-0.057347321415811434
-0.1823796938302579
-0.0672782426083648
0.25600592476548967
0.2485416314567867
0.4905988834173738
0.12959886446939078
-0.25631018354302515
-0.5922492326768873
-1.05746110174531
-0.6729765075260006
-0.13822443264880527
0.4870201644019587
1.0775200428918812
1.749945856042857
1.619493844658945
-1.1723425668131144
-1.5648650275191307
-1.4557824850703482
-1.2002761732245837
-0.9734765682678903
1.990967919891287
2.308817327058101
1.7465553459404124
-1.2368966740933758
-1.2865292557416463
-1.0997202777018749
-0.7636892681834561
-0.11651770651060143
2.055019657433057
0.9919124027296902
-0.2627512955491744
-1.0737543304084984
-1.2081243702146836
-0.2288404618122467
1.2973839415995125
-0.22287628070499022
0.9657816447706904
1.3602440171554668
-1.1801502211207304
-1.3881913594227957
0.062234930390096546
-0.6120161283056554
-0.9078607317362057
1.5230281688245024
1.0141628928359288
1.433064358689551
-0.23513517309440557
-0.8597999436786693
-1.5068645182631122
-1.1826941088566478
-0.41195571896852023
1.5360211934725638
1.1842549282206134
0.7804155629128479
0.058692963092553466
-0.350241688148963
-0.8660168257179933
-0.485000127391496
-0.31487711165663496
0.26069811203879434
-0.22147532552711813
-0.14267947107779877
0.13674962263747492
0.8108434979039442
0.5740870690234391
0.39629470622458185
-0.2652418642322937
-0.42022684637500696
-0.6826188634856902
-0.8131307096064068
-0.08657991793918961
0.5073500007827547
1.4359696319120865
-0.614920554492605
0.02843353927955666
0.21534740626123627
0.17574660124847757
-1.465206225969072
0.727030285570231
0.0016980928995425065
-0.18409972301835761
-0.1817818903990709
0.6291755221494363
0.22602407827348278
0.13865036213144707
-0.13956083292033816
-0.3276075735494192
-0.32683641787007756
0.0053386589498375225
0.27053244550419997
0.13087277474667597
-0.10120904133159135
-0.2816769629110461
-0.2600295319170366
-0.10954834281064128
0.44065778414496104
0.3792600335641546
1.0025522572207965
-0.4703838578244408
0.34432232537454
-1.3455213253821257
-0.4508431010282262
-0.5665956098622212
1.0272713796703854
-0.26989908448388167
0.7639968213445448
0.11586329571993854
-0.10560078673315339
-0.08938493150260717
0.08236039734898574
0.057971933313552285
0.052019491096885154
-0.11430236611713034
-0.37594986146999815
-0.3980025638833806
0.032591350239613646
0.19522418899350372
0.20777033332121397
0.19191730257456008
0.2425417706217767
0.009478718077366386
-0.1049791302357541
-0.13488981151047486
-0.13173209484648463
-0.1450099888797969
-0.00833637673747316
0.06608591527418448
0.08503831930262438
0.06685372428189898
0.03277492901113174
0.00018128658382043046
-0.02082592287434679
-0.027569851564145563
-0.022775734939284826
-0.011769359210502527
-1.4327707081584029e-05
0.008435347107359444
0.011520940346449784
0.009092149584144048
0.0025199199542542162
-0.0057386067569671646
-0.012579623679077969
-0.014823575871292974
-0.010078324562445997
0.0020816576805952384
0.018860120654292815
0.033420674168779765
0.035140249323310176
0.011402399712087511
-0.04908863095744658
0.04784937179803026
-0.09434935766205478
-0.06103664766531208
-0.027380382139269865
0.03717173249894615
-0.0383169581126436
0.1656086033812113
0.05225381060995834
0.006104356562823035
-0.004776168065319665
-0.021730074361070658
-0.08582012041513369
-0.02818571543408768
-0.06300869188436821
0.015227674608700403
0.029800613391072404
0.016020426679105495
0.013440829893916892
0.05794256259663911
-0.024694182342601585
-0.022714111682547493
0.06056500669458304
0.0084583140087324
-0.0050632469680436405
-0.009762414217028082
-0.0330361881270336
-0.09471098845944623
-0.004038249016301449
0.04039526063553271
0.048111756238200624
0.03273781676063511
0.008084555435138729
-0.014568167312889313
-0.02768929333363687
-0.027640401335510913
-0.014448463827114085
0.008295665915813285
0.03342186367597458
0.05056097723259334
0.04763082173391141
0.013834468536699411
-0.056213975455148425
-0.15860803026859716
-0.07850583207201899
0.00763871894180051
0.1258605388819109
0.09642459469166706
0.12682411813931016
0.009083546074138039
-0.07740731090730539
-0.15876146889306217
-0.05823710568307848
0.009998874477078033
0.04298800818166375
0.0470513475885168
0.0334729335338343
0.013902659267536746
-0.002945090974378511
-0.01266273644074199
-0.014799099823197747
-0.01147639291093328
-0.0057516171593742105
-0.00030765293169485007
0.0032494810725459265
0.0044960020196128814
0.003887337910600007
0.002292164282343432
0.0005689498745765241
-0.0006985252258866915
-0.001282649057908936
-0.0012523271757396222
-0.0008426904019556212
-0.0003207715797663939
0.00010945937673882046
0.0003475311518559985
0.0003897880664758188
0.0002949738682951685
0.0001429979886825211
2.2452589146167155e-06
-8.751507439023657e-05
-0.00011702063213578
-9.919993535162423e-05
-5.699098704386636e-05
-1.2512466250429116e-05
1.9532558780307302e-05
3.371796508138804e-05
3.21795190413562e-05
2.117170198703861e-05
7.604759379886996e-06
-3.3509265127159038e-06
-9.238109329257077e-06
-1.0082481220830263e-05
-7.472774659671077e-06
-3.4913114371048117e-06
1.1659421273910939e-07
2.363099015250438e-06
3.0476755264120277e-06
2.5304911071170195e-06
1.4141771530451475e-06
2.668657076399965e-07
-5.422982436017209e-07
-8.851853141284143e-07
-8.261200283994875e-07
-5.311419477705292e-07
-1.788743367387613e-07
9.979660728945111e-08
2.4500341706188057e-07
2.604831255921369e-07
1.8905249895146605e-07
8.490421275288682e-08
-7.46972881300229e-09
-6.358904799781858e-08
-7.926923415875602e-08
-6.447253237884662e-08
-3.500590820268268e-08
-5.4454957905722844e-09
1.4956573773445768e-08
2.320192181022274e-08
2.118413190548666e-08
1.33016545560477e-08
4.166318305670243e-09
-2.9131208394698194e-09
-6.484165457285604e-09
-6.721770476011084e-09
-4.776087675658292e-09
-2.055667219825512e-09
3.0666371132732233e-10
1.7057828109633316e-09
2.059159599215358e-09
1.640662814750873e-09
8.642695889647224e-10
1.0352049965499824e-10
-4.101090774096342e-10
-6.072138237620053e-10
-5.425787719150601e-10
-3.3248564454976347e-10
-9.586791557380079e-11
8.374954879792847e-11
1.7129145368876896e-10
1.7327579403091493e-10
1.2050577661266422e-10
4.954558274755879e-11
-1.0797053260650286e-11
-4.5605184205829675e-11
-5.340258520568857e-11
-4.167782215504155e-11
-2.1256707071973375e-11
-1.7008943059717516e-12
1.1209409720197945e-11
1.588908234087726e-11
1.3901674572069953e-11
8.315470552630595e-12
2.194088628661657e-12
-2.3571189818132425e-12
-4.4956344315752684e-12
-4.440702601558599e-12
-3.0150207252611583e-12
-1.1665758865997515e-12
3.729754974700922e-13
1.2370068421949485e-12
1.4041835657497707e-12
1.078303395137473e-12
5.420647026773681e-13
3.993683746024047e-14
-2.840315807281636e-13
-3.942500361630052e-13
-3.348516884135763e-13
-1.8665212065735145e-13
-2.847696002087383e-14
8.668711847767631e-14
1.3872533630879443e-13
1.3459453714490738e-13
9.62115099149486e-14
4.8124570607997615e-14
8.892316947214253e-15
-1.2503621904001363e-14
-1.5942036074070217e-14
-6.945843010668636e-15
7.112967264432076e-15
1.999119823865515e-14
2.81066718548308e-14
3.067795363077023e-14
2.893941928343856e-14
2.5016016187031444e-14
2.093357846678899e-14
1.8023520990859887e-14
1.6762703701584183e-14
1.6938579464916722e-14
1.7968664132523488e-14
1.921803338665762e-14
2.0216567485345114e-14
2.0745020193703783e-14
2.081124921346934e-14
2.0564359486403847e-14
2.0196333859971262e-14
1.9866420575009924e-14
1.9663497776518536e-14
1.9604203260255052e-14
1.965427746391502e-14
1.9757939092712327e-14
1.9863183239272813e-14
1.9936610912105954e-14
1.9967010457092146e-14
1.9960705087282385e-14
1.9933141268215566e-14
1.990072150148765e-14
1.9875338493796363e-14
1.986232298208739e-14
1.9861191431508405e-14
1.986793217031849e-14
1.9877552078693815e-14
1.9885994017932184e-14
1.989105819964124e-14
1.989240600283354e-14
1.9890982029950815e-14
1.9888248277679958e-14
1.9885538230471765e-14
1.9883688243828217e-14
1.9882959323623096e-14
1.9883167041449845e-14
1.9883902634807715e-14
1.9884742858826794e-14
1.9885387283565176e-14
1.988570687052567e-14
1.988572126470304e-14
1.988553806309764e-14
1.988528696188211e-14
1.9885071197676677e-14
1.9884945073319833e-14
1.9884914996345824e-14
1.9884955071040194e-14
1.9885027037110456e-14
1.9885096741245485e-14
1.9885143278649203e-14
1.988516064602055e-14
1.9885154140793972e-14
1.988513455894323e-14
1.9885112809122798e-14
1.988509646968947e-14
1.9885088648667665e-14
1.9885088656368238e-14
1.9885093615203922e-14
1.988510016052413e-14
1.9885105668677797e-14
1.9885108802993946e-14
1.9885109457931743e-14
1.9885108339844457e-14
1.9885106448543394e-14
1.9885104657755617e-14
1.9885103488979543e-14
1.9885103078228426e-14
1.988510327519172e-14
1.9885103795261346e-14
1.9885104357601985e-14
1.988510477133706e-14
1.988510496203054e-14
1.9885104952133885e-14
1.98851048184021e-14
1.9885104648015987e-14
1.988510450756797e-14
1.98851044298582e-14
1.988510441607723e-14
1.988510444704375e-14
1.9885104496667595e-14
1.9885104542622677e-14
1.9885104571926437e-14
1.9885104581556598e-14
1.9885104575735584e-14
1.9885104561953152e-14
1.9885104547430933e-14
1.988510453696902e-14
1.9885104532338506e-14
1.988510453284166e-14
1.9885104536436187e-14
1.988510454086588e-14
1.9885104544442728e-14
1.9885104546364592e-14
1.988510454664e-14
1.9885104545787748e-14
1.988510454448774e-14
1.9885104543309794e-14
1.9885104542576393e-14
1.988510454235297e-14
1.9885104542521892e-14
1.9885104542886397e-14
1.9885104543260992e-14
1.9885104543525163e-14
1.988510454363709e-14
1.988510454361778e-14
1.988510454352146e-14
1.9885104543406442e-14
1.988510454331546e-14
1.988510454326806e-14
1.988510454326301e-14
1.988510454328634e-14
1.9885104543320346e-14
1.9885104543350506e-14
1.9885104543368826e-14
1.988510454337394e-14
1.988510454336911e-14
1.988510454335949e-14
1.9885104543349837e-14
1.9885104543343176e-14
1.9885104543340484e-14
1.9885104543341143e-14
1.9885104543343718e-14
1.98851045433467e-14
1.9885104543349013e-14
1.9885104543350177e-14
1.9885104543350256e-14
1.988510454334962e-14
1.9885104543348732e-14
1.988510454334796e-14
1.9885104543347502e-14
1.9885104543347388e-14
1.9885104543347524e-14
1.988510454334778e-14
1.9885104543348025e-14
1.9885104543348193e-14
1.988510454334826e-14
1.9885104543348237e-14
1.9885104543348167e-14
1.9885104543348092e-14
1.9885104543348032e-14
1.9885104543348003e-14
1.9885104543348003e-14
1.9885104543348022e-14
1.9885104543348044e-14
1.9885104543348063e-14
1.9885104543348076e-14
1.988510454334808e-14
1.9885104543348073e-14
1.9885104543348066e-14
1.988510454334806e-14
1.9885104543348057e-14
1.9885104543348054e-14
1.9885104543348057e-14
1.9885104543348057e-14
1.988510454334806e-14
