0
-3.3965936363145066e-12
-4.477061758340984e-12
-3.977783111097521e-12
-1.2278774431401627e-12
3.7237846301791636e-12
9.714900256713266e-12
1.439626807652826e-11
1.4700605353506784e-11
7.937364864265996e-12
-6.662644774708976e-12
-2.6452972906596966e-11
-4.4693202082575414e-11
-5.149448503894788e-11
-3.686550499823608e-11
4.423095392786174e-12
6.749760134102793e-11
1.3391894634291433e-10
1.728960740852818e-10
1.4929086188686243e-10
3.8411664402091724e-11
-1.5575472833237274e-10
-3.858620018694028e-10
-5.593702435708769e-10
-5.579195553469018e-10
-2.8067327736776183e-10
2.9581681317977396e-10
1.0611361373692343e-09
1.7477235388765536e-09
1.971517618653568e-09
1.3536089331292503e-09
-2.9003607994750006e-10
-2.7447679617492387e-09
-5.2716294670560136e-09
-6.6672028510626644e-09
-5.587089087908386e-09
-1.1266226327097383e-09
6.478057749365974e-09
1.5304224346646068e-08
2.1711167724379567e-08
2.1137235727119537e-08
9.813356202318426e-09
-1.291945663887529e-08
-4.2480151332632974e-08
-6.826378588674403e-08
-7.537138626502485e-08
-4.9460046642963006e-08
1.5865862503542125e-08
1.11289964569781e-07
2.0725542391164447e-07
2.56782910506246e-07
2.0851032561823645e-07
2.9461097763904266e-08
-2.6803282401415543e-07
-6.061099127597835e-07
-8.417152639503123e-07
-7.992604374407796e-07
-3.382732112784973e-07
5.569925711398848e-07
1.6974021291553544e-06
2.6632296099142348e-06
2.8771645326891247e-06
1.7973540514600245e-06
-7.949812447977802e-07
-4.500206954669943e-06
-8.138275507824981e-06
-9.877299346025258e-06
-7.757990675396444e-06
-5.852873638213463e-07
1.103911859519696e-05
2.397041504980526e-05
3.259438671598473e-05
3.0160887794100777e-05
1.1451111095846972e-05
-2.376165022752181e-05
-6.770271126699182e-05
-0.00010378326349133074
-0.0001096596982915284
-6.490478475133892e-05
3.7812882448980164e-05
0.0001815142125019296
0.0003191659585453138
0.0003794140494529448
0.000287629913466999
7.860115741264283e-07
-0.00045299910023404344
-0.0009470221505167545
-0.0012612067462656304
-0.0011363362638321054
-0.00037901133402843974
0.001004993476431776
0.002698282884606055
0.004047968756012785
0.004193701860775465
0.0023728444445926164
-0.001644730865570881
-0.007131585915136884
-0.012203922864636318
-0.01408213709959173
-0.009957660890130332
0.0015910683679833584
0.01897791745421695
0.03640189893588827
0.04378739837992128
0.02841738818936999
-0.021751797316724362
-0.11391568969486407
-0.046911824941191387
-0.01000168218718165
0.015192998838429757
0.05007177625631869
0.11342245178260559
0.016873881463337893
-0.03700334109249587
-0.053636151908605476
-0.04341773516853482
-0.0183295740379484
0.010458567615576486
0.0335835546844308
0.04355237452517077
0.034793402540183975
0.0044398694268952665
-0.04608394795176731
-0.10942650050222606
0.02812880629437006
-0.015137238443759445
-0.02057693095267729
0.02516382752667242
0.1247595244980263
0.06711640425353257
0.028225727320781324
-0.023560418661003786
-0.11905378009261482
-0.07928105933739907
-0.10928586317569945
0.0029543266270624837
0.08206927275227431
0.15708038830935186
0.052680821104193906
-0.016772384779092032
-0.04885139475295051
-0.0506152759443019
-0.03399613555425054
-0.01117542732036426
0.008560189658076053
0.02002487738870448
0.02179610281378064
0.015135770272114343
0.002919595385596727
-0.01103622690965622
-0.022307000713078645
-0.0262226058797423
-0.018678838635404336
0.002449330204640364
0.03562230232737848
0.07450150343643278
0.1083940313123487
-0.07507775877786921
-0.0854788620026809
-0.12490835469943132
0.014494900612528712
-0.050802300456054036
0.09904601060278075
0.07993596722177057
0.09717049197488406
-0.05789705927760033
-0.006590090616349279
0.022658181030332843
0.002536771337655853
-0.08444264731598693
-0.039021003815050574
-0.04202306052369116
-0.056264294197716655
-0.033723800337264735
0.07323508873051482
0.09916364628093059
0.05478866998564589
0.12163424556878404
0.054235177929819994
-0.009877311770514307
-0.1346257876452362
-0.16852142750424134
-0.13162738983712272
-0.010621045679903659
0.03633386378061061
0.06646963952917123
0.13526902596504214
0.08060983592996974
0.1128909687127681
0.013853609221209633
-0.05588700514916921
-0.14325201350028569
-0.08753658042671883
-0.10850113677966486
-0.0012335560455447366
0.06114444803614199
0.11846136462465345
0.011486326433837178
-0.0293839518908182
0.008071595170763909
0.11508582629967576
0.06449436149964788
0.01832305885718145
-0.06110162320449896
-0.1994007334517632
-0.20168420992595953
-0.051007605131658376
0.08482674921630924
0.24017822935502117
0.23735901170206627
0.07740830862660873
-0.060091123475608056
-0.208205958045129
-0.19895850068078272
-0.05074131375429855
0.0382598640670114
0.08894008663486844
0.13414718951627716
0.009142572276128481
-0.056919087017879316
-0.04660317341056392
0.04331862698131546
0.001890342569890775
0.005925652286343347
0.023625707136455797
0.019652863266059598
-0.03878601768494652
0.02434779468527094
-0.0007055966199032001
-0.10633907464830084
-0.06784329342342818
-0.04791476837124087
-0.005246944499636254
0.09446920435560714
0.2683456273881925
0.11079291370337946
-0.004373947240607889
-0.11407628999057781
-0.2517427462554612
-0.2345353167709522
-0.057705247996770195
0.10121702541881272
0.27024617567508213
0.2685543578647721
0.09684537300358537
-0.0628368068471559
-0.2378947009633633
-0.2512570857006654
-0.10966564043561394
0.0002130341074080746
0.10621595067439848
0.2385744725836985
0.21713330167045092
0.04385301598273346
-0.0961595047500709
-0.22606184744020877
-0.16572629569097438
-0.12301981438471636
0.10807938044042703
0.14221430784248673
0.19350854933838604
0.06748204660800158
-0.042042229614415685
-0.1499946476428953
-0.07310240557116789
-0.022574336585917957
0.00030720322347339325
0.004159925058457482
0.003398915041183335
0.011654434530016222
0.034813248065361624
0.06581105036783719
0.0829976366655426
0.05319931818118956
-0.0605885654610318
-0.08849629135120482
-0.043057496079317636
-0.11198489166247726
-0.057276666948003666
-0.02182227582537691
0.057454108134918525
0.03292210263307059
0.1304806009845523
0.13950555012562074
0.21243550408666295
0.07576773371541518
-0.14906319362999762
-0.32029559524965473
-0.4542561770510161
-0.11603620003005785
0.17289375801556284
0.31213578451125173
0.393330530762652
0.2757925002033513
-0.22459486143407392
-0.33108722211428615
-0.09107186209688209
-0.15857923676922359
0.018561722517578424
0.20399375034366624
0.17196396718438717
-0.09588827636092434
-0.012600796222006065
0.01460059590867785
-0.013346436308448905
-0.08483333493927239
0.023376074956625
-0.05568544004394941
-0.08433744100122822
-0.028326186608043074
0.1336806210754954
0.20183922619492317
0.15141394439235664
-0.06386191925042026
-0.10128464062735477
-0.21467412903132202
-0.24110672351621967
0.006230750570323905
0.3370482759937645
0.1767205242782266
-0.042684507735895244
-0.08904345788255572
-0.13329502318588796
-0.15072868068667228
0.07707996774821588
0.1586879603404376
0.08887980148119104
0.04714609958907913
0.0007294694674682863
-0.0875992930499056
-0.04908767230939491
-0.09920082150995058
-0.031732257758336574
-0.01887919316929967
-0.01753860376763738
0.0197234787879586
0.13195705481154701
0.1389898574396686
0.03584802941729623
-0.005558190604028403
-0.027761314982868674
-0.07472212448524941
-0.17864334290416437
-0.15094972281577024
0.019516838846578736
0.16057631846390022
0.10553327820326906
0.08124711319282275
0.0999558372128795
-0.04257162430391868
-0.1627604500038586
-0.08141330439742593
-0.015951444107046246
0.024382765762903612
0.039320912256294305
0.03518172293527687
0.02108004775397741
0.005440923686762885
-0.006149633310164942
-0.01152180675658806
-0.01128250540212886
-0.007578038985571613
-0.0028480109906158443
0.0010467774916934373
0.0031924318910179486
0.0035585483329581688
0.002682435013825116
0.0012924278826392443
1.0182689102565437e-05
-0.0008042627002171633
-0.001068827887755465
-0.0009029821626621779
-0.0005165087046830768
-0.00011093729280133188
0.00018026017825871265
0.0003082929239227527
0.0002931655431338726
0.00019217486118648582
6.8347983959289e-05
-3.131518036766485e-05
-8.461120291314856e-05
-9.194975498138719e-05
-6.792084511591106e-05
-3.153734428704983e-05
1.3180797881304275e-06
2.1695989234115756e-05
2.782453480094528e-05
2.3025914120229863e-05
1.2809580013979298e-05
2.3509587942289367e-06
-4.999704448287373e-06
-8.091719328692107e-06
-7.524953719398509e-06
-4.819867722812344e-06
-1.6052979043314382e-06
9.292576959403525e-07
2.243203207863946e-06
2.3750998345794535e-06
1.7179395651098898e-06
7.664316286852908e-07
-7.461718378936609e-08
-5.835138642619283e-07
-7.235581015128185e-07
-5.865457309626955e-07
-3.1695282077294054e-07
-4.7536970391517535e-08
1.3775613208118293e-07
2.1204238335115506e-07
1.9292591220553142e-07
1.20670881161293e-07
3.7323970681123275e-08
-2.70514720082505e-08
-5.93489278755477e-08
-6.127808534483714e-08
-4.3390347447750544e-08
-1.854149084148528e-08
2.963324707977215e-09
1.5646185099337826e-08
1.8791749981677036e-08
1.492134103135831e-08
7.818256304030075e-09
8.848261477504505e-10
-3.778422429514033e-09
-5.54968988695556e-09
-4.937065654797276e-09
-3.0058099155768374e-09
-8.424238443662467e-10
7.912051955192203e-10
1.5759855802221561e-09
1.5733106770978895e-09
1.068146472488067e-09
4.0089264929053604e-10
-1.5632474034980905e-10
-4.5806967595144925e-10
-4.859883661017529e-10
-3.132949005396071e-10
-5.717665944509293e-11
1.639806057013262e-10
2.6125633647021903e-10
1.9380340345857014e-10
-2.1940559264334095e-11
-3.1160987340483377e-10
-5.537420986747577e-10
-6.071054746940939e-10
-3.570245837201524e-10
2.2499264249787438e-10
1.0259718489350963e-09
1.7688531495858068e-09
2.0532757424954528e-09
1.478219912590835e-09
-1.6450837433840674e-10
-2.678765379496441e-09
-5.3276400490800735e-09
-6.882943610020146e-09
-5.944590043479915e-09
-1.529701994762792e-09
6.201842899170023e-09
1.5363525079535582e-08
2.2269878418827403e-08
2.2208441859303375e-08
1.1165735712170173e-08
-1.1789428132002425e-08
-4.225820354762561e-08
-6.95859177588967e-08
-7.84817965333132e-08
-5.386352027115813e-08
1.1589034488893778e-08
1.0932096038576317e-07
2.0990401498543805e-07
2.6542387499902436e-07
2.2236328510744697e-07
4.4724205320035226e-08
-2.580630200168629e-07
-6.094190830789629e-07
-8.643800741693762e-07
-8.413458269046352e-07
-3.9031100704496893e-07
5.148708763386441e-07
1.6917104902652625e-06
2.7179180931884802e-06
3.000328126124302e-06
1.9680405300026367e-06
-6.333055774867818e-07
-4.432449006262951e-06
-8.25234039832767e-06
-1.022250939850486e-05
-8.29838381443926e-06
-1.1678381827544246e-06
1.0677032273759926e-05
2.413520047794991e-05
3.3510647282752736e-05
3.1813252829574444e-05
1.3452522438216968e-05
-2.2194927764618532e-05
-6.759509436384045e-05
-0.0001060346978651549
-0.00011452990202165777
-7.151364643789439e-05
3.171316092712012e-05
0.00017922520741240708
0.0003240275922313406
0.00039318087254622166
0.0003086862317416927
2.29859364989768e-05
-0.0004399323074727544
-0.0009548291833219162
-0.001298155943878781
-0.0012011333576699911
-0.0004558868577693163
0.0009469145349947892
0.0026985329753764116
0.004140280352505502
0.004386016699204517
0.0026284293887768187
-0.0014151127353342699
-0.007056174175879066
-0.0124094017501487
-0.014630303602486513
-0.010777310458029828
0.0007462494578800714
0.018509614083304662
0.036759430035370105
0.04527403080190054
0.030956326363080548
-0.018799723890024687
-0.11176262611214852
-0.04707666382025814
-0.013737287569300233
0.007674888107690627
0.04031299658483002
0.10497887646147212
0.014727971720557278
-0.028092685805072383
-0.03167543343581204
-0.011926182062373657
0.011855302639460321
0.0216092486600757
0.004614049669489296
-0.04356375812654467
-0.1178725320706088
-0.004893140159115432
0.11365516892346757
0.055925341129983736
0.03524203959460868
0.05744207789286729
-0.07905272981449463
-0.1812200771871016
-0.059277306137472285
0.074003005231768
0.2023459100069436
0.10506414700875986
-0.04147413497933483
-0.05891342590465221
-0.1598146011258944
-0.14152168031102866
0.015845242633523608
0.14590297260216403
0.08824384916170962
0.0794799960457939
-0.053754794916740456
-0.09823879700685063
-0.05436345199394513
0.06551727096743248
0.039471483544998
0.038942340149045365
0.03272106739685736
-0.007856092286226447
-0.10315288516038905
-0.06045101705621357
-0.07194073901580633
0.08336317040869183
0.03400516195545636
0.008406437586053776
0.027448945431540743
0.09944243724745898
0.01878356123935253
-0.03145625504258119
-0.07398339843760614
-0.13080495515535173
-0.01820645303985233
0.05518051452905276
0.08718797122693359
0.07933446442882629
0.0345813801863597
-0.0429894252468067
-0.14673951908970456
-0.06583317735050145
0.014718681409453432
0.11142578705449742
0.03784935891401175
0.00021979883749754202
-0.004963043496665949
0.009597196300152553
0.025322731852658844
0.023082570402115855
-0.010684632681449075
-0.078572727571885
-0.16936105839825438
-0.05942614900859332
0.08090007863116556
0.0772835265301011
0.14097864447165184
0.26235439739321526
0.011741455235144497
-0.25173714145202336
-0.16624953111212182
-0.15377615630093774
-0.01261235028974997
0.0813426751453241
0.16559553187822992
0.07840771789406284
0.0473054682477112
-0.11777349039040348
-0.025598434344926414
0.10007694470730644
0.0273779567654899
-0.0753273188812078
-0.031138224601422463
-0.04821076190442283
-0.11707023968336705
-0.012832909724741519
0.09782430836490595
0.04672114952708625
0.05426251041550597
0.12278406161157805
0.03543830300335275
-0.038850381445396265
-0.1358648868449893
-0.08518109163732739
-0.10160195258418378
0.018262798048197887
0.09359002035448637
0.15273009424757103
0.025383243275481814
-0.06365440638801106
-0.09795598438078752
-0.07070138307541271
0.014989425949876614
0.1459485602543498
0.09972436258189885
0.04762048875459048
-0.03922937263447778
-0.18181050602766352
-0.18610246783778478
-0.04030959952179958
0.0815824252736395
0.2108517814240015
0.17334055185763406
-0.018497469917793042
-0.16793499079080987
-0.09084584394917687
-0.00965686479484572
0.0527149563522548
0.07740197074989975
0.052688403678130546
-0.023626132604898657
-0.1424907763438424
-0.08341126903206722
-0.01713167791428807
0.08828579389836397
0.05914013704415588
0.10816389051577692
0.029933109930066606
0.0015281004480493538
-0.011466847803407865
-0.045364675385565614
-0.1281314777454124
-0.07174457108110457
-0.06968878751302093
0.09949646631766544
0.06380597190768632
0.047433510502866746
0.062081287607921705
0.10280133020496404
-0.05030299188174505
-0.025047763876790422
-0.04703550539762308
-0.12970884099584667
-0.06795490285971556
-0.037631342233754916
-0.001560187979006514
0.07963895845813293
0.23535172699333232
0.07567465753305329
-0.011509317316038771
-0.055967855814122155
-0.09491922542357172
-0.16122290220734314
-0.0744232562813
-0.03774933920359701
0.1583748082172684
0.1284895660786978
0.08383866069478839
0.027470052274471062
-0.04540958965794084
-0.14254490901554492
-0.06793452158003761
-0.016594894076656683
0.026951827221519672
0.08605674837059153
-0.013578908255194646
-0.050410476760817835
-0.012856585181372638
0.09675520057679579
0.06100725656655937
0.04977358272754667
0.026445370537406445
-0.04291071326674887
-0.1798530343497624
-0.1867233017530042
-0.04582931722987616
0.07406158423719489
0.20570479748605827
0.17045006480428807
0.16995729351506722
-0.013571335120499366
-0.20844506085655407
-0.23962639614081824
-0.11613854205607732
-0.025384461802857677
0.06318550446554862
0.18682174297301127
0.1755470883261476
0.041262097999140976
-0.026059059218918944
-0.05418776872203428
-0.0787199057825307
-0.1314844037076047
-0.03143052780775604
0.01920218183711526
0.03271751308777915
0.029101901207377292
0.027010871096776325
0.03537791968624503
0.047915331393501875
0.041912750083360345
-0.01827913356504059
0.026211711552138344
-0.06152905385807831
-0.10476361816216025
-0.10659179824763892
-0.04843784126782637
0.10590023829944717
0.20211373484245157
0.08623665580558386
-0.20234790405015288
-0.03418781824096748
0.010162006088451905
-0.05818121857526702
0.16615451778441015
0.28655245596373097
-0.09009680711208326
-0.3468689876573634
-0.25227937985665466
-0.1621325163569711
0.16957421821144286
0.37260803936334114
0.24198674853720434
0.12735403446347435
-0.06406078764416212
-0.2507970453271854
-0.15221810569159028
-0.063413138363249
-0.03731063477927207
-0.07814603730534578
0.05335065644762066
0.025687139256545696
0.11777085926967268
0.20075049999153802
0.12527447974470207
-0.08300539945782995
-0.21988557017987412
-0.09426815133499217
-0.11975166850961773
0.09011469172500128
0.12199025855113871
0.16025959139505355
-0.014828924771700227
-0.025920194291359274
-0.09389883912294414
-0.03165291562461217
-0.03902457588495416
-0.10126395818685399
0.00802697798495779
0.12008821346657561
0.06242375512260892
0.05135949128204594
0.08834322590657087
-0.03880772910133402
-0.15041400368193708
-0.06751494113195884
-0.005443010045951451
0.029438078429028392
0.03932779879309149
0.03197871935389051
0.01683715208437678
0.0018590414591737794
-0.008198325883562996
-0.011962434578874923
-0.010568583515449655
-0.006356298024047304
-0.0016859188120622592
0.0018087889279798843
0.0034637136696123293
0.00343475761871707
0.002347283271786187
0.0009280579400831415
-0.00025904980690233327
-0.0009293418826760294
-0.0010636915710480906
-0.0008170545591268197
-0.000406255546089079
-1.9672109228238536e-05
0.00023105211664408047
0.000317637626692355
0.00027337103191830145
0.00016011525199346994
3.8524759699899776e-05
-5.04237257997035e-05
-9.098162974308946e-05
-8.82738211150651e-05
-5.9034439346543756e-05
-2.2125077865925017e-05
8.1280951568005e-06
2.473592395740236e-05
2.753106466198923e-05
2.0714781068273422e-05
9.942463483015379e-06
2.6089708273804737e-08
-6.256519496927048e-06
-8.280828723783723e-06
-6.979515843202884e-06
-3.979735353847417e-06
-8.406759517938988e-07
1.407672875839198e-06
2.3913432612547888e-06
2.2680700594531286e-06
1.4828309068213438e-06
5.235973033029321e-07
-2.466175699313868e-07
-6.570631310254063e-07
-7.118844736939479e-07
-5.245961284032722e-07
-2.425165873243364e-07
1.1585542342304925e-08
1.6875788965039962e-07
2.1559914542697742e-07
1.78032395978458e-07
9.87740402580507e-08
1.7841154983131138e-08
-3.893767462386117e-08
-6.27620692099994e-08
-5.83396612914651e-08
-3.7440479560171065e-08
-1.2614888451593807e-08
7.017980468260212e-09
1.7348927669363338e-08
1.869212281466102e-08
1.401169084252793e-08
6.962095783689855e-09
4.4587756413226957e-10
-4.019790500299421e-09
-6.199101598957482e-09
-6.5908350990180105e-09
-5.7984395757250486e-09
-4.112909666303343e-09
-1.4624403284175081e-09
2.2860814029090566e-09
6.841037190243638e-09
1.1082514377099122e-08
1.3024730179494169e-08
1.0338768871245038e-08
1.4316082748925067e-09
-1.3198888443109835e-08
-2.98896531759761e-08
-4.173070590663067e-08
-4.008730366892122e-08
-1.7887513253438116e-08
2.5942376836848662e-08
8.243126892385145e-08
1.3113394383959755e-07
1.4354304304858396e-07
9.246613058886408e-08
-3.379763411801992e-08
-2.1668759526545624e-07
-3.989563777646032e-07
-4.904249202782091e-07
-3.933112044466975e-07
-4.6009508205520066e-08
5.255476234400088e-07
1.1698568080180656e-06
1.6116210731434766e-06
1.515567750257923e-06
6.168661803136274e-07
-1.1074709992163667e-06
-3.2868849953625023e-06
-5.111462182343335e-06
-5.4760592276844886e-06
-3.3535778206463594e-06
1.6535623424136171e-06
8.752096781394166e-06
1.5657648560369644e-05
1.8855024052298007e-05
1.4616161982021199e-05
7.138369698935262e-07
-2.1609590180687127e-05
-4.624057618514208e-05
-6.237988219754579e-05
-5.714493102579214e-05
-2.0709383340979922e-05
4.708024308844649e-05
0.0001310143458103124
0.0001990983030122755
0.00020857696562279806
0.00012075866337600053
-7.7559311136912e-05
-0.00035279068951038473
-0.0006139547551491265
-0.0007241973548595623
-0.0005415988804095348
1.3852088047978836e-05
0.0008849557309375201
0.0018259756317106177
0.0024145524122100993
0.0021577626512530776
0.000694785710392447
-0.001947564285996162
-0.005141760680378274
-0.007619055724862376
-0.007723067527147776
-0.004006575044661147
0.0039161261166247765
0.014518759255095801
0.023908691646666008
0.026178510921044517
0.014790290671920846
-0.01518184536128171
-0.0646532751161445
-0.12909461358066845
0.0008681816207242159
0.13654262508521725
0.0870066541893586
0.05578575379721217
0.04027798675884014
-0.1656623066396972
-0.16748726538364286
0.03333835710244373
0.039610955580719226
0.05543082787296901
0.08177059434966732
0.11316677351782829
-0.06247689649430916
-0.06056516103898734
-0.09430155372321128
0.03061709864170382
-0.08114704089088859
-0.015311184432651063
0.04797618911314558
0.1282496639958047
0.03918310576870135
-0.01456114391757424
-0.03709553297283261
-0.038187664185047
-0.028865022470505434
-0.017567399312749466
-0.008131659782494787
-3.760068236843829e-05
0.009460998205162571
0.022265624756672906
0.03664463575618711
0.04591530363753812
0.0394188423645218
0.005907371313054096
-0.0614983848123593
-0.16057659873507474
-0.07776388283899675
0.009864220337129208
0.12833108216283368
0.09828009091804572
0.12771182945711593
0.009081612163293456
-0.07797243535544235
-0.159507739632857
-0.058865965053825645
0.00964062147801245
0.04291424020039887
0.047183481915464724
0.03369774691667243
0.014118953319734449
-0.002801180427989979
-0.01261320367923343
-0.014833175351548078
-0.011564525244255925
-0.005857715318071952
-0.00039688978248271153
0.0032063738774516636
0.004519135823121729
0.003982395988009904
0.0024434849599768793
0.0007341814543021753
-0.0005866297428420424
-0.0013018510308969453
-0.0014621075041645808
-0.0012461226992026705
-0.0008304733916432096
-0.0003183669673477087
0.00025753474621945013
0.0008757684528442771
0.0014503335232900502
0.0017866954586109526
0.0016088282759007208
0.0006712896245774785
-0.0010674176718142687
-0.0032748918074777277
-0.00517240631687445
-0.005654267670012094
-0.0036493051829410003
0.0013160178521880975
0.008513650989110656
0.015637865096026122
0.018961507954544803
0.014234018601453477
-0.0017222920284959862
-0.02913273064393565
-0.06388279746741955
-0.09752794919286939
0.08073951527173573
0.08049492476624626
0.10623763477229906
-0.04486797400204069
0.01750643405241964
-0.12015741492339391
-0.07129214517118965
-0.04624157904658125
0.14875306031799276
0.11097607660177282
0.04058311400220944
-0.05876606623005304
-0.17806304431348707
-0.10161118053090923
-0.008365102539531712
0.12316244883660135
0.10782554971135391
0.14777779996749227
0.030658622030063008
-0.06648245862518713
-0.1687290159235176
-0.0937591714804707
-0.04531890101360036
-0.012525953787608823
0.02465893995428382
0.08595205194622563
0.18100524612125135
0.10341360581694685
0.03129282624144711
-0.06521348363596638
-0.21211313841159277
-0.22028095202382847
-0.07984945362711948
0.03670206048364946
0.16355433488636958
0.32724362171006494
0.13549781449270282
-0.025520830157783305
-0.1841545659564616
-0.16961290559541564
-0.19804047842167677
-0.06452138140116118
0.055636636933783803
0.19718659965929589
0.1912304898247205
0.05339166423305888
-0.021490012235667936
-0.05664886354247982
-0.08454779099514251
-0.13585451632600268
-0.030423469519148875
0.02686234128106253
0.044681020595168784
0.039634745703500965
0.02890512858193058
0.023781401733688836
0.02591466572608915
0.027136706812185347
0.012692367478991324
-0.03314219103623006
-0.12080424289490432
-0.0506804630737906
-0.01167624456860629
0.016142560156065695
0.055673322067275016
0.12583809236452917
0.036225328949714475
-0.01466348000797922
-0.0370103352737116
-0.044246952033228655
-0.04683537381604178
-0.04766335177277796
-0.04076585541355579
-0.013908641949751563
0.04576557697493751
0.14502909272761616
0.07948111104328372
0.032477963913051223
-0.02094130011981195
-0.10627343612887444
-0.24091103081268367
-0.028266722029605246
0.14283320511414474
0.09346117538926521
0.04704795074670369
0.02237073832413958
0.029512049360835388
-0.13064203289929716
-0.0644140451177373
0.017417949956294528
0.10183087800378832
-0.02499930618197038
0.0236408161371587
0.0369652413640553
0.009403949660881815
-0.056568486329220374
-0.1487405169252917
-0.0460743052873432
0.07685182505884204
0.042331375180787674
0.06102838443898196
0.12542727139747753
0.007766479133366004
-0.13645061170377684
0.039928829325369855
0.08689851181640976
-0.0312514134485152
-0.12666035058280942
-0.1831549164493019
-0.15811083743113644
0.008345614216898415
0.7787742152773914
-0.3966896210679415
0.10954630210112423
0.1005772350482838
-0.039412412215806394
-0.7354470388583483
0.5878390280916898
0.11268043727177597
-0.1689370617065522
-0.05451469651491339
0.06895500853344101
0.024380503664502843
0.043008990931502254
-0.038279355429838145
-0.18108622553877696
-0.15160000879944807
0.07105814588187458
0.08558873329521093
0.6620091877083295
0.14272823323376171
-0.3458602099445096
-0.4735488483397534
-0.2862496470678244
-0.39549153770986695
0.41696177755987646
0.7820332148379704
0.32369809969429914
-0.15182049576381604
-0.2523909755681368
-0.585593344243773
-0.3440846207374424
0.09893134602080358
0.38019154098632213
0.3274690199239956
0.34160165552778177
-0.010501793574993786
-0.18745114037556068
-0.25267661639166594
-0.25017925297079197
-0.18682542033560462
-0.028321774461859545
0.08955798199318993
0.23875590721070492
0.2740292317526425
0.21461147752846157
0.0391962575010482
-0.10405800740673718
-0.2765997115387856
-0.326013090903346
-0.26937763612784826
0.1100650364750604
0.25226944631163367
0.4013482268292297
0.18732214592453483
0.016841932262449826
-0.3240184103592562
-0.25812433406929614
-0.20410961382897658
0.0312594540636533
0.2521772092994209
0.266573321769496
0.07808155023536692
-0.1176635692890089
-0.13066470375183972
-0.1703260345288236
-0.03950463245769284
0.06782090365128157
0.16455572526692638
0.06601493694874976
-0.014200150855128464
-0.06607665904651536
-0.08283032219569013
-0.059801784491168304
0.0057362927311661645
0.11324286050307374
0.0568441429223098
0.024181313093172046
-0.0024773856380895733
-0.042705528887487125
-0.11314929005114455
-0.02341773421650659
0.025722825206740938
0.0412776766011697
0.03478965446767767
0.01843545038433184
0.001894389715977893
-0.009213782569337983
-0.013291409530227293
-0.011630059683162676
-0.006873837545849691
-0.0016673400346053965
0.0021799124987772226
0.003953172557745885
0.003852331864231169
0.0025920585910590493
0.0009884686872715298
-0.000333626455461627
-0.001065930779268578
-0.0011969239872734155
-0.0009066585245597366
-0.0004403564896203042
-8.053862814167182e-06
0.00026795371083861933
0.00035901680662479184
0.0003046728556064684
0.00017527620110854836
3.874335607692042e-05
-5.972867858040368e-05
-0.00010341125713447013
-9.880473685165071e-05
-6.50801396436854e-05
-2.3447567036647553e-05
1.0206585036667237e-05
2.8318244015306922e-05
3.094787373341886e-05
2.296142614694714e-05
1.0748144243971933e-05
-3.3121286947391053e-07
-7.238269502529112e-06
-9.35155545693906e-06
-7.772661091001357e-06
-4.349920514737221e-06
-8.278042926210032e-07
1.6589055861211063e-06
2.7150545109757138e-06
2.5366980197785917e-06
1.6328381517642214e-06
5.517705918546861e-07
-3.0431886073673333e-07
-7.511055309075803e-07
-7.995910359264109e-07
-5.809369316316593e-07
-2.61435128339364e-07
2.2248160900883805e-08
1.9480804244316364e-07
2.432472855912973e-07
1.980460012829443e-07
1.0768962949908471e-07
1.6937290510471213e-08
-4.5766711331835136e-08
-7.117074411180207e-08
-6.505201777496844e-08
-4.089559294248379e-08
-1.2858602457481792e-08
8.891127744803394e-09
1.9880546970027053e-08
2.0634720387748803e-08
1.467748632931586e-08
6.3313010730536856e-09
-9.23914040972227e-10
-5.226469944322117e-09
-6.319117770532425e-09
-5.040016930719853e-09
-2.659074785432727e-09
-3.2339304907988306e-10
1.2553258676498412e-09
1.862800445822844e-09
1.6663050733362375e-09
1.0223789654231339e-09
2.961385658201444e-10
-2.5572510379087144e-10
-5.251687631720477e-10
-5.3189495955087e-10
-3.70292226898551e-10
-1.5257308150353776e-10
3.276274380987169e-11
1.398159754331021e-10
1.6395486050964673e-10
1.2810350546051048e-10
6.54733600581013e-11
5.428902938977172e-12
-3.425610431578532e-11
-4.868410608376112e-11
-4.2632003812944885e-11
-2.5508544216315292e-11
-6.719336338287975e-12
7.264903547065288e-12
1.3848213119415595e-11
1.369582408829864e-11
9.329016018387668e-12
3.657263040629504e-12
-1.0715827770641746e-12
-3.7292405972398485e-12
-4.24765231200409e-12
-3.2508261076902282e-12
-1.6060857836017872e-12
-6.425680853703253e-14
9.316747853790919e-13
1.271639199442283e-12
1.0905382054482117e-12
6.362107971684008e-13
1.5067324591234855e-13
-2.0320925081928433e-13
-3.6343894960178157e-13
-3.5117332693453176e-13
-2.335879550239895e-13
-8.602879327991818e-14
3.44832590246388e-14
1.003028416082343e-13
1.1099216175052124e-13
8.346522506063963e-14
4.0340977154063994e-14
7.949395932667956e-16
-2.4155567991987657e-14
-3.2090716497497606e-14
-2.6785206682603535e-14
-1.475621122402388e-14
-2.2239514394371595e-15
6.71886676245744e-15
1.0601908506492338e-14
1.0072602504561257e-14
6.916483951753364e-15
3.0824370068198502e-15
1.4991546171476185e-17
-1.6108881253023372e-15
-1.8176426822362988e-15
-1.0619904126684376e-15
6.69824480108613e-17
1.0801273578253865e-15
1.7040591514992724e-15
1.8871629504244584e-15
1.7342413676868363e-15
1.4163883184819157e-15
1.0932913744277364e-15
8.676262362386845e-16
7.739780947028069e-16
7.930640939108173e-16
8.775298586366487e-16
9.770253696075469e-16
1.0550055603424936e-15
1.0950559721129154e-15
1.09861800717572e-15
1.0779816979330536e-15
1.0484690821260182e-15
1.0225428649277036e-15
1.0069703533207386e-15
1.0028049369616503e-15
1.0071561147443585e-15
1.015539264436335e-15
1.0238595204791767e-15
1.0295455144173447e-15
1.0317916714127848e-15
1.0311609014150011e-15
1.028906478187245e-15
1.0263276929139369e-15
1.0243478018430074e-15
1.0233642346168007e-15
1.0233177813438548e-15
1.0238787617311464e-15
1.0246491610469957e-15
1.0253118377973078e-15
1.0256997148839366e-15
1.0257927656501063e-15
1.0256702527773064e-15
1.0254495470487136e-15
1.0252355325348046e-15
1.025092486965285e-15
1.0250389514364778e-15
1.0250587461184357e-15
1.025118767185567e-15
1.0251855249561048e-15
1.0252357285342557e-15
1.0252598028837645e-15
1.0252598372639313e-15
1.0252446499023075e-15
1.0252245669586948e-15
1.0252076487616073e-15
1.0251980085453483e-15
1.0251959794538187e-15
1.0251993989383637e-15
1.025205199666351e-15
1.0252106982853343e-15
1.025214291139376e-15
1.0252155577989966e-15
1.0252149576085723e-15
1.0252133633443006e-15
1.0252116372229762e-15
1.0252103659189866e-15
1.0252097788203952e-15
1.0252098077173321e-15
1.0252102173677387e-15
1.0252107401962493e-15
1.0252111716057474e-15
1.0252114106464669e-15
1.0252114534290388e-15
1.0252113586907762e-15
1.02521120647954e-15
1.0252110653662474e-15
1.025210975277758e-15
1.0252109455665169e-15
1.0252109633230213e-15
1.0252110055772815e-15
1.025211050156272e-15
1.0252110823053495e-15
1.0252110965646415e-15
1.025211095057963e-15
1.0252110840453643e-15
1.0252110704520084e-15
1.0252110594644604e-15
1.0252110535519046e-15
1.0252110526941777e-15
1.0252110553022984e-15
1.025211059290117e-15
1.0252110629074212e-15
1.0252110651623191e-15
1.0252110658520356e-15
1.0252110653363298e-15
1.0252110642187168e-15
1.0252110630687539e-15
1.0252110622569093e-15
1.0252110619121593e-15
1.02521106197046e-15
1.0252110622656065e-15
1.0252110626185807e-15
1.0252110628980783e-15
1.02521106304393e-15
1.0252110630597384e-15
1.025211062988334e-15
1.0252110628840123e-15
1.0252110627913927e-15
1.0252110627350588e-15
1.0252110627192504e-15
1.0252110627340136e-15
1.025211062763517e-15
1.0252110627931474e-15
1.0252110628136185e-15
1.0252110628219108e-15
1.0252110628199113e-15
1.0252110628120232e-15
1.025211062802869e-15
1.0252110627957682e-15
1.0252110627921808e-15
1.025211062791935e-15
1.0252110627938806e-15
1.0252110627966057e-15
1.0252110627989745e-15
1.025211062800379e-15
1.0252110628007356e-15
1.025211062800318e-15
1.0252110627995405e-15
1.0252110627987779e-15
1.0252110627982623e-15
1.0252110627980641e-15
1.0252110627981282e-15
1.0252110627983387e-15
1.0252110627985757e-15
1.025211062798756e-15
1.025211062798844e-15
1.0252110627988461e-15
1.0252110627987933e-15
1.0252110627987223e-15
1.0252110627986617e-15
1.0252110627986268e-15
1.025211062798619e-15
1.0252110627986305e-15
1.025211062798651e-15
1.0252110627986706e-15
1.0252110627986836e-15
1.0252110627986883e-15
1.0252110627986864e-15
1.0252110627986806e-15
1.0252110627986745e-15
1.02521106279867e-15
1.0252110627986678e-15
1.0252110627986678e-15
1.0252110627986694e-15
1.0252110627986712e-15
1.0252110627986728e-15
1.0252110627986735e-15
1.0252110627986737e-15
1.0252110627986733e-15
1.025211062798673e-15
1.0252110627986724e-15
1.025211062798672e-15
1.025211062798672e-15
1.025211062798672e-15
1.0252110627986722e-15
