0
1.5081739195102136e-08
1.1428393181418153e-08
3.663859451082223e-09
-6.771617161065874e-09
-1.628553910056768e-08
-1.9654371044105132e-08
-1.165108969591461e-08
1.0380867130938652e-08
4.3726422310855704e-08
7.851903360273744e-08
9.84521758620114e-08
8.507753208409903e-08
2.5653502332367423e-08
-7.726314504893289e-08
-1.9819764897845774e-07
-2.880093750430312e-07
-2.8437282127150885e-07
-1.3483987078359946e-07
1.7157966701767007e-07
5.749384218853326e-07
9.327202744187313e-07
1.0421494698386506e-06
7.051456940704177e-07
-1.7133291004032492e-07
-1.4684694192431985e-06
-2.7911738945435237e-06
-3.5024335611870873e-06
-2.8968249187207394e-06
-5.084516894543014e-07
3.5204240058517987e-06
8.156497302086495e-06
1.1467463860064526e-05
1.1052488501310031e-05
4.953431907469423e-06
-7.1231874053199944e-06
-2.269534177226349e-05
-3.611769589871551e-05
-3.952766201902976e-05
-2.543329343271371e-05
9.379356855298796e-06
5.9779148526383946e-05
0.00010997462612184296
0.00013510842684734354
0.0001082448049588103
1.2437036715209374e-05
-0.00014512363572003674
-0.00032264160531046254
-0.0004442270666217036
-0.0004174992187405755
-0.00016952213616679078
0.0003060077977930701
0.0009070678059451503
0.0014108770175692076
0.0015138847290044296
0.0009349503207607231
-0.00043242595044464314
-0.0023654445088652064
-0.004230084392499909
-0.005055522015313283
-0.0038213515451225788
5.5380572875360846e-05
0.006147582919080982
0.012574873563875414
0.015953856770406262
0.011950436759159985
-0.0035467241585438684
-0.03290531565387977
-0.07543066830176068
0.07314141490567777
0.02002597854293111
-0.02616441331493383
-0.057378481243817926
0.1320361932701629
-0.055986587902478645
-0.02372564793704694
0.022812181395777134
0.07526118562291495
-0.07513205459581518
-0.0353625076645789
-0.008961275143448392
0.004615978573658771
0.009206040289793008
0.01004444461825744
0.011476982055014458
0.015090605613752405
0.018914262988069187
0.018032670549184154
0.0065613699487541005
-0.019522713301626464
-0.05964294581539212
-0.10718331354346726
0.04962509057489555
0.02424003264952101
0.026672146412131857
0.05852535526278233
0.11026896273541606
-0.03781882897799179
-0.01080721532631289
-0.0315758159655856
-0.11293429142398768
-0.052116009751158446
-0.029783208426997432
-0.014318361196799254
0.029563425794198968
0.13042166845788916
0.10135974015668409
0.13625058567254145
0.012828511470342356
-0.09787687461685006
-0.21903007110155542
-0.15755065271631383
-0.10082741490357777
-0.023321479826560215
0.09805646628739167
0.2647663207995663
0.24098603280357586
0.14863734810349585
0.07724743998102174
-0.09223830412096284
-0.25599908868241705
-0.6584086402980552
-0.4763774436044625
0.37626055214694465
0.8257267706314319
0.20694313600861172
0.23811462749430454
-0.18855875844132006
-0.599309354114189
-0.32229945862234427
1.5267096240261209
-2.1521476159614394
-0.25435816902560826
1.1026104522282743
0.7441564608495991
-0.9922057493691957
2.1327381291140215
0.08008338728196993
-1.4178781273209395
-1.3940675442848112
-0.3931002061477317
0.5498914277173891
0.8914789967751221
0.5361699883840026
0.18983733413577789
-0.2704864613820976
-0.40400376064596233
-0.19645467867189034
-0.04453977820330934
0.05606941589740653
0.11520649182281312
0.14643373280148556
-0.03725311734319444
-0.02683494951146568
-0.018241968089399013
-0.011165816216415556
-0.006871576391864994
-0.00613503668361466
-0.00800689631758589
-0.009691112774975785
-0.007511322279778961
0.0013188965976255742
0.016645880684342824
0.03376628194646258
0.04303998682267004
0.03131083502124029
-0.01481063375712597
-0.10453413186834143
-0.03880303511965829
-0.008190639804899907
0.00615953489494654
0.028633104320848035
0.0834439482395424
-0.011215160726276008
-0.04774694695826862
-0.03172743769456311
0.017574602522613794
0.06862725947943778
0.08115978208174915
0.0120447813271565
0.023261656086338435
-0.10951123976453299
-0.19036721841711468
-0.20188440405087305
0.08871369956025033
0.11632861067174403
0.1013485335307526
0.035570807974333034
0.07684909259864714
1.3568318356006466
-1.197330688821638
-0.6319012294682014
-0.13670688956309698
0.3709033664230028
-0.958995244068945
1.4671116275881995
0.4530591730115114
-0.21736017321447795
-0.8005730471431654
-0.6044686237387712
-0.19820335315735685
0.97422893667114
0.7808456367003513
0.40124013414089227
-0.24982786240063706
-0.47419523961191773
-0.9303036509653728
-0.38202331555180163
0.12575746480534347
0.4580144031849878
0.35366100236771797
0.1783340353968377
0.08210916238274377
-0.027339046629658102
-0.09330960935630424
-0.10360923019341636
-0.07530554391511757
-0.03723021334624182
-0.015246174174782879
-0.02308051879533695
-0.05946502871070618
0.08921211566371237
0.04258143411241542
0.018714737231700494
0.027702167312163177
0.06813130375973173
-0.07282848185109218
-0.016095855275383403
0.01473209172478719
-0.0006530760491953949
-0.07415887051301613
-0.006092706801497398
0.01549855374729002
0.012867898376001994
0.014500946125580392
0.04984219603447372
-0.05630339850825851
-0.08914362331451575
-0.04880755096353601
0.045600863598347544
0.153997615684719
0.21753371703547614
0.16730151634557527
-0.05988064316329784
-0.30140760815663065
-0.35102698946733407
-0.3513412355733719
-0.002725564657585529
0.21114567052787972
0.5883065116377004
0.3764204911941037
0.15608212777347497
-0.3537561710518299
-0.27044549539300466
-0.31220551818192493
0.03506719857652705
0.13939349118894584
0.029084650533076357
-0.214835765292199
-0.07659941094781587
-0.029920622693979472
0.23640603057826792
0.5979406528643854
1.0860411941862609
-1.5048319650002067
-0.7978107183190996
-0.01433740480757847
0.2319117383942724
-0.27666072402445113
1.616788920734029
0.42721555896742175
-0.5699131307022846
-0.7143156290798212
-0.5245707051239362
-0.06689112385389764
0.25731330676373637
0.3021000101092574
0.1530406241936528
0.10002954696563496
0.016330653010406183
-0.051657878409460574
-0.08432729485948677
-0.08194984426278258
-0.05537885689381527
-0.018071000171776715
0.018551426423260173
0.04625448140284623
0.058921354986774414
0.051077238847056804
0.017500886071251474
-0.045589026133016
-0.13851212879964775
-0.05685816833337692
0.007532407613813815
0.06302262857664895
0.11344675740687561
0.15475968859793138
-0.02449277023014884
-0.03800127525023183
-0.09325599252782851
-0.18321990557869106
-0.08202775742921312
0.05257698732001382
0.06984633880438924
0.012148419057085016
0.10079958252492072
0.126007215861317
0.04426242995013407
-0.015329868115763869
0.0634347360410057
0.00348655838138214
-0.24548586741853712
-0.2922200502052741
-0.0995071627482326
0.006854474389992182
0.11715466727754398
0.3109788798580448
0.4335141048529625
0.08349387023917798
-0.18280774262061317
-0.2336265302209508
-0.3379023537337226
-0.3461940102718624
-0.08455927640142327
0.23650825540782838
0.4034737986640442
0.5825129525367375
0.3155527931034749
-0.26347816357756176
-0.19460928258843568
-0.4520115190138648
-0.7157968769020557
-0.771452281073025
0.2552412198245747
0.43312326642434024
1.349871505120851
1.05372157041857
0.43819026593095783
-0.9201654300911082
-1.08350971645691
-1.4653724776100203
-0.3701655911837671
0.6172587907475585
1.1926418624275952
0.6666518438705825
0.30412485011947404
-0.3075638157239279
-0.4538946145610047
-0.26151479450326964
-0.05662802812105019
-0.12950757143842448
-0.11480063302613572
0.009782001431703982
0.10923232355038573
0.2678504516802194
0.16474979857308794
0.05571347257733129
-0.03411703104183995
-0.10652542687475729
-0.17909324489217374
-0.07215535319448035
0.0011595401935193732
0.03906506086177236
0.04948585952573986
0.04478680877994281
0.03572277401514614
0.02702456215467704
0.015959841723064267
-0.006011569811581029
-0.04943334436002047
-0.12256358436875955
-0.028428037132725015
0.03555766664205471
0.07546166503325044
0.09766863873290102
0.1067905332779446
-0.09382034494721714
-0.09905350875710647
-0.09837575830486853
-0.07417610853431417
-0.00401706941002832
0.13327675643528328
0.14989330658978856
0.04303541528913555
-0.00647188464154343
-0.030037082441963944
-0.06305875971376454
-0.13565915703169948
-0.06579602553781674
-0.05718001751018543
0.09751084549639372
0.20988560787088545
0.08893453583325246
-0.0626619743270278
-0.047414610114947346
-0.06806882437020943
-0.12160735256561281
0.0047852964942721645
0.13398653287359208
0.09532730047722911
-0.08182541069047117
-0.1762965986704453
-0.18502550341064097
-0.13483105470100615
0.10541409342330361
0.41687205985331005
0.6348486238433634
0.5729372398481571
0.07037684480084791
-0.7442681573110146
-1.3919454272069265
-0.8106627198586521
-0.37430133617118005
0.43087828388157867
1.2883537515441148
1.3272356989890088
0.43271082863796145
0.02094419954754429
-0.3142881395875356
-0.9001538176271097
-0.6613582944214238
-0.4107477538091215
-0.18129374810912893
-0.011275415989615756
0.4220032992290353
0.5370515969967065
0.3743733568032764
0.13514513658954877
-0.05409255172562174
-0.14755157147954234
-0.1629517211543194
-0.15174238884046656
-0.16821031769682307
-0.046308658123024725
0.011093632770528177
0.030162753818364967
0.054357401523419245
0.1281274156581003
0.08163409105478181
0.12116016351189532
0.027924146126661397
-0.034601576891789616
-0.10748336549492016
-0.22190853721700407
-0.188881218966879
0.0029392025882279873
0.18035113570333358
0.17262744352654716
0.19813484309538312
0.05636758006267246
-0.07142816199095961
-0.21389020697390226
-0.19772492535950206
-0.03793507205745043
0.06596543110330222
0.1271746238700366
0.16495110430664697
0.19819917715328014
-0.15763473741969813
-0.2901336716157849
-0.1887338593098769
-0.046659920814029525
0.13215765993313294
0.32336604608059527
0.27535753024935405
0.11153223127194359
-0.05530424716269223
-0.2989252141689655
-0.25385510481935236
-0.29795720249387564
-0.35195277585158125
-0.09894078437542339
0.38069496481164805
0.971335643179068
1.6979867004771811
-1.270122925575988
-0.9866200170734462
-0.48088101122857446
-0.721746485145486
-0.6122447058453668
2.381152035784289
0.579581531237786
-0.35245151456527096
-0.42724521347411976
-0.5262779058995514
-0.37526480655961314
0.6841739024080593
0.5183841587222173
0.020854648128994104
-0.671345947843835
-0.5658971530562781
-0.2149531415384018
0.26818974266810836
0.5775440351759588
0.5788955081190988
0.08477108905597994
-0.14990015028872913
-0.41085981516700976
-0.39506521360776864
-0.1815709027737775
0.18687142255409142
0.3079423874212962
0.21300085993321435
-0.04384914417169163
-0.19554208389112096
-0.16937298190579808
-0.09379565163684919
0.09306162465052559
0.23323999878881974
0.14004589922047536
-0.005614826312333182
-0.05114368526057552
-0.06092948757845867
-0.10109345685548662
-0.024737767018461997
-0.061574721400610426
-0.014224529224354436
-0.061592562151773035
0.031979925103716444
0.10449212124689046
0.1846241263426874
0.08438463301992735
-0.0013797545972310114
-0.08851972532743821
-0.19292005274771815
-0.12027660239713148
-0.06086328772884027
0.008270541693697763
0.1144491552966462
0.27757597321938826
0.10048678895564311
-0.03434280677417224
-0.16045329063703884
-0.11770660316233426
-0.14179925091556636
-0.057348285278010024
0.12343296030786348
0.1976160520987494
0.16752628130976285
0.039670670314376356
0.028452035468597526
-0.23702831925384385
-0.30806403943488536
-0.31965894863733413
-0.20664374908456917
0.06781218985293706
0.47868453958709667
0.714315009688805
0.7764925526590049
0.6171500674161222
-0.18838763519105084
-1.5483699503390325
-1.7738729881424038
-0.9475710262401421
-0.16748084250815706
1.1362961673157823
2.445692516919291
1.6141700822283662
-0.006125768209350036
-0.7432661162405557
-1.3019399222184158
-1.2194493779817728
-0.5332055050936099
0.10050537984684918
0.4215045760678351
0.5244011359460242
0.38657038731358123
0.3943057134364762
0.2894617948227015
-0.0525948289865189
-0.41506736389387344
-0.6128975010669732
-0.2628031326632133
0.0359319728913877
0.3036663846752773
0.3687759369695847
0.2516692178444335
-0.0456555413401177
-0.1393052616840963
-0.25376050680454143
-0.2087725781731669
-0.00982639358254322
0.15362521218519745
0.1023098754526636
0.05732549182876579
0.031109269569768692
0.022707191966378354
0.018647966038666475
-0.0012971014417877487
-0.055578117375146195
-0.1524493893672829
-0.08469951310130552
-0.029787980790713695
0.044132749215589
0.1681543172491469
0.16220905342768407
0.0284037585333528
-0.049311280854798904
-0.0992683948575333
-0.15273623901030145
-0.03498960108332511
0.040062229136650085
0.07060706629724771
0.0641077432535038
0.03317808842747897
-0.007806371504746912
-0.04448126446354365
-0.06305392750531319
-0.050793350108737846
0.0025266737450460475
0.1020607084546899
0.045112161686239806
0.019670929474896792
0.005506771646687836
-0.021988208500206427
-0.0861907990782215
-0.0035662536071952734
0.020399558440964125
-0.007409203699110056
-0.06926157148559425
0.05939097508074476
0.004188333497382948
-0.014456000941379272
0.013023130346819662
0.08167328597825509
-0.028661519211616852
0.04959459467539963
0.07833900645478739
0.02325140167132572
-0.1356314368894131
-0.1949779884907656
0.07587240750578965
-0.26854701956735916
0.03868825251707825
0.2596640146985225
0.23350659406073263
-0.03655289714167418
0.2140159783994577
-0.08003109441046696
-0.19555508562452947
-0.19934872953941807
-0.12986084352522712
0.011985432182515519
0.06053496003433744
0.07331451921131105
0.11359759352691587
0.033003043663277214
0.058629773699091295
-0.012678744933384733
-0.01246977097175791
0.007507710547011539
-0.012548834575998391
-0.12719876899519394
0.025936752451227056
0.034020832961345344
-0.08837199774773746
-0.10223439651515279
0.0477659474176202
0.021423726344909307
0.06983781655671306
0.22428798721178494
0.09041714669125048
-0.15042676865029236
-0.13335376814847846
-0.09877058710164408
-0.08206422831689944
0.09286891067203334
0.21576095088410568
0.08950451251462471
-0.07066809093526978
-0.23755975100638296
-0.17338016156294894
-0.03457067835268206
0.2188831206762098
0.2117193742423413
0.14385777869165858
-0.012351633346264027
-0.10625041450917797
-0.19639544317930693
-0.1362772388629978
0.036684522030059515
0.10584818745936593
0.07376661508158716
-0.043456464398927704
-0.023167218228354713
-0.0426435560493849
0.11588332040409961
0.06227264475328562
-0.001842573119178575
-0.08057249292364208
0.02072669395506739
-0.09970769252945666
-0.036717486613568426
0.02236015881204036
0.09539948863807243
0.0012620064328528315
-0.04487419488089948
-0.035369147957203896
0.02752086031392992
0.13115040348706117
0.05427112208598598
-0.0286693764990883
-0.1413876829326577
-0.09974493049044532
-0.10844389515569408
0.03778679187058485
0.1488723850338742
0.23261333061632314
0.09025310055563875
-0.0828098013880734
-0.29124519432679563
-0.13213309191734576
0.21014215671142825
-0.23655158015035876
0.1618643033648534
0.23650610955563273
0.006712389475683705
-0.3254852136159985
0.2236255516963646
0.022480274992799386
0.030277022231639583
0.005118012859976406
-0.08685484501866927
-0.06322856884949107
-0.1204204436221584
-0.03410774622365243
0.03447105029433272
0.12781006162391076
0.08025188084671153
0.10881496742887108
0.009774323486725899
-0.03800955582845418
-0.06442168935081993
-0.0973305669389521
-0.15362815825679643
-0.035234919492288574
0.06867769712730697
0.17449957611732492
0.09537606314107155
0.03472941812187736
-0.015238149114801923
-0.06987391512822227
-0.14537976774634928
-0.052372529790183024
0.007441103191268296
0.04027306248190926
0.05579230115264192
0.0615052461063191
0.05862447299358565
0.04133967295696581
1.1022740544142932e-05
-0.07280144322228752
-0.17592493652037158
-0.09583177284651886
-0.007967313891071309
0.11642659366373656
0.10012134404533514
0.15031065576952168
0.053691184805224404
-0.021422965433224653
-0.11632188935028871
-0.0693912112320397
-0.10414660454561932
-0.021752236423694518
-0.0002852781768364012
-0.0007929785672535164
0.02176918071139817
0.10587296633594631
0.0725962583859294
0.11980498252327687
0.023238582894130146
-0.05560475545638301
-0.15716909476697888
-0.11124874836503001
-0.12856001830962163
0.0004944810443261086
0.09959288927999585
0.19550207269578707
0.10696947868278034
0.03809806472034729
-0.021256045557779896
-0.08862105090728765
-0.17884192714722624
-0.0952764648966868
-0.02604594933563384
0.053118660647466454
0.1707680357316036
0.14990161237777672
0.0004384448522990107
-0.08344035269396446
-0.12110304240372434
-0.14067154837142817
0.025590597990230883
0.1442290708967314
0.1825961342746889
0.1120642103135992
-0.08585375797513364
-0.21114721468144002
-0.23815109020953035
-0.114197825699215
0.032904909896807735
0.27938472523025826
0.2868881693093827
0.08758139533132706
-0.12164454613707752
-0.17463221343265442
-0.12425532302376585
-0.028897501791599382
0.05838300443734768
0.09613319462168282
0.05685140730316161
-0.07293354841309153
-0.0936516083677626
0.005403791211353138
0.04290859777785879
0.041166697373405045
0.021472955183997833
0.00038623083906366896
-0.012261618942444841
-0.013504733472865944
-0.005976181918797686
0.0041176768002325285
0.009226424388067452
0.0025261242449717957
-0.020406306409453418
-0.06053266576026029
0.08490512131342651
0.02182641146108408
-0.041845551856858954
-0.09768443903635497
0.061483621782854346
0.03967333702357901
0.03618713325090449
0.04530085410680199
0.05787763447169492
-0.1352447639454153
-0.13931485972461008
0.046969474532675505
0.03132533628466761
0.02485260479093418
0.03741773459594558
0.07338335815355898
-0.07074100438696929
-0.006038477469204747
0.05147261888453943
0.08510998388102836
-0.11763199029790358
-0.16098449994002945
-0.039117154876903995
0.062164507745292474
0.16050349608655354
0.07088383505170451
0.0010739779977526327
-0.04959608052188227
-0.08829530733262894
-0.1253830002691394
0.02813132426377884
0.16123426000106136
0.0621609167657456
-0.08218765055395737
-0.08536472844889705
0.04112676557012849
0.09131870567030786
0.06865717627596797
-0.010044436750261636
-0.11130998437236958
-0.1841125207880632
-0.16376343560992737
0.01788859514700548
0.21692499994009465
0.2606269561218225
0.13562182979949766
-0.013831759181071981
-0.07566442956120449
-0.15061972285082476
-0.12959779315240944
-0.07439514150283368
-0.006946568904735308
-0.10927764721548391
0.06670083508066313
0.18291370233088303
0.09723688895026689
0.04908887429391209
0.05220776341548358
-0.10422073212517903
-0.04757330390685533
-0.010170313733774175
-0.017682546144364514
-0.08057078285904691
0.009541854148522768
-0.12220228388899498
-0.04129351830830828
0.0851033115812361
0.2765754187962821
0.13146457177305984
0.026123380575671776
-0.077321625466484
-0.21708188633219117
-0.21705250587242797
-0.07741546267081831
0.025562768697741604
0.13050960410823811
0.2765809721833793
0.08972640948436364
-0.02510054382349646
-0.08347342021578488
-0.11418987975629938
-0.1491363182805658
-0.014694517823791576
0.07255117859582522
0.10558849413187613
0.08414582228231744
0.011858429288898442
-0.10487617110975136
-0.05638685067228188
-0.028938229410839653
-0.00520840299168305
0.03333413257436628
0.1027789769267402
0.013275307984950023
-0.03293908613679405
-0.04141386115287297
-0.023705319695267207
0.005081689320569389
0.02861567921288319
0.031262466834332245
-0.00023370717763045675
-0.07515911706965006
0.002524442337785959
0.034948885761894755
0.030332089588600154
0.002349772668148056
-0.03083643213551904
-0.04786443681877199
-0.026039637904544232
0.05599946202344144
0.015080020711882662
0.06057200816104442
-0.007283005681694633
0.002764155111239385
-0.12529287035847672
-0.012212137381910107
0.11888459711140426
0.044485596013067764
-0.05738192404979993
-0.00485439526652162
-0.009771496018343174
-0.07587021424621046
0.0014958196260561158
0.0337371552923473
0.035878889486295855
0.02287982257478216
0.006597331386798562
-0.005789691881931532
-0.011737663908139667
-0.012083278282587104
-0.009265780099088837
-0.005697089685821912
-0.002735827019600177
-0.00043677393821426236
0.0020124138268926266
0.005441720236979356
0.009809513859811993
0.013655513191153852
0.0141925194689302
0.008146235692803918
-0.006828500800260603
-0.03065107644384711
-0.059987248354531085
-0.0888420013919108
0.08911261846985016
0.07705852211175904
0.0719565853625273
0.06376564341489571
0.03807411745142813
-0.21838771620768738
-0.1116079273112952
-0.036569123921305395
0.021844300708449577
0.08329565303340566
0.16415019203413958
0.07087682424720809
-0.0023156974369492895
-0.07060942819891428
-0.15190469452277497
-0.05941941223555689
0.0033135245698417606
0.04338940184068664
0.07583264960307931
0.11922125700991781
-0.00809943100550071
-0.08990455157675986
-0.11236297501480601
-0.06420213302539013
0.061735564782028976
0.06532291627271367
0.13579578860895988
0.050497724608380215
-0.022582803327237756
-0.11852109518674549
-0.0673683130732943
-0.08724163154382669
0.01887622141574314
0.061711396603252956
0.06062489583195425
0.037112532310169276
0.009220807423133517
-0.011620732687031243
-0.021053248972198825
-0.020198386213518965
-0.013131119621694132
-0.00445249638748013
0.002378646113542205
0.005748405937731676
0.0057730065995592285
0.0036944220110783996
0.0011291782453733909
-0.0005764749782388375
-0.0007531990529666252
0.00045556705381935347
0.002205378784048835
0.0032659805412446966
0.0024835564192806914
-0.0006937107428199044
-0.005759767413517593
-0.010949786069267388
-0.013494440164411748
-0.010461554597779811
-0.00014105062660808837
0.01633409461461221
0.03370493393675462
0.0423498940585442
0.029658492195799697
-0.01691950589681646
-0.10584638096824006
-0.03788278756271297
-0.004442590013762094
0.011158417980894572
0.02978741264151774
0.0711840724439892
-0.05103641689891012
0.0674024178143727
0.020818547655602496
-0.0043977199764375415
-0.02574535777201471
-0.05981594796745451
-0.11834054065997489
-0.006475441200188109
0.07622378844919725
0.13312978824539665
0.1683252037100889
-0.013053517069537496
-0.20141981303340348
-0.17824127692896669
-0.1140487141046235
0.027981357444122168
0.08251574852898175
0.26966344297045686
0.1848742286999291
-0.003996288697400785
-0.1503983619343185
-0.1155087124335421
-0.1523918757928396
-0.09359776798874464
0.05394330527128663
0.10603324786580914
0.09261088501653224
0.04731706524582351
-0.0011726212228261813
-0.03404966660072104
-0.04341565784425321
-0.030666083453037785
-0.003748890509962516
0.025611940232489236
0.044392888086265514
0.04068277552290798
0.006322489555308935
-0.06042670924866978
-0.15312676287688268
-0.05767734910021825
0.04402699959642988
0.16791947389532133
0.12143565742674513
0.10015484012007178
-0.110543533190751
-0.12923317971999412
-0.17049250001040972
-0.039086294822139746
0.07108217528144833
0.17324135161622403
0.0817301309748021
0.007065264816855215
-0.04562436358125168
-0.0747363716236496
-0.07875569972239921
-0.05372298823074236
0.006632846726422342
0.10789589328274424
0.05047986443871356
0.02588617680499197
0.015645692182154034
-0.0062796094989306574
-0.06822798536104341
0.005733343493664096
0.0017930662254134427
-0.07983978598990056
-0.02443907445458681
-0.005861572529660615
0.0072585910374587444
0.043631628543145375
0.1218819897926473
0.04586563204469127
0.004402026301083193
-0.024295820891128896
-0.06489199153447134
-0.1365672152158939
-0.04698491681598886
0.009325243132048845
0.047830858005705884
0.08772121981249956
0.14537808823138937
0.030480324189260492
-0.05368318989333475
-0.1062330464534732
-0.12354053134476584
-0.09613238920275016
-0.009979465116805008
0.14773164440798908
0.18073066732400897
0.07756695463368177
0.01071422380969801
-0.057968411360298934
-0.16721646991569553
-0.14569092764424965
-0.004846271104287753
0.06210667742636087
0.07526544908536804
0.05959739670026915
0.03640317133899177
0.017491984839227804
0.0034152904566526095
-0.014445114509847383
-0.04930570526650063
-0.11390322977850487
-0.016846060589708584
0.03841772077780706
0.05212989731597586
0.025670455330695584
0.1599761303816981
0.056592756618095166
-0.0782991686927676
-0.22843844324798557
-0.16383044829301638
-0.04234510160695034
-0.018120726959224294
0.3451051519829779
0.2608093397238122
0.11273783244970909
-0.14184456418763594
-0.15933856793418008
-0.3926843904611524
-0.07721200124773137
0.17497626788971557
0.1710180272097024
0.12724011377082634
0.05872543844448607
-0.02695188874860175
-0.13034464002418586
-0.05658271282107815
-0.01059103991660298
0.006294202269135246
-0.002925998182826136
-0.03256045075500959
0.12291198610189813
0.06630280945053242
-0.003146717305114977
-0.08836120823791564
0.008623469149865044
-0.11023145029708088
-0.03753185035789114
0.038383649555784806
0.13006043170745896
0.04690401648737522
-0.007521032405194488
-0.03564894061222759
-0.04372503896120445
-0.03864089431189529
-0.025465701408690866
-0.006817498827536794
0.01573604147875074
0.039003719162203986
0.05560599837136153
0.05301322421982336
0.015204478905303112
-0.0730073847585118
-0.0200852853601612
-0.022240164852371715
-0.060321880022146036
-0.1006105541158276
0.10003194501137819
-0.014571914551971746
-0.010266494243222022
0.12818378774267822
0.19170469879772414
-0.05256349580547469
-0.05432640607987869
-0.06844707871296034
-0.14205592425558783
-0.10454640010127172
0.03657093836988907
0.09323686377238694
0.08954035067586753
0.052771544630975255
0.0060233815293644615
-0.035825424394651945
-0.06669036791985004
-0.08763803150565533
0.0954945151997136
0.07438229552643069
0.04050466347829974
-0.012068832309163635
-0.08350486582339198
-0.16582271524732187
-0.04304018211350546
0.105079222079566
0.09637638235448269
0.1392787213932251
0.028566178458362353
-0.05405680947990434
-0.13480314103996746
-0.04033394035602066
0.008978543765320797
0.0027599307754618873
-0.05942899404429925
0.028744003181447476
0.0756596704958268
0.08742882402284119
0.06590707406733193
0.010224163208147776
-0.0784835286888804
-0.1911689174289532
-0.10689073140749206
0.00654331675949924
0.18655845355355546
0.06629522125886209
0.06521327505642303
-0.016725203769785785
0.00039801808113581176
-0.11927678381661072
-0.02020086818676644
0.05249842990413917
0.060108176507921406
-0.02403794278299137
-0.010555468657164334
-0.09201492085234353
-0.043737628273539414
-0.028078199728935705
-0.0020695225294882786
0.07297966532688435
0.22252051897009947
0.053433766421210886
-0.04553697009262065
-0.09760262225090677
-0.1285138011921326
-0.15788783500484568
0.005208298267752784
0.1610726154325338
0.11401398143610655
0.06618985878378283
0.01401476420832321
-0.05126054736666224
-0.13959726446545287
-0.05733003961141892
-0.004167789910159344
0.026396385130551574
0.04351982026065021
0.05405609841122677
0.058552552379696386
0.050128723554932586
0.017060148066908358
-0.05155375530621
-0.15905828629933633
-0.09631625275793783
-0.041199786587599825
0.036452262065372644
0.16574665767818983
0.1649279375126694
0.0348928161456896
-0.0412178746019217
-0.09224679248708322
-0.14961451056371758
-0.03812539202703152
0.02973954653195427
0.054687340855404776
0.047412387787720084
0.023390087109521444
-0.0022199604050925584
-0.01824236420311203
-0.019381277440504417
-0.006647243187598481
0.013212771666646318
0.02899050118843273
0.026947162421122273
-0.0066129352860121
-0.08240021427684142
-0.005484595644223289
0.026279138238831184
0.022272053504134356
-0.002332230044944589
-0.029025736164405964
-0.03900378945913855
-0.01646339599715571
0.04829396157537408
0.15683826458107908
0.10285049167964128
-0.12464261163993154
-0.13575557402997415
-0.13440058461838905
-0.11620566553410083
0.1285012229718885
0.20755165121394697
0.11911459323089742
0.04745616256964672
-0.03504744164108351
-0.16005553095652222
-0.1528034261556706
-0.023395416708655546
0.03679396296605728
0.052682127204253346
0.058553157888343275
0.0895376725347026
-0.025727759572637225
-0.06963276005356671
-0.03710892543748007
0.06512580478946195
0.020735691838192523
0.00690862114123812
-0.0017011301158395603
-0.02861486835294491
-0.09157651125616721
-7.9253877821437e-06
0.045470615310547
0.05159146339963228
0.029977499617055377
-0.005205145322890252
-0.038852934573861346
-0.05597794574819131
-0.042930716525393146
0.010602859182496304
0.108953902804859
0.048181974651753244
0.01555210586203176
-0.008315547771791491
-0.04490326246050672
-0.11232521977094072
-0.020919937631216447
0.028510556247400683
0.043384268942587206
0.03581037194027354
0.01845149660104997
0.0012698852573659275
-0.010048845448139622
-0.013999251459892352
-0.012036519850782785
-0.006962632185686586
-0.0015272722683938205
0.002421087490152578
0.004182762011121511
0.004002282928220777
0.0026439197224045266
0.0009612558306457661
-0.0004026483749281784
-0.0011391072169580532
-0.001247874958596846
-0.0009246354176820386
-0.0004287686589752589
2.0311652567729125e-05
0.0002967158229023302
0.00037353151283500496
0.00029627597944248803
0.00014417866109770163
-4.802061449681016e-06
-9.671157931964457e-05
-0.0001106149270652654
-5.6853930889178335e-05
3.120679702149388e-05
0.00010865247826593158
0.00013205095217964347
7.32392031090379e-05
-6.761649994254397e-05
-0.00025308369101961087
-0.0004089610494709829
-0.00043966643574731254
-0.0002608120866947134
0.00015562257660716174
0.0007372926403444727
0.001290422869983656
0.0015253254847939323
0.001143302749870375
-2.1778124212243705e-05
-0.0018448647412275603
-0.003802180206574836
-0.004997716294132906
-0.0043895829763039105
-0.00122314888068839
0.004417441900988074
0.01113301503892898
0.016070094295484404
0.015355566067418737
0.005183788208212908
-0.016651938255977102
-0.04932458617387129
-0.08838278560581311
0.07339486412791775
0.043709948922530925
0.02785037841287694
0.02649298899583586
0.035235532741311734
-0.15394297315312222
0.05003777186692419
0.04026784122311005
0.01408782055132347
-0.025725114283955762
-0.07102397657027036
-0.10993518465468465
0.06969673768472442
0.0755907737853899
0.10670043761477353
0.15158518741302987
-0.00882376233157712
-0.1942918490241279
-0.21679425665902524
-0.07450122169441836
0.04847792299675318
0.1761108775395641
0.13099953711077797
0.12598513619482496
-0.03944778406154776
-0.17687602389085114
-0.10264103114610519
-0.03110372233496276
0.029440953124477746
0.07708707345327467
0.11391773608972103
-0.057034498790825915
-0.03375675966592951
-0.01564623425359256
-0.002868900802280609
0.0044677408981648285
0.0068096370384230125
0.005244025942112413
0.0013389361459544317
-0.003097285854011158
-0.006265895037652757
-0.0066617955185895
-0.0034419011429406765
0.0031338547578921507
0.011319637669486562
0.017799628196452786
0.01816326661473836
0.008067121184980024
-0.01508333199262825
-0.05047206338040144
-0.09303679061828213
0.06582967527597476
0.03592754562575429
0.02500907037167699
0.035999978763177155
0.06591830664616287
-0.09302230172162142
-0.05061636699924403
-0.015417617223435461
0.0076055440126624515
0.017744764094521245
0.01767135079202508
0.011721567039846314
0.004172770980288407
-0.0019237771773085051
-0.005163075650714394
-0.005577880304363177
-0.004080395045970681
-0.001846239028458837
0.00015195714645625338
0.0013739695894555467
0.0017214301723910304
0.0014058132418397738
0.0007683283192408378
0.0001256080468348297
-0.00032017043909347804
-0.0005023941421152816
-0.0004610524615511013
-0.00029114378753876765
-9.28625150230741e-05
6.154723456633196e-05
0.00014005244995121693
0.00014605184361983083
0.00010430389373819854
4.5362704472664527e-05
-6.077241285988676e-06
-3.672885087548956e-05
-4.466606825376466e-05
-3.575255987392398e-05
-1.8953679826160514e-05
-2.403426829342287e-06
8.825075667710739e-06
1.3176861974173053e-05
