0
-6.218701559680474e-10
-1.1487109535591606e-09
-1.4149282442353804e-09
-1.138051269422947e-09
-1.3930137057612246e-10
1.5081164775546159e-09
3.3688313193806588e-09
4.6496527048797316e-09
4.382780066220054e-09
1.8014035857689216e-09
-3.1657365038068266e-09
-9.45551298247781e-09
-1.4735907002133774e-08
-1.5818766010654893e-08
-9.734057668289785e-09
4.679839635156217e-09
2.5154010559800466e-08
4.511597622052146e-08
5.443081148652688e-08
4.232806903091424e-08
2.340777893186873e-09
-6.200964273491019e-08
-1.3315123268314853e-07
-1.7996590779909484e-07
-1.6526243626060648e-07
-6.057992128986507e-08
1.3471878626745213e-07
3.76983323558504e-07
5.740816759794109e-07
6.026642820220929e-07
3.508333432666606e-07
-2.2006491595813163e-07
-1.0138778532911008e-06
-1.768786383217988e-06
-2.0901763198048995e-06
-1.5680331440110686e-06
2.993409803634589e-08
2.540659254360983e-06
5.256603556166436e-06
6.958415003874199e-06
6.218775290495893e-06
1.9850985502151645e-06
-5.684228506741686e-06
-1.5003777583670633e-05
-2.2338542061954566e-05
-2.2921782202322522e-05
-1.2547268431440194e-05
1.0032475446289059e-05
4.0774043677632704e-05
6.926482566610805e-05
8.015765306044323e-05
5.786999898702249e-05
-5.873283130228451e-06
-0.00010372042081166429
-0.00020724556241813702
-0.0002687257403752433
-0.00023345945791517682
-6.26749431124534e-05
0.00023811470110631487
0.0005961215229963786
0.0008681016866932509
0.0008700490246624048
0.0004442127720513178
-0.0004479188369073103
-0.0016374092593210484
-0.0027106540781554273
-0.003071036764756598
-0.0021263682576939517
0.00041741822738985095
0.004239634689131713
0.008208340191050996
0.010470906070662506
0.008953752570828722
0.0022616771394294403
-0.009237719207853153
-0.02258022162939419
-0.032198200996266954
-0.03126559028401554
-0.014595418153633997
0.017296965618170717
0.05406204162636858
0.07297460346621544
0.03973569827228753
0.11378229247813149
0.057998183412669053
-0.14904406976897994
-0.30204465824600496
-0.16401599355042698
-0.07152865105272274
0.04889266079870123
0.2569324272616478
0.374915977687106
0.1735450261188303
-0.02632635094915328
-0.13443269147989306
-0.059013398748105746
-0.07089502148943372
-0.17404161937268245
-0.4916401241109689
-0.27384555537339444
-0.1286028053262638
0.32984652102862266
0.8278932758662495
1.7932334066402151
-1.2542938759790925
-0.8764325500552009
-0.26545222346905195
1.0106161491201062
-2.5530521686263845
1.6155053701785183
0.9546522554138985
0.14452374754720257
-1.9194643451878675
1.0526148081750588
0.13071281092627374
0.3555767948057778
-0.06329499320497185
-0.1401032087591961
-0.09734059386294652
-0.3489711766268899
-0.2901277740068784
-0.09890733230481663
0.4493072751734006
0.3606591496392537
0.20460071947346006
0.10809574864104088
-0.23346278785779603
-0.3314340094023501
0.9265330916652466
-1.4976617127026728
-0.5808262680880324
0.3528803566581882
0.80354119816217
-0.14208276684669638
2.560509571032299
-1.2911463728308215
-1.1238928059811921
-0.9529103422720131
-0.5565136497503053
-0.6812304550558543
2.5222062379438692
2.252846114444265
-0.9654271897564183
-0.8666262836142121
-0.7875424902871491
-0.8026337303533244
-1.282349796788399
1.5050248743304424
0.7500688168513058
0.6385325950018725
0.09506024869830901
-0.4458383575186536
-0.43763734165269463
-0.19782211422487575
0.12414140237181889
0.7767061421065296
-1.1700111344688358
0.19305294298508544
1.6249440280223288
-1.6606863198958592
-0.9981646007911895
1.7185284532245984
0.21420427907185738
-1.595266596437812
0.9701294706224474
-0.06531290421255084
0.4592440248060692
1.651057571630428
-1.6054664150818616
-0.4023043587664932
-0.161554144009001
-0.8105928427135675
-1.7946520358900913
1.8711603899710134
1.5262851387568122
1.7966747657406263
-1.0321901322324192
-0.38426726242861353
-0.5146207395163195
-1.0162207584333034
-1.5491076605231722
1.1818775664271848
0.394591751653833
0.3568974569168367
0.30121455910590933
0.15403791562359545
0.29923176955009023
0.3826417506322121
0.15559664787926977
-0.45385395177039495
-0.8608902073337744
-0.7588272219364035
-0.49102076963319363
-0.07147756644484465
0.750775129641176
1.2052383077632243
0.8226467424489114
0.19540155020198305
-0.41055123277925
-0.7994446194369055
-0.7691242859852708
-0.4441940447616711
-0.04213378706159621
0.3194080718316874
0.5821736390965452
0.4926519360548809
0.15439993765093998
0.0025026000319436185
-0.1951971291803459
-0.3156647817495695
-0.2487046012270928
-0.06783703576018177
-0.012695971156578032
0.11422583334236763
0.13905583254893253
0.10196986033555805
0.0426943244447884
-0.009538520923328592
-0.03990794869936721
-0.046569210273177536
-0.03605980742564762
-0.017985779395139474
-0.0008125654973864214
0.010388584176145988
0.01428404156339183
0.012320340347008747
0.007248838473705575
0.001785369089316825
-0.0022259726714758
-0.004069274536906142
-0.003966640631838759
-0.0026649503639773224
-0.0010104955363641139
0.00035130189701307535
0.001103325532542216
0.0012350580465691613
0.0009332557083984001
0.00045126402940451094
5.56550407504892e-06
-0.0002781842506717317
-0.00037098014631591536
-0.0003140150425727288
-0.0001800531404338236
-3.9144982311784394e-05
6.221963264772213e-05
0.0001069554690079705
0.00010191032154578274
6.694000894054406e-05
2.393945817811999e-05
-1.0733589836553493e-05
-2.9325734930719195e-05
-3.1945538574457885e-05
-2.3642200768403284e-05
-1.1016497833330369e-05
4.074029482242293e-07
7.509110939204626e-06
9.66209349389739e-06
8.01291080578113e-06
4.472199382765901e-06
8.380155048590923e-07
-1.7235555763649307e-06
-2.8096317629966448e-06
-2.625183331283923e-06
-1.694897420289958e-06
-5.81184004893062e-07
3.0551490349104113e-07
7.783430405011579e-07
8.482885743321994e-07
6.450238308888726e-07
3.294587183579695e-07
2.9803056785747325e-08
-1.857722710966684e-07
-3.0340755393186203e-07
-3.386237398527114e-07
-3.0906479681493773e-07
-2.1864997616838293e-07
-5.97980974528806e-08
1.6819403657558433e-07
4.3432442510346566e-07
6.591864450646374e-07
7.210386731876859e-07
4.932564896729686e-07
-9.027778200587399e-08
-9.610639466647016e-07
-1.8668263894274956e-06
-2.3869119727611245e-06
-2.041903947906113e-06
-4.972612525342957e-07
2.1857906105487485e-06
5.349102526488314e-06
7.714566448293632e-06
7.653966540918905e-06
3.7885179214987698e-06
-4.186305302750304e-06
-1.4726634630576854e-05
-2.4127847840194933e-05
-2.709598941965225e-05
-1.843429168526572e-05
4.339197691433117e-06
3.819253675618337e-05
7.287353274575343e-05
9.177130351035723e-05
7.641165540634147e-05
1.4480027713643004e-05
-9.053437324450003e-05
-0.0002118851004648963
-0.0002992504254022186
-0.00028984914457412547
-0.0001321488076177709
0.00018220830001434193
0.0005892250486394209
0.000942089174924626
0.0010354530253549852
0.0006726518612608825
-0.00023234211642460584
-0.0015483101204890675
-0.002865350072689849
-0.0035350903847122393
-0.0028516968921524642
-0.0003661127081769054
0.003744137505468367
0.008399800596377212
0.011630282135400669
0.01103061048397322
0.004699363947400977
-0.0075256051770564
-0.022971437426371574
-0.035801269315236424
-0.0380730216372777
-0.022500279760027338
0.013395961124190755
0.06286916799706141
0.10708831349955356
0.11583976915422124
0.05307107231700584
-0.11314832642843407
-0.1989155897048353
-0.19543369529402171
-0.06702512380510414
0.04157870742471711
0.19020256255779558
0.22549160943283117
0.1670637498808413
0.0028614145129221176
-0.10461655089974842
-0.20390284179224324
-0.13782165745505767
-0.13084819376081144
0.015091818961344778
0.11572340847554258
0.19344130555410127
0.06546491788316539
0.13626187876499463
-0.0028296093101156557
-0.16714770254648897
-0.16885839062706956
-0.20878200957085438
-0.07435607866544518
0.054682346924587656
0.39541661426814306
0.35164238966725025
0.11123497817658012
-0.14541433656867653
-0.22829132712002417
-0.5202550551278303
-0.5698516386918058
-0.1023153379248845
0.5512190341920147
1.4163284268456735
-0.5532704690895475
0.3201708868491323
0.26460416261603326
-0.4921807456254722
-1.4655351734257835
0.7312159823604748
0.004565161204372416
-0.23491187410308154
-0.3177948342916056
0.019802218927781497
0.16620321581780498
0.7748505817241395
1.1342611727025473
1.38343476006608
-1.221911237784277
-1.2058635039344565
-1.3649915061674034
-1.0991791779600644
-0.812010442499445
1.8147417960638843
1.6994226317864034
1.4402570430533086
1.0459344465701337
-1.6560839632109572
-1.3417956212263051
-0.8814730564640129
-0.6466986810133437
-0.46794823257165086
1.9494592217932325
0.9688369297741946
-0.043720302656629496
-0.5669097347763115
-0.5422751783338916
-0.16827099214916222
0.517473636409533
0.6592455687549563
-0.1944048318941012
-0.46766926093432454
-0.5387020535728072
-0.5344747962589698
-0.14746829274385698
0.325940155842544
0.7372463045714183
2.4485859871574767
-1.2724037356734161
0.5836578455965735
-2.3656555567313564
-0.6271866737977799
-1.5969780769960247
2.4240658903966823
-0.02914185207625772
2.341625305006814
-0.05032835883818785
-0.6764567826410023
-1.0457256940673558
-0.6347066133033641
-0.22839309394379234
0.10239100637647096
-0.2220921626265391
-0.15195868703418966
0.11066195070797993
1.2338701802777865
1.3082250311411872
1.4513391852170232
-1.5263713193813644
-1.409214138053556
-1.2548524862270671
-0.9110937443534953
-0.8053269731042111
1.7877462024770594
1.4260478457644126
0.7744486136118428
0.5212674490312844
0.16622706530770276
-0.1191794673063988
-1.3838294286421013
-1.3822888724919287
-0.8962564446911975
-0.32259469839416466
0.8662055103106705
1.8113844199518772
1.1489625700131343
-0.07387504616072291
-0.6204868036784024
-1.024585812931973
-0.5095858294622019
1.9047656337656718
-0.9121598735605866
0.06497432559541658
-0.34143564102125257
-1.105969103603448
-2.0390854209879294
1.7271842412628513
1.4215937669801826
1.3179606706609104
1.0634990384917922
-0.11883230302707884
-1.1527549503823673
-1.5854943139529758
-1.2668811108811107
-0.27636000401309135
0.27780709518164826
1.1932046533491643
1.0735344281348778
0.8368717884544107
0.06704308387169353
-0.3770302489278984
-0.7029381855604478
-0.703762951906956
-0.686364546998046
-0.034190819707254606
0.3849745270250545
0.3725280715676632
0.3321919521842389
0.20508919202336265
0.02516035825073226
-0.09473373313339847
0.4561446995616982
1.4341436820861038
-1.9916705547692417
-0.7689605729494602
-0.10996069395903921
-0.27824831220891577
-1.2229689597239755
2.3487278579436355
1.0857567341327126
0.32526207693496145
-0.5319333208863447
-0.39626190069794076
-0.42959407072278233
-0.37728559619915714
-0.5176110420493464
-0.04463981756950467
-0.08824665727497744
0.23700179317401213
0.5717333184647523
0.6629948697790192
1.1482488839147635
1.1852721309857535
-2.0746430486104486
-1.9930601728698538
-0.7689810507221296
-0.4192947984266297
-0.03071762370786588
2.5340934342029824
2.3202341314448964
0.40492110547034554
-0.9044905026114228
-1.8016433589553538
-1.479153941999159
-1.2453242178725668
0.30185668709119073
1.6369143366220942
2.832273606090812
-0.7084808345342878
-0.07221474394236327
-0.40289732177843207
-1.233380324951268
-2.2183626872230358
1.2985769271950078
0.6693718750221936
0.48709687665016665
0.7201443520019529
0.26399745105260364
0.1276154134360648
-0.5455913873969639
-1.0368226971248635
-1.2132470474441241
0.08865925067803829
1.2514611847089334
2.6490451746199084
-0.9729072916053455
-0.8890309896103659
-0.7599990007457648
-0.79288215833992
-0.9217005230687544
1.979023528493098
1.2548894325687427
0.027788123196110483
-0.8318922926843083
-1.7114950696237559
-0.051411362404614504
1.056680944590515
1.2665228390327559
0.5812225004341435
-0.42047370447071675
-0.9328607902238136
-0.26218087076609886
-1.5816803277669937
-0.12559086384286441
1.170123389219157
0.9920613378458593
-0.43442850406888156
0.992382345151227
0.22940074679891034
-0.08696965428767559
-0.7810285839320199
-0.6631764749944176
-0.465667640628296
-0.20963198387904555
-0.012168478314045082
0.872709998254308
0.7974725296409785
0.27137772394507087
-0.2648777956630807
-0.43514495007330123
-0.5025856419588695
-0.13838995768400172
0.20204049335024665
0.2894533073163597
0.11956778104190502
-0.0937998486428405
-0.12636870400470798
-0.15009231344082108
0.06044398295778664
0.12141514213674243
0.2341328024491146
-0.01711691280071598
-0.061894909500991004
-0.13551854899976232
-0.06893594982643446
-0.08040534361606194
0.028154015128651785
0.06941630072997065
0.06491562382365836
0.03793851032200631
0.007605596742225159
-0.01431801067524585
-0.023674320091179386
-0.02203436648811254
-0.013921597312616846
-0.0042456800062345736
0.0033830747238376754
0.0072896554149219014
0.007531201002068063
0.005243991628133847
0.0019208323646771816
-0.0011289005787953445
-0.003047961605453918
-0.0034722533619377053
-0.002452561564701533
-0.0003598213694863363
0.0021775725338922533
0.004324275204987882
0.0051431426046124
0.003821508743607853
2.9227564890916812e-05
-0.005677907451267548
-0.01159707355099451
-0.01500060175365934
-0.012835332802104058
-0.003016833557369855
0.013949907486782907
0.03360379564884892
0.04719059667317999
0.043044952586165385
0.009899601951123934
-0.058514759034729746
-0.1591595485434403
-0.07777934508198865
0.008947102668642536
0.12712914107755385
0.09727252322076482
0.12714154332594624
0.00896637896047588
-0.07776288726202439
-0.1591569954030552
-0.0585345624015693
0.00985623130839813
0.04298780432960833
0.04714133544825932
0.03359192912922404
0.014002903429361054
-0.002887970273748694
-0.012650713370485565
-0.0148193609370209
-0.011510763621752046
-0.005784197978008797
-0.0003289417689903065
0.0032419754498844338
0.004499558003681927
0.0038967842201494806
0.0023023921783160628
0.0005764831995725347
-0.0006950457458570298
-0.0012828195092034222
-0.0012547540646571157
-0.0008457886761706994
-0.00032332919748900157
0.00010804067764333777
0.0003472750350070886
0.0003903476168361932
0.0002958761418327366
0.00014383775863835657
2.786041658972779e-06
-8.733019555218688e-05
-0.00011711844598896657
-9.94488161504656e-05
-5.7263716252319333e-05
-1.2723232576438595e-05
1.9419315524030224e-05
3.3698910300179767e-05
3.223179824363597e-05
2.1269386928166705e-05
7.726150122742012e-06
-3.225478120884059e-06
-9.133232705875915e-06
-1.0032497360598639e-05
-7.517512799293642e-06
-3.660232185972338e-06
-1.7130079001748158e-07
2.018985174440548e-06
2.7747689930166393e-06
2.498400701771943e-06
1.7763136980409839e-06
1.0746350406066021e-06
5.744488893192665e-07
1.725192009360471e-07
-3.8078357433412924e-07
-1.2720672327717489e-06
-2.4295162876310053e-06
-3.4284024672073992e-06
-3.5644314509063465e-06
-2.1168125472755577e-06
1.2463163403879561e-06
6.049140520304817e-06
1.0772777432435553e-05
1.3015590406765878e-05
1.0187797524519182e-05
6.985999048889897e-07
-1.4668345797089689e-05
-3.1760203586881797e-05
-4.3149763293024214e-05
-3.990187962604527e-05
-1.5108105647004611e-05
3.152803094122671e-05
8.970553814753978e-05
0.00013745201242262376
0.00014517943528144056
8.584738827600872e-05
-5.0230706350232765e-05
-0.00024054045134256204
-0.00042277161596701324
-0.0005024276784942054
-0.00038071455561165384
-7.350660857071847e-07
0.0006001509396919915
0.0012540256260372622
0.0016693818093986683
0.0015030414732460397
0.0004992807886969545
-0.0013333898536939215
-0.003573045722246721
-0.0053522835118318636
-0.005527004407564117
-0.0030793488794318355
0.0023080524391950047
0.009690363170773713
0.01659590029017004
0.01936200659697077
0.014255064248097669
-0.0007220500579517093
-0.023828373519456113
-0.048268847793831456
-0.06262625005108385
-0.053878765864296616
-0.013090774001462113
0.057335982096548874
0.13727217104422187
0.1865808143729255
0.14987363828642897
-0.03067085125628953
-0.1966523060973295
-0.354634794206629
-0.2647040443339374
-0.04262386175384902
0.2227821717165338
0.24152229206398154
0.2928099585825797
0.2040662036691032
-0.05453977104820056
-0.1589699043233382
-0.2085466803519471
-0.3001535798064473
-0.10811604952287426
0.12484524081962498
0.1853839764910733
0.2805571407776835
0.22874764335238137
-0.1444224131308997
-0.4044247701364253
-0.3043093434958061
0.014770836582436938
0.21542416557513927
0.3499365535021767
0.24637046932459133
-0.09845973277734062
-0.31609476801061415
-0.2558440175313922
0.028002142897953688
0.2864038035624163
0.2820541724402018
-0.006071875393311502
-0.17853087574816157
-0.41319429312887657
-0.46972802226801325
-0.10523593065544459
0.2993656937394662
0.7104641359380692
0.82501132383142
0.6809245575194726
-0.2986346217110518
-0.8354484843575304
-1.5249164568610554
-0.7950505320390086
-0.5214115920577558
0.6962655404531043
1.2158436778288686
1.833446087614806
0.9087338882819267
-0.23323079652093823
-0.8197696099466237
-0.8950450763629995
-1.1782176035892402
-1.5641143121959047
0.10026200961985413
0.7566649792550638
1.2163301902653165
1.0239357688474653
1.1526826316421468
-0.03533973577710962
-0.5548532390076591
-1.1076175702762932
-0.9743878633965822
-0.729612713150107
-0.008168465804843126
0.2682069614275798
0.21992776945375317
1.32544057540476
2.760804989496212
-1.0075822819343982
-0.7683069170063789
-1.068181810183094
-1.7166007670985959
-2.538409309287493
1.5957682378743137
1.66701401898087
2.574503333879553
1.4308652116074787
-0.06446611130368488
-1.9623997117183738
-2.5445893543616966
-2.007209243467795
-0.003931137768858315
2.3302383268453197
3.6980641959837675
0.15603324954812905
-0.9232600957944092
-2.028280361294973
-2.652830588322697
-1.2536703846295194
4.348109811758803
1.1294471321169057
2.6308093705688886
-1.8349989556077702
-2.3231959438030745
-3.3810258137578857
0.589965019376185
-0.304314619443183
3.4410935620875835
1.5999573639184868
2.3273454675000558
-2.4392585883850244
-1.4871543919645398
-0.5839834973738659
-0.5420168636312336
-2.3422585382488905
2.0583547554817847
0.6445669417946974
0.0177129830948243
1.0716491099288152
0.9087477894290987
0.21905542793248275
-0.47446638129718255
-0.9216315812753252
-0.8338370394244152
-0.39283927315666956
-0.208251309799786
-0.7355283192705377
0.2529280562832494
0.9674190233644915
1.7067064380495203
2.6082435460409967
-0.7297889351717102
-1.754668639255444
-2.2288458450754747
-2.12291237951966
-1.9879631680764873
3.3704041914446683
3.143471707598402
1.762418231502161
-0.19524085690155388
-1.397296052513615
-2.0594895725432685
-1.210347780556612
0.024101328909028965
1.0802417781506923
1.1592154054211234
0.5940371397543788
-0.3914848270302719
-1.1177219830940968
-1.0815353740838043
-0.3984915102857333
0.5384763080719032
1.5946888487750162
2.051218762647604
1.6155201911339538
-2.100116935608024
-2.4501054996788665
-1.8264552247449386
-0.9876650582434329
0.1183444518598237
3.444872150926563
2.0994101033727284
0.22449284640343095
-0.644554854464871
-1.3357518589214568
-1.3405056670987863
-0.30563200942666613
0.44209394166156435
0.32101095353198167
0.27436825587140334
0.12270565520647428
-0.09226822962554757
-0.15891480674394626
0.0652940731131114
0.43083219938548833
0.4921792041467909
0.12461951511897008
-0.44056086160282776
-0.7717157284548607
-0.7983573766130463
-0.19307649270719376
0.8206639966332446
1.84336861203463
-0.12417963087165437
-0.4858966267450794
-0.6334474466967895
-0.9210336001684182
-1.2532341034498586
1.299362869676345
1.2587062061960061
0.4908613898912365
-0.02441659290162432
-0.19025986431222427
-0.5572595379668418
-0.6725940287075808
-0.23503162503832206
0.1280132488441775
0.25613817560036467
0.230350365169925
0.3390294880554661
0.04879416133177069
-0.010781010185906301
-0.046075761288651325
-0.08522486054975084
-0.15758710138656112
-0.07456335736779743
-0.21826184693574777
-0.141910078591452
0.017631905601438135
0.31894540819789885
0.3940176715924544
0.23392702868547097
-0.011055193304208195
-0.21594303914890703
-0.4559474535700433
-0.38222970667767997
-0.008657239929252995
0.2854618608444145
0.33927690377167224
0.1894715217747035
0.05424108935330773
-0.07178463951311498
-0.21150755669353533
-0.19288789902156428
-0.03652480373689452
0.0516034923745258
0.0804611103852644
0.06886594204476328
0.038267011377006575
0.006521059667768104
-0.015528741752705915
-0.02441727818823302
-0.02221327596283208
-0.013746563880646472
-0.004047570277676927
0.0033172259870086034
0.006841534499078903
0.0068174170718570785
0.004605675490899264
0.0018248867381656453
-0.0002717858173364894
-0.0011135399874277092
-0.0008287822845360767
-4.0256716872438434e-05
0.0004597993639456313
5.797021227576751e-05
-0.0013927456267091337
-0.003421816864525156
-0.004993520296276046
-0.0048051763665009056
-0.0018172893795003313
0.004089937764053181
0.011545450478843379
0.017487858487327385
0.017605924184069498
0.007526928581172852
-0.015444767453388221
-0.05060788108233185
-0.09298754344441264
0.06598067464855971
0.0360958660015777
0.025135885065136726
0.03606100176766562
0.06591868064858676
-0.09306041531733344
-0.0506669472771254
-0.01546031400944205
0.007581147848177001
0.01773955277290016
0.017679901211948647
0.0117361564074948
0.004186629650166734
-0.0019147047325561665
-0.005159862944797289
-0.005579379219976831
-0.004084409769390775
-0.001850595616437199
0.0001487407508168449
0.0013724753112050081
0.0017214887481460887
0.0014068328290483827
0.0007696344183346837
0.0001266846313087027
-0.000319577554413749
-0.0005022935348359664
-0.0004612942742136603
-0.00029152496045535314
-9.321086605002215e-05
6.132860946383688e-05
0.00013998025731843666
0.00014608517242096152
0.00010437837173810758
4.542231534589416e-05
-6.059606931812712e-06
-3.674565791787631e-05
-4.468344078722766e-05
-3.572887299583709e-05
-1.8862648791969815e-05
-2.254432967496559e-06
8.977407603377134e-06
1.324094763720739e-05
1.1686250273535455e-05
6.869940031791336e-06
1.4819393327923541e-06
-2.50541383681675e-06
-4.17596163609243e-06
-3.598860714355168e-06
-1.5309595123337627e-06
9.421728155907282e-07
2.730551119018284e-06
3.0044177430297237e-06
1.4101966319074124e-06
-1.7624616116110928e-06
-5.5070113198645395e-06
-8.207804487218622e-06
-8.020267148345965e-06
-3.5468767580814486e-06
5.307421006478164e-06
1.6591551415719615e-05
2.6101655307510722e-05
2.8133499513846525e-05
1.7394943809026155e-05
-8.176121428266057e-06
-4.454184521513236e-05
-8.002310019556612e-05
-9.661896302470096e-05
-7.520137749304698e-05
-4.278867593935958e-06
0.00010991451750772494
0.0002362060523587124
0.00031937073495469105
0.0002933824167528664
0.00010767736124208794
-0.00023895859189118106
-0.0006691520252488464
-0.0010194553304972561
-0.0010709142329443568
-0.0006246876970439647
0.00038844632535064185
0.001799086714720852
0.003144865874576263
0.0037295006041965467
0.002832247063589852
5.2115861865232535e-05
-0.004304569462574254
-0.008960054899461667
-0.011729640108086173
-0.010082381899832344
-0.0022290869764842332
0.011453196567970659
0.02709302229073905
0.03667445379458632
0.028572621051148033
-0.010596859046847925
-0.09331481009495785
-0.028791336242720313
-0.022183408557773208
-0.07616775886839997
0.0054587872518680886
0.21377010327411222
0.13291791826697544
0.14326000806965994
0.030618243294429064
-0.20015950961615797
-0.5125836104795295
-0.23399120424039818
-0.06475970056963544
0.29835184704228956
0.5314253366936829
0.45693846834914315
0.03320687983295383
-0.23481722797323876
-0.46709879994418224
-0.37365307072552634
-0.02645679058802339
0.15287655473150466
0.18824735042010193
0.1323104908027148
0.045898139353694516
-0.019448548881493766
-0.03214772030096282
0.01610505546506708
-0.08696203527063592
0.03262608888016034
0.7443050423389771
-0.9771939820459531
-0.34418923111898286
0.24545736053260772
0.20104496595843693
-0.4750236647095606
1.1990732359593634
0.3803301386626517
-0.18742936520008918
-0.5465973539319164
-0.6935187710744011
-0.557175422833762
-0.0030419515678588895
0.13401136894110238
0.7975066590596854
1.0579157951775562
0.484129148265576
-0.4481244145586842
-0.7125926573581544
-0.8713705583272751
-0.6220835157163557
0.02550274413589018
0.9368948697815911
0.814443711215607
0.15328219223850695
-0.38971769646104704
-0.40628297259137114
-0.5308900647508782
0.17118029537101023
0.6147734086340843
0.30489991717497367
0.15090175347383944
-0.1117248710169801
-0.49503042578802414
-0.7380408662423711
-0.3045235985380773
-0.007156537294872225
0.344169256247128
0.883936665959576
0.8439684707183193
0.33816534140493015
-0.21107436659453963
-0.6112664707802867
-1.2250968410521992
-0.9118358553266358
-0.009178897250986948
0.6365028085666203
1.0043333209096559
0.8258520769877511
0.5355194868761967
-0.13573601047718387
-0.7239274617701583
-1.171021542884664
-0.5680294064492775
-0.12745754025126052
0.4042297510303657
0.7024468259976372
0.8112866524466135
0.507693363904527
0.5017422274969927
-0.3238733092064833
-1.4499730264839863
-1.261119335998097
-0.6212622902759705
-0.3043227056793283
0.9243968200315185
2.405864127658486
2.709576659868862
-1.3785132715720396
-1.1883185926747237
-1.242332496598606
-1.3288992453031185
-2.2261279395831086
1.8926980205031894
1.577146789203644
1.3785593686474293
0.34153734759232435
-0.0513991369194162
-0.66968626265149
-0.875415236260393
-0.847133924849895
-0.11899662780708228
0.4450193288833377
0.2398857246989016
0.28414043471229683
0.17961530462257433
1.083428536074827
-1.2979389342775183
0.10813087422311121
0.3725026680939678
0.0007004912899908552
-1.2364915313120632
1.1142481731347844
-0.2121396841549608
-0.8198610381909848
-0.49116578577303177
0.16166132961381555
1.0417232696075882
1.5284412118380397
1.675371058810303
-1.7427925092097056
-1.5438929011555405
-1.4469268261120454
-1.2196961829503832
-0.6953950980488977
3.1446513677247987
2.659857881435045
1.6672347955153253
-1.7686441244723556
-2.0663593034680976
-1.817207312263602
-1.0934300856220744
-0.02165851803140315
2.569468721716694
1.857789193313981
0.5426688744388667
-0.5913256986452357
-1.4504540215993718
-0.9686440125559942
-0.44251374192215265
0.30427947783453346
0.5167990344469087
0.6753569074251599
0.4549782041556754
0.2988541028746744
-0.5835989497609902
-0.39699739934993616
-0.3318025893311862
-0.14379909402934554
-0.3525714002349156
0.5387173814987274
0.208929886288752
0.08247043468310813
0.3043342714591998
0.9368001031944255
-0.8187395873560732
-0.3795069105331223
-0.1310361890702014
-0.3848823943668077
-0.5573982397720006
0.8254884918358906
0.5019578985452143
0.03768019859531715
-0.20890466779972913
-0.5123482597381718
-0.19670566165828898
0.3547893680029991
0.8973155164520676
0.5341029895589897
-0.4572594892096263
-0.7845096525376615
-0.6993586843140621
-0.5732559321363475
0.2968072750883495
1.2531510447872556
0.42775809220400307
-0.10090611687103276
-0.32902143598686934
-0.3233395194927622
-0.19937954914771835
0.5075037294829446
0.27077437078786987
-0.20206479115640993
-0.5498718718094695
-0.348223735457567
-0.11522091979867151
0.26523577225342404
0.507934805095919
0.29040946980383703
0.22993448889537574
0.08233423756272323
-0.03687098903619266
-0.8170256594691722
-0.31628063962013936
-0.1390232134600716
0.16459498328524227
0.07774332548625965
0.6840063171694312
0.2360348206119476
-0.062391564777695786
-0.25544422405250944
-0.2180484585294974
-0.030675253500356634
0.0445965546986709
-0.01980725221719216
-0.21154930749799092
-0.08387520960449532
0.02959333834533753
0.19429671092127346
0.2540724925910264
0.21712143364389566
0.053956369440578904
-0.0912697123351149
-0.2797872015068992
-0.35540174510121436
-0.12875405124063874
0.025146656062421297
0.15541860360341855
0.3150242760964242
0.34047776789754647
0.0399947206924425
-0.2055437162492424
-0.2304521604767254
-0.26756957322376934
-0.13515271657589864
0.16720778878809814
0.25324214843841836
0.1394725455430496
0.035596911444401684
-0.059721867657430074
-0.1567844164033859
-0.06888821248568343
-0.006133010557840785
0.02818146225879448
0.03769815231504285
0.030566406372586463
0.016080802343340517
0.0018647751989583107
-0.007615339565470726
-0.011141042959785229
-0.009857418086872379
-0.006007208497586049
-0.0017963149090030831
0.001310887228406694
0.0028002527111528593
0.002926127087946627
0.0023263542158656354
0.0016222230227860078
0.0011413171212289349
0.0008312140951196478
0.00036445003308981566
-0.0006193648245682913
-0.0022271086686117443
-0.004095362915905645
-0.005355285335531087
-0.004856860713597993
-0.0016566591989007771
0.004334817691697991
0.011767277931410422
0.01762592788616934
0.01764794285055378
0.007495069631598204
-0.015513437252748317
-0.05067842956276995
-0.09303728183097697
0.06595961331750486
0.03609951722785902
0.025154034352388246
0.03608266513586305
0.06593581231350974
-0.09305149315184794
-0.05066600177700938
-0.015464710523897491
0.00757474216122353
0.017733873284213452
0.017676452303272645
0.011735194454578261
0.004187541388338913
-0.001912891651773929
-0.005158044944618544
-0.005578125209391605
-0.0040839040263484045
-0.0018507215001646714
0.00014825409062428104
0.00137191207842663
0.0017210531876947906
0.001406614975144552
0.0007696237756125448
0.00012680986088037526
-0.00031940480435572885
-0.0005021456156591752
-0.0004612112899609697
-0.00029151377857219795
-9.32538079324023e-05
6.126159367715096e-05
0.00013992041405368278
0.0001460567617562674
0.0001043935145088322
4.5478189945665046e-05
-5.9814226836779154e-06
-3.667687696867543e-05
-4.4662324296955596e-05
-3.578816964949265e-05
-1.901346984317991e-05
-2.4705679081808358e-06
8.767165376026075e-06
1.3143898132468561e-05
1.1814630353217764e-05
7.289452137319022e-06
2.1531616066044853e-06
-1.7681783538909613e-06
-3.6979990127664863e-06
-3.7659412682437833e-06
-2.634614768519109e-06
-1.0972407172931065e-06
2.176631496789512e-07
9.817811298576134e-07
1.159124151171003e-06
9.098918447783879e-07
4.684657368724675e-07
4.307901228824556e-08
-2.3951260207e-07
-3.436329778846179e-07
-3.023603035754748e-07
-1.8196167276138137e-07
-4.904032635659505e-08
5.0356381033622566e-08
9.754633453061985e-08
9.698802525018181e-08
6.639163280775026e-08
2.6329711033610137e-08
-7.229095083220396e-09
-2.620864078211911e-08
-3.004501913412915e-08
-2.3103447990235095e-08
-1.150680802789731e-08
-5.808518956333498e-10
6.513746332706523e-09
8.971820124539638e-09
7.7296952911137e-09
4.5336372720227404e-09
1.097861876644741e-09
-1.4182300953962519e-09
-2.5678213981445983e-09
-2.4943029927198896e-09
-1.6698005303692177e-09
-6.272221012096405e-10
2.2823905579123924e-10
6.985493708633968e-10
7.785051228541541e-10
5.865361684897612e-10
2.8237069237060405e-10
2.060634229196192e-12
-1.7574739016655475e-10
-2.33253349876376e-10
-1.9670770968775705e-10
-1.1204783119421473e-10
-2.3343304898720276e-11
4.026010593565514e-11
6.814791066103566e-11
6.474094108413098e-11
4.259493331344659e-11
1.5497696027605624e-11
-6.282770417311671e-12
-1.7907407863145397e-11
-1.9481201546917667e-11
-1.4204687695944742e-11
-6.239069366568976e-12
9.441678647775364e-13
5.392446674110035e-12
6.723125042613962e-12
5.666237407435105e-12
3.4282085106529315e-12
1.1406998888300072e-12
-4.648132702557206e-13
-1.1381617213563343e-12
-1.0117262757873051e-12
-4.1866231145606896e-13
2.847232331586304e-13
8.385800691826152e-13
1.1251176821876876e-12
1.1531623577582231e-12
1.0089034829875295e-12
8.006050436076094e-13
6.167390237107593e-13
5.056664316994708e-13
4.752883166783159e-13
5.054413944265886e-13
5.644924116961073e-13
6.234146714820176e-13
6.638820062960802e-13
6.800534525883155e-13
6.758092803030481e-13
6.599707944644846e-13
6.417349781913495e-13
6.276686682605897e-13
6.20626799629234e-13
6.202254017406832e-13
6.241508543110694e-13
6.295900178058326e-13
6.342908952107307e-13
6.370587756201226e-13
6.377404753951902e-13
6.368895930017332e-13
6.353343108362875e-13
6.33818304739703e-13
6.327998843799955e-13
6.324138846355292e-13
6.325484182782007e-13
6.329703722162509e-13
6.334426136054611e-13
6.337994047130818e-13
6.339718615853154e-13
6.339738678408981e-13
6.338673608420911e-13
6.337253890370873e-13
6.336052729966591e-13
6.335365191420647e-13
