0
-5.716011317010989e-18
-5.7078711205285576e-18
-5.700003016502483e-18
-5.6964424827940616e-18
-5.7014444634933995e-18
-5.71751383889634e-18
-5.743155182967095e-18
-5.771287835120775e-18
-5.789493537273294e-18
-5.783038273728767e-18
-5.7407893287161416e-18
-5.6627920004101665e-18
-5.566735342910758e-18
-5.489475656521529e-18
-5.479998286111417e-18
-5.582316811944875e-18
-5.810896578242517e-18
-6.126375192367662e-18
-6.4237177519705685e-18
-6.545861624414585e-18
-6.3309213053942395e-18
-5.689169240832224e-18
-4.6891379333943675e-18
-3.6157049017709844e-18
-2.955273131477344e-18
-3.273034328298915e-18
-4.9801634234551755e-18
-8.04178786452874e-18
-1.1735273668561876e-17
-1.4607154742469993e-17
-1.4765230206362645e-17
-1.0556420662023307e-17
-1.5202297676740553e-18
1.069210249066408e-17
2.1905644140236045e-17
2.6014425746275304e-17
1.6869740914378173e-17
-8.714463504771398e-18
-4.767182581502977e-17
-8.856563377609897e-17
-1.1236663670527907e-16
-9.742406698890498e-17
-2.861392851144904e-17
9.141927828580296e-17
2.332524289231016e-16
3.3964089059467177e-16
3.375812686056973e-16
1.6514195360545482e-16
-1.9158943023601742e-16
-6.637778980054174e-16
-1.0857351228749579e-15
-1.2203570217530843e-15
-8.345211076221287e-16
1.8371540196234398e-16
1.6996116579135366e-15
3.254963132639342e-15
4.106164928253885e-15
3.4250187816810673e-15
6.577838520994043e-16
-4.042625971964436e-15
-9.481836553136827e-15
-1.3408127328408364e-14
-1.3008404147756708e-14
-5.9687053916670295e-15
8.09572301900499e-15
2.6331041855315578e-14
4.2171463318619765e-14
4.6420462518034554e-14
3.025603342302466e-14
-1.0204281291997737e-14
-6.912297640984778e-14
-1.281776470143031e-13
-1.5834398524236394e-13
-1.2798777902212854e-13
-1.6939966681288445e-14
1.669089483400911e-13
3.752108420037796e-13
5.195039610771037e-13
4.91525315063981e-13
2.0507142539222333e-13
-3.487149839520515e-13
-1.0520858239268544e-12
-1.6452303951863435e-12
-1.771857356454409e-12
-1.0987813222276477e-12
5.064658133388113e-13
2.793849617210946e-12
5.0320383742954924e-12
6.089457002002732e-12
4.759634491973755e-12
3.1230318646183473e-13
-6.870308649303109e-12
-1.483611885943581e-11
-2.0114021677642443e-11
-1.8542824364971748e-11
-6.921411969108133e-12
1.4856425206453416e-11
4.195327056558234e-11
6.410261552393702e-11
6.751717126875299e-11
3.963992932771116e-11
-2.395341992065135e-11
-1.1265363527489888e-10
-1.9732041583588114e-10
-2.3388727801211897e-10
-1.7641471334820314e-10
1.3571350183587928e-12
2.816444501936543e-10
5.858196215296427e-10
7.77844759438714e-10
6.979909742984979e-10
2.27804732285528e-10
-6.275585598136922e-10
-1.670128773886921e-09
-2.4947687550443166e-09
-2.568587229829838e-09
-1.4194050166537774e-09
1.0963071737896144e-09
4.531936270186415e-09
7.728289092299591e-09
8.971260575652369e-09
6.514488344979405e-09
-5.787307997631919e-10
-1.1503864967432023e-08
-2.3100968532645455e-08
-3.0044806558033524e-08
-2.6212427883875304e-08
-7.2376493127919246e-09
2.6317526103136878e-08
6.637940249714638e-08
9.698143827568739e-08
9.755160037545069e-08
5.0377472069263777e-08
-4.900493101740359e-08
-1.8192142620095583e-07
-3.023325365095188e-07
-3.436389301880586e-07
-2.395692243715599e-07
4.296990180035648e-08
4.683271318247822e-07
9.097746204747159e-07
1.1590981756928705e-06
9.819118557802838e-07
2.1797679493691464e-07
-1.0967928630900033e-06
-2.634175829427872e-06
-3.7657330484284668e-06
-3.6982583556828602e-06
-1.769049150728716e-06
2.1517532815335767e-06
7.287888022303919e-06
1.181359053544382e-05
1.3144199059440023e-05
8.76943664291407e-06
-2.4663022895511636e-06
-1.9008154777144285e-05
-3.5783815679212575e-05
-4.466163530142312e-05
-3.66823200748187e-05
-5.993875002413984e-06
4.546079647046319e-05
0.00010437688339032285
0.0001460495312999697
0.0001399316036854413
6.129638021756527e-05
-9.319887186795645e-05
-0.00029145407139478046
-0.00046117346748065575
-0.000502161020361523
-0.00031949673953780285
0.0001266422815993188
0.0007694192319050128
0.0014064528143158334
0.0017210379256201395
0.0013721365008159286
0.00014874671795917505
-0.0018500477695811428
-0.004083276101763061
-0.005577879131168864
-0.005158523620425662
-0.0019142798513442833
0.004185399879302981
0.011732917766818412
0.01767508396835582
0.01773461487873454
0.00757845288190668
-0.015458136016104884
-0.05065814129039654
-0.09304547405775257
0.0659359548924082
0.03607345002102893
0.025134571423915644
0.03607345002102911
0.06593595489240857
-0.09304547405775218
-0.050658141290396294
-0.015458136016104814
0.007578452881906565
0.01773461487873433
0.01767508396835562
0.01173291776681829
0.004185399879302957
-0.001914279851344234
-0.0051585236204255746
-0.0055778791311687755
-0.0040832761017629985
-0.0018500477695811124
0.0001487467179591807
0.0013721365008159158
0.0017210379256201193
0.0014064528143158139
0.0007694192319050007
0.00012664228159931513
-0.00031949673953779993
-0.0005021610203615168
-0.0004611734674806497
-0.00029145407139477656
-9.319887186795537e-05
6.129638021756389e-05
0.00013993160368543856
0.0001460495312999668
0.00010437688339032066
4.5460796470462136e-05
-5.993875002413903e-06
-3.66823200748179e-05
-4.466163530142213e-05
-3.5783815679211816e-05
-1.9008154777143953e-05
-2.466302289551211e-06
8.769436642913817e-06
1.3144199059439725e-05
1.181359053544359e-05
7.287888022303797e-06
2.151753281533558e-06
-1.7690491507286642e-06
-3.698258355682779e-06
-3.7657330484283922e-06
-2.634175829427823e-06
-1.0967928630899838e-06
2.1797679493690956e-07
9.819118557802664e-07
1.1590981756928517e-06
9.097746204747028e-07
4.6832713182477735e-07
4.296990180035913e-08
-2.3956922437155297e-07
-3.436389301880506e-07
-3.023325365095124e-07
-1.8192142620095223e-07
-4.90049310174029e-08
5.037747206926224e-08
9.755160037544822e-08
9.698143827568508e-08
6.637940249714492e-08
2.6317526103136322e-08
-7.2376493127917525e-09
-2.6212427883874715e-08
-3.004480655803285e-08
-2.3100968532644945e-08
-1.1503864967431772e-08
-5.787307997631688e-10
6.514488344979278e-09
8.971260575652189e-09
7.728289092299444e-09
4.531936270186335e-09
1.096307173789606e-09
-1.4194050166537332e-09
-2.5685872298297724e-09
-2.494768755044258e-09
-1.6701287738868826e-09
-6.275585598136777e-10
2.2780473228552284e-10
6.979909742984825e-10
7.778447594386972e-10
5.858196215296309e-10
2.8164445019364913e-10
1.35713501835962e-12
-1.7641471334819833e-10
-2.338872780121128e-10
-1.9732041583587587e-10
-1.1265363527489598e-10
-2.3953419920650782e-11
3.9639929327709975e-11
6.751717126875102e-11
6.410261552393513e-11
4.195327056558105e-11
1.4856425206452912e-11
-6.921411969107984e-12
-1.8542824364971247e-11
-2.011402167764189e-11
-1.4836118859435398e-11
-6.8703086493029154e-12
3.1230318646183634e-13
4.759634491973635e-12
6.089457002002563e-12
5.032038374295331e-12
2.79384961721082e-12
5.064658133387329e-13
-1.0987813222276832e-12
-1.7718573564544115e-12
-1.6452303951863136e-12
-1.0520858239267833e-12
-3.4871498395193133e-13
2.0507142539238337e-13
4.915253150641396e-13
5.19503961077188e-13
3.7521084200370385e-13
1.6690894833979453e-13
-1.6939966681792912e-14
-1.2798777902271692e-13
-1.5834398524279664e-13
-1.281776470142766e-13
-6.912297640910731e-14
-1.0204281290492288e-14
3.0256033424998506e-14
4.642046251977662e-14
4.2171463319137176e-14
2.633104185364236e-14
8.09572301469394e-15
-5.968705398022718e-15
-1.300840415421176e-14
-1.3408127331839303e-14
-9.481836550097472e-15
-4.0426259601969824e-15
6.577838718618688e-16
3.4250188043398354e-15
4.106164944323421e-15
3.254963130375679e-15
1.6996116277910754e-15
1.8371534265586435e-16
-8.34521183824616e-16
-1.2203570871045566e-15
-1.0857351388707352e-15
-6.637778281149069e-16
-1.9158925905148463e-16
1.651422005153035e-16
3.3758151351245123e-16
3.396410116411022e-16
2.332522945629215e-16
9.141880648827584e-17
-2.861470109488551e-17
-9.742493420033147e-17
-1.1236722609190823e-16
-8.8565493619192e-17
-4.76706017368177e-17
-8.712129612080341e-18
1.6872678606852248e-17
2.6016869953539253e-17
2.1906103877700945e-17
1.0689199343437116e-17
-1.5270169975341955e-18
-1.0566001544247791e-17
-1.4774504627680524e-17
-1.4611374217374095e-17
-1.1729424714320937e-17
-8.022908925460129e-18
-4.9499953823154904e-18
-3.239892008134373e-18
-2.933763315978086e-18
-3.623179891498666e-18
-4.738737594705924e-18
-5.780900409705538e-18
-6.444031600642016e-18
-6.6370173112983e-18
-6.4352524894239376e-18
-6.006389981860186e-18
-5.542184093052407e-18
-5.210977607124522e-18
-5.129467450416133e-18
-5.3445790815101565e-18
-5.81823723511714e-18
-6.416829539546461e-18
-6.917446156071073e-18
-7.047737509148179e-18
-6.570070584565512e-18
-5.40206038694042e-18
-3.738703177049407e-18
-2.116533223373415e-18
-1.3518902964456027e-18
-2.3073600906292396e-18
-5.4990823769813315e-18
-1.0644637533487943e-17
-1.6339607933500115e-17
-2.0097520089553245e-17
-1.8945364298360383e-17
-1.0604561954465653e-17
4.984258774201911e-18
2.4344387453251958e-17
4.0123829876005444e-17
4.2468686985512756e-17
2.2426601432084175e-17
-2.3118497367696606e-17
-8.652338500433307e-17
-1.4690724541280259e-16
-1.7275849341141116e-16
-1.312936724280305e-16
-3.8753715400466466e-18
1.9659219401635233e-16
4.1371490079086336e-16
5.501578654933999e-16
4.918505395875889e-16
1.544888374069518e-16
-4.576409065768439e-16
-1.2023537082792313e-15
-1.7895966652350123e-15
-1.8385652475106294e-15
-1.0126957306982942e-15
7.887912612954785e-16
3.244368279858006e-15
5.523535745613258e-15
6.400684274621692e-15
4.629763635092931e-15
-4.535051925797998e-16
-8.266583006094151e-15
-1.6543506517351924e-14
-2.1474485389073143e-14
-1.8687352197802133e-14
-5.07582618914088e-15
1.8934894344008086e-14
4.7547897735525063e-14
6.93334751299548e-14
6.959244200407167e-14
3.570246273786073e-14
-3.545596181734636e-14
-1.304464067218651e-13
-2.1628866980009975e-13
-2.4536821025888244e-13
-1.7040724997422526e-13
3.204039686858802e-14
3.3620201558353724e-13
6.512190853424629e-13
8.281462169263051e-13
6.996387723255809e-13
1.517438984608773e-13
-7.88951155575696e-13
-1.8868478945283773e-12
-2.692127260719001e-12
-2.6380885183909017e-12
-1.2525880929802266e-12
1.5543954490023292e-12
5.224601640555093e-12
8.450326273320217e-12
9.383881804660705e-12
6.2347488363538605e-12
-1.81484069709002e-12
-1.3642277299921386e-11
-2.5611561327642634e-11
-3.1906341213851104e-11
-2.6130775098626243e-11
-4.1251656829267884e-12
3.2686136511977635e-11
7.475552495285482e-11
1.0440238434244652e-10
9.980577398086599e-11
4.3355017121829305e-11
-6.722766461067718e-11
-2.0886493051751136e-10
-3.297803635028968e-10
-3.5835701111834685e-10
-2.2691548062027452e-10
9.264692473784975e-11
5.520351367344209e-10
1.0060133929409287e-09
1.2277127189565257e-09
9.730537021857526e-10
9.104386207062814e-11
-1.3477799264958729e-09
-2.957530803536742e-09
-4.044105189240301e-09
-3.7683513088988526e-09
-1.4754282162092946e-09
2.875496777775366e-09
8.334735577725249e-09
1.2855174171156519e-08
1.366414820129918e-08
8.208731257300314e-09
-4.458593130449191e-09
-2.2281148186546834e-08
-3.9467905312313845e-08
-4.7179876379097996e-08
-3.6117000127060115e-08
-8.33762964093124e-10
5.5339852434470704e-08
1.1684587405388574e-07
1.5646809244264574e-07
1.4197790898307042e-07
4.910783843211982e-08
-1.2186814924032921e-07
-3.320250250443711e-07
-5.005354014491417e-07
-5.201813339548051e-07
-2.948754069186305e-07
2.0652510961251777e-07
8.971746389334909e-07
1.5465543314556872e-06
1.8106835901028074e-06
1.335783345929137e-06
-7.306242019123838e-08
-2.2636394258032494e-06
-4.610131910142203e-06
-6.046643221355099e-06
-5.3370527822244994e-06
-1.5853958978526968e-06
5.125151276273358e-06
1.3204938776695296e-05
1.946684759216506e-05
1.976974021309516e-05
1.0505547761696417e-05
-9.313197464795284e-06
-3.604564146885946e-05
-6.053046710737026e-05
-6.93965120693029e-05
-4.920879917991194e-05
6.947500391039084e-06
9.227481832167493e-05
0.00018165406052758536
0.00023338938593707025
0.00020013503792868745
4.894882941305914e-05
-0.00021411306194648442
-0.0005243448611860333
-0.0007562374584381338
-0.0007500397456938414
-0.0003706123943944119
0.0004116863401272554
0.0014451562951913418
0.002366255667297795
0.0026557954426380697
0.0018044540159313424
-0.00043050266821113896
-0.003750868204313101
-0.007150467292746143
-0.009000027630102958
-0.0074882669002209615
-0.0014084435500954944
0.008896976397451345
0.020807704408267867
0.02939813331160719
0.02853221582957039
0.013193284474679748
-0.017382698822893443
-0.05685102023116207
-0.09075698244075589
-0.09898342001360247
-0.06249518496957307
0.02634305009667886
0.15268863449372116
0.2720584501801111
0.3123409538219458
0.18854652669269595
-0.17046928169513342
-0.590106125937765
-0.6249521255307657
-0.3535695324804441
-0.0007270013395165089
0.6161461496288877
1.0311363553022628
0.48590301966860067
-0.08423129506180771
-0.42816052617207656
-0.7302396869803487
-0.5549165270919141
-0.005548356471174138
0.29029521629814625
0.3692986423469991
0.3049328759952313
-0.02236883434636012
-0.14718040781215697
-0.02944910662537835
-0.054962203700030084
-0.02993238875826739
0.02667404998698803
0.09089973679269892
-0.05930555265360401
-0.03854978607254838
-0.050492050389173614
-0.08723569523310183
0.06785668311873151
0.03439613654639118
0.02787092321821185
0.05350904174683672
0.1032239340504158
-0.04312243563815666
-0.012216525637086048
-0.029015360301037706
-0.10818369869737776
-0.04799786670305957
-0.028847930190682724
-0.017141491468465664
0.02625073560118233
0.13537320596945387
0.1296220191749889
0.0083184044952854
-0.048844311237042796
-0.07588200352565738
-0.1114693659018876
0.010146469717393298
0.06584817009290456
0.047040098956336075
-0.03989502233166451
0.024713952460228606
-0.12959220239811517
-0.06858635148090883
0.039798113354545535
0.21796337459643175
0.07264476701605604
-0.007092224830746371
-0.04655152839621592
-0.07773128414790591
-0.13010004849904064
-0.0231570389616303
0.03688254277672221
0.05580325644235091
0.046835918453144845
0.025088125236591576
0.0030115983571792917
-0.011977772576721035
-0.01766680446396139
-0.015670067567241746
-0.009446502222177066
-0.0025114336395447323
0.002691940704571318
0.005163367065365084
0.0051269044318242975
0.003509983065437599
0.0013945632104696835
-0.00037796483780119756
-0.0013814147471436396
-0.0015855752265706883
-0.0012204023883518106
-0.0006088641142689065
-3.211699660746244e-05
0.000342790965978982
0.00047309647250116704
0.0004080098847919641
0.00023959281259110723
5.831462548281429e-05
-7.457239503452334e-05
-0.0001354020619257862
-0.0001316696502321857
-8.825003648901605e-05
-3.3258097249049944e-05
1.1908212506854599e-05
3.67734478154144e-05
4.1039779545157556e-05
3.094202439762664e-05
1.4904283332294861e-05
1.0905301079736065e-07
-9.286466766592151e-06
-1.2335619992233859e-05
-1.0418378121523163e-05
-5.9565502653944626e-06
-1.2759752988327883e-06
2.0834874586398996e-06
3.559465592549833e-06
3.3834425378504784e-06
2.217022709795987e-06
7.876597161731915e-07
-3.6236598064468933e-07
-9.770369513555358e-07
-1.061298219422919e-06
-7.836738913578796e-07
-3.6364081433210545e-07
1.552283640379366e-08
2.5059397304128516e-07
3.211910439483139e-07
2.657050358355838e-07
1.4774331705805652e-07
2.7034248188652864e-08
-5.7773026562483126e-08
-9.341878428916566e-08
-8.684289177004847e-08
-5.5602253307427374e-08
-1.8496896669920158e-08
1.074890339791486e-08
2.5902074934120054e-08
2.741315050390716e-08
1.9821151052827517e-08
8.836660879148186e-09
-8.691471536976773e-10
-6.739366288278262e-09
-8.352176326315723e-09
-6.768243397730862e-09
-3.655517642223638e-09
-5.460921945600034e-10
1.591647304268332e-09
2.4479620155425278e-09
2.2264489086810864e-09
1.3920257339837285e-09
4.299848913827707e-10
-3.128158662921752e-10
-6.852708020741991e-10
-7.072526743581516e-10
-5.006221382217042e-10
-2.1377230448734717e-10
3.438833751247032e-11
1.8068604499438115e-10
2.169117866447289e-10
1.721946204980805e-10
9.020568310357378e-11
1.0199680249437418e-11
-4.360374218982201e-11
-6.40505038443891e-11
-5.701539336335712e-11
-3.478516215394009e-11
-9.872338492783096e-12
8.969415219868012e-12
1.80944307883769e-11
1.8225877909273195e-11
1.2625756840831503e-11
5.1453100147093045e-12
-1.1922988215882419e-12
-4.830562557731506e-12
-5.626343026811515e-12
-4.37542953180233e-12
-2.219559922049257e-12
-1.6334429427024586e-13
1.1886362106320944e-12
1.6734380235390454e-12
1.4583687368318334e-12
8.675279135940366e-13
2.2316101557464216e-13
-2.5414396511078955e-13
-4.769065914871774e-13
-4.691473592787115e-13
-3.1794752998728614e-13
-1.2313521201440407e-13
3.852499779416167e-14
1.2879882928919072e-13
1.4575405987323473e-13
1.1103069669275176e-13
5.443590796971589e-14
1.649910451755765e-15
-3.2266104397683455e-14
-4.36664759102456e-14
-3.72654020396568e-14
-2.1596680968831394e-14
-4.949865135735653e-15
7.124929822407611e-15
1.2541603322256022e-14
1.205637062568122e-14
7.988083067270603e-15
2.9212549922608822e-15
-1.1974222262309128e-15
-3.43186142558806e-15
-3.777320203553325e-15
-2.819832287399798e-15
-1.3364960074655387e-15
1.701886799170535e-17
8.663336038090106e-16
1.1317967080135113e-15
9.450787260621067e-16
5.304979407337596e-16
1.0103549873823691e-16
-2.0392741273282652e-16
-3.3505301070488794e-16
-3.1536427825051707e-16
-2.0647696468727033e-16
-7.518110174248487e-17
2.9330493965743564e-17
8.43818268450423e-17
9.116534360055068e-17
6.557671213653561e-17
2.777050123487101e-17
-5.828434333521503e-18
-2.643002396453235e-17
-3.291482060186484e-17
-2.933021041004219e-17
-2.1499948842958624e-17
-1.4130419335801766e-17
-9.230231785311365e-18
-6.054681833022201e-18
-2.2992521385241676e-18
4.049328204772562e-18
1.2945176927301851e-17
2.133478948227852e-17
2.3596053317924556e-17
1.3574322088181045e-17
-1.2124766668356968e-17
-5.0587541765820867e-17
-9.036639554427563e-17
-1.1234004517699042e-16
-9.491032749126704e-17
-2.340018864205475e-17
9.858673735186181e-17
2.4030838578060434e-16
3.4332126139364363e-16
3.3426941576411386e-16
1.5244225834150564e-16
-2.1292567823605286e-16
-6.883452648923942e-16
-1.1033923928660462e-15
-1.2184501147483306e-15
-8.026541882066559e-16
2.4723801704498317e-16
1.7818854525616245e-15
3.326354347992105e-15
4.125194876529391e-15
3.3519264898335214e-15
4.751192503450545e-16
-4.3084484533772535e-15
-9.748090762146353e-15
-1.3543855945502415e-14
-1.2870960378867414e-14
-5.46726697987268e-15
8.92531334901237e-15
2.7270418744488786e-14
4.2821410333829047e-14
4.62926811655146e-14
2.8962079531220324e-14
-1.270360634667688e-14
-7.229559457402489e-14
-1.3085083439285445e-13
-1.5891046114681632e-13
-1.2494557325728974e-13
-9.693743706814104e-15
1.7722825810167825e-13
3.853014071795652e-13
5.242601945364655e-13
4.85507045753707e-13
1.8499071221855092e-13
-3.8112427302971373e-13
-1.0880076803861538e-12
-1.6690006678267808e-12
-1.7647084600978988e-12
-1.04628992100505e-12
6.047491827573858e-13
2.916068173035146e-12
5.1318532792564805e-12
6.104673854282682e-12
4.633650813870792e-12
2.524889677200418e-14
-7.270458270873258e-12
-1.5217806725738275e-11
-2.027842918447179e-11
-1.8282812201575923e-11
-6.11877259983643e-12
1.6121093926908266e-11
4.3324892692871095e-11
6.496730941601852e-11
6.715456294716743e-11
3.751635462469118e-11
-2.7813543643814444e-11
-1.1735591463723056e-10
-2.0103629396512426e-10
-2.3421296369504373e-10
-1.7122192989097335e-10
1.2712378565468704e-11
2.9714296295222247e-10
6.002283320685306e-10
7.834302341287085e-10
6.868793085014441e-10
1.9578042224172435e-10
-6.768516896221374e-10
-1.7224215170209697e-09
-2.5260313505325887e-09
-2.551206343759669e-09
-1.333712086257249e-09
1.2477315177593896e-09
4.712619864414686e-09
7.866170700565223e-09
8.973545995811592e-09
6.3013470493947266e-09
-1.0272991874623853e-09
-1.2103446843293063e-08
-2.3643731784817077e-08
-3.02302881422312e-08
-2.5741841696046534e-08
-5.962106847032015e-09
2.8236635537279357e-08
6.836985254568568e-08
9.810370670040373e-08
9.674869304772022e-08
4.692764487016765e-08
-5.493789386996343e-08
-1.8885493994585863e-07
-3.074303882804614e-07
-3.4332332938314274e-07
-2.3085356923086244e-07
6.066602736546687e-08
4.914952937212011e-07
9.301732601604408e-07
1.165066950292023e-06
9.621337019940455e-07
1.6725443693847933e-07
-1.1714234858171925e-06
-2.70981246566739e-06
-3.805684488465304e-06
-3.6621229981341864e-06
-1.6304720314821493e-06
2.3839391726573907e-06
7.553590622946344e-06
1.200132083430152e-05
1.3116182557716871e-05
8.414254259980653e-06
-3.1635073340486955e-06
-1.9902307515589436e-05
-3.6548575675722806e-05
-4.484501114944678e-05
-3.5856487391968504e-05
-3.980043477795445e-06
4.8359724813535704e-05
0.00010724600074145512
0.0001474575803944873
0.00013833662258374421
5.574135319774516e-05
-0.00010227485836687296
-0.000301621877679857
-0.00046805593682333846
-0.0005004594329863838
-0.0003050672153730836
0.00015407629841043837
0.0008038859678940611
0.0014350484455253575
0.0017262622472930442
0.0013378494746695974
6.891206865091687e-05
-0.001962523229590098
-0.004191908049477433
-0.00562690082270004
-0.005089176810297523
-0.0016920359211985464
0.004539759263758479
0.012121437149160893
0.017926112052727913
0.01764461851748076
0.006993811623317193
-0.016536458097694294
-0.05198534912248438
-0.09411204802532433
0.06580684759898031
0.03748961709952449
0.02829544107491817
0.04043528389639398
0.07004949548942103
-0.09134448437270887
-0.05359420354752922
-0.024249811245272646
-0.006090519414702406
0.003163196468678854
0.008954524888003359
0.01666242721513005
0.028307904140652172
0.040471805916845245
0.04439353078348416
0.028625460058982498
-0.01624001680519156
-0.09225093742904182
-0.19047473449678093
-0.09146102489052446
0.02896199896468281
0.18966508508288626
0.19372041411192553
0.22255261788131414
0.03878327981313054
-0.20165322904274133
-0.33197633541137617
-0.15864081680774647
-0.05409532084440616
0.038123936974455416
0.18744613040476252
0.255297124241459
0.07668465882368808
0.05059004807974602
-0.058174895052721484
-0.10720841202962955
-0.15956874296324564
-0.06745321352259828
-0.061340521215008215
0.053021836434496324
0.0902976632065052
0.07668643908578679
0.04017602075004783
0.003044688976784207
-0.02179381230950365
-0.030683303557714803
-0.026590891931217976
-0.0155623475349681
-0.003621074361641412
0.00513583711065937
0.009118075209350637
0.008818173156450077
0.005890760404133519
0.002207250820268758
-0.0008093599314728741
-0.0024649053080402924
-0.002743672296307452
-0.0020646023269679814
-0.0009912690658536935
-3.1426308041822215e-06
0.0006229819003442376
0.0008248426716722988
0.000695331609986271
0.00039654723154809957
8.383353229403294e-05
-0.000140177460797472
-0.0002382083763373939
-0.00022595731848795445
-0.0001477463854753159
-5.218811748214781e-05
2.454899868902889e-05
6.544863696154709e-05
7.09189386340481e-05
5.226592250832341e-05
2.416561520673386e-05
-1.14998076519578e-06
-1.680954234143511e-05
-2.1476310712793276e-05
-1.7732296991213475e-05
-9.833934178243442e-06
-1.7698635922734422e-06
3.884474949660534e-06
6.250916394165436e-06
5.79906136358544e-06
3.7048607057709444e-06
1.224509154079129e-06
-7.267385162092055e-07
-1.7347531174087463e-06
-1.831623043485474e-06
-1.3217698860948654e-06
-5.870046418205237e-07
6.09527668269447e-08
4.5193393690264234e-07
5.583984270789765e-07
4.5163984844617224e-07
2.4325679505294056e-07
3.555111522635959e-08
-1.0695806526503201e-07
-1.6377691467017888e-07
-1.486586091384386e-07
-9.273714612695939e-08
-2.8435672957806105e-08
2.1117327570029948e-08
4.588651499066209e-08
4.725036158718071e-08
3.337945912482292e-08
1.4194239115565112e-08
-2.3711175876088063e-09
-1.2113286793235613e-08
-1.4500305138174007e-08
-1.1489101346357594e-08
-6.001202708638569e-09
-6.574691434638033e-10
2.9287339339897642e-09
4.2846102191152264e-09
3.806475608397666e-09
2.3169856554091815e-09
6.520326878581849e-10
-6.047679737939238e-10
-1.2114125167339722e-09
-1.2175109076856305e-09
-8.41718818389746e-10
-3.4147131191382814e-10
8.153410516722481e-11
3.2376163850751853e-10
3.760713036231736e-10
2.9190108578679276e-10
1.4762116021020795e-10
1.0297630749152138e-11
-7.980335773657769e-11
-1.1192903929155055e-10
-9.735389283951116e-11
-5.77742211671419e-11
-1.47151618398756e-11
1.711853426719048e-11
3.192295378612815e-11
3.1335895916316484e-11
2.1193112755634162e-11
8.16682854069817e-12
-2.6220328588946258e-12
-8.630949434926891e-12
-9.741676906296486e-12
-7.406777120341694e-12
-3.619776273997691e-12
-9.485766561048064e-14
2.165072322582284e-12
2.9198914514079204e-12
2.486996803778796e-12
1.437577105175792e-12
3.2529376751195596e-13
-4.799276787607688e-13
-8.397706855064318e-13
-8.055973001832828e-13
-5.327705868169077e-13
-1.940129434231139e-13
8.082853224618954e-14
2.2952522644235303e-13
2.5203782337471123e-13
1.8768884823357567e-13
8.844482930249103e-14
-1.931835377869171e-15
-5.851604484728265e-14
-7.607406539288222e-14
-6.346366615412378e-14
-3.569677970617506e-14
-6.998215257175137e-15
1.33409177554882e-14
2.2048456696137455e-14
2.0681003361458534e-14
1.3365118207354366e-14
4.566708021277371e-15
-2.4261858220749866e-15
-6.096097779605711e-15
-6.519058565015194e-15
-4.7556574851692715e-15
-2.1587336180815136e-15
1.5580572613593236e-16
1.5699373591966674e-15
1.9733839955075742e-15
1.6115261335458383e-15
8.7826688597999e-16
1.3865640437142898e-16
-3.743434431833635e-16
-5.839915884885077e-16
-5.36323735076305e-16
-3.4070611289478083e-16
-1.1247346847771457e-16
6.522723875799738e-17
1.5554284168629105e-16
1.6240380361564401e-16
1.143203548009125e-16
4.646508469220464e-17
-1.2741589585473393e-17
-4.801381913352119e-17
-5.714302126527359e-17
-4.6883799027166486e-17
-2.7555854246238782e-17
-8.516720289856803e-18
4.402787014660892e-18
9.42153909562577e-18
7.876202668792179e-18
2.6593878939530013e-18
-3.25377850291295e-18
-7.763678331865495e-18
-9.979375819496404e-18
-1.0052531815735985e-17
-8.747206799991291e-18
-6.976696818356593e-18
-5.4639361790007115e-18
-4.585980681431423e-18
-4.383459813900797e-18
-4.671463781697373e-18
-5.180034900144565e-18
-5.6695820380985426e-18
-5.994438752058571e-18
-6.113790883490796e-18
-6.065895271844801e-18
-5.927110591573583e-18
-5.774093454908741e-18
-5.659785515008398e-18
-5.60561450028881e-18
-5.606386347294334e-18
-5.6416819928335116e-18
-5.687816107533086e-18
-5.726422355106151e-18
-5.748227021993114e-18
-5.752601428851435e-18
-5.7445829830171375e-18
-5.731223453305192e-18
-5.718650252817263e-18
-5.710495236127822e-18
-5.7076787167536205e-18
-5.70911833390011e-18
-5.712802064593117e-18
-5.716757052325545e-18
-5.719650409428027e-18
-5.7209698095211596e-18
-5.720881883544393e-18
-5.719930905318502e-18
-5.718730379583909e-18
-5.71774630983175e-18
-5.7172060580833956e-18
-5.717115091400066e-18
-5.717336770525406e-18
-5.717687147608804e-18
-5.718009700421939e-18
-5.718214067592155e-18
-5.7182799272544856e-18
-5.7182376111304206e-18
-5.71814004323056e-18
-5.718037939534477e-18
-5.7179648043861676e-18
-5.717932804155909e-18
-5.7179368100674296e-18
-5.717962349316826e-18
-5.7179935497587475e-18
-5.718018603167694e-18
-5.7180319548221e-18
-5.718033738937995e-18
-5.71802764749095e-18
-5.7180184723373984e-18
-5.718010207048692e-18
-5.718005094793413e-18
-5.718003571715551e-18
-5.718004794583783e-18
-5.718007373597301e-18
-5.718010006494728e-18
-5.718011852482399e-18
-5.718012624935968e-18
-5.718012477252252e-18
-5.718011793413508e-18
-5.718010983566943e-18
-5.7180103465210406e-18
-5.718010017459889e-18
-5.718009985882251e-18
-5.7180101523806785e-18
-5.718010392291086e-18
-5.718010603841951e-18
-5.718010731481708e-18
-5.7180107662263385e-18
-5.718010731358361e-18
-5.7180106633165075e-18
-5.71801059550143e-18
-5.718010548976303e-18
-5.71801053042987e-18
-5.7180105353698885e-18
-5.718010553630274e-18
-5.718010574624921e-18
-5.718010590802977e-18
-5.718010598888662e-18
-5.7180105993326674e-18
-5.718010594803034e-18
-5.7180105885388416e-18
-5.718010583130459e-18
-5.718010579950052e-18
-5.718010579171104e-18
-5.718010580154547e-18
-5.718010581946461e-18
-5.718010583691162e-18
-5.718010584861947e-18
-5.718010585304513e-18
-5.718010585148303e-18
-5.7180105846619346e-18
-5.718010584118324e-18
-5.718010583708006e-18
-5.718010583509974e-18
-5.718010583508017e-18
-5.718010583630732e-18
-5.718010583794068e-18
-5.7180105839321735e-18
-5.71801058401125e-18
-5.718010584028318e-18
-5.718010584000829e-18
-5.718010583953719e-18
-5.7180105839088844e-18
-5.718010583879469e-18
-5.718010583868983e-18
-5.718010583873745e-18
-5.7180105838866684e-18
-5.718010583900728e-18
-5.71801058391112e-18
-5.718010583915953e-18
-5.718010583915761e-18
-5.718010583912448e-18
-5.718010583908195e-18
-5.718010583904673e-18
-5.7180105839027114e-18
-5.7180105839023486e-18
-5.718010583903111e-18
-5.718010583904348e-18
-5.718010583905499e-18
-5.718010583906237e-18
-5.718010583906483e-18
-5.7180105839063414e-18
-5.7180105839059986e-18
-5.718010583905636e-18
-5.718010583905373e-18
-5.718010583905255e-18
-5.718010583905267e-18
-5.718010583905355e-18
-5.718010583905466e-18
-5.718010583905556e-18
-5.718010583905604e-18
-5.718010583905612e-18
-5.718010583905591e-18
-5.718010583905558e-18
-5.718010583905529e-18
-5.71801058390551e-18
-5.718010583905505e-18
-5.718010583905509e-18
-5.718010583905518e-18
-5.718010583905527e-18
-5.718010583905534e-18
-5.7180105839055364e-18
-5.7180105839055364e-18
-5.718010583905534e-18
-5.718010583905531e-18
-5.718010583905529e-18
-5.718010583905527e-18
-5.718010583905527e-18
-5.718010583905528e-18
-5.718010583905529e-18
-5.7180105839055295e-18
-5.71801058390553e-18
-5.71801058390553e-18
-5.71801058390553e-18
-5.7180105839055295e-18
-5.7180105839055295e-18
-5.7180105839055295e-18
-5.7180105839055295e-18
-5.7180105839055295e-18
-5.7180105839055295e-18
-5.7180105839055295e-18
-5.7180105839055295e-18
-5.7180105839055295e-18
-5.7180105839055295e-18
-5.7180105839055295e-18
-5.7180105839055295e-18
-5.7180105839055295e-18
-5.7180105839055295e-18
-5.7180105839055295e-18
-5.7180105839055295e-18
-5.7180105839055295e-18
-5.7180105839055295e-18
-5.7180105839055295e-18
-5.7180105839055295e-18
-5.7180105839055295e-18
-5.7180105839055295e-18
-5.7180105839055295e-18
-5.7180105839055295e-18
-5.7180105839055295e-18
-5.7180105839055295e-18
-5.7180105839055295e-18
-5.7180105839055295e-18
-5.7180105839055295e-18
-5.7180105839055295e-18
-5.7180105839055295e-18
-5.7180105839055295e-18
-5.7180105839055295e-18
-5.7180105839055295e-18
-5.7180105839055295e-18
-5.7180105839055295e-18
-5.7180105839055295e-18
-5.7180105839055295e-18
-5.7180105839055295e-18
-5.7180105839055295e-18
-5.7180105839055295e-18
-5.7180105839055295e-18
-5.7180105839055295e-18
-5.7180105839055295e-18
-5.7180105839055295e-18
-5.7180105839055295e-18
-5.7180105839055295e-18
-5.7180105839055295e-18
-5.7180105839055295e-18
-5.7180105839055295e-18
-5.7180105839055295e-18
-5.7180105839055295e-18
-5.7180105839055295e-18
-5.7180105839055295e-18
-5.7180105839055295e-18
-5.7180105839055295e-18
-5.7180105839055295e-18
-5.7180105839055295e-18
-5.7180105839055295e-18
-5.7180105839055295e-18
-5.7180105839055295e-18
-5.7180105839055295e-18
-5.7180105839055295e-18
-5.7180105839055295e-18
-5.7180105839055295e-18
-5.7180105839055295e-18
-5.7180105839055295e-18
-5.7180105839055295e-18
-5.7180105839055295e-18
-5.7180105839055295e-18
-5.7180105839055295e-18
-5.7180105839055295e-18
-5.7180105839055295e-18
-5.7180105839055295e-18
-5.7180105839055295e-18
-5.7180105839055295e-18
-5.7180105839055295e-18
-5.7180105839055295e-18
-5.7180105839055295e-18
-5.7180105839055295e-18
-5.7180105839055295e-18
-5.7180105839055295e-18
-5.7180105839055295e-18
-5.7180105839055295e-18
-5.7180105839055295e-18
-5.7180105839055295e-18
-5.7180105839055295e-18
-5.7180105839055295e-18
-5.7180105839055295e-18
-5.7180105839055295e-18
-5.7180105839055295e-18
-5.7180105839055295e-18
-5.7180105839055295e-18
-5.7180105839055295e-18
-5.7180105839055295e-18
-5.7180105839055295e-18
-5.7180105839055295e-18
-5.7180105839055295e-18
-5.7180105839055295e-18
-5.7180105839055295e-18
-5.7180105839055295e-18
-5.7180105839055295e-18
-5.7180105839055295e-18
-5.7180105839055295e-18
-5.7180105839055295e-18
-5.7180105839055295e-18
-5.7180105839055295e-18
-5.7180105839055295e-18
-5.7180105839055295e-18
-5.7180105839055295e-18
-5.7180105839055295e-18
-5.7180105839055295e-18
-5.7180105839055295e-18
-5.7180105839055295e-18
-5.7180105839055295e-18
-5.7180105839055295e-18
-5.7180105839055295e-18
-5.7180105839055295e-18
-5.7180105839055295e-18
-5.7180105839055295e-18
-5.7180105839055295e-18
-5.7180105839055295e-18
-5.7180105839055295e-18
-5.7180105839055295e-18
-5.7180105839055295e-18
-5.7180105839055295e-18
-5.7180105839055295e-18
-5.7180105839055295e-18
-5.7180105839055295e-18
-5.7180105839055295e-18
-5.7180105839055295e-18
-5.7180105839055295e-18
-5.7180105839055295e-18
-5.7180105839055295e-18
-5.7180105839055295e-18
-5.7180105839055295e-18
-5.7180105839055295e-18
-5.7180105839055295e-18
-5.7180105839055295e-18
-5.7180105839055295e-18
-5.7180105839055295e-18
-5.7180105839055295e-18
-5.7180105839055295e-18
-5.7180105839055295e-18
-5.7180105839055295e-18
-5.7180105839055295e-18
-5.7180105839055295e-18
-5.7180105839055295e-18
-5.7180105839055295e-18
-5.7180105839055295e-18
-5.7180105839055295e-18
-5.7180105839055295e-18
-5.7180105839055295e-18
-5.7180105839055295e-18
-5.7180105839055295e-18
-5.7180105839055295e-18
-5.7180105839055295e-18
-5.7180105839055295e-18
-5.7180105839055295e-18
-5.7180105839055295e-18
-5.7180105839055295e-18
-5.7180105839055295e-18
-5.7180105839055295e-18
-5.7180105839055295e-18
-5.7180105839055295e-18
-5.7180105839055295e-18
-5.7180105839055295e-18
-5.7180105839055295e-18
-5.7180105839055295e-18
-5.7180105839055295e-18
-5.7180105839055295e-18
-5.7180105839055295e-18
-5.7180105839055295e-18
-5.7180105839055295e-18
-5.7180105839055295e-18
-5.7180105839055295e-18
-5.7180105839055295e-18
-5.7180105839055295e-18
-5.7180105839055295e-18
-5.7180105839055295e-18
-5.7180105839055295e-18
-5.7180105839055295e-18
-5.7180105839055295e-18
-5.7180105839055295e-18
-5.7180105839055295e-18
-5.7180105839055295e-18
-5.7180105839055295e-18
-5.7180105839055295e-18
-5.7180105839055295e-18
-5.7180105839055295e-18
-5.7180105839055295e-18
-5.7180105839055295e-18
-5.7180105839055295e-18
-5.7180105839055295e-18
-5.7180105839055295e-18
-5.7180105839055295e-18
-5.7180105839055295e-18
-5.7180105839055295e-18
-5.7180105839055295e-18
-5.7180105839055295e-18
-5.7180105839055295e-18
-5.7180105839055295e-18
-5.7180105839055295e-18
-5.7180105839055295e-18
-5.7180105839055295e-18
-5.7180105839055295e-18
-5.7180105839055295e-18
-5.7180105839055295e-18
-5.7180105839055295e-18
-5.7180105839055295e-18
-5.7180105839055295e-18
-5.7180105839055295e-18
-5.7180105839055295e-18
-5.7180105839055295e-18
-5.7180105839055295e-18
-5.7180105839055295e-18
-5.7180105839055295e-18
