0
-8.936504491828995e-05
-8.93650450281645e-05
-8.936504498197974e-05
-8.936504471191471e-05
-8.93650442211154e-05
-8.936504362333576e-05
-8.936504315107795e-05
-8.936504310993607e-05
-8.936504377041865e-05
-8.93650452142723e-05
-8.936504718463208e-05
-8.93650490160688e-05
-8.936504972538139e-05
-8.936504831169184e-05
-8.936504423943626e-05
-8.936503797238326e-05
-8.936503132512385e-05
-8.936502735286663e-05
-8.93650295658675e-05
-8.93650404636343e-05
-8.936505971645358e-05
-8.93650826857119e-05
-8.9365100208871e-05
-8.936510048910968e-05
-8.936507337999567e-05
-8.936501634377176e-05
-8.936494011832023e-05
-8.936487113092878e-05
-8.936484758105232e-05
-8.936490744784692e-05
-8.9365069645472e-05
-8.936531363592835e-05
-8.936556665130767e-05
-8.936570923930357e-05
-8.936560703444243e-05
-8.936516831980568e-05
-8.936441398136428e-05
-8.936353257319372e-05
-8.93628847143083e-05
-8.936292524077485e-05
-8.936403374059703e-05
-8.936628380942895e-05
-8.936922917383386e-05
-8.937182187494155e-05
-8.937257948505766e-05
-8.937006349623586e-05
-8.936361373594223e-05
-8.935412548226925e-05
-8.934451108611334e-05
-8.93394354824445e-05
-8.934403447832238e-05
-8.936165704108858e-05
-8.939117772825912e-05
-8.94249542402174e-05
-8.944881110072749e-05
-8.944523353519927e-05
-8.940006084278908e-05
-8.93114118596454e-05
-8.919773945506785e-05
-8.910053911983489e-05
-8.907727387375153e-05
-8.918232347706592e-05
-8.94383954609663e-05
-8.980695089345416e-05
-9.017164773121391e-05
-9.035051698985282e-05
-9.014754850936082e-05
-8.944113844756942e-05
-8.828720563302844e-05
-8.699467339514015e-05
-8.612007809830556e-05
-8.633702002629158e-05
-8.817214825204319e-05
-9.166032321104593e-05
-9.604198745924768e-05
-9.967638482225587e-05
-0.00010033868021619399
-9.59773818137855e-05
-8.58259676036559e-05
-7.152647734570247e-05
-5.771828799407492e-05
-5.14914889294317e-05
-6.031522224106836e-05
-8.857676295543628e-05
-0.00013363057605632865
-0.0001830200268193127
-0.00021492158943351778
-0.00020346309470308286
-0.00012912416245899623
7.956790048009425e-06
0.000176639739192461
0.000312134327885164
0.0003283966897254551
0.00014819517464621259
-0.0002537163622726119
-0.0008079855916863293
-0.0013299324507250576
-0.0015436154930097762
-0.0011648213161177515
-3.625300956923151e-05
0.001721456551277664
0.0036082278739233064
0.004771407394285125
0.004222497701576687
0.0012473569267330974
-0.004079851991399403
-0.0104722796442983
-0.01535807396081107
-0.015404102294023586
-0.007733063260605425
0.008343205048765998
0.029589490453886987
0.047895008648137054
0.050907218387769806
0.024678081787747504
-0.04205442570285813
-0.15335047340557753
-0.10346821952435856
-0.07815948183184827
0.13960847850176383
0.16128847195333937
0.18548351595578
-0.004238378198540346
-0.03436903826824354
-0.13045690808111207
-0.10404933581909472
-0.14268631349705554
-0.007136760821937601
-0.03765550167966545
0.031922003503920625
0.0560222462872547
0.26049919985192455
0.23279384033046174
0.12337729435816625
-0.14051609079548494
-0.2324700520792947
-0.4035360090021683
-0.2671454250865403
0.0010919618319367435
0.24808879105772233
0.5188686036107322
0.4340514740382874
-0.020215309802274865
-0.28520600349762454
-0.4093128210052985
-0.4249836208949954
-0.13444569235970757
0.28922448814990653
0.48731676315518807
0.295525890821055
-0.07080852672582358
-0.2198650046567372
-0.17539111647846573
-0.1634578770325297
-0.0008396311053238896
0.11068773384029443
0.18378851590181824
0.04127727454135171
-0.08883467677220504
-0.17738942911298605
0.0023516106325210803
0.07042668351428946
0.03486299434426567
0.0865328390327134
-0.0038678309175074763
-0.08522330885245219
-0.021407351868698556
0.11678643199856485
0.06245795456443926
0.16550353895572212
0.0064584333081764205
-0.39141884824313206
-0.3564574430258803
-0.17447580659906264
0.0911142665179134
0.3680436561829343
0.5418931660623388
0.23275033002188306
-0.008834643490942014
-0.28460672302676787
-0.5167066028862859
-0.4132721489616947
0.15666234552204597
1.3730175806115736
-1.339345942974575
-0.12349104217097515
0.4916635859455387
0.17031114862842908
-1.051272837780361
1.6196837762301426
0.3284262629258997
-0.41557941869834325
-0.71229450717571
-0.43923364952387917
-0.22801881635506618
0.14009788635147336
0.5193069509087993
0.7746504744706255
-0.038152555967839584
-0.07799173412110878
-0.3076040840124098
-0.6752403803896874
-0.501864349085225
0.31567075414848317
0.4836058075350787
0.4806320147845144
0.5316208950204345
-0.20240236286365565
-0.8150121620466872
-0.6329999174183114
0.0049754351898551935
0.7611741987978975
0.7041180517610895
0.31547177512121793
-0.2932452357944827
-0.9550325429231807
-1.0245882422321813
0.02614313039730324
1.1856726897238534
0.8597394423922019
0.22395410376007444
-1.2117232032527252
-1.0220833642631941
-0.4757083956231363
1.0600588137958216
3.524302837154585
-0.6043017403949994
-0.23241157780452787
-1.344274916666197
-1.899204855050177
-3.7858417011825702
1.5277186665781746
1.2453320377724362
2.4394672018816292
2.6702361290577814
3.3047149692366347
-3.0209262850442493
-2.411930951190201
-2.068945449490774
-2.0818461623977402
-2.1420376579344516
3.7989688537834585
2.356411727873101
0.8989927362018157
0.3773820360129945
0.24798294548177782
-0.6994457624725238
-1.4393656677686928
-1.1812472774713523
-0.46120773653016606
-0.0856878014139085
1.2674211580685324
1.4092828151956125
0.39397102475149687
-0.3071041762952252
-1.001193865267701
-0.9523555775399365
-0.16438425831719636
0.6129744455144663
0.250499790879901
0.189115775626944
-0.010421178006286051
-0.10306418787087021
0.6283972573184226
0.3877882914325153
0.10518506637245637
-0.5054349814944261
-0.885084880031072
-1.1851057300470051
-0.2567468975545977
0.7193596165718615
1.5767860112487808
1.3085315266907982
0.24467834287225168
-0.7218040103540733
-1.2710067366620799
-1.7858401740467265
-0.5137804642529513
0.6150691154049325
1.3164348461254383
1.2561235892514813
0.9711138175030166
-0.3601277731659667
-1.0893506958188839
-0.8293007767298456
-0.5757526406288382
-0.05131076362020239
0.7134242666526991
0.36407536622118697
-0.012840050221423836
0.07251270312767868
0.08530228614153429
-0.3479983903317263
0.15941332422333196
0.16377735885624514
0.007035277984031376
0.03778106013468941
0.4338373090787278
-0.5785630421816278
-0.7165399217326096
-0.6521022803780216
-0.4493095054867542
0.37659366143268797
2.1958780400889015
2.6262122668275873
-1.652136448740104
-1.0193877087752692
-1.0000271887232703
-1.152409446851241
-1.6092610619549388
1.9071576193757374
0.8017417411790204
0.287157052460086
0.2707851053557249
0.6832094475972394
1.06632786576695
-0.5790406804343088
-1.102774425709916
-1.1030435253286885
-1.0488967703900327
-0.4573153054234432
1.2666036944872865
1.143287046488127
0.7217230905601298
0.21021441630245122
-0.14044570514829638
0.0017370545364579278
-0.47165733531254256
-0.6177779208878185
-0.5656252630165792
-0.27669533493854054
-0.5549729892356179
0.49604173323959555
0.7857254193097586
0.9447846925707971
0.25864774701356247
0.24677634671657536
-0.30680908880105556
-0.4836152618288381
-0.7452544001999386
-0.4598595544771276
-0.2622227643341732
0.14258889217068652
0.33694373523787824
0.7265266884222015
0.4768777272352939
0.07070194550213468
-0.10316777562645683
-0.33053703559439923
-0.5339497501615181
-0.2321140427630667
0.08970933024717398
0.19190740094894232
0.27710218331271214
0.1783069285872076
-0.05360534448050266
-0.15876935433013287
-0.27380406211638675
-0.1371657086920733
0.10259270472539732
0.2757024768544094
0.18100608203385524
0.18233795806055594
0.015512686894331149
-0.1942556874801294
-0.30945166622157466
-0.1598184220042851
-0.13204440340062645
0.026325883749390794
0.18996231341274758
0.23179285706051583
0.20043816651551624
0.10668879765548886
-0.07691057709153003
-0.20424970539758153
-0.13677726829881093
-0.12465095175190705
0.005989734184622181
0.05661200017515337
0.05125149118430517
0.0258724584489402
0.016052386356464658
0.04650689456073873
0.12495087340323102
0.04161729168486538
-0.02559889469689807
-0.10204705862917071
-0.2065269962251521
-0.14470299955777355
0.0913740247897637
0.11735888346134951
0.14713038867796083
0.18440154855711807
0.01960590378958877
-0.1663572607828851
-0.19334478905019511
-0.07245209009461107
-0.00024367540767095895
0.04087802692332469
0.07679608937769572
0.13320033502657014
0.02806336698593726
-0.03228489387004803
-0.052684180891811504
-0.04532562122858257
-0.024666755510474064
-0.003071331011789435
0.011677701507228891
0.016837799726551618
0.013685991852450122
0.0058198882791208875
-0.002532999171328788
-0.007812804330784118
-0.007943306280327429
-0.002743385088789331
0.005985934898550856
0.014722526812643421
0.018959145981425035
0.01453295932294174
-0.0005156230036745316
-0.023952109078652476
-0.04797914974664751
-0.05941985861970345
-0.04216623831956833
0.01811218788184215
0.12809654586021785
0.0819030940688589
0.0595511206464378
0.03039272807513046
-0.03875037029526872
-0.17307777244701725
-0.18069472073778245
-0.048694165865828726
0.05345165773464191
0.16402795557916286
0.11642520325449551
0.12862118899861297
-0.0012768968805315368
-0.09217965565748339
-0.17165008041509455
-0.06586423676578801
0.008104941435527459
0.04531736588072968
0.05131742221335193
0.03761615036713919
0.01665309734303637
-0.0019593385072454632
-0.013128030463970349
-0.01606509987122915
-0.012882146221661863
-0.006835395824710361
-0.0008777016486951467
0.003154319507582552
0.004703089008634201
0.004193205178436768
0.00253727765853806
0.0006713166845394019
-0.0007462694929783258
-0.0014383540073281494
-0.0014556569267355878
-0.001040617187303866
-0.00048142742610280065
-5.383531984454236e-06
0.00026962031486009794
0.00033167366964835965
0.00023964062455853456
7.881269359371056e-05
-7.539223126258458e-05
-0.00017732042080756085
-0.00021438687198204172
-0.00019885471477484995
-0.00015488544991856874
-0.00010663478929381228
-7.072203115324188e-05
-5.381500268532734e-05
-5.4205047498533786e-05
-6.541581623309752e-05
-7.997392514782668e-05
-9.210647686167711e-05
-9.891838931317813e-05
-0.00010024031396177956
-9.76819928471311e-05
-9.347699386450859e-05
-8.955475917202444e-05
-8.704558637760938e-05
-8.621482960772828e-05
-8.669154228941188e-05
-8.781554754678001e-05
-8.895465767114823e-05
-8.970586714199934e-05
-8.995866911951829e-05
-8.984497653379204e-05
-8.962225009651082e-05
-8.953868848725201e-05
-8.972065238309525e-05
-9.011076658626013e-05
-9.047389297265276e-05
-9.047625845324643e-05
-8.982707026424153e-05
-8.845014882949549e-05
-8.662874889582933e-05
-8.504961776635667e-05
-8.467670263999793e-05
-8.642367116396544e-05
-9.067080784184261e-05
-9.677162319622458e-05
-0.00010278256394953284
-0.00010567504173005463
-0.00010220304292504452
-9.037856388058706e-05
-7.118101502215111e-05
-4.979502818187273e-05
-3.5494026199917835e-05
-3.9441680169184996e-05
-7.028655797887128e-05
-0.00012844006000850523
-0.00020109305052693697
-0.0002608555220918821
-0.0002707923743855696
-0.00019708600078382734
-2.7512240690050142e-05
0.00021000112119489198
0.00043783107366162554
0.0005380668552915978
0.0003872315499047985
-8.60999661696081e-05
-0.0008358900064499206
-0.0016531407962221988
-0.0021742788288330495
-0.001970537926209778
-0.0007212574859512592
0.0015656856470456456
0.004367721821740639
0.006607540399920738
0.006863923780510451
0.0038753494927905004
-0.002742082320460296
-0.011793045905433156
-0.02017670970460939
-0.0233235416804355
-0.016642437282734235
0.002110018165397384
0.030100126910145707
0.057344466387763485
0.06651280002866468
0.03554308066022203
-0.056849108230786476
-0.023909984021343797
-0.06408184651642937
-0.15742055890828646
-0.06737837049082827
0.05132340311343413
0.040155686463523015
0.12318286241028902
0.2972856603552156
0.13070177853367262
-0.027947389184505983
-0.23188704071919541
-0.31558896296432554
-0.27958681372684696
-0.08778316319068427
0.1203580669420618
0.406705267085716
0.40958927593292244
0.1276826259667409
-0.08035417644609488
-0.2803745203661339
-0.3382894472426935
-0.29712554381397865
0.03531265214081481
0.28449427412081413
0.29586199490121295
0.11754396189314217
-0.013459369460829783
-0.27788769345499065
-0.2747076021918818
-0.01928391867052428
0.2578101730259131
0.3118421479323782
0.28843027099580665
-0.06499870360790123
-0.38125564330784234
-0.454868764396337
-0.23219136449007555
-0.017647214888310076
0.3027480720269342
0.4272795980616999
0.2056845440779561
0.019343128032716005
-0.01862046583063167
-0.043406862163653796
-0.004656222388937614
-0.02758339298885728
-0.37886846081175757
-0.4462980284534106
-0.13882244073944686
0.09105693602244244
0.40764795634299394
0.5470486073688606
0.3816341484852534
-0.09406679737709396
-0.35242786744782406
-0.3026917918013462
-0.05425833287774886
-0.08629300248346047
-0.2324527340295365
-0.08364473112945361
-0.006395349808511011
0.2300197000442051
0.6279822030533433
0.7490342476666385
0.12302746538298556
-0.7209633805390586
-1.0135702981309462
-0.914408744394591
-0.3114114811297085
0.5426962164384259
1.3690067927026757
1.4043886253300446
0.77831825060127
-0.45729074201755937
-1.652521572564973
-1.670587600375684
-1.0291877131825595
-0.10501742084081817
1.3940385712439876
2.1170457687515243
1.1668115764393212
0.051002069199956125
-0.6914432156831122
-1.4015729415320795
-1.1882390387898338
-0.43772113482712344
0.2231935457226645
0.5039278938082352
0.5838680532883354
0.834025923606423
1.5576393258751797
-1.4306548723846801
-0.7859192101394717
-0.5913725931058913
-0.5198633016531902
-0.8178150059443937
2.2858126833741
1.560934680936871
0.5722172277334212
-1.0945063339868406
-1.7824450412175807
-1.722080696951295
-1.2360468451546733
0.18824520344929332
2.3722175195361532
3.1155735563772615
3.1280788369659147
-1.125281999205313
-2.4615665723310958
-2.753217776257884
-2.5288735304505736
-2.088751314272321
2.0230172276202363
3.010680343371046
1.5601081017631029
1.0109953531208757
1.0473076949131803
0.33966411404441416
0.523111614787743
-3.7466446912779467
-2.340473708096912
-1.8921596264594018
-0.5850974077113146
-0.30051547815865004
4.720637687432088
3.3952113096837
2.399888375835425
-2.2678448073510133
-1.9596052074754928
-1.5338786774833433
-1.4948640001578204
-1.3984288942416525
2.2262775649465483
0.43605730604060705
-0.4557120945179087
-0.25291157507333056
-0.05468117657136847
0.993944405556765
1.40584219034883
1.9342229717935633
0.04721759449616509
-1.115227188694858
-2.5428375324679164
-2.579155837248106
-1.433004316857447
0.9871455379910044
2.729524447490914
2.8069447556617675
2.037958279798997
-0.8146138831842372
-2.391936529131623
-2.6120881576070394
-1.3363486397027573
0.5097610881060914
2.1375889406931257
2.2404438871574435
0.5298945507134469
-1.0961306282881111
-1.5435900997738459
-1.4937012665446139
-0.5916363298571139
0.5235782157146922
1.7524994074827427
1.4636869330608022
1.2593239434765384
0.00815063147056242
-1.2537436333013248
-1.986989699980587
-1.6317864894385925
-0.9618020932839986
0.26380873028633683
1.5619839860262834
2.148803907273397
1.7901261573197722
1.3378372518439845
-1.8227340753070587
-2.0330518310876027
-1.5849091492764658
-0.7746450658032997
0.5629194410577207
0.42855131036837896
1.3639521826915006
0.7312757893768222
0.20948208098330748
-1.265012186107587
1.2935180300387346
-0.24605336507485318
-0.4726332248397657
-0.7673581165198202
-0.45021314568037546
0.046166870860007016
0.3698643979602874
0.41680218580731815
0.2871306673825211
0.24794624291290454
-0.08588000525874412
-0.1495576520264363
-0.20963790554397005
-0.13803811281848372
-0.18869727221927426
0.01608954659472258
0.0870769506541428
0.059027688054439705
0.17602781599999381
0.07684399419952787
-0.015141468656408842
-0.09532031712445409
0.024894836421844736
-0.07533373729343837
-0.018564707909363702
-0.022407323783888905
0.10496897761075516
-0.0330781814834729
-0.02168417126616545
-0.03632768871287267
-0.046510338324851706
-0.021278033775403684
0.06390619659300024
0.020237381277753118
0.04054129853935784
0.09818454435045877
0.1513536956723963
-0.047131458741673134
-0.13614290081603
-0.13238699984584965
-0.22125478219726166
-0.15665318205696116
0.12861948424626454
0.30440578139170016
0.22273700017571918
0.10281692095995464
-0.07323706398441396
-0.1531527505352654
-0.19962417960781664
-0.07402108839287957
-0.024251033850439037
0.12053844703008028
0.14911459681692454
0.06408360938771876
-0.12233035903809104
0.008886895378817736
-0.11832674338320011
-0.0774821468983056
-0.04347324234697353
0.20236656442262624
0.26828893343450555
0.15232895272384378
-0.15137123975252356
-0.2414520742013598
-0.2985347220835229
-0.2814435165039324
0.0649462459419349
0.39090479091650115
0.3186768465970911
0.22486785512982968
0.036943713398841456
-0.1531646370027058
-0.26227092393198786
-0.1848817559307593
-0.16801856564342957
0.0005105946532262134
-0.012363383523347031
0.09666426219707835
0.24104613364316288
0.11790524095020324
-0.011809011107915733
0.06770052125113703
-0.07034832184252567
-0.08360818944329837
-0.04396435595914882
-0.020519242646070766
-0.06595574394592942
-0.00861676331595681
-0.05111132638588808
0.0251125798858386
0.05095291584116233
0.059187305428367885
0.075283339519035
0.1119966005137779
-0.030939591471785644
-0.16249851067040044
-0.09364767350740495
-0.03135170397802509
0.024242075789440088
0.07884816439628548
0.14069717838699367
0.017098054000260952
-0.08734223809278896
-0.17065692391519854
-0.03288887211954281
0.12362925373864783
0.09283879896761878
0.06369579775474973
0.020912265449156222
-0.05153075948125349
-0.1651467400873153
-0.1223976592828547
0.08472206971825014
0.07198446093193939
0.05724450995759633
0.05436686878109959
0.06932749303136482
-0.10021058307509796
-0.06221414636892651
-0.026118032722186012
0.0008609555029645756
0.01563227260175426
0.019153603742951057
0.015006921167423283
0.00755647142912642
0.0004438935406064451
-0.004202385807465818
-0.0058341106482249884
-0.005054395656698369
-0.002998577325625657
-0.000781846782543431
0.000841675472725744
0.0015812416545863837
0.0015295324754859053
0.0009925622408748591
0.00031563881826079135
-0.00023891255255467544
-0.000543170971783091
-0.0005942003122816749
-0.00046908912027521975
-0.00027153449573655064
-8.973918471407832e-05
2.5400353812634173e-05
6.246349965833003e-05
3.8569086721336454e-05
-1.6443750655466136e-05
-7.399155855422699e-05
-0.00011519825019074538
-0.00013321588993231578
-0.0001309425148115733
-0.00011653910475116806
-9.895189688787135e-05
-8.483432686884907e-05
-7.731437722293094e-05
-7.631395229304188e-05
-7.975068761326755e-05
-8.492335496181982e-05
-8.958143560844474e-05
-9.246134369215587e-05
-9.331798230939881e-05
-9.262714724398829e-05
-9.117246375019378e-05
-8.968805551116083e-05
-8.864787556538664e-05
-8.821348930090123e-05
-8.829836060354303e-05
-8.868578928958144e-05
-8.91440411843269e-05
-8.950387542599133e-05
-8.968822496172523e-05
-8.970248279398172e-05
-8.960298255829695e-05
-8.946148759196148e-05
-8.933803531207952e-05
-8.926717063978832e-05
-8.925648489500037e-05
-8.929301573556326e-05
-8.93525561597923e-05
-8.940835850487896e-05
-8.943780522181767e-05
-8.942721123817514e-05
-8.937539314911204e-05
-8.929599718301817e-05
-8.921739086824193e-05
-8.917808541632301e-05
-8.921603703161034e-05
-8.935223700005848e-05
-8.957246373864781e-05
-8.981476419440611e-05
-8.997225449814017e-05
-8.991910388889025e-05
-8.956075828902505e-05
-8.88980344171965e-05
-8.808170487237705e-05
-8.742516302138929e-05
-8.734450701584054e-05
-8.82133214952188e-05
-9.015410665272206e-05
-9.283230896826538e-05
-9.535595406008271e-05
-9.639165812707643e-05
-9.456547280170865e-05
-8.91163794458045e-05
-8.062704692996095e-05
-7.15165765243872e-05
-6.591424692599336e-05
-6.861718407270545e-05
-8.311390667010033e-05
-0.0001091055792843538
-0.0001404549985663973
-0.00016482236699198627
-0.0001661464329117465
-0.0001303998162331793
-5.368268168143334e-05
4.997661759813566e-05
0.00014512818792619195
0.00017993605681959797
0.00010221114415465658
-0.00011507623324348137
-0.00044587446519009214
-0.0007930791491285172
-0.0009951388609760032
-0.000868236538535679
-0.00028388476235219394
0.0007357928204661701
0.0019418578183523002
0.0028501734885189737
0.0028444962504984937
0.0014051156465496666
-0.0015766784742944299
-0.005503751898404641
-0.008955918696522116
-0.00991492354350799
-0.006427950164855241
0.0023448113109706225
0.014957207429457135
0.02682202277928447
0.03017709029309714
0.015212291299376093
-0.027721996112439095
-0.10546729905629934
-0.020020102023561318
0.03196676832862073
0.057980017748232436
0.06755756894702042
0.07061714331601726
-0.12293944662691807
-0.1026196607331359
-0.05703102436575276
0.02477882156265941
0.15012834104178874
0.11902147425666318
-0.07790011716040539
-0.05837713640442636
-0.04478878808662746
-0.05921081069528912
0.08107625816251945
0.166876915065181
-0.0006921421133541876
-0.20892679624473245
-0.23409577368760548
-0.04551035609731092
0.1861369505080607
0.2781376337300546
0.2274863143737637
0.00984229983167844
-0.2123703814424694
-0.2754993183676959
-0.2001314351682809
0.017027590410821532
0.20163717508758403
0.1920280137820163
0.026130407760384562
-0.06985396065975769
-0.08814027495122392
-0.04125989417962445
0.03954750798727074
0.10842348662633153
0.11140721561931237
-0.00427629237172972
-0.07862585645276988
-0.12708861758951043
-0.13208180862958668
-0.04132082568206025
0.025129288473699517
-0.04025562570426316
0.0475669699258209
0.14625648050860662
0.2716498470756397
0.19364838408534835
0.04491973818145385
-0.259157222068669
-0.3955845116565608
-0.41324815994462244
-0.1254380403230413
0.2812654980515558
0.6261993600838831
0.5127645442343824
-0.08268656628151463
-0.4051416814827958
-0.5016412286477846
-0.19876710564040942
0.11219135274196942
0.47715800100954586
0.17041598114856668
-0.1188336162537818
-0.2995082134155031
-0.2904137846872536
-0.03266031505988195
0.49652844775709243
0.27181613555690515
0.015789803833143663
0.008278721860492506
-0.09050982630005672
-0.2079075343155679
0.17412795449471918
-0.155781506163334
-0.3280981872131573
-0.6019748473861132
-0.19679594704484948
0.25784655276756474
1.0652728110425158
0.8166810458242989
0.5774988108148672
-0.48454313622852674
-1.036093289307518
-1.5023544909772628
-0.007662459092870077
0.6472438259799085
1.1700856330769605
0.7406937338868386
-0.22465677497313982
-1.0959453108305128
-1.0430419017981225
-0.4543568413188697
0.4291559068518366
1.8697494674483035
1.3997240836798803
0.02495579211502994
-0.9229015995486514
-1.0988210505420417
-1.4564768773663788
-1.2000448901144813
0.19916313613272846
1.3243279899940887
1.9055323139534472
1.932643365055183
0.6334080207278472
-1.2660979921864277
-2.4207183605878
-2.1392645563347576
-1.312874402425754
0.7631198681526534
2.4794911664944728
3.1638573279997284
0.3589068826378102
-1.0208285422806496
-1.8444882328991152
-1.6662694272821974
-1.025326683246058
1.415460883253214
1.68347826565966
1.4852137398446634
0.4027049660662097
-1.484167573269802
-2.3603012184082677
-1.25713109298517
-0.4888816060489094
1.0455733107074496
2.5209781965203546
2.6586839170358627
0.6728073571480447
-1.078096093235289
-2.14695899167069
-2.416989838567903
-1.355143080649844
0.44535097824988473
2.2206984280674904
1.9219318682456557
0.28569693684502445
-0.6599554218775353
-1.0337704517319521
-0.8931040055370377
-0.20372515454612025
1.5931214880328384
0.8127575458385479
0.16635579400572265
-0.9861474925803935
-1.1764580899104722
-0.9814571377501194
0.7898260803233579
3.468902488934886
-3.5301519141359243
-0.9837095901356183
0.863007349356547
1.0178278475715234
-0.12269377772621251
2.600277021609977
0.7421364889942494
-0.8444851413408424
-2.264148403715821
-3.835149537106366
1.1969667828229058
1.6549035054353902
2.341083396843387
-1.693160411310732
0.32794381213392026
0.4172917934915885
-0.016153016150442255
-1.5646135074901877
2.619963552867323
0.7013088640107777
-0.3380046041334735
-1.5797940113883895
-1.668282960231903
-0.9605856609874293
-0.3590493493740251
0.5716244929232143
1.8323424800900665
2.2166402247361487
0.7953016471157991
-0.3013737676739069
-0.9988713968489389
-1.5233847652020405
-1.0304397495910782
0.32941600424156287
-0.526003332483445
0.17477198495936377
0.5794309139659791
0.5001180589370117
-0.10046824343842528
1.203456654984433
0.45929391367593114
-0.25226870499642784
-0.7596611101925583
-0.7177033017343766
-0.5279518527023623
-0.08716239266002282
0.2235547889753638
0.31181820300257757
0.32412531057443095
0.39259684487918434
0.19543528219892523
-0.05894233368336862
-0.22307756140726845
-0.18380759366717872
-0.22912540930490247
-0.22005234444710312
0.024515711676170497
0.12745581634902126
0.14040639632746882
0.12454789944151845
0.1324338552479999
-0.003676359590485353
-0.07479444185879161
-0.09062705437063762
-0.07083834571366728
-0.03611306962571011
-0.001998023078518243
0.02328921966579406
0.03761661938764755
0.04187567621110116
0.036990214247611355
0.022453955140252228
-0.0030273452469252605
-0.03924416637818436
-0.08186292016865712
-0.12118547846347646
0.056366575381371145
0.06386454262914969
0.10793936771046397
-0.016302466015477933
0.0727426791022869
-0.054642737368238596
-0.03363370005648264
-0.09694040576480303
0.13315791220944617
0.05114880315329182
-0.1280864197490723
-0.16919504298344326
-0.020728864504866953
-0.024371217478683316
0.07224419481851914
0.30256282193453354
0.2727435823020071
-0.0381041524597503
-0.2682706832839596
-0.25804919486941175
-0.23547797213418906
-0.009798521395188046
0.22472622986303312
0.27733513596471177
0.1481044721678178
0.020778693259111837
-0.13544928737216466
-0.1563800851136129
-0.07011588069392198
-0.08671223332710248
0.005977547450330102
0.03924060272564682
0.05486387001590746
0.09422375987859603
0.18879896325315942
-0.045087174264853015
-0.20640881217257157
-0.10585221317562021
0.03871067011928154
0.005356711286005323
0.16944520499289398
0.10458321979486752
-0.014937120699531244
-0.20963070567472705
-0.08961562238335137
-0.05129471059987496
0.12210208686318096
0.05620379277451038
0.17951779008623842
-0.08152810234211173
-0.10493873918398418
-0.07321714891684586
0.02722444999646996
0.00577871225830135
0.06613498797034681
0.004387867468300235
0.008019311125836634
0.05664748883748109
-0.0752969367053985
-0.014521670493235724
0.015532694578238814
-0.001635856536522242
-0.07346853997753529
0.001824087629779917
0.03350518749942696
0.03514216772595465
0.02098935322033435
0.0029953630845332346
-0.010862984390853406
-0.01683660419273554
-0.01466983440705178
-0.006476949787630405
0.004302176849896973
0.013701035136847593
0.017902131440263706
0.014038807111578261
0.0012749119843576799
-0.01797109089929442
-0.037131169551103294
-0.04559987587419455
-0.03041631032978092
0.020442239288986884
0.1139261194941647
0.04844246654421409
0.01268909814871837
-0.01230883713134965
-0.04840431166363405
-0.11445580111325865
-0.02154899483790807
0.028999084496252832
0.04439957758199569
0.0368146195314019
0.019107878967259594
0.0014737259697217141
-0.010222762867580046
-0.014385934787092637
-0.012465328559288998
-0.007312492419283668
-0.0017461102533706727
0.002325584694161535
0.004167593744714243
0.00401551335009576
0.002643994486378042
0.0009258135533973778
-0.0004772954369821261
-0.0012440795752539232
-0.0013692408054663994
-0.0010492536722137176
-0.0005471450705159073
-8.617477734558374e-05
0.00020503779623996392
0.0002977543761386623
0.00023537440422932335
9.352671374484803e-05
-5.5070019491758305e-05
-0.00016181592427426633
-0.00020813759063889782
-0.00020006837569887682
-0.00015756072668285224
-0.0001039245266408289
-5.857206286077303e-05
-3.377857161693318e-05
-3.439121009103989e-05
-5.87721901642138e-05
-9.967334614001374e-05
-0.00014477653430680399
-0.000177694084804261
-0.00018073054428363518
-0.00014029057921280245
-5.4453766664551026e-05
5.967470161975455e-05
0.0001628899011605818
0.00019953630516190057
0.00011456330765416474
-0.0001195483166131505
-0.00047345567536917553
-0.0008423376343081983
-0.001053511111646889
-0.00091187650331911
-0.00028283364712389507
0.0008064254054392188
0.002086537543358419
0.0030383375507026856
0.003004069899498826
0.0014317282463514362
-0.0017905534486886495
-0.006022673039114159
-0.009750570582072538
-0.01082584429001855
-0.0071622377284496
0.0021817119608085436
0.01582893956563036
0.02931864669333271
0.035320355263587955
0.02522372473516562
-0.007969032672704313
-0.06620563580124221
-0.14379298155225353
-0.027198889885893703
0.10192003310506845
0.06111865105739075
0.061118653622469814
0.10192003958020532
-0.02719888283352695
-0.14379297839198668
-0.06620564057917466
-0.00796904710419103
0.025223703014342635
0.03532033351658019
0.029318636124170072
0.01582895203426265
0.0021817545924510537
-0.007162168673791776
-0.010825767756785678
-0.009750520125862538
-0.006022688740531717
-0.0017906659604801252
0.001431518242490375
0.0030038093861864323
0.0030381256578577214
0.002086506949366073
0.0008066964236024827
-0.00028221952930009643
-0.0009110228111646767
-0.0010526995242915805
-0.0008419925684753297
-0.0004740179732035243
-0.00012126752639586054
0.00011186294300591934
0.0001966160889916755
0.000161061365866512
6.0472630561493915e-05
-4.9898126605099874e-05
-0.00013204124115703757
-0.00017070899954725014
-0.0001698104938989756
-0.00014415701302482466
-0.00011083950015644745
-8.30619098913611e-05
-6.745140994808222e-05
-6.440725723259355e-05
-7.026356870976297e-05
-7.992540524922534e-05
-8.898234040602182e-05
-9.48323490449931e-05
-9.682902987000471e-05
-9.576494561591992e-05
-9.309600661135678e-05
-9.024385912517046e-05
-8.816516323394045e-05
-8.722405215448557e-05
-8.729619695510838e-05
-8.798696753168236e-05
-8.885375933707122e-05
-8.95616294860685e-05
-8.994820402043108e-05
-9.001093714903154e-05
-8.984921083311401e-05
-8.959591252885033e-05
-8.936368872251732e-05
-8.921724264343065e-05
-8.917075058131952e-05
-8.920198183073706e-05
-8.927259216472148e-05
-8.934600404061894e-05
-8.939819034424186e-05
-8.942060435919768e-05
-8.941721528644152e-05
-8.939871612937032e-05
-8.937671986987338e-05
-8.935973351745989e-05
-8.935150667168224e-05
-8.935142408011406e-05
-8.935613379070375e-05
-8.93615424365197e-05
-8.936451259927828e-05
-8.936388734638103e-05
-8.936071809181061e-05
-8.935773879672748e-05
-8.935823593221198e-05
-8.936456245503046e-05
-8.937666969833844e-05
-8.939116393923584e-05
-8.940145313776976e-05
-8.939941857966065e-05
-8.937863570998641e-05
-8.93384867478986e-05
-8.928771986006044e-05
-8.924544467052854e-05
-8.923763092921171e-05
-8.928824464669149e-05
-8.940627358447546e-05
-8.957263325054022e-05
-8.973331698496126e-05
-8.980577445898827e-05
-8.970304525245232e-05
-8.937405890616809e-05
-8.884962850900805e-05
-8.827478197276103e-05
-8.790357273613486e-05
-8.803715231452048e-05
-8.890269194519026e-05
-9.049848908497021e-05
-9.246196409145715e-05
-9.403888525535463e-05
-9.42277435781445e-05
-9.212978861671156e-05
-8.74515934346967e-05
-8.100100842279961e-05
-7.492825197041517e-05
-7.244539395445039e-05
-7.685971899048789e-05
-8.999910055561009e-05
-0.00011045249521967053
-0.00013238536469259334
-0.0001458475154596898
-0.00013928789650180016
-0.00010431801103798516
-4.168162386209762e-05
3.381102484962791e-05
9.241717305371922e-05
9.54517167576377e-05
9.161090043875164e-06
-0.00017578047247242864
-0.0004254967806712304
-0.0006545283791125158
-0.0007380053418722717
-0.000550302182820092
-2.648973925465346e-05
0.0007704799584779083
0.001606657288474606
0.00209329482859902
0.0017888471381010901
0.00038634192468594685
-0.002056661013640814
-0.004934244715389527
-0.007072227572264961
-0.0069782110708112265
-0.0033974860299132363
0.003916650802246787
0.013463944309372537
0.02165550427872472
0.023241834088866976
0.012707979232618063
-0.013536764298412744
-0.05482695963725181
-0.10479904540378578
0.04814747221381194
0.018090647332428596
0.017173097464285282
0.05108009828388439
0.1162128071030564
-0.0001263672446423024
