0
8.200642913501568e-09
1.1955586531062346e-08
1.1995250465151445e-08
6.1436241132648466e-09
-6.134990477452301e-09
-2.2519888462856856e-08
-3.73197036884358e-08
-4.2320782735828594e-08
-2.937101130449986e-08
5.566954102849875e-09
5.803766823523026e-08
1.1235914497002365e-07
1.428349973894016e-07
1.206054231772219e-07
2.6033703813097943e-08
-1.3626309420457365e-07
-3.2561184643444647e-07
-4.643997837772093e-07
-4.548825837352445e-07
-2.1566960014928689e-07
2.6867314248246917e-07
9.017335045383445e-07
1.4578479617385431e-06
1.6182912468014912e-06
1.0743341263619539e-06
-3.1480712364182507e-07
-2.3551091178381938e-06
-4.419027237873655e-06
-5.503132029585322e-06
-4.504442516071703e-06
-7.062127142466493e-07
5.644660113825408e-06
1.2899982876877141e-05
1.8009171588856266e-05
1.7208645038306848e-05
7.462742257950191e-06
-1.1617739585487947e-05
-3.604765309547506e-05
-5.689245059851757e-05
-6.179852175423978e-05
-3.9096782307750284e-05
1.6049197788464048e-05
9.529369414296445e-05
0.00017357017862681365
0.00021173887789732824
0.0001677063819117956
1.5454788054327237e-05
-0.0002328064168951922
-0.0005104694141038038
-0.0006977772204529488
-0.0006499847193473791
-0.0002541659885395166
0.000496715233663192
0.0014389808402987822
0.0022200141213080883
0.0023627254552714637
0.001429006052902581
-0.000740873953582951
-0.0037868765339519597
-0.00670399381332057
-0.007963509954740197
-0.005966787938296946
0.00019308913125576789
0.00984673379386294
0.0200840110966773
0.025728530273458453
0.020278080882280558
-0.0021685341751541366
-0.044456552087897484
-0.10432400157435982
0.02614919994523426
-0.04108647515539514
0.10643067677222876
0.07759640831226454
0.07492055199470099
-0.10570943224067127
-0.07266283801692677
-0.034941685820836794
0.0008568762361333874
0.031796590548511354
0.058098952793984984
0.08181180693954344
-0.09432819416297243
-0.0674793137738058
-0.035219924800012736
0.0031923722561655885
0.044635795586290654
0.07989803411816943
0.09303979044688895
0.063826230013151
-0.026444296150744017
-0.187177606367159
-0.21190908388881013
-0.07650887596968507
0.05572702483778397
0.22313813709316324
0.2531986183376516
0.15411379058014282
-0.08542779852341205
-0.2882934342681873
-0.27698262318212463
-0.06403029513466603
0.15054896883880453
0.17432557952977853
0.21382695971636634
0.06769304229435215
-0.07452628928059073
-0.2277233656732765
-0.20398379273053974
-0.007295701377039328
0.16674520003778187
0.12648919933482602
0.07815791438454757
0.021914398349497096
-0.047770740635832976
-0.13786480899515535
-0.05098760764457009
0.019068469117005497
0.08862754335878469
-0.018092610426277408
-0.07391323059960535
-0.05529498070418563
0.050284566572590346
0.03726121896938423
0.07691795140141523
0.1164150956630704
0.08356847595334098
-0.10238909855211713
-0.11585079470126722
-0.20927517386168276
-0.0011380724669920695
0.12982890225581853
0.2439433433411552
0.035444419845867124
-0.37482366629954605
-0.04838052490253207
0.75901875442173
-1.4188733716197028
-0.07976979954482953
1.223360510923829
0.4614315735495312
-0.8793985484268135
1.0137989885622554
-0.0866842531129528
-0.802789752822221
-0.5031817941734466
-0.06894251442976139
0.11675484400400866
0.15270100282251906
0.18440285510784313
0.16180739530760715
0.20240545268183371
0.16875509357679114
0.06451829954503081
-0.1522641609747099
-0.34483232372915196
-0.37164462872950516
-0.06792336147786977
0.15966843706048942
0.32595797422848016
0.25417775316655744
0.16524189588961158
-0.12480102204289457
-0.1988143927627687
-0.4291790723311792
-0.17249922883009233
0.02580212665523088
0.41644601893911304
0.22628857537108393
0.24220773298123646
0.006508916377022303
-0.17367812435183058
-0.40675336879899154
-0.19463940025441046
-0.016428242319414015
0.2781369933684501
0.26672019396252616
0.14931753526302843
-0.054543306499114715
-0.3044076173297482
-0.3358372725280571
-0.060530315031038985
0.42707306029249786
0.23768803022073726
0.2742875836133281
-0.37695507945230317
-0.451241219900837
-0.5091363205997032
0.45534608959711576
0.40242122887927434
0.6366070450987876
0.20918138299647185
-0.26068857834935494
-0.7490604246714296
-0.38660298499351115
-0.02951381837796597
0.14748118908748317
0.23502823873041598
0.15755984381753194
0.037616565235248554
-0.03370189556309353
0.18635922722106077
0.29065950325491224
0.035585226304001114
-0.23402038834738279
-0.3554543829761481
-0.32411796702629353
-0.28441554393696233
0.05931358083247922
0.4141500274150494
0.4618919278815245
0.22780349362996044
0.06657294340563434
-0.12947587862771978
-0.3033047666210124
-0.19694700759005931
-0.1179126507224774
-0.11768128412905673
0.013167957390393007
0.13401775739755234
0.13248797568971465
0.09909202849423453
0.10528431917189389
-0.010166966251441343
-0.04458588396156937
-0.025575295503147837
0.001064885823798341
-0.014000571036427208
-0.10990976793081937
-0.10569515244637273
0.003811475964200819
0.04564246564828944
0.06105782507569194
0.09521698552059639
-0.012757668701706134
-0.03692547000772507
0.0321913592850206
-0.011953744022544451
0.011428518894983402
0.0757562677088615
-0.04679369699761378
-0.17967987655238382
-0.13853302401555923
0.06890034764567615
0.23962591412619416
0.1713781905078549
0.06105309072753303
-0.09234203342262072
-0.2813339511161809
-0.2843633003182149
-0.0657332648990047
0.21655818421290193
0.39740645223840526
0.2918547869050325
-0.11029165496158232
-0.23958491746053343
-0.3346623832889149
-0.22945318681937002
0.05365936935869261
0.502665730792124
0.31018720761476176
0.06939264077955919
-0.22426643819680703
-0.3670578294439574
-0.5436450844494128
-0.33449135565729315
0.0626076482943699
0.6024081395326052
1.1683854682487764
1.374368184120083
-0.19470720835092756
-1.1057691087267743
-1.5889154670078796
-2.076811789428538
-1.0090739247295137
1.4855219633317476
3.0529370856813354
3.3791908729583957
-1.2818597252211923
-1.4857383669732174
-1.49551793156927
-1.9556071506327588
-1.6024736183760155
2.751699641311297
1.5667373413111645
0.4912777135188631
0.09564831681281623
-0.5491428306678517
-0.4444680978345217
-0.4085301324354394
-0.21797313022157574
-0.16717529868972816
-0.05529958710201304
0.19934672113033852
0.3260269238306163
0.26198343200390234
0.11922629246706605
0.16656969138142771
-0.17043340368314397
-0.29537485957638365
-0.22083914013673908
-0.15144766408746563
-0.07674149666146154
0.22459104586213172
0.373073875244637
0.17671096477466852
0.026248625382718802
-0.09934159023959391
-0.21948945240380355
-0.33748726210909713
-0.23266093403431318
0.13545691625546627
0.21094239457312106
0.21894440800431972
0.1457756491232244
0.13006368774069615
0.0696226167145087
0.04359525187291851
-0.05539769173133178
-0.2880432769884766
-0.4450288102709669
-0.8441665151232727
-0.3542522402936709
0.7569832752109895
1.9655946733754508
-0.15103731823999236
0.28111047309183923
0.0746099554409891
-0.7422486587774305
-1.6401608901868028
0.07222226784484105
-0.34062061555202605
-0.28922446190322565
0.044078429996363654
0.986784686524825
1.8728456181620212
2.191364848113227
-1.387998616652533
-1.3149482986803207
-1.417723220737839
-1.3751750832347542
-1.2504732014043072
2.091952024749422
1.5001601812696674
0.6204358212505642
0.2027348923881824
-0.1423441941427361
-0.5297712450089916
-0.546198018497487
-0.38249374029144495
-0.17731508725827907
0.013070231486470189
0.21537658685683223
0.31699986865748636
0.23297558444799735
0.07456515315302832
-0.07213986351873718
-0.15507153247443461
-0.1550389273459149
-0.07950492912867467
0.04443770970823734
0.17622426569038555
0.26820802970300706
0.07455430664524736
-0.23642418274424973
-0.2688015468811761
-0.18977372760577574
-0.13030227891120852
0.0017080579165506373
0.298241996923844
0.42534697619945533
0.20409406198857222
0.20583906965088447
-0.6364279803617743
-0.2059609784242937
-0.17942719763228507
-0.013094011289320178
-0.1427385001556207
0.6046216109359082
-0.00595850292769388
-0.23051708656874792
0.25089635906564084
0.9447414160450952
-0.6326169206537918
-0.5234494651136768
-0.2989101021211014
-0.04346153971483264
-0.7628468988331186
0.7833627243386664
0.4332090618476436
0.17325955170849763
0.3058838004880534
1.8446438494933246
-2.460731180204617
-0.680811094377753
0.33490964023538955
-0.2236102669637523
-1.7411290141770188
2.7827381201996326
1.2871844732997482
-0.17716552951624767
-0.8385682285435885
-0.7582647441675064
-0.5685761399184164
-0.22146002067138612
0.4349178576291797
0.6496747088823043
0.34333392607503127
-0.3230626879252399
-0.3742488370534149
-0.2409372287563923
0.022622595887939845
0.3214228453138144
0.505326323794532
0.16366190667573272
-0.16617313683841978
-0.37663870939668004
-0.5615794851425083
0.6084708160087516
-0.7006838012270744
0.312331466467854
0.47346799542874785
0.41893446928758077
-0.8154714601076077
0.6022269459007847
-0.2973854994441258
-0.4817363732294471
-0.11717907146980662
0.22286004945129975
0.34381254402291633
0.2158814731711747
0.1677682292386298
-0.106479481658116
-0.1277710004625931
-0.2052120640325764
-0.21101294479956498
-0.16532674526723917
0.16403725054286025
-0.15317059877851955
-0.035163038499482276
0.38309356900438185
0.5267109344414932
-0.02838406720757537
-0.14598318630078322
0.09729348199973915
-0.15135687279073992
-0.6859705875546374
-0.4201745389380204
0.413043273522006
0.2389454270712598
0.3028742532730708
0.4279486865057173
-0.620929308446245
-0.5620145991244941
0.3886021967867654
0.11064073071183421
0.18317130897144526
1.1035992281642852
0.3273257983380892
-1.0731327638576715
-0.941498276590646
-0.5845932644099237
-0.15373001615768894
0.3300722774855283
0.7153195398691965
0.8460099463894281
0.5006391236399471
-0.23653908546476113
-0.5673837075561183
-0.5455408998942922
-0.4354132205563954
-0.08274855954136205
0.4940654067989158
0.4945908059672658
0.11948129891803784
-0.042187446844646266
-0.21514301913388767
-0.23083322875080364
-0.11694683607661123
0.11028661320153824
0.04793534075033102
0.10309975622998627
0.0876510895638625
0.014178115162365727
-0.1051984207904667
-0.05750014540482903
-0.02682411793183238
0.006500139625487366
0.06444607852536122
-0.032378967338525924
-0.0697587364969927
-0.04522808586783384
0.027319977376495896
0.11531393247223633
0.3696673509910838
0.13357499899062134
-0.24175687589711647
-0.3778555524137658
-0.25335109353767804
-0.20000187259994645
0.08505884767166055
0.31274646355882213
0.369242574713547
0.08811253083583116
0.036815320264515394
-0.07812078827103182
0.010899715432248425
-0.034956824438187574
-0.12624353597444565
-0.31669526363447936
-0.18803322366582018
-0.05265700740484959
0.025513556930406234
0.1969781601679736
0.38865309881867854
0.27291594804934854
0.052817048756386244
-0.1325929558014154
-0.18556072937401175
-0.21776982735629294
-0.11964859684867359
-0.13956257887830442
0.1224797554883837
0.10672125517495847
0.07501913757162597
-0.1127338567340586
-0.021868026975405647
-0.06186181797238708
0.10232155741329477
0.3499459822782491
0.5189771750075075
0.23755477089766616
-0.23003151371762245
-0.9329509268179271
-0.9961557972522959
-0.41365114958716226
0.31756855119265964
0.9294588929512219
1.503599170247069
0.6104169127394408
-0.7108973695070112
-1.1291291067724996
-0.9724174521646992
-0.18166039431481898
0.7137356936434193
0.7950645466694432
0.5417028139468837
0.024513910000705925
-0.6845847447927232
-0.689976684900543
-0.04922937732510028
0.23763690675834373
0.22136334146375145
0.18333191730136636
0.01120274098214032
-0.02143073943465913
-0.06702937909767284
0.09282597174624696
0.051766307301753106
-0.011845908085384379
-0.12273457043817888
-0.09687563031430428
-0.1332417613946937
-0.011543197119554743
0.10363973848189952
0.2544437790215394
0.08086262495441258
0.015072144444193098
-0.11972398110508008
-0.10782454579745669
-0.34117798482418743
-0.2254925543486319
0.005893740292335946
0.27331077891327316
0.4354795759855876
0.6892355566102538
0.5944775779034528
-0.072721011525358
-0.8480300107700588
-1.5098030700067528
-1.0417016128965957
-0.04983703319781266
0.9618635526722069
1.879198190728402
0.86680319492915
-0.10278889294665676
-0.8604409061047326
-0.5987257737031957
-1.2032625132542996
0.4135187810722368
0.7578157251567635
0.5772911643871323
-0.32892537106514974
-0.10252208119216229
-0.21734722270173124
-0.2741464800032318
-0.20531847440712322
0.10671207054062377
0.19947388900268442
0.19609405741732958
0.3768341962054203
0.36593696825812294
-0.06129240563494887
-0.3532603303705061
-0.5481341236582906
-0.44502780124100455
-0.1928985536166283
0.2976142561412514
0.7245834272884617
0.561041568949335
0.03258826100089104
-0.2842357476176194
-0.4442682525045352
-0.5076411440704643
-0.11913025505990753
0.29769616845984487
0.33085454259014585
0.16200855373758846
-0.049608218548692525
0.026428303536807914
0.09792242589906922
0.06727176167435003
0.05543218224472856
-0.17339958918747705
-0.5938995715353712
-0.7164723352103128
-0.004121197133894176
0.6927243163520632
1.29572883975742
1.471874565774693
-1.3636251755807822
-1.2142536778206545
-0.857960486978887
-0.42028815081462695
-0.3850508673117732
1.958361587829731
1.053194360762086
0.4309778836906227
-0.09052792329146227
-1.1627183316383767
-0.6328474487236482
-0.272155332441345
-0.33269413464895603
-0.3464546177158327
0.8362438887821022
0.7855776210534882
0.43155553409775477
0.025233607881553172
-0.2671427919948833
-0.33987888470971983
-0.30687430839745655
-0.26075645481647003
-0.045430563282493015
0.15189389558559985
0.19082176527160202
0.15708227302080616
0.13983072631354215
0.013976784776694052
-0.1692584545302326
-0.18432877876567025
-0.029104237560042694
0.0784093980010521
0.10315127784413451
0.19704038881011796
0.10609851750674365
-0.01838280775597225
-0.20650830578227147
-0.25924338401549835
-0.34722203900718035
-0.22410784358617555
-0.05513094262511481
0.3454078239331921
0.680743695159232
0.959303586252097
0.7180646514325506
-0.3139403170057357
-1.1241110825705412
-1.925645437487655
-0.7041923416478292
0.17067194041385675
1.2655512250607028
1.1590543605020631
0.7142941078606525
-0.41320890912318614
-0.011311045382382572
-0.6917850962599777
-0.2318085229711702
0.7033469996613712
0.24024136627353213
-0.8306679239004096
-0.3989585409643305
-0.20270897482545705
-0.028146643866900033
0.2597699991966597
0.26504284111058457
0.4018866402440589
0.2455097795988294
0.10403338695340716
-0.1843341772610456
-0.23279702010041778
-0.2759992775936997
-0.1403565203991957
-0.024152090823960064
0.1082102245633888
0.11887065928756173
0.08095250102135111
0.06077956782491078
-0.09726237539573541
0.01943625826329291
0.18783474444988954
-0.04918579400489466
-0.1770295222525
-0.10134401740993705
-0.14012575099558386
-0.01750132124843932
0.3416755182039101
0.6199848655252268
0.3227754236925869
-0.39805447191366355
-1.1176975437444885
-0.9225588669671213
-0.018614121386578236
0.8318603901385508
1.657208199160838
1.2312064556540339
-0.9418189567233901
-1.4066042726434422
-1.3191164154309076
-0.6212736066967558
0.34977124175541796
2.2192383868953494
1.7244623805471542
-0.7095149315811385
-0.9480109873965062
-0.684525901440658
-0.7662802940050076
-0.7394121003713708
1.1671725875458034
0.6199910608942447
0.13757879944419002
0.04660154481559666
-0.1477631190677282
-0.1734655784873489
-0.18988966505512284
0.019762579301261036
0.05615486908262483
0.1090607852601869
-0.03946832511008981
-0.01248367475306009
-0.034918817355868506
0.0705263246182859
0.08821278963686359
0.014770484929302514
-0.13602692981117917
-0.1302487228923881
-0.11478871584169688
-0.02391001869867794
0.2090896235462949
0.2381097931945966
0.09293723304182269
-0.025824961458001273
-0.14484958750137
-0.31214545335744276
-0.19216808420011494
-0.06622613132352152
0.16131041781328354
0.3555467221375629
0.5507290821183788
0.36561928092219426
0.03845360185699759
-0.7234422247283688
-0.6939167352281518
-0.898018992485356
-0.01849701600906611
0.5565822453762587
1.2565455766711187
0.044620337600957814
-0.04704820550947562
-0.34876729419123575
0.45043530247835967
-0.6666239122529048
0.0005430330177518997
0.3206465815189775
0.17812319989120717
-0.8874480174130615
0.14637681214739298
0.3981016930938952
0.0802108764429026
-0.31593322084932146
-0.2447028855489057
-0.13762627020930368
0.16113512410546865
0.5607251633534908
0.4998309837286948
0.14238613514012052
-0.20313916508157898
-0.44568966479201744
-0.6680460600828516
-0.2940876386197195
0.12089259216965054
0.47432775373727326
0.2830108024492903
0.2463973192016731
0.02000757424999679
0.006288125250758826
-0.23727318318092067
-0.17873285904853864
-0.0893206643207853
-0.025481256781230293
-0.019446354971722802
0.12139149718788408
0.20896744603379383
0.06675573616707338
-0.0771993035444344
-0.19564158999763553
-0.2675855644487603
-0.08659676083419764
0.1271788347516208
0.3140667627508034
0.3674938908245506
0.33967139455708195
0.0646288617583658
-0.4038789072088078
-0.9498427430039251
-0.7628222537483337
0.47118595795650103
1.1532684182446502
1.3397530129848338
-1.0886910094825712
-0.6473216062847937
-1.0616884691775075
-0.4903155316537181
0.234492638886129
2.153843058402227
0.9399530771167148
0.29158674146843
-0.8181378828532339
-1.451016392145617
-0.6005662532182509
-0.11223002537485859
0.14909481427157345
0.28074626327030616
0.48743348172953543
0.41247121322718966
0.2767904514019122
-0.15998892870395345
-0.21230872167741596
-0.2603453293304006
-0.13084710734046848
-0.07734427596077008
0.03392527516352583
0.13113124336759924
0.1398485574380313
0.18664369208264725
0.2073293086866971
-0.03880129914827401
-0.3515389973628971
-0.47587684345894316
-0.3001547198217402
-0.0722052860249172
0.3673074708005117
0.7435369620703506
0.5128480466405442
0.04878262353566095
-0.3456699515096066
-0.6054952032516417
-0.6660193794758195
-0.23720159500545654
0.20000270757351307
0.577147983283093
0.8149889973206369
0.6115246196819873
0.05497211836326137
-0.9373336291062281
-0.9679942630651545
-0.5196931981719144
0.05266240887652373
0.49008545945544674
0.9670837786591905
0.2191348012109354
-0.5189485880132364
-0.5514172414225497
0.26502426906219917
0.5294844746776858
0.5249097990097275
0.2663492741581
-0.23280528326987707
-1.087121139682459
-0.8768971157526831
-0.21804008715823317
0.423884468143514
0.47929466166357376
0.5989533854867951
0.3827918874529784
0.3350897121782806
-0.14326005664940358
-0.3280080365161334
-0.5239344011824051
-0.41544877181494444
-0.23301510339811715
0.05453062876527305
0.32226406252175593
0.4561049967316175
0.5195108714906583
0.13383524925576035
-0.32071096355277484
-0.4863727369678258
-0.4024345630735366
-0.2864035173772443
0.26947116656744746
0.6864695590116756
0.38071761224431033
-0.05154745617258786
-0.43828122380726864
-0.6273669210478987
-0.4817648374214599
0.31879003909126924
0.8701534483615786
1.0402802807562959
0.48369970726704276
-0.7190788857802006
-1.8056760576618742
-0.68255137063163
1.4916553395127066
-1.923825534044518
0.6768401649940855
2.25454813747234
0.44192481575571146
-1.1055470480656244
0.08937693356582417
0.16735323257173848
-0.40107962262939
-0.3446360013957441
-1.132681583217786
1.4604285124223901
0.3652925488153333
-0.9932798002986277
-0.11962353564302448
0.32263133251826626
0.4773770885427388
-0.33496291864610594
0.5607169402331309
-0.0133250584123694
-0.28032157348364284
-0.2910145274765274
-0.10245117816759951
0.038964158623496746
0.1058673217262514
0.08995722253071516
-0.0030730898019330722
0.040200274602656585
0.036201059210596916
0.002209873388552855
-0.04353077554173112
-0.08076078090493491
-0.0869526282673562
-0.03936800465440233
0.08016975295393426
0.07898673382769575
0.14831316658921379
0.06192547174651873
-0.019640254137123486
-0.1398406654524499
-0.13465572184566257
-0.022869650608403843
-0.0014748370622679062
-0.04756745006214866
0.07423075968863142
0.20150080815688284
-0.03576010012609431
-0.021629563480379973
0.04382380423665323
-0.053333623100085624
-0.13649837084450556
-0.03392912160125352
0.024535946622586454
0.009213735068645122
0.29206943296715865
0.25014026198798295
-0.32768121125929245
-0.2316131236163137
-0.02381439265115749
-0.23831423515463623
-0.19124067699517258
0.39971951499899283
0.3922473479319066
0.20118584554609137
-0.006986257648738013
-0.10386239588528659
-0.17639536402267333
-0.30018794927627684
-0.3186137933276157
-0.035190506815488
0.1786142931975178
0.3642601433874638
0.3546042003089907
0.15974813917126265
-0.2337324413256421
-0.2508627996862016
-0.31050941496026213
-0.21111006816931976
0.0731117000282278
0.38408122676238976
0.16445754313180322
0.042437044482721724
0.023246932968612143
-0.11027615209174171
-0.1899776898397359
-0.05198074849213808
0.07199137989043994
-0.040983467051056335
-0.0050215946139840475
0.1718082273564903
0.08422143109869354
-0.07219118471301254
-0.10090852801642314
-0.00346693807286957
-0.17949635256524174
-0.029460283111631073
0.0398344356017404
0.20905594133919417
0.24341713366075818
0.29726347217901605
-0.0716433386770807
-0.28040291322143335
-0.699183342254084
-0.23956932938745631
0.03884884803145649
0.5027767214224553
0.3084861019587865
0.7676691457440384
-0.27176095109396603
-0.6251073486794451
-0.555444948451013
0.24583352169034503
0.07308055204378493
0.41283795225191405
0.34733880345641155
-0.0384653955269021
-0.4436304594854884
-0.33509993775736424
-0.13630323278966702
-0.02726479462380958
0.24228226246061949
0.3317832398250982
0.2897905311806242
0.1436259901274997
-0.09703257344122236
-0.4251152533364808
-0.4179627102776207
-0.22631522856942182
0.022274360334497954
0.4055316095736532
0.5817552050736655
0.3702586738632992
-0.05303479049508834
-0.5424790114488668
-0.5591708872392495
-0.3499099586666758
0.05994957417203672
0.4565159729605002
0.6170835679359022
0.2925719142759383
0.0044795938154836195
-0.33966755138467436
-0.41838842482488675
-0.2686950505785957
-0.2723361684382838
-0.5638341757787155
0.34063907219518447
0.9042946664979381
1.1391412858852885
1.0036743352197295
-0.3602474098142628
-1.759231687605013
-1.4773676095445651
-1.040747338461494
-0.046152239182107736
1.344283603532845
1.6716757136212468
1.2610078647308256
0.5606016343971231
-0.8352589119748733
-0.8885347136757705
-0.7795686363175319
-0.9752440043391915
-0.5421787810026962
0.47545187268401945
0.8171197445131057
0.728799500067786
0.27839027075007433
-0.10995096429785765
-0.2895721938504514
-0.19445126194146192
-0.021718757725138354
-0.005288440767970563
0.010616281237635795
-0.006868334075241465
-0.0646512140407622
-0.13722923626187275
0.031222730270348928
0.11673669894448395
-0.000755331332841734
-0.057045082658681676
-0.02354987286526648
-0.12490131126249827
-0.051789868729126824
0.23406756359591638
0.5072077750382702
0.5027338584400279
-0.03998402379134314
-0.11829694596388278
-0.8049041613193297
-1.204076379403566
-0.8456488037879694
0.6726120492261073
1.001587177002448
1.5424637617690458
0.5684934938039123
-0.20596508720679862
-1.2034399649446366
-1.1263269895440806
-0.2957575926916221
0.38667631470793196
0.6440321973757407
0.20382647577095372
0.1699822530726907
-0.19714577437991848
0.11544949847030088
-0.11379815615884403
0.2842208908306977
-0.09860499595573823
-0.4148270946869991
-0.1346782464104133
0.1682945568932873
0.015210697395949675
-0.19678246906623573
-0.22686733292795613
-0.03194634931896754
0.38935312304067626
0.5589158629944422
0.2978878921409107
-0.07022766754117428
-0.2912922974438411
-0.5349154666966754
-0.34504046663484533
1.200018711717423
-0.8899382336185508
-0.11433835703362386
0.10126920139443621
-0.03035124274738819
-1.3096751503979054
0.9887209214536435
0.6582333655981883
0.9230798646476853
0.4410928179182664
0.3578883778371629
-0.19247480785436957
-1.3639253365774515
-1.8890720627408992
-1.0234158998699179
0.23136206570459902
1.227198926883816
1.9257276378981618
1.5627727292449416
0.1696509822444718
-1.0258838044501324
-1.5313004845241596
-1.2930899337120796
-0.21875755624732532
0.6524629648160519
0.5267591476461153
0.6010936697176065
0.6072826198604744
0.1809317922602894
-0.1319757896033568
-0.23352453599309084
-0.4124586571837001
-0.6843057481677398
-0.7534684104325206
-0.010079911667020321
0.6383070254258866
0.9143987010180409
0.9222287087037225
0.5251841362677848
-0.23763179500648704
-1.5046643253496534
-1.3404249045425336
-0.7113768294753421
0.08873924608568752
1.3654897182404162
1.7289738115859674
0.8181507141657711
-0.12121864755115157
-0.7936542342789484
-1.3629838484647656
-0.549099347924276
0.05055497262674171
0.192087495124533
0.16638304774284926
0.1438033858799401
0.10257667830210877
0.16064976560494967
0.3269755818650564
0.4834926485138192
0.4035997600350033
0.005770847461402125
-0.5682286797524783
-0.8703752870441365
-0.6838180607694114
-0.6030041979303785
0.1331955610767655
0.76272396158861
1.1000577799960503
0.8473468929624169
0.7461905140909273
-1.0166199109456011
-1.158048451134187
-0.8292427315972103
0.04070317667712905
-0.23376051833345876
0.8900104187121699
0.7460774136266656
0.6252018030727324
-0.2377939723443723
-0.44692747688064266
-0.4053915830278043
-0.2703458281693004
-0.3200900961216982
-0.144936350094627
0.3367494941050842
0.4450885777055947
0.5014462136114428
0.20150998515845156
-0.19271071414333532
-0.44266318442180397
-0.5141794324470509
-0.3625942417896955
0.06817152297256997
0.6314145123046285
0.5567385079170105
0.43598740056306784
0.026995184576482232
-0.5233623475371331
-0.8468777330061198
-0.5298904299099646
-0.11345350332009753
0.2761199165021766
0.6743701007044028
0.42284850450406414
0.1331362265540115
0.28834720681706955
0.4892296561755617
0.3403714568923772
-0.03873104617390056
-0.9030269018607828
-2.4052371958183505
-1.7882326718675656
-0.26911765110176583
1.5917623819097537
4.081892240702958
2.360145464437857
-0.2183034833305685
-1.8462523718282702
-2.5055383191008715
-2.7756984769945334
0.7129379086343944
1.3362080215858312
1.245491345973899
0.8888264361499848
0.13225155402788233
-0.7861424835774816
-0.06234908946109472
-0.1051895214858563
-0.30733397012325914
-0.6256672803789108
-0.18110843062138057
0.3203025826192364
0.7521934680414003
0.5331031567378878
0.2084677027269096
-0.14067115366191082
-0.4639699113648613
-0.695973076710383
-0.31617230693688964
0.07016688749459936
0.32500873246868317
0.3500634045276313
0.2518191052340745
0.11283907502786046
-0.021813230148969225
-0.14141102450114273
-0.25437626466603275
-0.16914496142452373
0.32097351284874337
-0.556194410977307
0.043789321905108335
0.3688673980264508
0.2534803073867178
-0.2959977952493205
0.4923189429305794
-0.03984590711962613
-0.36722900867196706
-0.16266914245675324
-0.08056242808191079
0.052247219545397496
0.03589672318123408
0.08899315861903274
0.0364120023107171
0.09808675120298183
0.08243078414905734
-0.013747396104267721
0.0009675801555013617
-0.07706564216336238
-0.2356764691935944
-0.03941569048760158
0.17164712623353567
0.0762137996450629
-0.03932126556578614
-0.09493261450117571
-0.23221418991389206
-0.029662590217317677
0.2839084390690261
0.4217761787652118
0.24298254847031017
-0.02873090044045073
-0.3717907241675473
-0.3270034055844823
-0.16279056303007983
-0.05642027763486822
-0.09716479635816193
0.08933530429643662
0.1018314159618426
0.11906534093315445
0.26096795541553924
0.3650906714994237
0.18468778721525422
-0.19032834805688964
-0.09484718708215155
-0.4437127120364808
-0.49487499342652874
-0.43327151834166105
0.21815346502759161
0.3635224121534425
0.6881162633552386
0.8197138515170521
-0.2870019268772314
-0.5370629769311268
-0.45984427995204025
0.03228927556156821
-0.9252617471014597
0.6612574762895469
0.8348753677161149
0.46785931365160754
-1.3583676219998533
0.23253044044297924
-0.09807655219975525
0.08669115941814383
0.38974386157316115
0.37511372837503903
-0.02679430931205896
-0.10176864953989272
-0.5262137201154733
-0.7425195200391862
0.6549204896449071
0.3182630939560315
-0.06790410437050241
-0.005743396660154758
-0.0013638887131201633
0.22327117233371624
-0.07623352319085565
-0.26971520804690524
-0.35474175764476307
-0.16106925861722737
0.24221034752272705
0.941081908010261
0.3811302583156709
0.19021811401386854
-0.3801257247286993
-1.2057597475666202
-1.2537229020555731
0.22119155352957978
0.6391813780190017
1.2287361695589591
0.757028661584664
0.0857943893733968
-0.43160557380994174
-0.7157959423982413
-0.909219089158644
-0.13027091256309378
0.549601670994235
0.50337692437201
0.3307044928164647
0.039575998714364145
-0.16254224426619623
-0.46705031361523547
-0.2582259563217392
-0.11100239173596836
0.20304267995633496
0.7035987087966534
-0.009106238204412125
0.2444466727249097
-0.16527552582194865
-0.4562663181951517
-0.8153762223709602
0.2092047399040596
0.09711456464415166
0.529343728698474
0.35705741451611017
0.1793363569342698
-0.0606276452475243
-0.25950000435693477
-0.32452405506075305
-0.14192540729660033
0.046637687105500224
0.05354774027813463
-0.06001015941409147
-0.0006521524106578121
0.1343771045558349
0.03363614550541038
0.15231312125426433
0.10157504390068212
0.04868292645178438
-0.07250840993566286
-0.14385087721299875
-0.24329561437703093
-0.029128726156964945
0.06784891822807125
0.043284132367844695
0.11167971340103239
0.09631886937146356
0.020599061266575684
-0.09693922597837346
-0.04369227818889406
-0.011575101755047137
0.005049025220496062
0.010832070934519194
0.009962524626168735
0.0060350139634627025
0.001725004227108651
-0.0014001103137292051
-0.0028110717525612373
-0.0027325676069685475
-0.0017699453493538863
-0.0005731669146282777
0.00038229924632392166
0.0008774916371295695
0.0009217439650237605
0.000664176347203775
0.0002946946721151504
-3.090597881275677e-05
-0.00022738427576553293
-0.00028092267339510624
-0.00022730055407692876
-0.000122562991155026
-1.8116028651431658e-05
5.3596292410851215e-05
8.224590760109841e-05
7.472099006559468e-05
4.6657007845866484e-05
1.4349948655195007e-05
-1.0566939159718949e-05
-2.30377642349692e-05
-2.3744679685925816e-05
-1.678767954908851e-05
-7.150817069915872e-06
1.1766538080843226e-06
6.078885073526231e-06
7.285181011926193e-06
5.776753629498488e-06
3.0209769621538504e-06
3.3527278068530824e-07
-1.4686242274463685e-06
-2.152067251026762e-06
-1.9134408647011893e-06
-1.1657951841030323e-06
-3.2920812139448557e-07
3.027865623721029e-07
6.082557575608206e-07
6.118665771031138e-07
4.23353952555778e-07
1.7206039345239404e-07
-4.0597386570865366e-08
-1.624967095454165e-07
-1.8895831970984933e-07
-1.4678136976796593e-07
-7.432597426996832e-08
-5.3056683248795015e-09
4.001881384962816e-08
5.621665933082277e-08
4.893399874768495e-08
2.9065190250916646e-08
7.428239921337217e-09
-8.580462707360771e-09
-1.6035895574239808e-08
-1.5754368611765756e-08
-1.066499668674818e-08
-4.1204674131391055e-09
1.3038859012360922e-09
4.3276075423589015e-09
4.888897275191387e-09
3.7164981011074244e-09
1.8124083092530297e-09
3.939214908497384e-11
-1.096713888391597e-09
