0
5.141477623533249e-10
-2.812946811824577e-10
-1.399710834156308e-09
-2.4773885138564062e-09
-2.959582385430537e-09
-2.263021144939977e-09
-4.679703272569713e-11
3.478953213857493e-09
7.336764319574115e-09
9.818174143302604e-09
8.901392133550451e-09
3.065809528114307e-09
-7.667715121848937e-09
-2.0852420024599506e-08
-3.141338011201403e-08
-3.2623056407425916e-08
-1.8457523136971073e-08
1.3026431492635985e-08
5.636508176094478e-08
9.708117325820819e-08
1.1358684978823666e-07
8.36953338999766e-08
-4.7926519173222094e-09
-1.4227980146631008e-07
-2.8945054181289825e-07
-3.7939707057024236e-07
-3.3457737136928414e-07
-9.885692419835708e-08
3.224015919196631e-07
8.292862455098895e-07
1.2216949805387486e-06
1.2397961508459938e-06
6.574094480151729e-07
-5.869959858890159e-07
-2.2644103685083157e-06
-3.7995047271311263e-06
-4.353149231901787e-06
-3.082833641880911e-06
4.4409025649206254e-07
5.799295126309617e-06
1.1404829027078417e-05
1.4643481858743248e-05
1.2545377642353879e-05
3.046886516173181e-06
-1.3466366888192659e-05
-3.2927924289225755e-05
-4.7458053999058905e-05
-4.703369807179805e-05
-2.3183994612294592e-05
2.593412616576294e-05
9.078056020943248e-05
0.00014852623324362651
0.00016659005210004538
0.00011303464295024018
-2.7321247815122997e-05
-0.00023569584100356677
-0.0004488868722672478
-0.0005646333202906392
-0.00046933269036935173
-8.742382743828218e-05
0.0005593376084739873
0.0013062003338106625
0.0018437682225893707
0.0017867893833346908
0.0008204084385259237
-0.001103221482574228
-0.003585732268281086
-0.005719553150519795
-0.006240693660928694
-0.003949641153093955
0.0016464962012477794
0.009649267259725425
0.01733777144323244
0.02032394463081543
0.013518699992887035
-0.0071451762863069535
-0.04268239598554238
-0.08951353366350964
0.06074142814320057
0.019712618511669333
-0.0007054755694039101
0.008139399641559821
0.04864386230340997
-0.08485780565255582
-0.0063688559223232175
0.06312260502684439
0.09875372014045834
0.07687046316687485
-0.018087506424375746
-0.18624495910156177
-0.20729483980133237
-0.041223649683562666
-0.03685517156460985
0.05267829369885674
0.2518318094417725
0.34844180996264545
0.08986501514374122
-0.006972435635047382
-0.23311238656971842
-0.25944569860666206
-0.3126671175296526
-0.16421227960440213
0.06334801891799348
0.27439979265035114
0.3707411704267014
0.22522457808215285
0.06794448888586392
-0.11099945362086214
-0.14496000468337533
-0.4686355260650757
-0.3005620581328639
-0.03811893564213714
0.3328659512470649
0.41903991309020266
0.4012277823798911
0.02719733507126018
-0.17964319814313592
-0.4988617871880053
-0.38868662239607393
-0.06994212789559628
0.27495564655288257
0.2888172332729237
0.2197986567634152
0.10438187187305453
-0.04012923330831698
-0.21250177995351408
-0.21786768612398688
-0.05789406386924048
-0.12645954564555054
-0.013111930002995709
0.08764356505715716
0.3667539316156646
0.59807834432707
0.749116161523661
-1.194153583113724
-0.7965786866047517
-0.5537692114271238
-0.29951511802454933
-0.04705112710502246
1.7461786410250137
0.9146937392672121
0.15017285684872148
-0.3863150194987905
-0.6066225570434084
-0.6125512458065762
-0.21599162721401424
-0.08659483478408157
-0.33993868363970814
0.03361333238975475
0.3094894868954057
0.5559613780798925
0.5677677050129891
0.42436908818695745
-0.31696183801587735
-0.5948035687353564
-0.5966474815603602
0.29094163648117327
-0.2794369493660671
0.4047462031626345
0.5217934336074118
0.11320256894331918
-0.922344115007513
-0.038461094052804706
-0.25815260477311613
-0.0016327535160814077
0.6781453354316709
0.8620781300886283
-0.4541596385916515
0.042952323904204476
-0.1914868279072988
-0.726528841643446
-0.5239168578984524
0.8805997531611948
0.18119648803458163
0.09740518255635935
0.17071585583268462
-0.031046937511796255
-0.101330534924954
-0.17971682751014814
-0.34212748624857453
-0.4042837258426077
0.05688638100423126
0.06511557963461434
0.5982255535146676
0.5467415330432146
0.2919050150588612
-0.2882148277176532
-0.1857283403565916
-0.6141845011721544
-0.36040348915455805
0.04854749855336907
0.3560861581758524
0.1666467401741977
0.12464887068962302
0.09179059198137424
-0.07066973958824835
-0.3127160447433385
-0.0011020284209196653
0.07772187661980423
0.11602778840517917
0.08567997454390798
0.143835718880794
0.04508304645432233
-0.04074142583185966
-0.10869727716370174
-0.3028442229230013
-0.31111622315424897
-0.17619536998711102
0.07665755664416199
0.39997892813879465
0.4835741920017187
0.32639285382285416
0.03127647935755773
-0.17451076095727222
-0.4992438144222598
-0.34018550714185125
-0.04485453849988333
0.10987669134975142
0.1183045403576875
0.030262078658192387
0.126998665017718
0.09622851881247452
0.012019275816752578
-0.07741049569377251
0.046614079999474825
-0.02317821997977794
0.08879738699866853
-0.04730058409461437
-0.0545093127021582
-0.13898016035924143
-0.08473844905819768
-0.05518558044945368
-0.0014165239081107078
0.3249836690892127
0.15897604715550767
-0.08640659949718833
0.17869790934320048
-0.47373346551473594
-0.2815877020474195
0.11354330681478833
0.468336796640332
-0.06270969875913315
0.4743852976903383
-0.3596155224667282
-0.38495916971761296
-0.1909152070208771
0.06948176213264595
0.274256809685583
0.1181859382982007
-0.10576305901973895
-0.12419413232035538
-0.09730060000723562
-0.027858403984345373
0.43635759048025186
0.609674663808665
0.38802943683364777
-1.1201911690111146
-0.7605564271478015
-0.31096362086200297
0.1149463978411911
0.23697101810877907
1.1615463223212061
0.5389721983271881
-0.056674986513129105
-0.5169974585045237
-0.7648429514666243
-0.31340300789743997
-0.03723579931133139
0.23464351805390035
0.3052651399339909
0.3863849821510596
0.2785009023504178
-0.03624417095562896
-0.3860446368349512
-0.39167535251896995
-0.44873085478894265
0.28156412812667453
1.2704640353672139
-0.5869317815012844
-0.3804966574565279
0.20846212300663386
-0.5001087670974911
-0.5981046645392305
0.9904335166375613
0.4864772893051262
0.04017421554506126
0.13132877129633733
-0.6109386600782477
-0.1751699656510363
0.06785506120898746
-0.007245430904677733
-0.06614836706897032
-0.1145387217993866
-0.10950757696214827
0.22143059671510348
0.35931986736211846
0.3773857313704498
-0.06523854356925762
-0.31862617910842783
-0.33115842517436406
-0.642217485459898
-0.3875344381256286
0.480134550121388
1.162427915601894
1.1950552035296609
-0.5472975632929923
-0.6143613670320333
-0.5226595430134681
-0.7006808504864002
-1.0617727003123736
0.7811323108360745
0.6619427836459842
0.5881736860266628
0.6754350456998813
0.1133195803046845
-0.22689647047900655
-0.3484433994811681
-0.6673248949627666
-0.7557849817564801
-0.11041976941514234
0.4464166168020566
0.5372134694778793
0.5884600503780097
0.19823494067766648
-0.07364445818322735
-0.2900178349255658
-0.3034292339051076
-0.3201852065328699
-0.07575763938976632
-0.03086822915316295
-0.19040421495866597
0.059453650430451505
0.30552883877584364
0.6659885521697141
0.3656473028761535
0.1373644891757725
-0.34970004255225934
-0.6447327266788301
-0.8704766669198376
-0.29745540141434634
0.25223110034075985
0.7748378569894055
0.8453392561530441
0.5907838518798053
0.09385557729911001
-0.5706132618901164
-1.0803815243744785
-1.0173905068543063
-0.4516792513497129
0.42967158942187034
1.2562740226574247
1.5969334035648208
-0.29658655215583113
-0.5018842316310815
-0.3924028511575613
-0.5754270035752941
-0.4267341791885516
0.7575898733403337
0.18256698387190376
-0.8507980015160204
-0.37235298013366386
0.014375825752229038
1.0814021384167238
0.7309389458659453
0.5720587965106096
-0.4695114100285636
-0.911208048253329
-1.0605700847580253
0.026888154822348048
0.3614995267176179
0.6027802524521682
0.424536972069516
0.07966776616637797
-0.42179418683356845
-0.11732509472501876
0.11680371269571996
-0.019231008772505442
-0.032436044611221265
-0.022442017914233017
-0.07027285251851045
-0.031415411211037914
0.06644175373718403
0.02154720598654311
0.0534936540789888
-0.0024314205775033126
-0.10068565290498296
-0.1901439908908261
0.18228224382322275
0.8699493945341579
-0.6718370866674267
-0.18060689073041625
0.01872788793561217
-0.18649954887126743
-0.9081229747246612
0.7195819395288253
0.5101582045401957
0.4000988404964254
0.24236816409739517
0.22733518393520466
-0.06980265255430226
-0.8269371894778551
-0.9178111397078624
-0.2804679470698753
0.07470164487799902
0.4172373209503808
0.8240269404322739
0.7055436867899041
-0.24653288102477358
-0.6777621429140024
-0.3561723839303574
0.46601654823428124
1.303744026094824
-0.7029687014004983
-0.7301468510173502
-0.02062041402038836
-0.8600699779549794
-1.1920033051417755
1.1251596928700052
1.2309243677205155
0.17134468742619954
0.6341713997309916
0.3330441988325277
-0.15399020064102562
-0.5043817686023798
-0.7552946623253224
-1.0235939296347423
-0.8693024879253162
0.0830860387486827
1.0711843001760522
1.495452990622406
0.832316386703187
0.19405446812409013
-0.4493188595778715
-0.9966304277716711
-1.1210130583333093
-0.39069823518065744
0.16766970046516397
0.45504221437737086
0.44671729495255913
0.32310298333571835
0.20890347038380033
0.1381547613231843
0.05231304107060575
0.028991371570746965
-0.06831414607038219
-0.33380195040370125
-0.7725951088118176
-0.4788534122089095
-0.0484584791593996
0.37428690427805905
0.8287715147399112
0.6707190313424336
0.1276917310638163
-0.30884535977820504
-0.4550164953975778
-0.38180653341762866
0.24472062002930414
0.21590624116645374
0.017813124783687725
-0.34957474101209957
-0.5729614816747485
-0.24791902167137347
0.2781659409393908
0.6496409431576052
0.647034401686979
0.1492583505747794
-0.2748143903688089
-0.344593701016933
0.3743864093111113
-1.282155631858837
0.1609313666861227
0.4381074958697006
0.3433561653880386
-0.6835224354257464
1.0241063425261219
-0.2576968965894695
-0.4562906034254692
-0.31144929103100255
0.21663432833239377
0.33858755129799406
0.22846490927780527
0.02278447118642392
0.029875667141436316
-0.2511285226317815
-0.30702627910509633
0.009448020879620433
0.09002301610528651
-0.030986680171056324
-0.08958932483639354
-0.012345472558735832
0.06079037612249269
0.15625727619717464
0.2549435670360601
0.2936413955915285
0.182630801594146
-0.16247793226723
-0.5824511114486363
-0.4424959757701695
-0.4205231351555376
-0.1245750415349938
0.26148024135961057
0.9161226314437513
0.5222351826485411
0.2336482540043216
-0.1210589255691949
-0.19791087327299742
-0.4730508649883872
-0.3744750209554229
-0.4299264958072362
-0.2447221498077774
0.2866383132228046
0.5420474287730995
0.5218186013103278
0.20493023951074849
0.1245786094113818
-0.43366273289045265
-0.6181390406681552
-0.5951500747229012
0.25681872167271586
0.5378675453478166
0.40800591852475443
0.17132894948806515
0.0744785284075922
-0.27637757955628756
-0.4844465400345069
-0.1269288503393993
0.2746825699443129
0.2729811705789079
0.10136095687427712
-0.12888164398630017
-0.6406049866536264
-0.6144564616074315
-0.026312606583746408
0.7049872499086987
1.2724426327292089
1.2574810242415475
-0.8560399449787138
-1.0301960687574314
-1.0033139107809639
-0.8333271339416278
-0.08018958993495687
1.3656127167342087
0.8234862830563434
0.36057542518394775
-0.04609025161784272
-0.5104319089962733
-0.20567108629502587
-0.1158389609294376
-0.18800572438596794
-0.09824080268463635
-0.037713545189152445
0.08054757564112772
-0.0018769355059684303
0.07759091092593731
0.06669538646079667
0.26790450131732474
0.11961978426076746
-0.007103907095208389
0.004067373980968153
-0.16018890974826128
-0.211807936822661
-0.031808327807819475
0.1514157007068189
-0.027651606683638225
-0.0738142056799074
-0.2452678118287824
-0.17864146359580782
-0.12289063915243006
0.6227823655476195
0.2754180753470087
0.14955822381289277
0.061426200709996104
0.1579796536264547
-0.43466369100194174
-0.15468994373112147
-0.15375614164035445
-0.26459879108153894
-0.39561489832976465
-0.15480436441635456
0.101655760688133
0.6083695545566395
0.9354033476152023
1.1581739129165145
-0.5346913566117595
-0.9976706479657812
-1.0685783643572204
-0.9228581182757232
-0.46773178604826376
1.0163453414786248
1.4031608632566854
1.050900525591392
0.5709256737434966
-0.14403810210433124
-1.0371316997530715
-1.1789919605022958
-1.0749523585944278
-0.42444587691600905
0.04993145184940709
1.1122745905150968
1.0934861207640507
0.9838936813674676
0.3755989269951952
-0.32690145733998927
-0.6338941496706629
-0.6622903743409748
-0.6288036705900947
-0.7781204813381104
-0.16676511816794898
0.2946597382289448
0.7563404551785159
1.1300692783078872
1.2086855618661836
-1.1714200054783384
-0.5183319279951947
-0.2364010868013037
-0.5660519613501466
-0.5337412663731304
1.4769921939781598
0.3351259644227076
-0.43817912993028924
-0.4713078690046898
-0.14396289468741255
0.006461376524013155
0.0700515096167394
-0.05726128183915366
0.5047414282259388
1.2080133830655695
-0.9204500781451398
-0.4591465067262504
0.03488642163737468
-0.35403859919726993
-1.3005007600084495
0.9364477366108438
0.6679574630409894
0.5261685432941122
0.23179396969002003
0.19461136765234058
-0.04913060026880042
-0.37172236114197554
-0.5802610957513111
-0.5566514915846905
-0.43094289908426625
-0.19857888548175925
0.22098646528707735
0.7004278824373543
1.2213448145573127
0.619634227553762
-0.020789364761736873
-0.5231622221860234
-0.9387761841510524
-1.2639296030538985
-0.38412696860863377
0.5357502559006824
1.0171565990969273
1.0102916035860106
0.041663738865919314
-0.21192933720960636
-0.5185038889998231
-0.6667167903399914
-0.6414490726890866
0.3852975952064831
0.6437495482209381
0.5439025895226831
0.055961888368587315
-0.09405566089721598
-0.2104714222687727
-0.40239296369399297
-0.3579875392995358
0.07095118047154164
0.26928528426635606
0.24591851118734145
0.015594955765910495
-0.016828516724828074
-0.06447949422563423
0.042375847678985654
0.06491654276442742
-0.02997018227296863
0.14803099897834202
0.03121229171734504
-0.09035404228120178
-0.26062097920563015
-0.46276838241612417
-0.44280564793879246
0.047352255535841714
0.7935197099750653
0.4639421872741074
0.5738610422269118
0.28554643265755003
-0.1512822207442521
-0.9276702359239758
-0.5927325545948017
-0.1844981991586371
0.006728031037029724
0.035760997413776724
0.2669323513390774
0.3203269779271181
0.41737632630217075
0.340886196595993
0.21819417204432226
-0.6728211652371783
-0.8843315621434084
-0.5806816109314964
0.2652555142192727
1.4592064063154697
-0.033281040206305096
0.7053932812763409
-0.04024270881337243
-0.9831895200796293
-1.7934053914139887
0.7263725526401059
0.233398724042203
0.40715917136544577
0.4975058326736663
0.28107202927894265
0.04364606132426177
0.19588713662463939
0.11898176471692831
-0.3718617581368225
-0.7639941814501382
-0.8040996377743422
-0.29209227352327066
0.08097420818230835
0.6591573251919834
1.1346223413883831
1.0769984623941968
0.10402352792313205
-1.097585382662404
-0.913091212842053
-0.530109808796504
-0.28761464019284355
0.13953786613620198
0.9221109088153153
0.6406280806955648
0.25435889331596084
-0.10785171028227966
-0.3304521911576663
-0.27644467051411525
-0.35149033492605797
-0.4836375929067466
-0.3297954134626157
0.08911529677969945
0.5329608193881193
0.8850715880529154
0.9150279900174044
0.07966583947324299
-0.23256073792087265
-0.8263561500560314
-1.6207350839530452
-0.7982598280234412
0.5953710739900778
0.9999597560087129
0.8590884573973867
0.9421794207336247
-0.09953171805761682
-0.7303870980452691
-0.889215191439538
-0.1319165306373651
0.6185970909078385
-0.4996858026702254
-0.2854951519260518
0.3067260942113904
0.13412363845383954
-0.1710161071170677
0.9699883958683327
0.47172032280468296
-0.40151760067655656
-0.3996214142760547
-0.4398022432047128
-0.3661229650194752
-0.130998360374272
-0.4060035718807999
0.3814347355655544
1.5986096262931828
-0.4358613454615336
0.5277289161279641
0.08047158623349743
-0.8107143163047381
-1.7620334377279494
0.6537786633703891
-0.09482818017142688
0.8710590655174355
0.5971476074449057
0.26106565163580026
-0.03716261843768046
-0.25507220411391546
-0.5666371042175501
-0.31626217963459424
-0.1844158006436257
0.024656966526076716
0.17199396036104633
0.9570926684798559
-0.5130759474795149
0.051244733806839526
0.10908987175574233
-0.11475639756021855
-0.8278315164151304
0.5328927618909068
0.1029966515126111
0.7939948994358388
-0.4967495367236871
0.13396226712401685
0.023215517981831746
-0.2295592472792024
-1.1440035327699547
0.4406697973777305
0.14180247857949138
-0.010201001542082672
0.5765463128705582
0.21060955802481027
0.09181884538570748
-0.08822653088906982
0.2793267542658487
-0.43644285536453487
-0.25743741172508056
-0.3548856961668572
-0.225897139639631
-0.09398754574361091
0.2683533199748051
0.5046795389074016
0.6416862844432781
0.27251995218268604
-0.23605899830779267
-0.7157688903659533
-0.7614353010794497
-0.10537761417865835
0.386298467036611
0.6947658830574295
0.4168803486756647
-0.2656761453622973
-0.6082928254018249
-0.5169728690346397
0.2407196293336328
0.42391018305274336
0.509687402236183
0.29668306804140576
0.3290160827672621
-0.8590653995599856
-0.4874324231786307
0.12059060607392497
-0.03198232677707921
-0.6159995861094066
-0.00688597304375993
0.26091502696819197
0.6284753712032601
0.45280776695599134
0.36999698810211873
-0.10851074994537388
-0.36693187448812137
-0.6348411970062032
-0.3330059338158559
-0.03159132868158873
0.3707193416706091
0.4481764581972617
0.23857902076624785
-0.16753206927402545
-0.23460847532441095
-0.389014680678539
-0.23140434283826825
-0.15971433225469733
0.39756665051558365
0.5452052699274182
0.49425328325198253
0.1558795683848768
-0.23917833825890883
-0.7010545530000619
-0.6353612362398237
-0.208541077903696
0.2654003806349581
0.7176002012305811
0.7080428839438219
0.21564360988452033
-0.3554567863062908
-0.7554227997578898
-0.6673349717449123
-0.3018676873306914
0.1812143487610179
0.6269226073064579
0.8291917168711678
0.6860952984989342
-0.4173161377896987
-0.9945237038024207
-0.421463239425468
0.10377943614820231
0.19172736043982208
0.67951044603193
0.6419940206459516
-0.3965385779700051
-1.049044532576518
-0.858615186386008
0.0907233363161794
1.1400982949567744
0.007035229764384615
0.5408775493174278
0.5019905583127259
0.17544192743609782
-0.7830595312465986
0.11677502986764585
-1.1402724550565715
-0.6418592283095702
-0.3575382818740731
0.40730714011764113
0.9278763688433663
1.5753534961368785
0.5637660698291054
-0.04942439514587541
-1.308312056415646
-1.0718805156168405
-0.9318184355451811
0.23282773459778602
0.4502978804372301
1.0091308385135167
0.39446858264261836
0.23500357245966083
-0.5217065289354191
-0.40248398125608176
0.021181831581057048
0.3735105323958319
0.3159623262379354
-0.015547072421244812
-0.582681964737443
-1.23382411811797
-0.3197175964522084
0.4602461609321557
1.1897623992609132
1.2677851956702653
0.5682523678225313
-0.7555848982167689
-1.2262055031705288
-1.38057850182352
-0.5243416131126074
1.0775874696335548
1.3756735279050676
0.6982934431037355
0.13084393150798537
-0.471540262920009
-0.8414757463679176
-0.8478716848503236
-0.26107114046339525
0.44812618967014833
0.07390799764828873
0.4184903784949215
0.6335647193559963
0.38007607855761133
-0.18111642718282192
0.03395243515777921
-0.5213461948366407
-0.571817925144971
-0.38040554982167585
-0.1340510986874338
0.2408918833001574
0.6414545707813416
0.5452937418461704
0.38043216556641457
-0.08037976331802488
-0.49987241651684006
-0.7418661036342452
-0.4395774666913158
0.01806125944713652
0.47632827003823947
0.5873526966717949
0.3802800241568117
0.04402093985879732
-0.2697161302524048
-0.42584106742444083
-0.2784021939457432
-0.04877261163060928
0.08197772771600428
0.16498440563859448
0.06433823181731418
0.034147395999008234
0.09901097626560049
0.042826911388517595
0.008322726065636887
0.10744414996726252
0.040801592090822
-0.0773525269538954
-0.09370005294294788
-0.19621255340387223
-0.30660046270795005
-0.2894939665029192
0.02082602215851534
0.3809734624138404
0.8969862484017813
-0.005379678804072335
0.012529822748628995
-0.17887890258007239
-0.34011467568444875
-0.8205135307845483
0.27451726200881027
0.29829434191434717
0.2595404207591957
0.00770658381876918
0.015380486854463499
-0.2368813506676888
-0.072250860157084
-0.027097906522095462
0.1410134488507399
0.2481042766258052
0.28423698176348816
0.021966462743421823
-0.368139301825164
-0.500403413729148
-0.36384514369712934
0.07412370922420658
0.4495336863653201
0.776898975071116
0.03015363417043679
-0.05969059507825354
-0.18738116083690481
-0.24347520610729745
-0.8841626992376884
0.2867233424299589
0.3166517742246795
0.08576561001754732
-0.12092280163697713
0.5601292701347311
0.15460543068753843
-0.15190518532786937
-0.20286420839172514
-0.25232874380892273
-0.3478405866716119
-0.12235960688601119
0.20186219307897624
0.40107496737886
0.43841615808076567
0.46309835000209104
0.02641489041789552
-0.6881124115320685
-1.0327603047789726
-0.4794843442380887
-0.033870883587265824
0.719120848134338
0.9516897096733077
0.7364204526824001
0.01948792735360913
-0.36527678006872427
-0.8478508224411451
-0.4588049868815482
0.02542949184201279
0.11255112988720659
-0.0046382698447471615
0.12991715077015323
0.20240836225732164
0.2969963890895165
0.2746178400478639
0.16858554042309845
-0.20311756091461694
-0.6156234326808171
-0.6168796711099754
-0.32152199092793504
0.37484465764898983
0.7655317142270651
1.7015071770029992
-1.023746565574887
-0.6643781501241157
-0.49344767197804895
-0.17255840518718632
-0.7363847290984253
1.4021227281553728
0.8330261250023635
-0.0681684792969123
-0.5446985079646801
-0.6479440577567835
-0.22179550477932294
-0.09479693898640001
0.3134726914787043
0.375492008296763
0.43951087760575647
0.42622729814156574
0.04561597583166509
-0.5682329647766544
-0.8162669289736205
-0.40546621408585276
-0.1476216747445901
0.20803294467880817
0.5157391262561112
0.5658902252721908
0.43132027582315347
0.044578350473776104
-0.18681025779928642
-0.1320834195819182
-0.07015946940816001
-0.6218986820345372
-0.29886949768996895
-0.08102764534423908
-0.028185600233734315
0.07876484097761807
0.4787617371381108
0.36993214865719354
0.8635064380092321
-1.0367864615317797
-0.22793074958624873
0.11949721483044487
0.19776185871858645
-0.8009981983996879
1.1490502166168945
0.3377037706423299
-0.45443698895892176
-0.7355288603906646
-0.49659576719985576
-0.23044749721225835
0.019779959936672475
0.5891534118293794
0.9146042989174702
0.6770335568148756
-0.018834707740624075
-0.4200657601927428
-0.6657819460572245
-0.7132222282608898
-0.07308961207859957
0.42989584943221576
0.26806681731716525
0.2012805748005472
0.058774850642186044
-0.07825947938289637
-0.2898226491869124
-0.22717065248374477
1.0773788282724042
-1.0008099697080275
-0.09164117693315202
0.35503867867097877
0.4531751914709707
-1.135829435424542
0.7832582660600214
-0.06861480149208457
-0.04458148045174923
0.24000338718115677
0.5338982195017308
0.3911143480082475
-0.3774684334959317
-1.053083008313171
-1.1761268536859315
-0.34915490334051275
0.5164875980586541
1.5212496474821522
1.2934048731103744
0.3337524648265772
-0.7899797034080775
-1.001554446773996
-1.0515730657986202
-0.26146187027522644
0.5014877480753522
0.6148304881786334
0.47200629029476837
0.25597240129085397
1.533538739353492
-1.9236981522026457
-0.5008035011982679
-0.10389627905957252
-0.5501810928842932
-1.7970770947459171
2.592289468402149
1.1668421245970333
0.11945406223978969
0.2621935723804178
-0.1426191812008172
-1.1059117603591369
-0.8167289550704299
-0.15913801411752818
0.3363342161565131
0.29953299305559294
0.09322099686651428
-0.03366669677075543
0.20267832384798626
0.07563699177243369
0.2150352039487012
-0.011232896883829634
-0.10169549211154827
-0.41615669721977083
-0.1673753246808706
-0.21554139053469565
0.3322413467824743
0.5209199286454065
0.5528030312059061
0.00703250522642726
-0.324864497832708
-0.5947695795652317
-0.6601374470459943
-0.26855863955465176
0.12623046675697625
0.5199712233979427
0.6999784365044698
0.5944090049703167
-0.15352121530374388
-0.3790699500301851
-0.36292156296709843
-0.18640040279902578
-0.0914554635112404
0.14285532829030598
-0.1972005480679843
-0.1773588244794406
-0.04750718039041102
0.31873520736016764
0.38670032237875746
0.5366113254556469
0.06187397983102062
-0.20742480734865282
-0.46185426143828395
-0.46444378599853986
-0.312961792616634
0.17552317973886528
0.2547675796930668
0.2202637366359312
0.1724458517663721
-0.016256332879093754
-0.12289321080770949
0.01866989143920933
0.12368210733819396
0.0733824646061178
0.14018415985526353
0.01782366739412647
-0.3486250162681801
-0.5400336505941409
-0.05549399000686617
0.2755374627139188
0.06234454376032331
0.11068945594557664
0.17971770047422916
-0.05221426339677475
-0.0060612113827170355
0.1984465889535135
0.36313025010467836
0.2498960683636975
-0.16730600449501018
-0.6467244485475618
-0.8337717932085955
-0.24234157680951768
0.127776493094673
0.5396183267266967
0.4488264726215448
0.636413985668554
-0.03537000907165114
-0.23305543443626897
-0.12864290095630668
0.2467559537918856
-1.142210355270973
0.11441322686581709
1.3064286700341001
-1.1807498047582907
-0.4680837054346359
0.9999793105618396
0.026335939821609283
-1.1751544083104735
1.1833247192955878
0.23255985434255647
0.027260501408646456
-0.25699367306897414
-0.11134238168004404
-0.27177038374954726
-0.09611780090768221
0.053691305448951954
0.22229549599380208
0.06673947124317019
0.06198132408708419
0.10996613142089405
0.1536719580086947
-0.005615587829640764
-0.4925947189445316
-0.35096272984164195
-0.15260373953812104
-0.027067536142305948
0.09120077080063343
0.4077668559292198
0.4200176529124144
0.691096728878642
0.05652966346329443
-0.3351266132715274
-0.5576389467989339
-0.4375421117931162
-0.7011404144742577
0.04620606625435342
0.5044022082391846
0.6352814450640499
0.20902132115426184
-0.041607619631554654
-0.2479172280359093
-0.2111385166525911
0.20772864338730476
0.10763161284323731
-0.028007412753750696
0.09490876788690328
-0.19429519472490986
-0.3127811881990811
-0.21743045195636884
-0.013375344127120624
0.022326454936980766
0.4072739722512673
0.2201947443767879
0.2780127596719903
0.13131733354119696
-0.11997210669659675
-0.3959580638791028
-0.4017858598037367
-0.20059866694019327
-0.003446857318798062
0.22181416884058883
0.3282503689226047
0.36471286063123903
0.158516770878478
-0.08784457860933419
-0.3868192244394211
-0.5501614913807853
-0.17770588116439964
0.34206396343711026
0.21936345119431216
0.2454602665063302
0.38047229865002163
-0.045131675583217665
-0.31309193238002564
-0.08851473381817104
0.011230006054723962
-0.16014736786673656
-0.27007710563470677
-0.5192140652675746
-0.07349994647105121
0.48931736065291676
1.3309948023985145
0.5185958492217743
-0.5816852997687497
-0.881170001227331
-0.7290958150882019
-0.47749318711732697
0.534158064797093
1.1737665295489341
0.7042576196268299
-0.018404430183201176
-0.927518752355197
-0.9142196564787812
-0.19955824074416004
0.2731692664692267
0.42035081778519373
0.3823432291285388
0.2856842034956667
0.017380299734605087
-0.1820663967324884
-0.30894590693448426
-0.17800661316136931
-0.004965870866200761
0.0034785689107190015
0.05028697116223714
0.14174899645080666
0.07875630072884776
0.050270327903178536
0.032036375224178466
-0.008725961556272324
-0.10421406693422008
-0.07568141981427846
-0.12552600321552834
-0.03482989556323933
0.03243750260375011
0.11966278168793637
0.06537618393364035
0.09250707946656593
0.0023636591105085057
-0.025193448469181492
-0.02600097444606525
-0.04248460125629616
-0.11410306692975744
-0.0700037279252235
0.07449730291704057
0.11757005049616698
0.06812571128608787
-0.05727159910887113
-0.03649169543133825
-0.04299062779064048
-0.04710705025826789
-0.018578932620932097
0.06946853993176211
0.03587645933196822
0.08768480785974189
0.018766571182890483
0.01154734960255762
-0.15885099730110028
-0.11993146767715478
-0.09885761743007432
0.07757691968092645
0.18104856083270507
0.3811458692351782
0.25007935098622774
-0.2256343161555657
-0.629657006984744
-0.5046231653816341
-0.15462362766710797
0.3341949319132415
0.659897156469504
0.6713062935138062
0.15017749610177064
-0.38210580133099437
-0.6360945893955576
-0.5172716807164589
-0.09684677059108462
0.3988044891040457
0.3796208549309627
0.07273855314999231
0.10409452898044308
0.08874369477011464
-0.16819685229634287
-0.26339665444501753
-0.1862371121404948
-0.11498648503732131
-0.021437271607384796
0.31749817356623045
0.5071695971594076
0.32935179947865995
-0.2513600999341113
-0.46983134277893546
-0.5395422797186388
-0.24032732532760956
0.07678379329467376
0.4677043929011166
0.5658045178549339
0.3591140964200779
-0.013668139725210748
-0.24455558983385914
-0.42153038228387524
-0.3914802762169985
-0.33584398573589574
0.030983137595306482
0.23924930555942775
0.42531281062461074
0.29068351288861616
0.27275935028026327
-0.06354146239803554
-0.21202143996496658
-0.2958236206216737
-0.23354820898860343
-0.11204261808311133
0.02693207673686593
0.18488113114412988
0.19365893052160402
0.09832240707216994
-0.05774947805159007
-0.04173783184769646
-0.03389604558884076
-0.02559499739465687
-0.015411001942631938
-0.005218215052981159
0.002653517007523587
0.00690495924080479
0.0076054179463805795
0.005819500143224934
0.002975739240387602
0.0003121203749124039
-0.0014337267118786831
-0.0020715227728977832
-0.001819283100707775
-0.0010879221960853073
-0.0002841581994287636
0.0003135487436975667
0.0005939990473178648
0.0005861027947223105
0.0003982057141838068
0.00015503618456822496
-4.7244051313050174e-05
-0.00016054718196673566
-0.00018220073259105307
-0.00013909995485553002
-6.845976047854426e-05
-2.4181690570273565e-06
4.012198001888499e-05
5.452750658392082e-05
4.6639435104180385e-05
2.7105109271841652e-05
6.293035124311437e-06
-8.837817979031086e-06
-1.5655787612657238e-05
-1.508787913047811e-05
-1.0023741293663945e-05
-3.6937996047709227e-06
1.463224397029055e-06
4.270004699446444e-06
4.714468284537409e-06
3.5256069806241465e-06
1.6739946181982838e-06
-1.95863757201881e-08
-1.0850732649358147e-06
-1.4208947847660286e-06
-1.1903110283893514e-06
-6.732425281801638e-07
-1.3613908034920159e-07
2.4615878178725196e-07
4.1129497380660265e-07
3.87530896672087e-07
2.516525309307569e-07
8.720542776580313e-08
-4.403943877354435e-08
-1.1335047066367176e-07
-1.2186060886296512e-07
-8.924597333577533e-08
-4.078016786721254e-08
2.6024019269540308e-09
2.9240785967695905e-08
3.6977896444053795e-08
3.034276095220734e-08
1.6682732960755543e-08
2.8373661057438562e-09
-6.807822704708327e-09
-1.078760953376981e-08
-9.94149738934166e-09
-6.305585053954401e-09
-2.038292410158023e-09
1.2975461497064728e-09
3.0032885936144166e-09
3.145084302855313e-09
2.2526210204226314e-09
