0
-6.1167624613513295e-06
-6.11676246135132e-06
-6.116762461351313e-06
-6.1167624613513125e-06
-6.1167624613513236e-06
-6.116762461351346e-06
-6.116762461351376e-06
-6.116762461351405e-06
-6.116762461351415e-06
-6.116762461351392e-06
-6.116762461351328e-06
-6.11676246135123e-06
-6.116762461351128e-06
-6.116762461351069e-06
-6.116762461351106e-06
-6.116762461351278e-06
-6.1167624613515785e-06
-6.116762461351933e-06
-6.1167624613522e-06
-6.116762461352196e-06
-6.116762461351764e-06
-6.116762461350871e-06
-6.116762461349688e-06
-6.116762461348631e-06
-6.116762461348292e-06
-6.116762461349257e-06
-6.116762461351806e-06
-6.116762461355603e-06
-6.1167624613595e-06
-6.116762461361635e-06
-6.1167624613599345e-06
-6.116762461353008e-06
-6.116762461341237e-06
-6.116762461327611e-06
-6.116762461317767e-06
-6.116762461318753e-06
-6.1167624613363675e-06
-6.116762461371583e-06
-6.116762461417261e-06
-6.116762461456961e-06
-6.116762461467652e-06
-6.116762461427224e-06
-6.116762461325931e-06
-6.116762461178365e-06
-6.1167624610303896e-06
-6.116762460954693e-06
-6.116762461030532e-06
-6.116762461308487e-06
-6.116762461768895e-06
-6.116762462290755e-06
-6.116762462652556e-06
-6.116762462583092e-06
-6.116762461866276e-06
-6.116762460479627e-06
-6.116762458717717e-06
-6.116762457231035e-06
-6.116762456911998e-06
-6.116762458595569e-06
-6.116762462614429e-06
-6.116762468343486e-06
-6.116762473952002e-06
-6.116762476606034e-06
-6.116762473282752e-06
-6.116762462150511e-06
-6.1167624441629236e-06
-6.116762424205551e-06
-6.116762410970428e-06
-6.116762414881871e-06
-6.116762443964648e-06
-6.11676249849645e-06
-6.116762566374402e-06
-6.116762621893513e-06
-6.1167626305194885e-06
-6.1167625607830576e-06
-6.116762401567651e-06
-6.116762179401191e-06
-6.11676196723267e-06
-6.1167618754257665e-06
-6.116762019086232e-06
-6.116762464088094e-06
-6.116763166034104e-06
-6.116763928130654e-06
-6.116764409715727e-06
-6.11676421063775e-06
-6.1167630339280945e-06
-6.116760892043283e-06
-6.116758280326128e-06
-6.11675621317382e-06
-6.116756025399508e-06
-6.116758900391079e-06
-6.116765199023844e-06
-6.1167738044027225e-06
-6.116781814545027e-06
-6.116784936410947e-06
-6.116778794180182e-06
-6.116761037688625e-06
-6.11673367638628e-06
-6.1167046194983495e-06
-6.1166872026253765e-06
-6.1166967653494666e-06
-6.116744254777959e-06
-6.1168282810782676e-06
-6.116928641670728e-06
-6.11700535793144e-06
-6.117006898767385e-06
-6.1168888706795605e-06
-6.1166400385799065e-06
-6.116307108819637e-06
-6.116005342444076e-06
-6.115901543690286e-06
-6.116161773044682e-06
-6.1168690778727414e-06
-6.117934381755241e-06
-6.119040477013047e-06
-6.119665936055152e-06
-6.119223544958212e-06
-6.117311508905844e-06
-6.114019087090922e-06
-6.110167627104138e-06
-6.10733071647045e-06
-6.1074953130304904e-06
-6.112322468366721e-06
-6.12213956481487e-06
-6.1350048724351865e-06
-6.146347406289336e-06
-6.1496934911365264e-06
-6.138752727717571e-06
-6.110624396736301e-06
-6.069194462210373e-06
-6.027159697988548e-06
-6.0048845502402465e-06
-6.024815716982262e-06
-6.101628604279309e-06
-6.230484316402335e-06
-6.378087647402276e-06
-6.482578649027835e-06
-6.467438493832844e-06
-6.270690898643113e-06
-5.883886124964746e-06
-5.3873336318986424e-06
-4.962042681225374e-06
-4.858966917484179e-06
-5.315927665637097e-06
-6.432788785226579e-06
-8.042167126928487e-06
-9.636803590110145e-06
-1.04222752318053e-05
-9.541822752306999e-06
-6.462395310406995e-06
-1.4252381734881813e-06
4.223572074561328e-06
8.055220811841813e-06
7.126665701118197e-06
-8.674509390807364e-07
-1.6088546869480116e-05
-3.52301409315429e-05
-5.113447306770727e-05
-5.408458333864364e-05
-3.5107581997541714e-05
9.171436479798208e-06
7.161687850400701e-05
0.0001319984781254544
0.00015936040400466356
0.00012105110678150415
-2.1700953911708234e-06
-0.00019886733875958292
-0.0004147588816845423
-0.0005545988566844247
-0.0005053369522724983
-0.00018148970552697133
0.00041675033489715267
0.0011539227679837661
0.0017476275456430569
0.0018225649413632016
0.0010418366553872928
-0.0007043129150602101
-0.003111977569073018
-0.005372598316586749
-0.006278173492237142
-0.004585735004023899
0.0003856797790656384
0.008079930135753137
0.016228600153329387
0.02090951630800913
0.01739303672165507
0.0017767820141042156
-0.026988419676335397
-0.06549365218088818
-0.10570206660919018
0.06305822060911939
0.050103999405642724
0.0587650228491853
0.08324849811663189
0.108930241907839
-0.08323200431898592
-0.10929523307615654
-0.17476460567853466
-0.0703374524904634
0.02661477046567108
0.14487544568219
0.10926148456249625
0.13175308302214706
0.0075406448722922514
-0.08257385267294477
-0.16478313083883278
-0.06327182110211282
0.006712077801857751
0.04146330945097941
0.04706101566288064
0.034921580809734294
0.016885253049859432
0.0015799577940322949
-0.007134496998620499
-0.00972756439311136
-0.009221245458273755
-0.008943356706128041
-0.01061709234575751
-0.013378315148061926
-0.014029017175057078
-0.008517546782366414
0.005710393429754542
0.027195618943182197
0.04875798220029131
0.05761104462885245
0.0379644689401131
-0.024025797848127813
-0.13421478331558717
-0.0855645113062623
-0.05681247049793354
-0.016164048148407714
0.07047838606017323
0.22930619064517063
0.07017717022154826
-0.016653472930394788
-0.057284638758428506
-0.08576780717660906
-0.13392769158825232
-0.023156662823493414
0.03927913959159363
0.058953781998374706
0.0494752448997744
0.026577908824519485
0.003301359571445152
-0.012557083636311056
-0.018647802143490072
-0.016639354311934994
-0.010140412812696002
-0.002824456459905103
0.0027502535671048703
0.005521147894802884
0.0056825664900398
0.00413639231778628
0.0019279122571429109
-0.00013846972574840745
-0.0016376986596323042
-0.0024590237418466512
-0.0026416493496599115
-0.0022255637917331303
-0.001199884786245223
0.00042682993788910486
0.0024742603522714393
0.00444752785733645
0.005516339375660095
0.004704850233442905
0.0013080931628378816
-0.004560749613232542
-0.011507256051306704
-0.01676906107393988
-0.01677545778253405
-0.008459153956875836
0.008877960499733861
0.03171619530527727
0.05135455003766727
0.05473075279062317
0.027524110349637983
-0.04081904437125416
-0.15160238572014964
-0.09324289711168388
-0.04170662902776838
0.03409101126151199
0.16321348172242958
0.1632150483168117
0.034095949644932615
-0.04169798492407862
-0.09323107443487133
-0.15158978926988723
-0.040810351053172066
0.027522782053447707
0.05471412581243316
0.05132151409297483
0.031673018713464784
0.00883965936727446
-0.008471062302344168
-0.01673979589763519
-0.016675687344255053
-0.011368543495833272
-0.004418616590473084
0.0013856603212805063
0.0046421678153210025
0.005262872437226214
0.004017415527435581
0.0019769091016145187
6.830859721503232e-05
-0.001162283973368771
-0.0015803872033998613
-0.0013540962192665192
-0.0007906409887924905
-0.00018953266767832687
0.00024797621386884067
0.0004455532943108911
0.0004297092353996681
0.00028376302492794884
0.00010100187451255047
-4.806367171957152e-05
-0.00012931696012165143
-0.00014230560140811814
-0.00010802189193583377
-5.4490078690348794e-05
-5.459095681883768e-06
2.5417952709667153e-05
3.512450567979508e-05
2.831978151294303e-05
1.309132570809132e-05
-2.7828641988738432e-06
-1.4094619788454589e-05
-1.884666194764036e-05
-1.7695626507671675e-05
-1.2833420106546343e-05
-6.867648170821582e-06
-2.0264754891325203e-06
2.424954940226189e-07
-6.155150496375703e-07
-4.283006723855197e-06
-9.62613883995291e-06
-1.4801772204472816e-05
-1.752654134764104e-05
-1.563204919953914e-05
-7.928693213024802e-06
4.79958317970437e-06
1.907517348267165e-05
2.882772744251324e-05
2.679083122810561e-05
7.301199523025539e-06
-3.0038616109607606e-05
-7.713010486937023e-05
-0.00011643072069305076
-0.00012409315031046512
-7.80309744665007e-05
3.0195163126771112e-05
0.00018330705494783219
0.00033189642044838806
0.0004001181609056993
0.000307714323335711
6.997081786326811e-06
-0.0004747505752669192
-0.0010052066864671017
-0.0013512495824391313
-0.0012353244388807999
-0.000446405091485776
0.0010174643514454548
0.0028270021367822087
0.004291988509716324
0.004492429412897698
0.002599426604654018
-0.0016621710727701298
-0.007555088466207525
-0.013103741642061488
-0.01534912090740008
-0.011241687721970026
0.0008890999875908296
0.019661522931134826
0.03944019949838859
0.050419750744258224
0.04061524673899417
-0.0002302964396548351
-0.07576342754767865
-0.17906991763261754
-0.09197014706137416
0.010868409205816408
0.1534299316652284
0.14835784155604068
0.18989249296778885
0.05362476100476905
-0.09568537438338795
-0.2906342629617276
-0.14740269632101521
-0.05767251452301398
0.010004896013198698
0.09962758038103349
0.2519842712093459
0.0897010989365894
0.008544620426764585
-0.02219159774344321
-0.05085859288820869
-0.12962165047570226
-0.10027049798683821
0.016148271650089648
0.023372678302750274
-0.05270012544029031
0.028179435581217556
0.11015125855783066
0.030977323844137948
0.014559864855267196
0.06797804296424682
-0.01655241734617783
-0.05579092079072359
-0.0677476652992122
-0.06474466358799144
-0.04961350752923794
-0.016288106106790545
0.04554811833369745
0.1436759357612707
0.07730754866626895
0.034588310280224153
-0.004925920229039827
-0.06347237008823872
-0.15657144574598594
-0.08636925795273993
-0.0399368815110031
0.006168919137729989
0.07627892567482247
0.1843331798747248
0.12541490150673765
0.07394259671728594
-0.009886687154172739
-0.16701387298344647
-0.22433078763278036
-0.18326414466053817
-0.016936342096138028
0.12260694443001238
0.28984604191558444
0.12977985044565396
0.06669923163522327
-0.0986104446720403
-0.18370790046977745
-0.21528962285558134
-0.020921931979762755
0.17496971732777303
0.15079949018664027
0.08594015761363229
-0.03941961702232702
-0.04109779709798261
-0.12546286349504665
-0.08454589652917037
-0.09470065846200408
0.07962048768859566
0.07764543363795126
0.1323540480275737
0.06251118341394138
0.06964820284909289
-0.05902005042876037
-0.1432201778843144
-0.2011782285197817
-0.04397595194993704
0.12482370733395631
0.10456128682233357
0.09078545418574022
0.07038630562739467
0.021419929030714477
-0.08180775504023613
-0.06018774740646392
-0.12109088749947733
-0.05299842730691305
-0.025881840866361413
0.0022552694204473547
0.07443353546228527
0.2227744153127825
0.05960030910631164
-0.02531486597678487
-0.060447498243634316
-0.08296826596971184
-0.12755953013477286
-0.0174431550128999
0.03984107453699924
0.05141127308124431
0.03411999462895517
0.007977765583184034
-0.010004773095860321
-0.010265051881065088
0.007092659603533695
0.03239870362384374
0.04879556984094618
0.03672291596556904
-0.02005546732679458
-0.1281662286730592
-0.08007755384323087
-0.05338769067009282
-0.015110803773194622
0.06970263327391413
0.2276150514499881
0.06843500358415769
-0.017882612952618563
-0.057802825818863486
-0.08567143695367738
-0.13347086985048703
-0.022615751262235882
0.039698758340742636
0.059156043366003
0.04946572854128722
0.0264294511126213
0.0031124325809190473
-0.012697803039622235
-0.018684849852836905
-0.016561659935420924
-0.009982154321439993
-0.0026567843027661513
0.0028369802043728748
0.005445039994579599
0.005405314074725074
0.0036976221113638767
0.0014643607718720488
-0.00040639601567672484
-0.0014650374284170674
-0.0016799494484942895
-0.001294057381367476
-0.0006483482680116596
-3.957464933286807e-05
0.0003560158200971262
0.0004933760327509506
0.0004245207745885196
0.0002466614143427418
5.52956016642683e-05
-8.494065047806786e-05
-0.00014909316022000338
-0.0001450973765174418
-9.922553279047962e-05
-4.116101696628257e-05
6.50944244917517e-06
3.273232099385382e-05
3.719950238967626e-05
2.6500759727080024e-05
9.539581218796604e-06
-6.08890772179588e-06
-1.5983788559558105e-05
-1.913970027603918e-05
-1.7020907071808232e-05
-1.2210245661227824e-05
-7.207046793079033e-06
-3.688116394695665e-06
-2.2848065380116504e-06
-2.7503527368670386e-06
-4.321479987698181e-06
-6.098318095143003e-06
-7.3352112221906814e-06
-7.6087013868528625e-06
-6.8779154190242226e-06
-5.46671224434158e-06
-3.9844310280596885e-06
-3.1823471258126165e-06
-3.7370992613854046e-06
-5.973734171204375e-06
-9.588199309388935e-06
-1.348347095572575e-05
-1.586296842021025e-05
-1.4694585450789998e-05
-8.546962662614377e-06
2.3843521983030913e-06
1.5447841952073608e-05
2.5424475441955814e-05
2.560712442548669e-05
1.023452093279937e-05
-2.2129161627169918e-05
-6.538268859005677e-05
-0.00010452305731435171
-0.00011787251378001074
-8.388568347896308e-05
8.158029912419359e-06
0.00014658991929201607
0.00029010765678419664
0.00037092870074251146
0.00031282269715191924
6.377290484244966e-05
-0.0003643372874625729
-0.0008644909649601886
-0.0012320507313478687
-0.001208917399306417
-0.0005796235047250283
0.0006978929770387669
0.00237122525536948
0.0038475553592378455
0.004289229652117458
0.0028860551364188218
-0.0007272418761200955
-0.006030207033412898
-0.011357583063586967
-0.014058940533266208
-0.011250147222043814
-0.0011480523788013897
0.01529605851873805
0.03303404134336731
0.0425569968264392
0.03113891044243982
-0.014180879583357309
-0.1024995684056408
-0.03517209814950123
-0.003693067811964608
0.009680888472739083
0.028667882236716194
0.07814195184566414
-0.02075490941054485
-0.05436000545381493
-0.018557974706267667
0.08080599024742209
0.0290299484513723
0.005172186086048719
-0.01395869488629322
-0.0491543557528653
-0.11482967676037298
-0.017168461166431517
0.04481682501973442
0.07579204119971372
0.0799142370964837
0.05815962415814245
0.008691304352400946
-0.06975788491023215
-0.17320295424792667
-0.0891428384215216
0.0029037087325496647
0.12643225903758465
0.10029192845105979
0.13169535103084887
0.013169575567058556
-0.07507043162020582
-0.15836351247727684
-0.05943749242332288
0.007809424197504022
0.04051141663525758
0.04500279638802909
0.03253756428303231
0.014644271863002337
-0.00027442753429494915
-0.008385895844556106
-0.010032479361057061
-0.008124107512542736
-0.006105847453272126
-0.00619708013760272
-0.008386267497464697
-0.010423755488928307
-0.008818642434064612
-0.0006068664814633293
0.014590710909250348
0.03292373689841252
0.045884968275224286
0.04174867982894983
0.009011495770718638
-0.05886962222939331
-0.15906829228381844
-0.07743619495079826
0.009340714240082357
0.12743003014279267
0.09741900802893479
0.12714274423374824
0.008873370780634937
-0.0778884103696885
-0.15926585802969104
-0.05860084447772405
0.009835652720708764
0.043000653713312395
0.04716942190054983
0.03361899123924825
0.014018971375051273
-0.002885776531770211
-0.012659889812000306
-0.01483477764478652
-0.011527228801957758
-0.005798099617668348
-0.0003387937721959811
0.003235850602548546
0.004495794000706958
0.0038937802992071637
0.0022988983791974614
0.000571861322471494
-0.0007008477412585706
-0.0012894664473043385
-0.0012617701729975993
-0.0008527575187527711
-0.00033000178051122793
0.00010172957427944937
0.0003412536963824374
0.00038447967543693497
0.00029002657120185305
0.00013791450076956432
-3.2466034291218067e-06
-9.346019078989188e-05
-0.00012330606356120713
-0.00010564810204112032
-6.343878241072671e-05
-1.885680221767254e-05
1.3324648773338756e-05
2.7624799182042018e-05
2.6151598177459393e-05
1.515736111861647e-05
1.5670734449075768e-06
-9.428041849597476e-06
-1.5352536163446606e-05
-1.6221244800773544e-05
-1.362007654217475e-05
-9.634492875004955e-06
-6.015741959287133e-06
-3.757518664566559e-06
-3.0643252600952723e-06
-3.5775422539026236e-06
-4.694067825036367e-06
-5.844169142277726e-06
-6.656884374375395e-06
-7.002697119341711e-06
-6.945249363106402e-06
-6.650556711187348e-06
-6.297642653101934e-06
-6.017937206653493e-06
-5.871772940870082e-06
-5.855683085663392e-06
-5.926913580954194e-06
-6.03118357447309e-06
-6.1238449117723734e-06
-6.1802668469042925e-06
-6.1961649160685075e-06
-6.1814645419400855e-06
-6.151987295104207e-06
-6.122351900720148e-06
-6.101857507778144e-06
-6.093537652626616e-06
-6.095515441901338e-06
-6.103392225800433e-06
-6.112545351860977e-06
-6.11965189254203e-06
-6.123247479547302e-06
-6.123500354122943e-06
-6.121559311018081e-06
-6.11883535614202e-06
-6.116465419690071e-06
-6.115058490572724e-06
-6.11469961123177e-06
-6.1151157846796344e-06
-6.115892595302457e-06
-6.116655370192211e-06
-6.1171714133962895e-06
-6.1173704214008594e-06
-6.117306763773768e-06
-6.1170967427603236e-06
-6.116859586001672e-06
-6.116679201101606e-06
-6.1165909911180485e-06
-6.1165886349156164e-06
-6.116641381472117e-06
-6.116712600395314e-06
-6.116773342111827e-06
-6.116808516341553e-06
-6.116816483226795e-06
-6.116804617925662e-06
-6.11678372409998e-06
-6.116763467209711e-06
-6.1167498684673685e-06
-6.116744856390229e-06
-6.116747215895998e-06
-6.116754077214862e-06
-6.116762250690808e-06
-6.116769058978866e-06
-6.116772664580158e-06
-6.1167721104227206e-06
-6.1167673318600804e-06
-6.116759280067172e-06
-6.116750093782528e-06
-6.116743071645517e-06
-6.116742132823438e-06
-6.11675057804074e-06
-6.11676928155808e-06
-6.116794876265451e-06
-6.116818871009172e-06
-6.116828739665804e-06
-6.11681164266763e-06
-6.116760504724654e-06
-6.1166808270270545e-06
-6.116595291970292e-06
-6.116542591441481e-06
-6.116567686026728e-06
-6.116703310655578e-06
-6.116946756372288e-06
-6.117240630728962e-06
-6.117469392822736e-06
-6.1174825320992545e-06
-6.117148436813365e-06
-6.1164302198039775e-06
-6.1154588778164e-06
-6.114566181103753e-06
-6.114237709260251e-06
-6.114962827143209e-06
-6.116995715614306e-06
-6.120093598902302e-06
-6.123347939495875e-06
-6.125245752558725e-06
-6.124064391936827e-06
-6.118598807450698e-06
-6.109055844376874e-06
-6.097771814224129e-06
-6.089297125721824e-06
-6.0894388902953315e-06
-6.103128499725224e-06
-6.131483050491518e-06
-6.16904088278854e-06
-6.202634673222503e-06
-6.213407928877552e-06
-6.182805644853665e-06
-6.101893546287303e-06
-5.981345233891897e-06
-5.857563055157085e-06
-5.7896721173688636e-06
-5.843571336961761e-06
-6.063388965329653e-06
-6.437099002852367e-06
-6.86985416582033e-06
-7.182656339114591e-06
-7.1517264022064485e-06
-6.592794428960994e-06
-5.474843671491264e-06
-4.02434908153609e-06
-2.7631224360553883e-06
-2.4225765054865066e-06
-3.7049302476089824e-06
-6.92019734379734e-06
-1.1605757630640047e-05
-1.6305884219008838e-05
-1.8712722637457184e-05
-1.6309042815384463e-05
-7.4872483371416345e-06
7.13039102554548e-06
2.3704122318782282e-05
3.520148429537131e-05
3.3009888355552337e-05
1.026390765339798e-05
-3.3757205824391976e-05
-8.970776169335906e-05
-0.00013693849233831448
-0.0001471119638036158
-9.370537930811771e-05
3.386513112263311e-05
0.00021577694886963533
0.00039392070203624784
0.0004783142187944525
0.0003729464958256123
1.9593047294977705e-05
-0.0005515590256639826
-0.001185471798725019
-0.001606192662338006
-0.00148265590539441
-0.0005598192726717662
0.0011715893127873724
0.003327995400536318
0.005094272691695734
0.005375474134560734
0.00317487010326605
-0.001856560417177546
-0.008870509899603772
-0.01554284766892704
-0.01836237719674043
-0.013677563397385689
0.0005664076188447513
0.02283909308747579
0.046588243318990245
0.06033111240691285
0.05003285109537121
0.00381207862798124
-0.08212387604334245
-0.19859382405770953
-0.12245549280489451
-0.02161799960426613
0.1341041432445375
0.15945519396503627
0.24289734189763817
0.14390645170375546
0.0013662223743974233
-0.24823633641321596
-0.24849088024593222
-0.2047961255534005
-0.07755043651172758
0.009697630547964069
0.1490128908577089
0.2203090793248499
0.2659861989180633
0.0762678450484755
-0.00985496263025222
-0.08814559099832864
-0.061946442652788765
-0.21210992399113962
-0.1723860375918278
-0.1169844715883315
0.036234979427242055
0.0076411022997644115
0.12741953852537796
0.10411948914678998
0.19809988402503018
0.20663080591912997
0.0646294961300331
-0.13897356983242343
-0.1336530123100025
-0.23637461882992084
-0.3263333716183254
-0.03241720624815971
0.2639826312589742
0.21366631651477244
0.0788389675559528
0.11470857386781422
-0.04121914679431656
-0.17094985423469858
-0.07120801784101896
0.054060737827707823
0.00041981552967149127
-0.03298799394515852
-0.04243398565552242
-0.021261827991735167
0.03662478843214796
0.13278455391218083
0.061543264181268945
0.010161561984170717
-0.03768725369414467
-0.09638576309187286
-0.17342606530017926
-0.0679213688289235
0.025795916517589387
0.11025153223577693
0.1758872043714111
0.1958102686937508
0.12830879059787223
-0.0715351945772561
-0.23380734580204945
-0.3556650110243615
-0.19106555716968482
-0.05428112050513811
0.16187860240168794
0.3583425424190468
0.4021727930759004
0.10919041121863288
-0.15701847416588666
-0.27037461822618153
-0.3188947852653962
-0.1824128021147783
0.08074454552784291
0.2356664797408159
0.2646542007184784
0.15942912158086467
-0.08246549126241423
-0.2551965120165101
-0.1387859620453942
-0.0950422879776423
-0.06964698979585096
0.1985207140063319
0.16350179043600946
0.05886420581197405
0.08983880031591154
0.03384696545211496
-0.15090304809823074
-0.11191216523617353
-0.08867642521880516
-0.1032317879400453
0.04244278076443685
0.16228656049278503
0.07783437071519916
0.009372754564567341
-0.03038005202572327
-0.038810073217791945
-0.022657326853574064
0.004674077895394688
0.026501249370525067
0.026229280252063912
-0.009610543164709547
-0.08893529850181696
-0.012783033021933718
0.024415616011274458
0.03290751748567983
0.024659694336428666
0.01042896391060279
-0.0022197189651313436
-0.009551094137224384
-0.01111716346726686
-0.00853684909404083
-0.004160938331865654
-4.090825448188779e-05
0.002610567295423141
0.0034911948221348324
0.002967666649847921
0.0017138082961870107
0.00038614807376289846
-0.0005755047419266135
-0.0010062654481119188
-0.0009669946554986872
-0.0006426121555848683
-0.00023897029968474753
8.897961015520913e-05
0.0002667939523843382
0.0002941782119602045
0.00021784747315556601
9.969750307217366e-05
-8.067867888998237e-06
-7.565297415249588e-05
-9.67304224151458e-05
-8.179616163500763e-05
-4.872166884553157e-05
-1.44781184674584e-05
9.819083816097436e-06
2.022249234301453e-05
1.8553603828298404e-05
9.726754390890554e-06
-9.01128945926134e-07
-9.342568185085918e-06
-1.3704807375300596e-05
-1.4012107957794323e-05
-1.1521040831718486e-05
-7.930034306846216e-06
-4.757608784787536e-06
-2.996053363314191e-06
-3.012029754542462e-06
-4.6004054495310174e-06
-7.1031291268630866e-06
-9.554359984896456e-06
-1.0867135673595557e-05
-1.0099593504197968e-05
-6.810319036583367e-06
-1.4373816277098233e-06
4.455299293758786e-06
8.277296285463478e-06
7.038299001112908e-06
-1.470530311657406e-06
-1.7179681191040643e-05
-3.647482393066273e-05
-5.192051337273322e-05
-5.369292480142594e-05
-3.301684594620043e-05
1.2916264867926941e-05
7.61094634319156e-05
0.00013543104556334169
0.00015940121600011497
0.00011569352116201795
-1.343157469607042e-05
-0.0002139220744376876
-0.00042840843481434227
-0.0005593308020796675
-0.0004936797031235823
-0.00014969393384413974
0.000464770754242212
0.0012042246834889606
0.0017776024956846104
0.0018076464599718854
0.0009675192997100223
-0.0008277798508531891
-0.0032377741585085896
-0.005416092463539792
-0.006134182712716875
-0.004170014765937988
0.001068729779020553
0.008843619366283586
0.016580456359176012
0.019877910223901073
0.013253475423084558
-0.008409439363613028
-0.048124236904724164
-0.10550633015643993
0.0233540509410027
0.14468090537158912
0.06520253720803992
-0.00898189903585734
-0.07209455188230934
-0.11750590765366528
-0.13736986376280305
0.07540838184577141
0.12286762228230397
0.1973634300745136
0.07973812860876942
-0.05742452164783182
-0.24172528078673133
-0.09110714341588172
-0.006516097543951084
0.02979152592997882
0.04978474415802666
0.09097682416184652
-0.013423375210003828
-0.04277218134404045
0.006049869773138147
0.1176926978309765
0.061550536327117676
-0.0011364912309832426
-0.10738807451628488
-0.08211389529162336
-0.1304372669557357
-0.035543067488751
0.03678461103094263
0.12813729132813795
0.07522653321088944
0.09947510889232633
0.0017557950725920447
-0.03639478186550708
-0.046038202203568225
-0.0612217943100414
-0.10975449247637997
-0.007123278513641605
0.04504567683244411
0.05627852528515996
0.04200316395544224
0.017997218316526356
-0.0036738278538521983
-0.016447358814473876
-0.018988847387255092
-0.013642402732773992
-0.004503966623826881
0.004226072670873732
0.00932831202542397
0.009120660909566602
0.0036637759618802527
-0.00524303786667861
-0.014282435078627998
-0.019206719905381205
-0.01596755875973551
-0.002401933584463411
0.019838029794351647
0.04379764465245962
0.057084735733013474
0.043858177524454804
-0.010914184933264659
-0.11579919433461044
-0.06772412902147018
-0.049563327162434
-0.03212503419550412
0.01936319172698172
0.13597414832848598
0.136023571175485
0.019484157366254425
-0.03200588035001224
-0.04954059273342335
-0.06787602626587505
-0.11614477069657661
-0.011378709273509952
0.04345212875109253
0.056983738288427566
0.0442340076941373
0.020907947052689176
-0.0008622979483738426
-0.014449563611278221
-0.018475285275649168
-0.015157177385901433
-0.008226704129905987
-0.001184807998204593
0.003708117792404415
0.005677640306574136
0.005130287712636189
0.003101533069945721
0.0007214167076264115
-0.0011457710769443997
-0.0020490191210261258
-0.0019315058205398713
-0.0010259072577009645
0.00026499812065010656
0.0014674538352578619
0.002118836411457543
0.0018570660332885656
0.00053567415369957
-0.0016476976863221873
-0.004062723576953418
-0.005680674422988976
-0.005309219489370082
-0.0020502009273679757
0.004099303706923103
0.011703287421715216
0.017688513934466406
0.017769195651257178
0.007613726093549486
-0.015435331099413857
-0.05065224405231653
-0.09305402122979343
0.06591902604687577
0.03605458924787898
0.025118462151110094
0.03606219764741763
0.06592937708124412
-0.09304895032499254
-0.05066047846352062
-0.015460931011721177
0.007574332393128314
0.01772903320985712
0.017668410897504403
0.011725727593414975
0.004178217230606431
-0.0019211253690469214
-0.005164928577130958
-0.005583915459098938
-0.0040891042615639715
-0.0018558342026557034
0.00014288368469825166
0.0013661458794373756
0.0017149272338091589
0.001400264244342385
0.0007632037620945348
0.00012044055887369341
-0.00032566327257562685
-0.0005082897520466307
-0.00046727451340958963
-0.00029754245196269354
-9.928804330613942e-05
5.519812331404975e-05
0.00013382179439192605
0.00013993014567400115
9.825210316869277e-05
3.9334938790804196e-05
-1.2117678960813932e-05
-4.280257941009928e-05
-5.077829912883254e-05
-4.18977658519706e-05
-2.512069945055659e-05
-8.578834354763117e-06
2.6556152564948027e-06
7.027997342670506e-06
5.694321738352222e-06
1.1655896774030378e-06
-3.97244983880878e-06
-7.892759590470179e-06
-9.81808057752134e-06
-9.878214087225655e-06
-8.737377427971629e-06
-7.192095841239734e-06
-5.875394683143624e-06
-5.119849895781223e-06
-4.963219784526494e-06
-5.242219018888736e-06
-5.7131675305857525e-06
-6.153246214241955e-06
-6.419916432205948e-06
-6.467599575421255e-06
-6.333655535355104e-06
-6.108957671857831e-06
-5.9047272018347724e-06
-5.8212787980160505e-06
-5.9200718336965746e-06
-6.2001825501597826e-06
-6.583668584477971e-06
-6.918624316641683e-06
-7.010097537427532e-06
-6.683924868044994e-06
-5.875687886793745e-06
-4.718938983828907e-06
-3.590413032702843e-06
-3.0649599128230998e-06
-3.7489600360044727e-06
-6.002414192202078e-06
-9.62089987721483e-06
-1.361018616389842e-05
-1.6218230835012285e-05
-1.5358421016849047e-05
-9.44296350748123e-06
1.5458473781139566e-06
1.5136110338685419e-05
2.6139697282992798e-05
2.763243852016468e-05
1.335863596359055e-05
-1.8798242775854537e-05
-6.337018223994836e-05
-0.00010559715259012
-0.0001233077794461746
-9.354402912803681e-05
-3.418777032810612e-06
0.0001376875818238801
0.00028982489049112994
0.00038441717336454935
0.00034144187032706335
0.00010222113568941331
-0.000329273000881779
-0.0008520129733150801
-0.0012613676079438914
-0.0012898027217734555
-0.0007021859589554594
0.0005695991086954228
0.002296290711957746
0.0038919117655014683
0.004496014455689425
0.0032392639089904277
-0.0003320165281168553
-0.005789345853457062
-0.011519665298839254
-0.014832822698736519
-0.01266776223511545
-0.0029053007580639714
0.013990654174952637
0.03359073258460234
0.047155182150045036
0.043015587469444255
0.009889333536061043
-0.05851238153835697
-0.15916602054723616
-0.07781979797271933
0.008858820703079308
0.1270039324520035
0.09715221902258797
0.12709246238091884
0.009057649028760592
-0.07749361550809683
-0.15874078607083117
-0.058095145592131324
0.010110733396904673
0.04281949455725026
0.046383178457857326
0.032271442384849004
0.012441418889294217
-0.004063387819291223
-0.012639056046549807
-0.01293944501991748
-0.007606022734142917
-0.0006032172983403103
0.004320217860210541
0.004771467235799287
0.0003699835911161162
-0.007095777174676446
-0.014045243121983792
-0.016072675173659175
-0.009495336811662317
0.006726289402146341
0.02920467464181077
0.049254756026482174
0.053759780911585675
0.02824316930988794
-0.03818707852624649
-0.1474144910190755
-0.08862736049477601
-0.0385354029923838
0.03360757919329627
0.1573596402148363
0.15187984069816735
0.0197693121510639
-0.05361785843188767
-0.09539812967540634
-0.13724295009989598
-0.007613169391304901
0.07334671472687021
0.09560417119827301
0.05877420108123524
-0.029049237909424534
-0.15243794458092455
-0.0903344963672793
-0.019484114127669393
0.08006322858769077
0.21884538121288138
0.19423218323848646
-0.008182611579710966
-0.2075011425933112
-0.21758565881485437
-0.23953465876489655
-0.0615110393484171
0.13248723086576172
0.3481723999196422
0.36796416530078174
0.14722324920002391
-0.17596989264823795
-0.2595176182688244
-0.33262011115542434
-0.3785049137020172
-0.1331545704238709
0.2976694674342235
0.4086757811724367
0.46422533712635866
0.2793470189245482
-0.17920994866474835
-0.3724037553957408
-0.35796640508346317
-0.362683927063697
-0.16969124682894873
0.274304801831373
0.43573869540191196
0.36553051804197184
0.07759533768252705
-0.05686254213975705
-0.09809705642285221
-0.3155919276773494
-0.3647278557386065
-0.07184944680267
0.1668398805679374
0.1732284185571328
0.1682468896878694
0.15438869707484837
0.10705530693341131
-0.02184434236107457
-0.08915702460718083
-0.13956300233180105
-0.1855797966943264
-0.19556967212643867
-0.09462570982649426
0.020635430484531654
0.2568861410839257
0.2958806058859494
0.17222826515151235
0.06451388806964069
-0.09741027163208044
-0.21174775896982156
-0.17782005654621516
-0.07143756757870884
-0.1294977527828927
0.052965323309403185
0.11420878632632493
0.10988766012990586
0.09561915998332993
0.11338900284163024
-0.014841976579029838
-0.08580370212169872
-0.10799643012924659
-0.09295833205213735
-0.04854035917393631
0.023458389594216998
0.12518109863338417
0.05799878560572388
0.017933148164296177
-0.006555877871615287
-0.033622883934916734
-0.08459031867277338
0.02056913410131305
0.0674949548918242
0.05076554399348276
-0.023849377271775864
-0.13842400521485945
-0.06393905452600503
0.03570057816505428
-0.0034749648988532528
0.04550917572223334
0.19224379135681394
0.02408430624728823
-0.09326010827253509
-0.009476549277586462
0.02064269086232532
-0.05112618667377097
-0.056059008955307126
-0.00153455288222179
-0.0689285181650785
-0.01687385431549464
0.010647276550945821
0.07299479337896664
0.02081845986757342
0.08606942788025199
0.07648047300184202
-0.02417899093431075
-0.050302248559647704
-0.04487631713592811
-0.04893845332095471
-0.09293681809433105
0.007951076193537122
0.05387499828772765
0.05656191315426511
0.03363177957707383
0.0030447607935844764
-0.020912026885379666
-0.02970622752703105
-0.021104595790529267
0.00118357045245018
0.028383414113675832
0.04813249026013024
0.04693518552022443
0.013815875648529614
-0.05526156132471378
-0.15353647805107265
-0.062069088017402504
0.0475859899405795
0.006474764856425952
0.03880566355858528
0.1530454092356832
0.13687224860820285
-0.04163554542915634
-0.026161539033500165
-0.05968603688532894
-0.17135783754277772
-0.167248007231665
-0.028465901625148473
0.08236479607693127
0.20844746368295336
0.18471522675972232
0.027623206217859
-0.06771197231359646
-0.12296547466900898
-0.16769796917147245
-0.030396919286200343
0.06722452310677532
0.11178722516598505
0.09713366148853032
0.022979101147881494
-0.10502258141202106
-0.07394179407529161
-0.06262671645843346
-0.0430815078836311
0.014965714827946654
0.13717671993792585
0.13775379066122242
0.015430848747491108
-0.04586055850474282
-0.071849389461602
-0.09052532770172837
-0.12560388230524402
0.006633457369339103
0.09639791467787434
0.13677666443765019
0.12034933380038618
0.03888356999553228
-0.11278807599188917
-0.13019907915528225
-0.1935260765663249
-0.06656042768977785
0.09755406432987335
0.14485314837198612
0.1072832616467958
0.19273319239785525
-0.017671456481405425
-0.16392593734868163
-0.09536555722067647
-0.057175809700642656
-0.07980056317786999
0.025836160540424095
0.06684666739141021
0.06230149716375998
0.03533366408206908
0.0061288306366279535
-0.012470804192600389
-0.016284258569123116
-0.008537662062483159
