0
2.2740280595756346e-15
-8.180803728358914e-15
-2.068656395366019e-14
-3.0270605464092435e-14
-3.0513879511915037e-14
-1.5874825201595574e-14
1.5070325816462398e-14
5.6535795585637453e-14
9.419295393154976e-14
1.0727319580939363e-13
7.506513238693077e-14
-1.2845243993839523e-14
-1.454654253243402e-13
-2.8338869368986746e-13
-3.6172199146353994e-13
-3.0727335698230887e-13
-6.980533378027432e-14
3.398835768275449e-13
8.198534549075145e-13
1.1743595327061069e-12
1.155871589908496e-12
5.570035356514185e-13
-6.639819990530033e-13
-2.2664570626517573e-12
-3.6821206973592276e-12
-4.104876577063115e-12
-2.7500683609590793e-12
7.463827392682149e-13
5.904436961781024e-12
1.1146555884282625e-11
1.3938120251812207e-11
1.148101777300667e-11
1.9396650053755454e-12
-1.4095701648655651e-11
-3.249188431467265e-11
-4.555319523514377e-11
-4.374625426690521e-11
-1.933156105096989e-11
2.8781112855442542e-11
9.06359957546114e-11
1.437262631044012e-10
1.568007962008138e-10
1.0018985123613592e-10
-3.865526403019374e-11
-2.3904037399969777e-10
-4.3793171627817173e-10
-5.364449353517079e-10
-4.277683236689818e-10
-4.520032280816359e-11
5.816975429719778e-10
1.2857950549464045e-09
1.764909023936772e-09
1.6523358164097753e-09
6.601200113688512e-10
-1.2333279470849521e-09
-3.6179850138006436e-09
-5.6037611397458175e-09
-5.980506316949063e-09
-3.628622130127769e-09
1.8766205173372443e-09
9.652443371005483e-09
1.7184692458917384e-08
2.0619958567537564e-08
1.5887263211600725e-08
5.780280625339613e-10
-2.3902024594321477e-08
-5.0811699460966347e-08
-6.829963985084983e-08
-6.227879906552206e-08
-2.207113337673441e-08
5.2351369846801216e-08
1.4417127885408334e-07
2.1823604040878105e-07
2.2773953438634777e-07
1.305249027144527e-07
-8.744119668917392e-08
-3.8882893951127876e-07
-6.735293882807681e-07
-7.915510828014134e-07
-5.879852401532124e-07
2.350650152135314e-08
9.783425440240928e-07
2.005249707819488e-06
2.6399814611012883e-06
2.342099467522831e-06
7.170874990832151e-07
-2.2045259424520853e-06
-5.735503431983914e-06
-8.489407543766505e-06
-8.658025135268964e-06
-4.657675838523359e-06
3.9599963711420905e-06
1.562808950286545e-05
2.6366926417084452e-05
3.0344867406957567e-05
2.1677316867311963e-05
-2.703976919965158e-06
-3.99041501444433e-05
-7.903073268360066e-05
-0.00010191971250537412
-8.78667180896521e-05
-2.235651736879266e-05
9.219029362791637e-05
0.00022777848407713557
0.0003297878257168184
0.00032843324706462667
0.00016434969833229585
-0.00017610640488286507
-0.000627590587193855
-0.0010321001378571343
-0.0011629825421850372
-0.0007966045063753323
0.00017607476225433747
0.0016300152828136048
0.00313323280599224
0.003983849596513034
0.0034028888815479104
0.0008781536108658632
-0.003423728890011258
-0.008344487494078545
-0.011742297701276858
-0.011025067408558104
-0.004295342618405904
0.008019497348597878
0.021429861410813454
0.026104813663350202
0.006623130160974293
-0.05690170240553243
0.01365663966590954
-0.002012053735984162
0.08170700102483876
0.06142320156014791
0.1502909954869143
-0.21698001063822345
-0.18207649309238305
-0.2675942569979038
-0.1912979697429643
-0.090367834611618
0.44918646496424103
0.5680836479501682
0.7272062939263548
0.3292105349496514
-0.4304718277903347
-0.8952125795059577
-0.8848391610499169
-0.8660883636869858
-0.17409947083171226
0.7149083049028788
1.2803920550901182
0.8588258399187603
0.5859831581261095
0.0030390142404945184
-0.47311866140632225
-0.8370726651799846
-0.7749195008291728
-0.773918193663666
-0.0881506101660216
0.4313884192551201
0.25321465041848273
0.4535418475427106
0.6068118371675184
0.505569040423631
-0.07310867888123766
-0.15032168490618794
-0.0857345937662716
-0.29351579145252854
-0.5554791072451397
-0.3514654175928001
-0.02120831623055093
-0.16311843589040123
0.3345471598870509
0.4430368003975165
0.5402111180042013
0.37156454692893454
0.034703975968245454
-0.8137044501572607
-0.9400679508237668
-0.7218562034339423
0.04617066057691924
1.3289022869810558
2.8288607841172864
-0.6090126827478622
-0.34974713843290756
-1.087295710402516
-2.165810345946958
-3.1491968372959813
1.3292640289240985
2.2408942812038646
4.205262844721102
1.1748528490560544
-1.7800473826520642
-1.3739223797151066
-1.1376257311395064
-3.2500421064149134
0.16614790210152217
3.055023359583911
1.157525531090866
-0.49595943318201013
-0.28564692320665436
-0.4712392298361701
-0.22944387761245347
0.3297669770998779
0.16062776897196543
0.2917864316155595
0.2516941024795583
-0.29000853589227743
-0.2692670389972609
0.028296830805502354
-0.1852985876444522
-0.37139137665095967
0.14026838548618328
-0.06854278107916265
-0.3457209933862408
0.1770039065396603
0.7285480546982489
0.8552484792876492
-0.19761586287164887
-0.27390760635279116
-0.46991478680702536
-0.48834434920086894
-0.6013330429517662
0.36477224350327714
0.6209004744588553
0.5918268188417259
0.09190608133224373
-0.6891247994820273
-0.38837432638697794
-0.06607766839569892
0.19686716780545607
0.09826285088367197
0.7158050867326766
0.5180544390576466
-0.20975183723895083
-1.1279429157864296
-0.20481423441898486
-0.09570155346941948
-0.15096567752759074
0.14550729157882822
0.516420866900456
0.025281097314329842
0.22116716656005828
0.3070423928961838
0.13846361851950548
0.052639716297539024
-0.27886651123094613
-0.5861229060221232
-0.3407988285272334
0.08617259455677231
0.24192742481346619
0.1851711647710155
0.26330208965458324
-0.11802986807684865
-0.3270629578617165
-0.3381319795244657
0.03551278070555994
0.3094111050021147
0.5016520793185009
0.3216958442485865
0.1822926566292238
0.03631785764598902
-0.768732766457094
-0.8337263498248402
-0.066116029702428
0.3338673213810411
0.25740783377866233
0.4512719246919009
0.07685422490643926
-0.12319904557992309
-0.24475114824081723
-0.028848377273736237
-0.05911629191846271
0.44678711397840193
0.05052063201228521
-0.0888616253908618
-0.19366796915808307
-0.047687739933747184
-0.18411601827786428
-0.2870683624944557
-0.009521012255103276
0.19371805487919255
0.023924908759842378
-0.10329206338373169
0.31145903520004775
0.642250815288574
0.3581609777998765
0.27631720495422807
0.04269798102469949
-0.7751141757376797
-1.6086971974063395
-0.8518632016730654
-0.0872041902397779
0.6219373770007062
1.1964962329076472
1.2044558823037363
0.5653991531093543
0.7275639848439017
-0.6762350916806932
-1.3138559641259446
-1.0196259462142216
-0.6854073189872779
-0.810676810945697
0.6777212405146895
1.5517750962800165
1.3898585432767603
0.5062334109954063
-0.4696687781833165
-0.9617806124979782
-0.9864997078617544
-0.8974449720189155
-0.16582014289102623
0.5920348147860234
0.9506642888126149
0.6023399290088255
0.5060201240356722
0.2807008353270403
0.048403216672299215
-1.086000445235721
-0.9443103458567835
-0.40470527746431756
-0.1760510834749782
-0.02552351541660594
0.7503584734584774
0.8354398151284051
0.6138927849875961
0.12512905826655724
-0.3348927734134346
-0.37101498115186865
-0.4229316858477918
-0.4988955998402975
-0.1284863312516862
0.2553342350674834
0.3055027320444425
0.13066858832169734
0.0582324135127206
0.0015365031383938175
0.037580150262056786
-0.002774974274021931
0.06699312144913483
3.310122402051687e-05
-0.06708234821678519
-0.19575749474272583
-0.02927363982764372
0.01719123394276596
-0.041397367787832484
0.03463217910740525
0.09902437097015046
0.00691908856159773
0.00323395442411748
0.11446069690498216
-0.05490809696093296
-0.12128694263728215
0.08284977141627796
0.11622258338117422
-0.06283963658148844
-0.08794942158291272
0.02239949089179963
-0.13131229035018702
-0.1305357565080657
0.05527639648413127
0.2588231137422841
0.10450496172573144
0.0012210086448623246
-0.05902221347326745
-0.09683847814833518
-0.13812048248810185
-0.007014466288261524
0.07843249612384309
0.10760221142303025
0.07698708297705742
-0.009979164711228937
-0.14218273027473088
-0.10007866073708163
-0.05681936534579929
0.01733675941258125
0.1477156749224344
0.14737015534027004
0.011930349635357078
-0.08038845925156062
0.03674647999062003
-0.07292165721171598
-0.038093938325067814
-0.0718269221088989
0.03233109435314003
-0.10106639516853416
-0.03580479143649997
0.06602342753374944
0.23318171392419493
0.07697115231050523
-0.011548987451545806
-0.057649641774221466
-0.09386943885930846
-0.14942169592117246
-0.04211733887901084
0.024435391050745454
0.05790008349330841
0.07039229224645908
0.07095357871758101
0.06047742060380703
0.031077671948241598
-0.029880340830876335
-0.13267576872474898
-0.07794055653341256
-0.0523270441243911
-0.029278039554753207
0.02489222730535043
0.1414876594141313
0.1398154006402877
0.021009960338931113
-0.03238446310423113
-0.051001457100492906
-0.0695629087505448
-0.11744796541617634
-0.012035450921632553
0.04340343902704939
0.05732807417755792
0.04471528905520193
0.021328504903327293
-0.0005978412896397249
-0.014341578992237664
-0.018468622517588188
-0.015189442406531783
-0.008265249090307946
-0.0012401449524418527
0.0035953958032137524
0.0054703097869441076
0.004834769560247608
0.002796890940637189
0.0005589427510320207
-0.0009842814019263607
-0.0014328577683361083
-0.0008821540383417483
0.00020212731053661636
0.0011748364288709885
0.0014268184107046823
0.0005967094882862284
-0.0012524153096842823
-0.0035403698710440483
-0.005225842588150999
-0.005068164644344263
-0.002103297833980514
0.003748987607918869
0.011140895462907101
0.017091803666392742
0.01739075974184259
0.00772424711831083
-0.014648006263410276
-0.04921003162879721
-0.09129517013961268
0.0673203914777972
0.036219926625474214
0.023273742627325775
0.03197736978775784
0.06034798424563796
-0.09820922634791514
-0.05257294323456043
-0.011270118484542515
0.019315157623412085
0.035413044321308665
0.035411722400714385
0.019311928899976447
-0.0112732756909247
-0.05257348327871545
-0.09820505676409194
0.06035734809496357
0.03198987730760323
0.02328458189003221
0.036222448428469334
0.06730837646742724
-0.09132422041901142
-0.04925157058340469
-0.014688667201262698
0.007705128345706697
0.017415170905558656
0.01717298897595941
0.01127177058974045
0.0038938538858708537
-0.0020077504325591044
-0.00509767286582636
-0.005438455470522864
-0.003937577031326361
-0.0017455878130080249
0.00019494700476217384
0.0013675636519333303
0.0016861570246843867
0.0013633053313603983
0.0007339461983513752
0.00010588615829837333
-0.00032610624202624247
-0.0004992799613386033
-0.00045377402491529216
-0.00028232636230472686
-8.2437762312619e-05
7.494470382390238e-05
0.00015667434287394802
0.000162827339146412
0.0001141004771726788
3.862578335054705e-05
-3.717965308291202e-05
-9.263956796012929e-05
-0.00011339834624140529
-9.138909420119959e-05
-2.641483447384967e-05
7.03527974902987e-05
0.0001729965038762304
0.0002413121585776839
0.0002288149425242844
9.973566123472528e-05
-0.0001479021732848253
-0.00046127726493796117
-0.0007259577946876615
-0.0007854280412364713
-0.0004929904655836692
0.0002106023042344996
0.0012171578797151685
0.002206901553199664
0.002682912910268456
0.0021129103765226425
0.00017088330724717997
-0.0029825442698322067
-0.006496720175410614
-0.008849450884051892
-0.008206979697224464
-0.003146087552907519
0.006407705747154257
0.0183633379315094
0.02824260462154367
0.030009383836446354
0.018151558612744235
-0.009284287691252127
-0.047653560007413116
-0.08418132080174165
-0.09960604943097359
-0.07411636135216818
0.0026903411675974296
0.1201054896693672
0.23712335398259474
0.2810032383030893
0.15778074714276488
-0.024547612044798765
-0.3247019373690123
-0.5383209993034628
-0.3817400556464943
-0.0989848197932664
0.10567270339165682
0.4169274858526178
0.5547911883915597
0.536356889675769
0.2675338378931472
-0.23022517473363138
-0.565490423882081
-0.5125035333252802
-0.5589626330398936
-0.28402019987243987
0.2261807155605011
0.5315505085852874
0.5769734529454287
0.4390818958569797
0.09924103019273539
-0.14910866888534435
-0.26297311998055484
-0.3961436755890353
-0.447386249489251
-0.02641851337755019
0.1531768410614571
0.05363969185584258
-0.1278318780419849
0.1902003224866884
-0.07573284554698356
0.4891356499968668
0.3826578520101207
0.3990348430137831
0.07177433444146902
-0.4607116131529881
-0.9830077006746583
-0.54586800286071
-0.2444434763033137
0.15929036660398058
0.7762124545090376
0.7115020063668688
0.19276348987597522
-0.07506572284587232
-0.3197702189115686
-0.28117644908726874
-0.17155867290603458
0.37042083469854103
0.3237623482025142
-0.27703655600007754
-0.31334663839760696
-0.36761169445235414
-0.32808408028597746
-0.015922575085946244
0.5693385614424252
0.5976104846433843
0.36524819100867534
-0.12522740942952046
-0.35769116557798286
-0.27271266488407364
-0.2278886201114246
0.03905931320120573
0.23635737265211545
0.13141561769808263
-0.046797194480401844
-0.2137269355891482
-0.2427705569776076
-0.18691965046980707
0.09211055416423514
0.291586899338954
0.6408301030052423
0.289944012328531
-0.07848018143202226
-0.015012260979834465
-0.456089204103291
-1.0803608507294593
-0.48629643626347985
0.1977108547578563
0.4724317863492704
1.0125334259840704
1.4225617536460442
0.22740659144172373
-1.094262743455793
-1.2467089207371842
-1.0547022123597445
-0.8354661331843651
0.3765463314531648
1.7593585884800613
1.418796332930083
0.7303294222784432
-0.06198542751708508
-0.7849368200584554
-1.8382230491495108
-0.9009165200464126
-0.28258309051269653
0.45992186716249445
0.6464304615013559
1.167563733167309
0.38755875457501116
0.2884679384495076
0.07189711483016523
-0.18515575144091426
-0.8399306258887506
-0.5874873192471199
-0.5870765874083078
-0.43203780564404815
0.2305760066350082
1.2411369401533487
0.8529885274054808
0.2699832642270346
-0.38449594506480905
-0.6641834882948047
-0.7755364939980737
-0.3525612100344368
0.15376205933716827
0.8689478609372385
0.8821328305152742
0.44372151374815344
-0.6145459136338336
-0.6387369123406164
-0.7067441853237411
-0.5986939721088181
0.0005413905687371561
0.8652054383472543
0.7727561350586571
0.45112580252498174
0.15022301263748777
-0.3529565327075229
-0.5215460369500584
-0.6157432356543154
-0.4599121464045031
-0.03448662685933354
0.5044671184800495
0.5879218198075538
0.5969426861720555
0.2442969627788038
-0.21545941752901
-0.5501852373819459
-0.7026746470785556
-0.35018691912632216
0.11437898907462343
0.575717558617661
0.5715753043555369
0.46485948072702704
-0.17515267417870964
-0.7791932583068422
-0.7793519561974582
-0.41810959318741786
0.4264353015262042
1.0027044625127073
0.8512968548431535
0.3948537885798479
-0.034795834071619305
-0.9356430501168438
-1.3609679470126714
-0.45988821455810874
0.14362214664551615
0.5267465681897452
1.0123915403373815
0.7086048471044599
0.26884213593067446
-0.7131197526566391
-0.6772373345678765
-0.6575950207818168
0.15010965629906617
0.20085846314459146
0.7920902203533269
0.244665887255871
-0.11535802524046898
-0.5684446528032485
-0.6098072205381957
-0.3621545640004757
0.20178650453019165
0.8309907043485812
1.1762767782829187
0.7969447645459826
-0.5951455065155893
-0.8600583339623398
-1.1475844360870848
-1.4428250096696513
-0.5678529623473905
1.1532509931284847
1.5864529479761351
1.679544081645304
1.0008366255175825
-0.6456333338484497
-1.1314564431748422
-1.4771320172489477
-1.5395537249218159
-0.560272825511715
1.0039329940205677
0.9799547844857132
1.5458370023776435
0.7158840491629929
-0.3183136709908272
-0.7773105159354338
-0.4261202898367335
-0.47775659477620486
0.9022241128094708
-0.9309295154133298
-0.06059640347777695
-0.004595697298794056
-0.3464719580585773
-0.9964393202561238
1.730233943369873
1.0365091907383985
0.39154173790496327
-0.27839148420978577
-0.5528419099520328
-0.6492222594157183
-0.5501548365341551
0.2487482988580564
-0.6440433322333174
0.2647385567739454
0.7079284299339532
0.6044361630357445
-0.18319483130757494
0.7341305890069753
-0.3155455814722581
-0.8306003955951649
-0.6945498579708782
-0.14587148545487164
0.6291680595566692
0.08045292074772867
0.4653953183522375
0.22248464463640158
-0.04182729276521194
-0.5494178217521736
0.26607220092578016
-0.21939926523591555
-0.002022803105868749
-0.04015966576163955
-0.05484875916027282
-0.14080095676892532
0.013894722153806714
0.10290350875443136
0.17692156082099678
0.22551907707498775
0.17148495322812296
0.0809701742342756
-0.21164826673347567
-0.2700379105541891
-0.22248133200499423
-0.13813228598626334
-0.019116552695709894
0.19072740023473211
0.18493531092514653
0.06896459006968977
0.13797530408869282
0.06315583670525392
-0.11180771527341161
-0.16608058797319872
-0.09319282024356043
-0.0935597989709727
0.02867786385149254
0.06397678312067148
0.1930955127876938
0.18390749665088382
-0.007345747534734542
-0.2292935529079949
-0.12522923101106356
-0.12371292779339942
-0.03403615272337835
0.15192195285845597
0.25321597199636
0.09267669274550061
-0.10717723561683647
-0.12387344622450601
-0.1322150313448229
-0.1025800385386148
-0.0031828539574846756
0.1932965634217289
0.1010903351094515
0.11467467573106309
0.0075301176557449135
-0.06245316832522717
-0.14254653550095311
-0.07339332065449777
-0.07991481757813285
0.032321687806086005
0.07477469217962225
0.06932786607502366
0.040308460542888155
0.007893347583341362
-0.015463557338627346
-0.025385007511698206
-0.02359583337520378
-0.01495794745745638
-0.0047175639282303
0.0033053903380684886
0.007394669462544776
0.007700819400384443
0.005506166923156061
0.002406555829029432
-0.00030346885880150364
-0.0019248187301938381
-0.0023535038065138135
-0.0018942959150780748
-0.001015192450562175
-0.0001414221510593808
0.0004608932908691151
0.0007078585523083765
0.000654880024265958
0.00042595912574468024
0.00014850368486149783
-8.68421260289584e-05
-0.00023716822064616085
-0.00029650916588912387
-0.00027626976129196875
-0.00018935948525243464
-4.566689658924034e-05
0.00014043321389945368
0.00033649976017351325
0.00048261342331798544
0.000496684657944603
0.00030054951280178796
-0.00013596731956908972
-0.0007470726415205496
-0.0013428478215457256
-0.0016276726775949768
-0.0012835006345767494
-0.00011411947729355534
0.0017861336278493704
0.003908991025096746
0.005341942573646554
0.004983788007898089
0.001979386957991743
-0.003713604906907133
-0.010829329568952117
-0.01665684445332919
-0.01754129423153534
-0.01015530663584135
0.006620877810624082
0.02974961700900657
0.050876747525464394
0.05689579252635395
0.032815601946354016
-0.03331870127879912
-0.1448205602576006
-0.09235617244837238
-0.05387611034365278
0.00036902634308411694
0.09871367977575726
0.2579780130482621
0.07653102072541125
-0.0661480923296236
-0.0026329910506090472
-0.16580586268832695
-0.1767148716375735
-0.036720087023388456
0.07312918659935859
-0.014588962783537428
0.13502119921811392
0.14744231194908972
0.030678374201228917
-0.026596661469624888
-0.050495449572588155
-0.07309868128566546
-0.1227892336035546
-0.01706456499545965
0.040148809101685445
0.05655218224185604
0.04646789249771527
0.025118979821753595
0.004240391212278412
-0.009927348056549436
-0.016293600753231236
-0.01700665954439308
-0.015050730785856245
-0.012319985926060716
-0.008789551191096505
-0.0029582203618560617
0.0066959088277697195
0.019856400994404035
0.03292245699522453
0.03878590851554408
0.028353571228635136
-0.006252735047624324
-0.06768368490963304
-0.15013388467567648
-0.038712187001783124
0.0874818749901729
0.04904513192520373
0.058864987313778636
0.11653149951541403
0.006914276119871699
-0.09630141417650076
-0.023161263807649282
0.0015209088748476735
-0.03415427840197605
-0.12503451715716124
-0.04962609033153639
0.024226407238436786
0.13003303020212462
0.09254104021480108
0.12031774744696408
0.003801031115242113
-0.08046926762538334
-0.16120482806901196
-0.0628117196755589
0.0014314076823502123
0.031295159222239965
0.03667022046378559
0.03160575733059061
0.027818577500899888
0.029886433771582427
0.03352924133896822
0.027415369199143093
-0.0020419580067750367
-0.06435536693687965
-0.1592904367218088
-0.07424007484308223
0.013714038171882204
0.13119099155126718
0.09962376739904887
0.12767810711666255
0.008187691093785253
-0.07913092809583562
-0.16047138507966904
-0.05940518580011607
0.009537847580735148
0.04311810015934308
0.047514871007426185
0.034002853675413815
0.014309294521102167
-0.002743319766160103
-0.012653547503416494
-0.014914624043724707
-0.011634729931353232
-0.005887524853416205
-0.0003868044616680914
0.00323107914763483
0.0045218112036322115
0.003932897762792412
0.002335593968469409
0.0005968887933332567
-0.0006896889680223266
-0.0012889357657430312
-0.0012658773456281107
-0.0008554473135355996
-0.00032716433693548593
0.00011118120229840058
0.000355244583870333
0.00039848781080643663
0.00029854746606703395
0.0001365042591665268
-1.5712285378488674e-05
-0.00011296432522008274
-0.00014021068190228408
-0.0001064576010194645
-3.524442551272573e-05
4.409252240163831e-05
0.00010282812322668108
0.00011764668387300599
7.540646396919609e-05
-2.1364632818068655e-05
-0.00014947333936270415
-0.0002639088170904782
-0.00030478006995139097
-0.00021515736409604495
3.153031804282144e-05
0.00040199656312937094
0.000784860381786057
0.00099957202669413
0.0008443419433749203
0.0001824835468314336
-0.0009528523991489602
-0.002276407599760785
-0.0032445850395422474
-0.0031724337095009577
-0.0014875784198927113
0.0019248469074701566
0.006403817351290835
0.0103931396694161
0.011695057660092253
0.008185332266010547
-0.001102934950761516
-0.014866099664400858
-0.028959493349661827
-0.03704428769231962
-0.032980425667500396
-0.015033826679248335
0.008769685933541327
0.01565772425938261
0.16570399822920104
0.20442645581475122
0.07210310136890655
-0.08051524422179332
-0.273536197165307
-0.28264830089043574
-0.2344025281375917
-0.016778653600423098
0.0954882168793233
0.40743288717542836
0.3732093953391739
0.3797787391458225
-0.04763808241161154
-0.21863831966753539
-0.43811419744108854
-0.5688060566023783
-0.410891282005021
0.0923448693299891
0.4240247462536204
0.6504379184700281
0.5835436186323281
0.1663983533295882
-0.11029591436300584
-0.36525887945835855
-0.6734922232197912
-0.6245281231488362
-0.5110204923172736
0.04343043224259019
0.4228991529089285
0.9442223099236777
2.1970962864540273
-1.1744706170639923
-0.43749400397084554
-0.0917509988944464
-0.5748034170184728
-1.7818164168484887
1.5758716378711086
0.16370799559860458
-0.42645019718584715
-0.35558079845344875
-0.2295821869969545
0.4106038523187793
1.017303146328677
1.2024783600841473
0.5597161838668316
-0.25272526152957975
-1.1827781563955826
-1.4446542281329489
-1.8130971154128193
-0.38857095532372676
1.755141161155549
4.062134744327909
-2.6314167171848455
-0.5972808953535698
0.3301521843043807
-0.2600294098413577
-1.3403721387939738
4.193715618311671
0.5901318132077745
-1.264384532625677
-2.1338496965980074
-2.7459984687165293
-1.3771579141178987
0.8617487186606431
2.0529272051634173
3.2741751647664183
3.8599056821966458
-1.2108846840881367
-1.9821356326417712
-2.290588697823532
-3.13104119495633
-3.3146094599479543
2.1209586055474046
2.9543937807638745
2.94606939364932
1.8263560153347975
0.39366882993730684
-1.2438942801179997
-2.111866927136738
-2.7705411084422744
-1.157446406219409
0.2691544432293926
1.8723561250917715
1.698425738433693
1.1201397681363663
-0.07899418447964782
-0.5469453766400558
-1.1331813668192345
-0.4124493267302856
0.20495997454162238
0.5522770739643648
0.5646058098419547
-0.28404059122099007
-1.3653944032340517
-0.9087238337505282
-0.04648338696542183
0.5085625492066883
2.974048924464362
-0.37073825041049663
0.5977409324054337
-0.30745864135168144
-1.2917396951099835
-2.676608548254117
1.572199407242609
0.05882112534618908
-0.08930390493701537
0.09014562118994182
0.29237002521448646
0.6572514061980218
1.1176328051094275
0.3996670765927164
-0.521075985341704
-0.7205947254170575
-1.0128955873868826
-1.256794724228251
0.08895982268325456
1.352756307046429
0.7919767642219149
0.11706668179645505
-0.17474675706835766
-0.24127891877866545
-0.5130805498105026
-0.09591360094989124
0.23320003981876844
0.4331357726154955
0.4117160222005284
0.6491220778252058
-1.1681220541054032
-0.7107719024536792
-0.38321304479904833
-0.12690216422370978
-0.2550751370020621
1.291887651752819
1.2930177972287993
0.6210568171684882
-0.33845931871803375
-1.0255243199483428
-1.2247314106676406
-0.9997828283379323
-0.0728631531865496
0.5413685250288399
1.262109840530083
1.4622400191723268
0.8180076203406773
-0.8889968346347148
-1.1204980200911403
-1.1082662113475081
-0.7972864863008572
-0.23562863503628492
0.780813143299185
1.0255339355743776
1.3544662561593226
0.051066593632994234
-0.3733422898327398
-0.12256976171067605
-0.4206704546785122
-1.0085596272857602
-0.06112862679400041
0.05464206438228057
-0.027157161520993095
0.07807875987742571
0.02502061398274988
0.24564008033970422
0.06194711500620745
0.6203864756150572
0.26076411936316973
0.1271489752285445
0.020435161886422776
0.08324815161845286
-0.700118986666106
-0.8108579940097007
-0.3318955212157128
0.07111734104917675
0.32039821651262784
0.2578382309950718
0.35661450065478867
0.03291846127168915
-0.22616412540363248
-0.10923041508056258
0.3023861672836583
0.7486362113021707
0.436509061273472
0.11504942265674453
-0.6307589448692605
-1.2883000426365723
-1.5559322034951977
-0.33647453807280536
0.6068644843620192
1.9503666856029072
2.9061905469347695
-0.6390081422227885
-0.9165871329312142
-1.2081642688543446
-1.7575740104268003
-2.1119262794982308
1.8755174036400786
1.7813973645293424
1.5213448222149863
0.4811815574609462
-0.2930100209836725
-0.8403432168195839
-1.191679737774951
-1.2791095401623498
-0.2869853306038303
0.5357574257451746
0.8080882238704943
0.7220775422426837
0.75776253497292
0.23880332688460487
-0.05617494954965355
-0.23099673762111075
-0.5786340935049038
-1.086539971420971
-0.36984967524162904
0.14719658225781454
-0.0035411782080392597
0.388898278572312
0.7180789295903428
0.270474937832834
-0.035133208908039226
0.5337747648876083
-0.0514427665288327
-0.3204347634206759
-0.4248781912498864
-0.4610533569773452
-0.6136136506757331
0.06626049926104897
0.4459306858613541
0.46880089256483587
0.3012879899037511
0.08701636784105723
-0.0800883785746956
-0.16117290066038525
-0.1612313165585985
-0.10985983710963898
-0.042250150156759425
0.014161391618013093
0.04554111686672844
0.051053632947127586
0.03840754129593117
0.018351449310815816
0.00019508091408226033
-0.01065398141036759
-0.01311988606488187
-0.009437846989934372
-0.0034564253047291485
0.0010743829552104464
0.0018072944253601283
-0.001501216155322457
-0.006947805607704878
-0.011089096685878598
-0.010143734686324554
-0.0016364035796695613
0.013845727481333397
0.03132031649198627
0.04115487814593193
0.030424007478327447
-0.014038097015012055
-0.10152378578663618
-0.03358954070376369
-0.0019466867221306253
0.010951165265953763
0.02873619646167782
0.07643145523604258
-0.02434076627950313
-0.05911738674254222
-0.022848703639741542
0.07931413566140888
0.03263798778490501
0.015008919536418674
0.0008265737158998249
-0.03388378782901416
-0.10637176272133526
-0.023687634349448296
0.017879548430037848
0.0301599949842785
0.028173629771170626
0.024630105468985752
0.025652897087943105
0.029016910077136804
0.025416234587782582
0.0024438291710536923
-0.04984618576763905
-0.13359031913076952
-0.040024243566988096
0.04982673632659085
-0.03952994682812034
0.1146770756708924
0.1261255352348614
-0.005433924921148235
-0.09481817958714335
0.03220244668203846
-0.054624951592303385
0.017297912975728247
0.029882941764671454
-0.021235863688107266
-0.12514753549567312
-0.057552595255571846
0.013743572624451165
0.12057987884837106
0.08562239674705707
0.11597067945459802
0.0016587159410904003
-0.08028592467460385
-0.15783278266209397
-0.055195634910128036
0.013377489499549157
0.045439135596848465
0.04805546737750028
0.03318906280559194
0.012921366801114843
-0.003906763611103371
-0.013034362880038881
-0.014346408186917554
-0.010382668692487182
-0.004578700176775909
0.0001687368008537563
0.0023193073296969673
0.0018636837928951953
-6.727994789271034e-06
-0.0015367687474760632
-0.0011576481811242738
0.0018225823877135328
0.006752494393794195
0.011557139718057342
0.013176110163068692
0.008547602555217887
-0.004033770988909
-0.023624606704342622
-0.046081303655819625
-0.06497418906376724
-0.07437583313829668
0.12686174464095296
0.13086360089833945
0.1189467472554414
0.06453708615048837
-0.05865986343236152
-0.26533488628425894
-0.14846483289029536
-0.07525621917365213
0.007954960616467275
0.1625677141775747
0.24063169580300256
0.06989267590292475
0.046245120375089044
-0.06411262896502046
-0.11425206609471841
-0.16205940754551376
-0.0568702961124828
-0.03116072331609051
0.10126231327351627
0.1418850435571727
0.10202882984948304
-0.0015348529094969961
-0.14835364456266026
-0.11420103097371741
-0.07141325585319078
0.008263406755867618
0.14804333313765586
0.15963100652158488
0.039034467876853135
-0.03286206589839441
-0.08465884136570748
-0.14584345336942578
-0.038636348179793986
0.02676279523712547
0.05233738287915757
0.0486649638008155
0.02966962070695485
0.007876017931214256
-0.008474530079918885
-0.01613281714663397
-0.01586987046758225
-0.0106863104742308
-0.004025426266694787
0.00147525444130771
0.0045136306303141865
0.005038302407195389
0.003804016257001153
0.0018390302543024894
2.3117998198630638e-05
-0.0011328265025834718
-0.0015109749583684907
-0.00127914221740674
-0.0007336503359479659
-0.00015977830502748207
0.0002531202803702285
0.00043542633345629837
0.00041498934116715144
0.00027264753170826953
9.756088625298977e-05
-4.3646504012806265e-05
-0.00011938429186115012
-0.00013007959219187603
-9.62847846485644e-05
-4.4877403200253164e-05
1.644007659865177e-06
3.056730507947681e-05
3.9336561711437506e-05
3.261908785556785e-05
1.8197230790463155e-05
3.397608380500703e-06
-7.026145405096602e-06
-1.1430727683331626e-05
-1.0653286708203902e-05
-6.839404625790791e-06
-2.2935136962762563e-06
1.298023530756312e-06
3.165771761049177e-06
3.3604005672741194e-06
2.435691621795697e-06
1.0910819678688813e-06
-9.993175650042327e-08
-8.22371089240604e-07
-1.0230503190823984e-06
-8.310148170174141e-07
-4.503750091770906e-07
-6.909108633991262e-08
1.9370639578923306e-07
2.9958599043651256e-07
2.7316160742969754e-07
1.712631580956546e-07
5.338385998875328e-08
-3.784938627324947e-08
-8.377380181098705e-08
-8.670916498834136e-08
-6.152836638328548e-08
-2.6409393154041757e-08
4.046862147611541e-09
2.2055802099521225e-08
2.6573198541431476e-08
2.114533324757729e-08
1.1117261108617978e-08
1.3054668690263941e-09
-5.30991366230901e-09
-7.839955812929445e-09
-6.99611457834701e-09
-4.280617541774123e-09
-1.227612118970555e-09
1.0869434313707751e-09
2.2125159782973724e-09
2.234790787905377e-09
1.5520204684383134e-09
6.360458471462693e-10
-1.4186206465051822e-10
-5.898383970934401e-10
-6.893638382199526e-10
-5.37376326280754e-10
-2.73640372963568e-10
-2.1436404875276756e-11
1.4482723513534277e-10
2.0486787595204847e-10
1.7897490991958813e-10
1.067825007284657e-10
2.7806061896820858e-11
-3.083603902496209e-11
-5.832572116762736e-11
-5.7532079365062746e-11
-3.90899589499522e-11
-1.5231682357260764e-11
4.613990615056588e-12
1.5732349445276845e-11
1.7861611778007452e-11
1.363916603350038e-11
6.714413857099887e-12
2.391209381219387e-13
-3.932621082362683e-12
-5.3459620759121855e-12
-4.5732401200068394e-12
-2.658265612065417e-12
-6.176812458045266e-13
8.660753052458482e-13
1.5348322292092068e-12
1.4793717397066929e-12
9.829646716946923e-13
3.623459321660947e-13
-1.4334146456914637e-13
-4.1862075417142444e-13
-4.622722812731206e-13
-3.457518179459723e-13
-1.6421825531768918e-13
1.844326594786951e-15
1.0633404193051928e-13
1.3927988337361e-13
1.1668203531381047e-13
6.59852844669975e-14
1.3318827518092637e-14
-2.4167732388128155e-14
-4.035450088843213e-14
-3.801036563588129e-14
-2.4667795326784993e-14
-8.52781221061615e-15
4.340292791021165e-15
