0
2.5195662796953157e-09
2.5195344132180604e-09
2.5195236934460354e-09
2.519551677484016e-09
2.5196270391722494e-09
2.519740138335728e-09
2.5198571416183657e-09
2.519922653713521e-09
2.5198745019696904e-09
2.519670442440309e-09
2.5193205457187767e-09
2.518912598944544e-09
2.5186139517717504e-09
2.518635223918749e-09
2.5191516231677602e-09
2.5201960455488696e-09
2.5215602614170134e-09
2.522757578050951e-09
2.5231010622137862e-09
2.5219258477361284e-09
2.5189296022525505e-09
2.5145319480310605e-09
2.5100867092163804e-09
2.507756962014854e-09
2.5099187457732568e-09
2.5181137173173322e-09
2.5318050925210654e-09
2.547435791887268e-09
2.5584283619657806e-09
2.556673347222322e-09
2.5356365579909612e-09
2.4944935729451825e-09
2.441850155670701e-09
2.3969747470572393e-09
2.3864915701900475e-09
2.435529245516457e-09
2.554468848506238e-09
2.7252679917456158e-09
2.8938545878054913e-09
2.9758618178595043e-09
2.880621656935536e-09
2.552190335656387e-09
2.017073497140022e-09
1.4190199211150796e-09
1.0162310210661216e-09
1.1205462754925454e-09
1.974896169538302e-09
3.593584650083997e-09
5.622537947487612e-09
7.29998082349691e-09
7.595210907458787e-09
5.5604542157578046e-09
8.460798799007287e-10
-5.779914501328231e-09
-1.2161680058060006e-08
-1.5012406890811745e-08
-1.0877679851524993e-08
2.259405159188315e-09
2.314989763696539e-08
4.599889510978982e-08
6.068276666828845e-08
5.522573707940715e-08
2.0626728008036552e-08
-4.297813807416255e-08
-1.2107910700083392e-07
-1.836005663726851e-07
-1.9068795617852336e-07
-1.0667282767854436e-07
7.991933763107e-08
3.3667136640072985e-07
5.777740767395809e-07
6.753242510707088e-07
4.97925020753028e-07
-2.6587153897404856e-08
-8.411980985838274e-07
-1.7128348140984564e-06
-2.2450381559244006e-06
-1.9785108398585215e-06
-5.80994422760273e-07
1.9152503180052153e-06
4.917763834683007e-06
7.240706081684839e-06
7.344843952141636e-06
3.8909934902527246e-06
-3.483890788598214e-06
-1.3421219320161049e-05
-2.2511015078535925e-05
-2.578172414143293e-05
-1.8243901182389957e-05
2.661285340247208e-06
3.439021174362844e-05
6.758872327918854e-05
8.674899488882345e-05
7.428029774595918e-05
1.796905780104404e-05
-7.988100307938344e-05
-0.00019515791379698914
-0.0002811661570507772
-0.0002785310500869253
-0.00013710065254737868
0.00015398456469303514
0.0005381321040186439
0.0008800337656433657
0.000986655413293755
0.0006688567793380871
-0.00016314241980474833
-0.0013978490235528058
-0.002660609826486241
-0.0033454641146156974
-0.002779406524340164
-0.000514886019091525
0.0033193136689577884
0.007748072961006201
0.010941158575463588
0.010622045592571225
0.004935630990250025
-0.006386538730572026
-0.020966742563729848
-0.0334162768511373
-0.03626228842064213
-0.02248983543221374
0.010554538034935465
0.05691678209112353
0.09914325814106334
0.10864124334403495
0.05056224580609032
-0.1070761204122434
-0.1823844524034475
-0.17068374450811755
-0.041691217295140644
0.055167358034669475
0.1785860659487719
0.1805751317702486
0.09434053802762395
-0.07119437927472619
-0.1293636313911656
-0.10857629151068368
-0.04401270342244517
0.02823353223477471
0.07296219598227602
0.054120382620389616
-0.06884598336691697
-0.14492642227951383
-0.03469183185014678
0.18839699529363774
0.24042490765048802
0.23590133210184178
-0.09510105059032702
-0.18293851073293443
0.006832678848077427
-0.20875127944640873
-1.0286125100662873
0.01143651604546459
0.5955661680542188
0.3717415088410227
0.6995654148859048
0.6208352952558586
-0.13559776550285685
-0.716248208952677
-0.68794872735495
-1.1884772775846084
0.09652900923515118
0.7227650994687255
1.2527373001327198
0.6208750817578483
0.3221275757435806
-0.3653022289727137
-1.1323591300907316
-1.7921450778487251
-0.8628479618593139
0.8024085876240564
2.146691994771959
3.2342727978069234
-1.9893532864902186
-1.078951641167447
-0.8227933522321083
-0.7641723976976915
-1.9496979960174592
3.2767862933612513
1.4425663996222793
-0.29691990555918546
-1.1869455375145745
-0.8818194384914902
-0.8467731815008445
0.027836596265226946
1.1945140743328169
2.01277653185458
0.334802909351523
-0.6677197355047129
-1.0368361866326625
-1.1467255286436429
-1.6437376737473117
0.3635399862563585
1.6592649199492908
1.8426665617042588
0.8562751527118407
-0.4467627767167458
-1.888187586316588
-1.524245293312079
-1.015595403617444
0.3655444284724243
1.8921182973361448
2.934330474995527
1.5527432294960943
-1.8355692020759145
-1.5232685473554015
-1.5583218198860178
-2.0366758039423303
-1.298590491833802
1.5513004893129012
0.8257998837398149
1.6025234696347581
3.117518271919041
1.075612722081705
0.31365132318648636
-1.7962829839270815
-3.0654731241011772
-3.2209285666096856
-0.3397791429474949
0.76519192660987
2.418902681744238
2.278393094555748
1.1321185357095271
-0.02776833731122696
-1.2332321842263094
-1.4862832598107625
-1.2697453708598754
-0.27260305893006975
0.4397191845313936
1.2091788241635941
1.3466267472036824
0.7035085809638842
-0.9233045031821149
-1.1525489961187259
-0.9660993416187909
-0.47227211641364275
0.09484936730051322
1.1404608428527927
1.2592735764252752
0.8014507724978529
-0.12126105452631442
-0.5838965710276072
-0.7689251774713559
-0.8929691161718493
-1.1756378785576669
-0.6750831875631066
0.0063096826238915925
1.1682196955120083
2.25574047445903
3.55604755120076
-1.6049473653353206
0.6475933917494904
-4.471483512320454
-2.804884268943667
-1.1144284570706529
6.150021791081891
-1.8154575237742339
2.5205664027713643
0.3275659984875906
-1.6410399360449401
-3.865135838237412
1.333184763150703
1.563856485761276
0.9258677837716889
1.1725481548718673
0.11567524173256047
-0.7194237810768997
-1.0028442851481214
-1.3082820480469572
-1.6596529799893556
0.058036664802957
1.824393164552265
1.7766393408476826
2.1195911745548845
-0.3019842255675905
-1.1515799692334632
-1.8915267618781268
-1.666527931981776
-1.2344629410249188
1.2240095923185954
1.8231451256084277
2.0571538535397202
0.5057655271761122
-1.2009330259902702
-1.1525559795011462
-0.8890208109000037
-0.5301440477295258
0.6666798142715235
1.1132008509032116
0.47329389930277777
0.04100141092946547
-0.874600862660507
-1.159824289247702
-0.3137756522854503
0.3178179249636477
0.8961560270842783
1.2495225930066194
1.066330035414903
0.33996080340756263
-1.1359317896477747
-2.247943280205826
-1.2629199937148348
-0.18975552852377697
0.7772794292467914
1.3474932725638677
1.3960396440175054
0.4483217090016388
-0.17796164176162144
-0.7635534874361755
-0.7271086315498015
-0.34373043421928695
-0.27255627124135484
0.08790406507156051
0.4128078021206256
0.4404767930884973
0.1520009108442128
-0.046809519018465855
-0.33520497997799326
-0.28031529182948145
-0.03840939291589469
0.24071116423940667
0.2055341907379416
0.09416394836640321
-0.0705536559596657
-0.08000406455344422
-0.13409301894311454
-0.03417554757896433
0.02211421427607146
0.04252083671098844
0.038664155845056516
0.022949392656779175
0.005611983455091928
-0.006996744760417209
-0.012605882761966747
-0.012060901669137694
-0.007839398853579463
-0.002650720610336741
0.0015012239686374971
0.0036829306341815238
0.003926267627340375
0.002861084541627779
0.0012970274056797167
-9.637722195044996e-05
-0.0009478835660801739
-0.0011912109825716849
-0.0009739418917729806
-0.0005330481702379233
-8.817519773237904e-05
0.0002205202890763865
0.0003469226934166371
0.00031881455080768923
0.00020203371511556676
6.586101538521476e-05
-4.0005724356234086e-05
-9.391736903261575e-05
-9.8807845803547e-05
-7.217324743824454e-05
-3.4971484427861934e-05
-3.3191375067964744e-06
1.532418649447757e-05
2.1703887912214313e-05
2.1464491151836066e-05
2.0830650575698523e-05
2.2962208018717362e-05
2.618262749473143e-05
2.4643057933852442e-05
1.128688622538892e-05
-1.7739864098773116e-05
-5.875651347928968e-05
-9.826411435187382e-05
-0.00011462657676257194
-8.479664124362805e-05
4.566601210039395e-06
0.0001446225260219157
0.000295844573059611
0.0003898750670651975
0.0003467159840847966
0.00010759206985566473
-0.00032365814255197874
-0.000846112590625361
-0.0012551926932327414
-0.0012833767192409978
-0.0006955394472782957
0.0005763993681133562
0.002303100241510416
0.003898489178098889
0.004502058156346181
0.0032445200779970353
-0.00032759219258703413
-0.005785429294545998
-0.011515495304205802
-0.014827312638153838
-0.01265984322055433
-0.0028944602419640254
0.014003792670699839
0.03360405273895634
0.04716524792780014
0.04301856886820832
0.009882665467492746
-0.05852799984851015
-0.15918507404808588
-0.07783187729968322
0.008866730745366274
0.12704255134944095
0.09722335494965986
0.12718294809412453
0.009137137960815776
-0.07746766627148333
-0.1588092302915409
-0.05827603578831136
0.009844274674955923
0.04255210520175424
0.046249070824694184
0.03241704144554877
0.01296031375707221
-0.0032071692534106416
-0.011668372394401091
-0.012262380294535828
-0.007721699565848668
-0.0019076233765911953
0.0017909403436339709
0.0015702040272435648
-0.002288795525007865
-0.0075478753859502465
-0.010737054140715968
-0.008404246100551344
0.001287672176556366
0.016968487576540906
0.03301010719474954
0.03962538572347875
0.024540972837933054
-0.023835735006172525
-0.1125586845573822
-0.04100177002958783
0.00013573280493432114
0.027032540673527474
0.05877953161109021
0.11289244630425825
0.0021420983372039517
-0.06623298366633232
-0.08922737723049724
-0.06614623507906339
0.0022786734447868317
0.11301351136380831
0.05880899268842638
0.026909950098398704
-0.00015248381990826842
-0.04139544361073295
-0.11291519512156332
-0.023953862289458606
0.024856832704124296
0.040467699158785404
0.034264998876318876
0.018253677820078456
0.001985738458757846
-0.008978273680756852
-0.013038147440155174
-0.011444513710543941
-0.006788963103780988
-0.0016726027387853795
0.00211927699024924
0.0038764206222331597
0.0037893231234331923
0.002557397810018347
0.000982555429373255
-0.0003195046175541439
-0.0010435345764143956
-0.0011762753697730308
-0.0008935539567718187
-0.00043611113953639734
-1.073712474560542e-05
0.0002617242976453847
0.0003524876399008251
0.0002999917795240482
0.0001732258491048679
3.8997981391456144e-05
-5.809506394377811e-05
-0.00010141592827630599
-9.720522082781478e-05
-6.423239986541406e-05
-2.3340876028402963e-05
9.813412789594455e-06
2.7738188727283033e-05
3.044139792822893e-05
2.2671944053767144e-05
1.069541501734061e-05
-2.178993050668664e-07
-7.069779003013938e-06
-9.230361452264401e-06
-7.75773950371758e-06
-4.440104118002996e-06
-9.643789486968052e-07
1.571719041945064e-06
2.774824446690037e-06
2.7988582743322445e-06
2.0691024851548082e-06
1.0269633869462252e-06
-1.8964765345354264e-08
-9.152763024655941e-07
-1.5937583310080668e-06
-1.9739975670232903e-06
-1.9066776976425458e-06
-1.2034625165181762e-06
2.4126479194066375e-07
2.2798703134311086e-06
4.376781371057601e-06
5.611994745033269e-06
4.903009842273435e-06
1.4552971545118204e-06
-4.6587953046637715e-06
-1.2013030943822654e-05
-1.7731395239409886e-05
-1.8059331373385557e-05
-9.706413441035125e-06
8.256336359829233e-06
3.2560410000905805e-05
5.4907308335373904e-05
6.313302927724105e-05
4.49549294394247e-05
-6.04572948007302e-06
-8.385208758666937e-05
-0.00016573629812626552
-0.000213695314324308
-0.00018415595947768144
-4.5877056014891e-05
0.00019816483912762366
0.0004936053261628719
0.0007337336994682565
0.0007849185349808804
0.0005412260434560557
-2.6336974955698992e-06
-0.000688587151871912
-0.0011880207107613895
-0.0011049659809027339
-0.00024167804719464527
0.0009368464198413962
0.0006248778974202611
-0.005211391084299833
-0.023912361345887916
-0.06733197679460702
0.047060258955741556
0.095795535601395
0.05079790959740569
0.08365782864093758
-0.026883008879609465
-0.08541429499615039
-0.07108278042526837
-0.1332176512545722
-0.1946402287925481
0.03578062953504824
0.0425453298374111
0.07927422999449234
0.3475897978466171
0.38655017387773694
0.07809908401522687
-0.33070185136687147
-0.3942088589445504
-0.23412427072004122
-0.3161593739199153
-0.24424011035818338
0.8288337915270163
0.9832716345401944
0.31957924813322625
-0.639739763924401
-0.7364114066938767
-0.9651592327800024
-0.6837889027881038
0.3448776571143565
1.0859628374337602
1.3647426340412665
1.2305907826979132
0.9774242229230293
-2.7773976214462612
-1.582593149903592
-1.0574366191343618
-0.45472791982480343
-0.09905593571862342
3.5197324711065887
2.8463432284626267
-0.9931941071808269
-1.3677233402029658
-1.4519493803246986
-1.3190748420016694
-1.4691372258721642
1.7742465420889448
1.4006996958108806
0.814958135837525
-0.0542488411155626
-0.40783568396754344
-0.1850155039385598
-0.4388165465155803
-0.2980005823723284
-0.13232084539222783
0.26978081981930285
0.11066355873247212
0.18633839794829105
0.4913316347159484
0.43232213416238585
-0.9480313442548757
-0.34275372297058243
-0.35891911794903997
-0.31371537316700726
0.34802507124059096
3.221463045284503
-2.4924133738720364
-1.0134493260703166
-0.40398944358010713
0.004259823808114853
-0.6250808448804204
5.537292094430509
-0.6107916344857173
-1.646549610099447
-1.3176096173307934
-1.4263615985508187
-2.55371533656903
2.1436457335301595
2.664379203897153
1.258551853876079
-0.06175245964032571
-1.364780770478416
-1.3965384826594016
-1.1629311637847883
0.26991966721564387
0.5421572396330804
1.34515369011707
1.1758780882439877
0.5338678683890136
-0.6208876929447088
-0.7552478300471663
-0.42384376981620386
-0.5427034145717112
-0.3111581394277699
-1.2046234967063516
-0.44431302595056277
0.26766397783710594
1.3776413265353746
1.9195867568147542
3.014541983656179
-1.3330515029250023
-1.5388880536943665
-2.28007935727061
-1.9395033051751787
-1.7152232654498099
3.377002982872326
3.6276918893024868
0.13924097387764178
-0.6298030562256505
-1.4579356688584257
-2.111394024440304
-1.496924513528129
3.546102049006482
-1.1939829256921508
0.8326784337914258
1.0777555587048455
0.26719287256799695
-2.1847665197549855
1.8733774954119677
-0.40277143748423894
-1.788484236215618
-0.1435465739043983
2.8042226745869816
-2.557499581953642
-0.570205424580915
0.6307211760937298
0.0415040592658072
-0.6771481381951715
6.366077824170045
-1.2811640713547614
-1.7196706718645578
-1.9577405753514707
-2.5824030233920676
-3.3099029844342907
2.7454202680990782
2.898313698656705
2.4831292438192794
2.6984014370698426
-2.0247311858732315
0.28486150704326685
-3.459499180445064
-1.9858014094477365
-1.713841551919337
2.4777445222663093
0.1678293131760732
3.237188100526227
-0.8946000070015773
-0.786038461774157
0.18033790962376672
1.8202431061456494
-2.1788306284873413
0.8459844558576639
0.24323401745023276
-0.6610204064553403
-2.9141608239063213
0.44973264892743525
0.12685339009648045
0.40497188097547854
1.807503435840002
2.9726297870287457
-0.5856901026634243
-0.2132799104170231
-0.9637078651561425
-2.4084226946442726
-2.473590678051418
2.0428676720291836
0.4525369633192927
0.47275333977818346
0.48011494748725025
0.3670231630687799
-0.16531109847434006
0.3399364901692974
0.10004843240183103
0.950765071296986
-0.3543722268152103
-0.22238746095450812
-0.9041313769969064
-1.4153374720105516
-1.9262323569099975
-0.23635358736681883
1.0751036441145472
2.46554162461805
3.0790254547736433
2.099295746215488
-0.15454848967380402
-3.0041751726874146
-3.7322398115314503
-2.1527769279141333
-1.5281813691762394
0.3222621533996196
2.348444594302413
2.9180759431160266
2.9064689612551926
3.535609970462103
-1.5778084842489235
-2.1774435320820538
-2.8079645615766617
-3.4655572883096046
-3.377902756418642
2.0157917064737916
2.688831290129412
2.9310868903821072
2.0480730840566572
0.7601163744044978
-0.8433477906090955
-2.002532459906335
-1.6965839346698963
-0.6402439978386608
1.467221226095964
-1.9930075987469682
0.41762140552880156
0.9032394515923171
0.3035473252388149
-1.038847807686387
3.221085012464756
0.9903043601621706
-0.628467943638624
-1.435670694408385
-1.5995438519322722
-1.136166161318404
-0.04951724236316645
0.6491958886815526
0.8557307813782031
1.0569099776509796
0.6278018191575863
-0.024677376607642517
-0.25833567435445115
-0.34024216147288977
-0.5619666281742384
-0.3534381450073406
-0.21956051284966185
-0.11426501086162436
0.14473587034739482
0.02743365363813788
0.023142197413669022
0.3693232065137669
0.5947018364628259
0.49107180131992056
0.12229371359068178
-0.3305328725598651
-0.5000605372334167
-0.7610129210013128
-0.5790473420977508
-0.0969852040124657
0.4377763584706025
0.615775563233565
0.7998463626409126
0.2752949265689814
-0.16775910726345972
-0.41722387607998357
-0.39786717446943365
-0.42440369952346446
-0.1662783652270466
0.16576842381377555
0.4111553703993872
0.23692073618972942
0.11255958224326196
-0.10853528121424377
-0.1973879279561024
-0.14933868342297624
0.020029002228293378
0.07926172964719302
0.1846978613656225
0.08470513253245888
-0.07384213238672827
-0.1367710945944278
-0.13366276103548486
-0.07207490547601463
0.06254757134312075
0.10107876952242237
0.08127509837970094
0.038159420264783105
-0.0027662438557863
-0.028077160898234917
-0.03511200773980038
-0.028295888322243664
-0.01489236904325421
-0.0015816399458397034
0.00744962884367648
0.01090749189714481
0.009729512900600253
0.005967630403909887
0.0017342446264772664
-0.0014821718439859443
-0.0030543050883904852
-0.0030966507080745797
-0.002158084595574628
-0.0008915367713782957
0.0001876587309055429
0.0008118574301086293
0.0009535746111677088
0.0007458518309008267
0.00038181975514414295
3.241129639492221e-05
-0.00019878350957466817
-0.0002830845320397829
-0.0002481516673623167
-0.00014866738514078646
-3.936053514975096e-05
4.2076758215467714e-05
8.04856285618405e-05
7.969183265782891e-05
5.43404763078497e-05
2.135577023506764e-05
-6.1733994927048e-06
-2.166635653160429e-05
-2.4712445981942847e-05
-1.8933078487752003e-05
-9.371660525986907e-06
-3.9868647076706783e-07
5.40396003153222e-06
7.391216430832824e-06
6.3446671288192585e-06
3.704868351475856e-06
8.801232413671648e-07
-1.1808262876030734e-06
-2.1158678512716353e-06
-2.046985749051558e-06
-1.3644194899780985e-06
-5.064325887594806e-07
1.9501672119200932e-07
5.787704908102453e-07
6.4199777112945e-07
4.828963392578594e-07
2.328949176975748e-07
3.3661382630101647e-09
-1.4182893588555243e-07
-1.8884052709246357e-07
-1.5970932143446873e-07
-9.210554884292827e-08
-2.1524708388122728e-08
2.931820338356038e-08
5.307763280061089e-08
5.430897550258123e-08
4.3122988317787205e-08
2.901631456732101e-08
1.6973453590491273e-08
6.686377840698546e-09
-5.412610665348786e-09
-2.2459830756096105e-08
-4.344587947858103e-08
-6.119296522665204e-08
-6.337538985274405e-08
-3.70826259852927e-08
2.387982155892709e-08
1.1128603696653893e-07
1.979868087963593e-07
2.40535682500084e-07
1.9156281702921007e-07
2.1254390461919675e-08
-2.5748747656170457e-07
-5.705041329035582e-07
-7.834081324289069e-07
-7.329676185804631e-07
-2.909360713170329e-07
5.523418441449112e-07
1.6142909500858914e-06
2.4985047334041605e-06
2.666016282156694e-06
1.6182031685055892e-06
-8.340323882112345e-07
-4.297396198867402e-06
-7.651982265927117e-06
-9.181441500687245e-06
-7.072647158026019e-06
-2.5307475053610436e-07
1.0650763096171049e-05
2.263589816274845e-05
3.0423458739405356e-05
2.7739194968867372e-05
9.827801934250695e-06
-2.332193230552827e-05
-6.421798518903114e-05
-9.72022125386348e-05
-0.00010142714481338718
-5.811806010470494e-05
3.8971191859050894e-05
0.00017320760373820655
0.0002999955866479754
0.0003525229926299682
0.0002617904738999937
-1.0656067918674719e-05
-0.00043604710564398315
-0.0008935483960481649
-0.0011763646027415896
-0.0010437291657757757
-0.0003197694078984213
0.0009823104212428571
0.0025573048635655995
0.0037895162257269937
0.003876970501462221
0.002120119607168366
-0.0016717128150580249
-0.0067884370174879265
-0.011444821895653884
-0.01303962221629541
-0.008980865334954478
0.0019826589018615607
0.018251344843687026
0.034264995552388995
0.04047137931825294
0.024864520691865063
-0.023943628998452062
-0.11290598231511911
-0.041392383852418904
-0.00016065643397166694
0.026888053110765444
0.05877619651255024
0.11297965232431892
0.0022598209616352992
-0.06613207992044277
-0.08916803175189034
-0.06613146462791283
0.002260239245719377
0.11297863489890807
0.05877274665693174
0.02688216197010095
-0.00016747446053403298
-0.04139708152842691
-0.11290473417918556
-0.02393337211735985
0.02488408327387111
0.04049602673176341
0.03428547939584019
0.018255071731542612
0.001957991317722671
-0.009038298456442656
-0.01312054935272427
-0.01152298686241463
-0.006823692526160381
-0.0016217548565228407
0.002280147417025356
0.004132096790481097
0.004069202955432196
0.0027379587084744982
0.0009173977216035761
-0.0007408246172431537
-0.0018201831623236586
-0.0021319085091489557
-0.0016612848007249964
-0.0005286448490181062
0.001009485702561599
0.002538246404167168
0.0034938935683125187
0.003263178040870023
0.0014007772137770052
-0.0020692214145867586
-0.006377331099245454
-0.009925141194799083
-0.01056315629638466
-0.006315618226809068
0.003534995395650931
0.01731695998230819
0.0303005741583029
0.03505073340259379
0.023156851365949062
-0.011799556727590407
-0.07087182344152439
-0.14741165445169893
-0.027301028719312722
0.10752260220764426
0.07310662094508451
0.0774700660463942
0.11734238210426902
-0.02059300824315098
-0.15423831386376957
-0.09878207412144598
-0.06107041227530387
-0.03866895244557603
-0.024704153943085644
-0.017109451018694165
0.17120969435929598
0.3060614490188835
0.33426499046893854
-0.00273872798485333
-0.3457451417664297
-0.49257010831775927
-0.3820693840012622
-0.2977020499926737
0.10562935587195134
0.5575761804276054
0.7262646746242511
0.789036766477058
0.034727096030866884
-0.49968341517851633
-0.7704330173796807
-0.8703099191842737
-0.9996341257338005
0.11935734636679263
0.9874401001201021
1.4552749314782514
1.4668770477573805
0.05071153078997704
-1.230658050966524
-1.3892637327373032
-1.516477323642969
-0.12329964705168661
3.6625945534688467
-1.9517466945450832
-0.5024974182326246
0.6452763356016215
-0.1836382842767258
-2.2439865175561238
4.183270296173785
1.5835829457802089
-0.5427414708259798
-1.7743370823648499
-2.0306953159319567
-1.2509196563509657
0.06400809375496458
1.0268819039033614
1.6763246570272468
1.269397050140079
0.2016976837449923
-0.617096043524716
-1.1335224613143702
-0.6919658917609355
-0.18162092231767724
0.1854149611345191
0.25633374021027894
0.2875265673759048
-0.32186008723332893
-0.695908581704751
0.26707780919849045
1.6726316951468114
3.2528752200171955
-1.9540346927439882
-1.0733291207657636
-1.6457366574941992
-2.11699243967402
-2.615473653136205
3.162247086421653
2.583633751295345
2.295379090489135
0.8978582730602288
-1.0717420688174037
-1.4491107222993076
-1.6937439726981547
-1.9507103955382914
-0.7826987170478369
1.001753771702438
1.8403829654152661
2.280788333024103
0.878705466115972
-0.2220250790534325
-0.4175296986220691
-1.90953998542384
-2.5637170671198124
-0.21772920145327823
1.1257515920278898
1.0224394739717786
0.86113386919025
0.7391274178549457
0.17945005724288665
-0.2908070696452447
-1.1051655984415956
0.014284269710807767
0.740269752302215
-0.9855612230642606
-0.09995870730298484
0.8076319726306624
-0.9076741164679972
-0.7754715526040697
1.1395024969940541
0.37533083687854674
0.2133740293175584
0.23631935547332217
-0.08680759232561658
0.0107895612519251
-0.5778379742684279
-1.2018088606141173
0.36923203521184966
0.750971998260741
0.7398780509012891
-0.08780699922848823
0.6398089488507709
-0.47341707514905984
-0.9440436825687937
-0.9682192014057603
0.393425344233909
-0.005073665380357413
0.7524937661745775
0.5771562841123216
0.11314705625573324
-0.5029877909886763
-0.4582254123601315
-0.05859596149689183
0.6882509061850612
-0.30032372153404957
0.4547912381456983
0.6432048616849091
0.02404826766529052
-1.51314962330789
-0.10134505868543381
-0.48136422007610363
-0.43317435718062863
-0.05327067660560996
1.1369869570984514
0.6792880485203537
0.8943351089187124
0.6518533642365284
-0.19533551982728975
-1.3244288414298262
-1.6328871753402199
-0.7434425867408339
0.247332370695642
1.3712623242508695
2.1619942567504515
1.6336932550506351
-1.5093622904738533
-2.4348487840963706
-3.1502534637350217
-0.7226227745707978
2.0249014264219496
6.360159836084182
-3.5071415287697647
0.494626830006891
1.9218293381764935
-0.2679373700212005
-5.743556184838121
4.378572994672263
0.6739338339454893
-3.7220504073006824
-2.7327858095639623
1.1500902149849068
1.8805724514066566
2.840293221508584
1.8596245358687264
0.34472209178371976
-0.4603892999190494
-1.8996344012162187
-3.2833311027542154
-0.8986201899128458
0.4863060638152258
1.2040189366739769
1.1815646059870248
1.6006575825821814
0.38020633535710335
-0.8842622551891153
-1.1201936633648173
-0.3376379250627283
0.020623205616990162
-0.08488917097879814
0.5236306477184098
0.23781698326532907
0.0522779020617597
-0.4450940473582733
-0.07802503823020304
0.11749681459702654
0.295677845320761
0.4072738358186655
0.21165734043206746
-0.9061725094795577
-0.5196931790269886
-0.15578930482608727
0.2921956625731294
0.1345255263026654
0.8489674630003325
0.2537157033015203
0.10161153041563994
-0.7009055358604642
-0.25718562160967234
0.1599499950641507
0.13810203143285885
-0.4645723662888218
-0.3330059874785114
-0.3329395950052023
-0.3689707714306223
-0.2524546300558507
1.440414221767149
3.7482274097437207
0.7696380254438226
-2.8149370369086557
-1.3693079713358292
-1.5346557396439175
-3.140508523645889
-0.04155470706111102
3.517816290217559
1.8590501942622393
0.4244485048288483
0.008976801940357887
0.7139752762486526
0.8269082233474964
-1.400332560589053
-0.9213804361464685
-0.8703023637248081
-1.5969945916713166
-1.2035442179221911
1.404762199626094
0.9718188302235712
0.6913752462542554
0.8126627419316582
0.5002856288597871
0.37716896418992196
-0.04467288504523136
-0.4619759655837239
-0.8385578342541767
-0.8635593543936537
-0.8467915907981062
-0.0762760189883629
0.35614217670121595
0.6758933537099595
0.72356343039993
0.6644413037371215
0.3380407695937598
0.06107506385320078
-0.3205083895075258
-0.9504596471187995
-0.6812262847953588
-0.421855593565744
-0.13377922829040853
0.12272711880354864
0.705354712433934
0.6955297810900263
0.6222010491961995
0.2268625177492518
-0.12020417210883305
-0.35863347229883236
-0.6513219909420276
-0.6987320090284154
-0.2784541920870188
0.1753460356163546
0.35185930241207497
0.415072758843427
0.34587252009221225
0.09324815682680615
-0.053672860306910784
-0.07000473998176845
-0.18076956763596258
-0.23692891634996788
-0.09133831513356472
0.018250622580464938
0.07606391249420168
0.08606695984970998
0.06428899611272083
0.029977849428285065
-0.0012120600456488283
-0.02056419116206678
-0.02635226395740552
-0.021752283737250116
-0.012024711158537373
-0.0020976900326549674
0.004851031377885295
0.007742497319297509
0.007161540491662966
0.004562592755361147
0.0014961609344799605
-0.0009103702405986816
-0.0021491495001684123
-0.0022628368414564118
-0.0016291975358138958
-0.0007202727022906999
7.94211427187004e-05
0.0005606422813179604
0.0006902969467870978
0.0005570676111437392
0.0002990393166590524
4.250263601612321e-05
-0.00013309007253682544
-0.00020269481111229507
-0.00018350436325260863
-0.00011408255282751683
-3.450368429572183e-05
2.6682134893154985e-05
5.710650705538422e-05
5.84957034878987e-05
4.0974202146760544e-05
1.68628351908333e-05
-3.916079689868398e-06
-1.60022614436794e-05
-1.8574769642018572e-05
-1.398024672464311e-05
-5.949614451200106e-06
1.9026138160515554e-06
6.98213012626917e-06
8.042619912643584e-06
5.1423386767382985e-06
-5.533135935488836e-07
-7.015400479683879e-06
-1.1676242665617945e-05
-1.1955083320572965e-05
-6.068291583116699e-06
5.958516892838829e-06
2.140098913040118e-05
3.4599221244331814e-05
3.793235190641081e-05
2.4297892682845617e-05
-9.1995412253739e-06
-5.744042644281608e-05
-0.00010517073122448195
-0.00012861095288551263
-0.00010218625112449227
-1.0051304137328526e-05
0.00014047649711403882
0.00030908572417498675
0.00042318062945199486
0.0003949064915292558
0.00015557602678837354
-0.00029936500504115375
-0.0008708734273462032
-0.0013449856406557005
-0.0014315464645949603
-0.0008629454285646048
0.0004609894263293015
0.0023265949184763366
0.00412981474097932
0.004947846870339758
0.003809841566166961
0.00014890399454371207
-0.005682123391742982
-0.012048699410480375
-0.016095626227754605
-0.014450451050196324
-0.004604155042701721
0.013300481640875855
0.034884362865041714
0.0509928606826963
0.0489819559378731
0.016123192423578597
-0.055476836111458254
-0.16409404684006662
-0.09605190114825748
-0.02778336904582174
0.06740045225756643
0.20989887193559237
0.20570341950598486
0.04363393973571194
-0.10010539010876313
-0.25161812610284473
-0.2279445035673865
-0.03011823813302644
0.15604613125777422
0.15215129042439848
0.17662194776231346
0.036559779063276544
-0.07450002312556737
-0.17278555571951676
-0.0771860612050407
-0.002629393196448555
0.043358615408701805
0.060405262909823766
0.05271989385897831
0.02623086949983985
-0.013076488045654032
-0.059285267459093696
-0.10588213339791402
0.05449915429604303
0.029132679308109886
0.023231115313590657
0.037967379197551686
0.06965105376793963
-0.08933197715696792
-0.04810152489117423
-0.014429885481657781
0.007319285905258669
0.01674169063850633
0.016527439715651033
0.010845158127872285
0.0037388327490127443
-0.0019424822452315715
-0.004913223771962504
-0.005235978227219518
-0.0037867909640516744
-0.0016746605288386165
0.0001928865606642116
0.0013194609059278344
0.0016234108410162918
0.0013105887321453698
0.0007042556711473237
0.00010095609735823072
-0.0003122663388207633
-0.0004760842431105944
-0.00043061848678950407
-0.00026659552537116536
-7.8694916967404e-05
6.523954596975379e-05
0.0001354532211586269
0.00013576340424455039
9.051397705288564e-05
3.0130770096783612e-05
-1.9919730964412446e-05
-4.491317455999293e-05
-4.188461170707578e-05
-1.7541169088110636e-05
1.5239723819607281e-05
4.1286102589468534e-05
4.7067759942853575e-05
2.469638787194191e-05
-2.429717293467692e-05
-8.643050001854359e-05
-0.0001367150999630993
-0.00014388826829732278
-8.117690618833419e-05
5.896887941373773e-05
0.00025077244138893627
0.00042883876118201994
0.0004973563048967934
0.0003593987911055232
-3.6281231344316785e-05
-0.000643749141993447
-0.0012862607741583388
-0.0016674524021230118
-0.001447872520810331
-0.00038709218380504916
0.0014805766145922952
0.0037038905447042674
0.00539564876723774
0.00541784553931812
0.00279842142425228
-0.0026913092669701606
-0.00999025580447226
-0.016520953743982533
-0.018584011614355758
-0.012548581382391087
0.0032676092853475935
0.026520579177197086
0.04941372867373035
0.05890647163579641
0.03926294229330901
-0.02312811458022882
-0.13384867386817534
-0.08564733690298414
-0.057152342992243234
-0.01655963788776072
0.07017195238132595
0.22915338143242636
0.0701719532751405
-0.0165596370527951
-0.05715234369533302
-0.08564734040327869
-0.13384868035196662
-0.02312812251286261
0.039262936256110645
0.058906471888915485
0.04941373899095041
0.02652060044021062
0.0032676373767765348
-0.012548556411230488
-0.018584003975967326
-0.016520977345763677
-0.009990317196665736
-0.00269140014140199
0.0027983287544443144
0.005417795728597723
0.005395691266588905
0.0037040580072355426
0.0014808590510552984
-0.00038676723115377444
-0.0014476405242773059
-0.0016674816567701818
-0.00128668850731415
-0.0006445958511910447
-3.7372829396377946e-05
0.00035845812465208073
0.0004971177557148306
0.00042982742346920976
0.00025321339692719404
6.250213654627844e-05
-7.765859654171575e-05
-0.00014212747089875188
-0.00013859968387443301
-9.314760104593928e-05
-3.5341424309312986e-05
1.2256181491943857e-05
3.855209998132001e-05
4.316958064420847e-05
3.263009111461389e-05
1.5786446893064815e-05
2.0623214514584924e-07
-9.715816188700878e-06
-1.2962921019596326e-05
-1.0972909909189744e-05
-6.288784683772998e-06
-1.36041374864882e-06
2.1846757226233432e-06
3.746576228676781e-06
