0
-1.3960897908336574e-17
-3.004968056817103e-17
-4.16104394882113e-17
-4.031761385291619e-17
-1.9347713137796034e-17
2.2386092595598984e-17
7.636862722347531e-17
1.2310584267282656e-16
1.35359368243652e-16
8.707503781933125e-17
-3.30897868782742e-17
-2.0763732793734244e-16
-3.8211274788182427e-16
-4.70489476355301e-16
-3.792394803360855e-16
-4.9071524575302167e-17
4.9597691413158e-16
1.1120191921731142e-15
1.5366653231390288e-15
1.4495495955703122e-15
5.965618040585378e-16
-1.0464657995179675e-15
-3.128382464138107e-15
-4.877926024631851e-15
-5.239969453635298e-15
-3.2307429815456128e-15
1.5359280293963286e-15
8.31144635507365e-15
1.4922708685194213e-14
1.801622358084938e-14
1.402564012934998e-14
8.057612984607706e-16
-2.0485381589423074e-14
-4.4039931958068364e-14
-5.956352425463444e-14
-5.474442853325197e-14
-2.0150057514003632e-14
4.445333656950803e-14
1.2464617518274365e-13
1.899565433171321e-13
1.995600383067952e-13
1.163898846644581e-13
-7.241483115577406e-14
-3.351212325266651e-13
-5.851575822680691e-13
-6.919472590752635e-13
-5.197175292099823e-13
8.605127677054755e-15
8.393409215519759e-13
1.7386178698012245e-12
2.3030390956048547e-12
2.0600867554382526e-12
6.608676069780011e-13
-1.8761904077110477e-12
-4.961215191807868e-12
-7.391906457032856e-12
-7.590579204346335e-12
-4.163791105779491e-12
3.3040032264376487e-12
1.3478062104827244e-11
2.2915221250651853e-11
2.653695491370232e-11
1.918295266226447e-11
-1.893254703559157e-12
-3.4269716142566025e-11
-6.854973126928282e-11
-8.894435713333388e-11
-7.734323517132803e-11
-2.089228878101401e-11
7.862064138137577e-11
1.971482556902714e-10
2.873146689760135e-10
2.882224875190132e-10
1.4761586661964075e-10
-1.4735102121736815e-10
-5.40908529768435e-10
-8.963293029795067e-10
-1.0163196769369104e-09
-7.050950785781978e-10
1.3425779799991068e-10
1.394632376700411e-09
2.6992668349838088e-09
3.4309030247690168e-09
2.8963911653327275e-09
6.242369999603678e-10
-3.2743813908104023e-09
-7.822203115973317e-09
-1.1154795381029834e-08
-1.0924438329366367e-08
-5.176609953151502e-09
6.4585651480067715e-09
2.1664256332130354e-08
3.501925637929693e-08
3.886777613837948e-08
2.579533818826673e-08
-7.57716695655473e-09
-5.658594066267335e-08
-1.0615432910951427e-07
-1.3217893281884202e-07
-1.0816880407635953e-07
-1.6914868180243295e-08
1.3564163995575887e-07
3.0989996884378524e-07
4.325788053768276e-07
4.1328141733601004e-07
1.7911051264733283e-07
-2.7924941145662386e-07
-8.660363755019591e-07
-1.36661396234007e-06
-1.4842496994914143e-06
-9.386992069972139e-07
3.861139957410543e-07
2.2896057178581125e-06
4.169583019697907e-06
5.085909846516281e-06
4.027670779312353e-06
3.7028629211643427e-07
-5.5924415720338665e-06
-1.226006308187952e-05
-1.6755793040336435e-05
-1.5603418699833454e-05
-6.092514721799258e-06
1.1941323373651043e-05
3.455766976543219e-05
5.327061443001161e-05
5.6592439051998835e-05
3.395263609484617e-05
-1.856037451713714e-05
-9.240651287414248e-05
-0.00016357546184014694
-0.00019544009386838235
-0.00014948403198390686
-3.187093449930679e-06
0.0002295908570058127
0.0004843228374587692
0.0006482039728124626
0.0005877189943530441
0.00020241710554449405
-0.0005063932902292661
-0.001377218445555904
-0.0020749627886837443
-0.0021552333874017577
-0.0012197384531614072
0.0008610134671238904
0.0037285350808489645
0.006430954737049046
0.007549596559902987
0.005629978266322205
-0.00011868877603683614
-0.00904564792974562
-0.018544064114882162
-0.02421541014785265
-0.02104551280464804
-0.0056385517684413525
0.02090742194757207
0.05040931542460941
0.06655114623495828
0.046545007108428293
-0.034000870775434046
0.00635920958266546
-0.03691198821652465
-0.14804539339592857
-0.089265322930953
-0.005568622470385268
-0.03618287295223328
0.06931445069950377
0.13424542786912944
0.1425590416377115
0.23584119290338335
0.12250823430192842
-0.10134340706835478
-0.3242627145081939
-0.39347834852724606
-0.30025798197989934
0.016762059095897838
0.25021202337199644
0.4921234816181004
0.40413366034202175
0.2020968106493324
-0.13838946654065948
-0.4580859506037665
-0.382593780767094
-0.2975268866667126
-0.14198261860108727
-0.024297372414078856
0.5451900087310106
0.6170525858381968
0.376773249880896
-0.05840308079122525
-0.21724511030044302
-0.6354396728714515
-0.6156796472512158
-0.20342944331432383
0.21217950333050764
0.4743805708850718
0.6244577666186075
0.47449194786662247
0.0010002059469136607
-0.4368428232188111
-0.4627152307129761
-0.44898084786958303
-0.5002588113471058
-0.0653958286327497
0.42287857218534886
0.6931173957582352
0.5853851836867561
0.4269308280532521
0.04541796879650205
-0.38191677982765876
-0.8587051161295993
-0.7036696962280033
-0.31257059849083224
0.037761347074682636
0.3443123041914837
0.6076504395922424
0.7613395239711152
0.4256485881068968
0.10153059065514083
-0.393398340792887
-0.660032697728295
-0.6473177179739447
-0.40078233595816526
-0.04704221425931143
0.3822517540307319
0.49748916380343283
0.48877463098860685
0.2750197595554082
-0.12102541992958231
-0.16783804819746312
-0.19656673063008911
-0.3613663870045786
-0.20200278765191887
0.18149392637382078
0.138330194254365
0.06261630421467065
-0.01945572716500427
-0.06543185027556458
-0.03159970169481616
0.11512479283583577
0.19025328056009072
0.19148169317165437
-0.09401683009795675
-0.2763313488972175
-0.14814333140940716
-0.07478392217346022
-0.19390526147903844
0.17399646749833475
0.3072758282730071
0.06326248330599801
0.06368480881177727
0.09010791548161073
-0.1097515309215051
-0.20768379929177921
-0.07770855259211806
0.018835218076456158
0.042224350750671116
-0.02367473297541355
0.024767174697267618
0.003436202559901345
-0.06851228263804479
0.022904711347067105
0.2805803254562471
0.09484476343157265
-0.15234976298889133
-0.0782492583719958
-0.0881950734697373
-0.16701790803499425
-0.07664722938047963
0.2387150283313843
0.0414057921000843
-0.01321243481166236
0.11152733832841395
0.026563990581907625
-0.08422863037029653
-0.06035935425554369
0.042218817835933356
-0.040732445385399274
0.026084536271981654
-0.01583729162632298
-0.013621590170901848
0.0006372757340845235
0.012042373493581579
0.023790128871582442
0.05709567193603392
-0.04964442237330523
-0.04260276109719246
-0.055788492554561954
-0.01658653449835369
-0.05387050537408134
0.09198879075116471
0.0589959640279967
0.055773352726965805
0.05858022620815685
0.014544893782365625
0.05099104562541293
-0.11091512270818144
-0.1413085361044283
-0.08928660508251071
0.023722467138411443
0.0034588467570056108
0.07609911638812643
0.07802499641025719
0.04546283599462894
0.0067868320274579366
-0.02108813830221634
-0.032345472529197
-0.02920627634387626
-0.01787024607862241
-0.004922961700161576
0.004944549534815353
0.009733377677808143
0.009778174912394782
0.006783896868185348
0.0027868979444449996
-0.0006054003840848031
-0.002560841747695915
-0.002998976655363553
-0.002341058421710242
-0.0011949627297757018
-9.736537072388826e-05
0.0006273347927679836
0.000890160777397646
0.0007788257195731404
0.0004654885245677543
0.00012205952429341611
-0.00013331075338219046
-0.0002533272135022512
-0.00025027363432978474
-0.0001703000863232864
-6.65937265468361e-05
1.979110601462893e-05
6.827893172089183e-05
7.766807089084962e-05
5.939014080072424e-05
2.9305674752174614e-05
1.1318357107206354e-06
-1.7047769158588984e-05
-2.3234778564210462e-05
-1.9904344191614525e-05
-1.1590369232243946e-05
-2.715623631877908e-06
3.746572370922097e-06
6.6671780272673985e-06
6.4361631998936175e-06
4.283032154385577e-06
1.5851045133602957e-06
-6.162547824300615e-07
-1.8169763499592004e-06
-2.0101401640413717e-06
-1.5055497211821494e-06
-7.168071876570345e-07
5.779471466334559e-09
4.61185896188416e-07
6.055297487158547e-07
5.080421707145854e-07
2.879375645519171e-07
5.888260647949021e-08
-1.0441044124656281e-07
-1.751744634879395e-07
-1.653257649899429e-07
-1.075413448602255e-07
-3.744478182046429e-08
1.858426551138285e-08
4.8240971964346834e-08
5.1963162056479845e-08
3.811490429916857e-08
1.7467380568267898e-08
-1.0438809441291514e-09
-1.2431165655683255e-08
-1.5759989707523732e-08
-1.2951901323661362e-08
-7.136383550013291e-09
-1.231374469780992e-09
2.8889276373748403e-09
4.5951617122194e-09
4.241874235825954e-09
2.6956115738456815e-09
8.766711468053287e-10
-5.47611323273749e-10
-1.278050996945078e-09
-1.3416998004572152e-09
-9.63596840711608e-10
-4.238824937389131e-10
4.979302725968465e-11
3.3397918042285203e-10
4.096516071320442e-10
3.2979272317767184e-10
1.7642516386408428e-10
2.4369702407269617e-11
-7.944079669338815e-11
-1.2035408461124486e-10
-1.0871205136441158e-10
-6.744648648621238e-11
-2.030459042517579e-11
1.585546267054351e-11
3.379124675433371e-11
3.4602956306634304e-11
2.432641878521725e-11
1.0238321282259438e-11
-1.868531595890757e-12
-8.946546889056314e-12
-1.0635415410236402e-11
-8.387523330457523e-12
-4.349369466666359e-12
-4.374079386866059e-13
2.1749282763069e-12
3.150118463498895e-12
2.784742592723995e-12
1.6842012738559046e-12
4.607855260972323e-13
-4.593536527520441e-13
-9.002562076930476e-13
-8.988280100980386e-13
-6.152570435542029e-13
-2.384858456555558e-13
8.196581295076891e-14
2.665383193964542e-13
3.034448014504719e-13
2.2727889087672678e-13
9.288194746979069e-14
-4.538951506538252e-14
-1.451610745558287e-13
-1.798551395710704e-13
-1.3907868034668e-13
-2.943888474537214e-14
1.2309856892262807e-13
2.717188277184102e-13
3.5300670092369436e-13
3.016161340165703e-13
7.642892815159832e-14
-3.0722755474254896e-13
-7.520408683053829e-13
-1.0773135110424482e-12
-1.0574848793768609e-12
-5.055587900093007e-13
6.132460006108864e-13
2.0761072917563695e-12
3.3624625651594285e-12
3.737105483880737e-12
2.4873628997590046e-12
-7.129500919342989e-13
-5.418548185367153e-12
-1.0184247914788342e-11
-1.2696631386363597e-11
-1.0410012119544953e-11
-1.6660562665950272e-12
1.2973963642785648e-11
2.971743430840749e-11
4.1533853848572555e-11
3.9740166821329565e-11
1.7320697969515648e-11
-2.6647616182290645e-11
-8.30039855485468e-11
-1.3116538021915927e-10
-1.426403892592068e-10
-9.04800303747249e-11
3.654602908940432e-11
2.192913675860504e-10
4.000369073375251e-10
4.88547171862682e-10
3.8766646492444293e-10
3.718227866551584e-11
-5.35057900187959e-10
-1.175757595403586e-09
-1.6089041926305333e-09
-1.5005648013604862e-09
-5.898358255739283e-10
1.1401904604490267e-09
3.312470706904682e-09
5.113162999140602e-09
5.439171756572966e-09
3.273881812433146e-09
-1.7616389455598816e-09
-8.851763822694783e-09
-1.5694904257816363e-08
-1.8775276845465463e-08
-1.4390790003173313e-08
-3.6936403004334924e-10
2.1972561585633686e-08
4.6453949193209294e-08
6.225172892898001e-08
5.6540228040960676e-08
1.9649526488707135e-08
-4.833733119780605e-08
-1.3196433886641074e-07
-1.9909659059367498e-07
-2.0707600537662053e-07
-1.1763604024465804e-07
8.169086589970304e-08
3.564545192153259e-07
6.150321434689764e-07
7.205970373008102e-07
5.32311540223763e-07
-2.759365242099613e-08
-8.988865114704347e-07
-1.8329168788542074e-06
-2.4057921356009494e-06
-2.125563157164075e-06
-6.35163822634042e-07
2.0333299292534773e-06
5.248637599751696e-06
7.743583915597623e-06
7.870493164749646e-06
4.192339965967528e-06
-3.6867900963367626e-06
-1.4322293431111092e-05
-2.407268198446008e-05
-2.7619035769875896e-05
-1.9612630972391724e-05
2.7064100171972467e-06
3.6646354735608185e-05
7.222611488287286e-05
9.286314617569089e-05
7.971394682077262e-05
1.964815675508696e-05
-8.496447568662339e-05
-0.00020842522395409595
-0.000300830385177867
-0.00029861556949575466
-0.00014795262782018353
0.0001630710108132805
0.0005742513666537202
0.0009410769136983597
0.001057008759511609
0.0007192599742729832
-0.00016909422281714454
-0.001489906821508529
-0.0028433421303303086
-0.003581386546642219
-0.002983053861389489
-0.0005671168911803809
0.0035320494498450646
0.008274298770773255
0.01170223138500661
0.011376170882019067
0.0053006608843313135
-0.006828993040718477
-0.02249027920290048
-0.03593613447411812
-0.039173983053644626
-0.02466471603936514
0.01053616537116314
0.060299386182064596
0.10644563782583083
0.11934469161712011
0.06350086283024395
-0.09213992967597034
-0.16171808305174382
-0.13231932545477673
-0.16111984835837195
-0.1831733680136105
0.0701528430995291
0.2462617571518087
0.3478090650587393
0.32007923402413246
0.25685337445831363
-0.17321525794691428
-0.4853694918862588
-0.33507833713073465
-0.28700860465622124
-0.20863470611212448
0.1072109566041693
0.29572135285806034
0.1617260186368289
0.22534123537160675
0.48647692636824863
0.21833376725115783
-0.00704526950455814
-0.26640207335398636
-0.419147547067799
-0.6453727395719204
-0.20527264903956063
0.16916992410709278
0.24964269291039626
0.2634996659343645
0.2373512997303221
0.14704996691017724
-0.1158589319167391
-0.15751005247479707
-0.07656711217865719
0.15509563143971894
0.12158175302977292
0.19897639151379157
-0.004599245107760221
-0.20932579312544064
-0.43166473448225917
-0.3690120857579545
-0.20862180678273312
0.13710282626324719
0.37497450583031355
0.5685192929237384
0.2853143539660857
-0.03199372488627547
-0.0651257343636833
-0.19375813036030748
-0.4541117140359413
-0.2958483197172261
0.051816781332216344
0.1998858799862752
0.40748055544317374
0.3850872633592116
0.10054456136235812
-0.4096476170852396
-0.628423349665048
-0.3558766170926332
-0.12661417755191173
0.15007831990961576
0.5343026057905854
0.5993888138641231
0.39366370757740765
0.033590408527041093
-0.2686331154150766
-0.35175530410568623
-0.4436498844259403
-0.5102788247269214
-0.03015382776562509
0.20020048406407062
0.2348620661375186
0.33453429783717753
0.3264602972072625
0.18229666699686478
0.22157530069454606
-0.05988187763870967
-0.5453201428358566
-0.45091937623969075
-0.2948038414641415
-0.2941557688213543
0.005225877557373247
0.47327016374028646
0.5293524112141645
0.48531346604816056
0.31559465452621993
-0.13614384281984382
-0.31643739373863994
-0.5008429799627152
-0.5313769882942927
-0.17055663205426758
0.3174785558324464
0.35887458956776846
0.24410655385319063
0.09680577652601258
-0.15259310934316156
-0.18435499493759566
-0.09950190363197484
-0.026107907899964717
0.0755395644619649
0.20900566155942324
0.14134046692451643
0.008923008252224194
-0.06971064749571126
-0.17633623463281523
-0.17561809578909116
-0.10317899299215633
0.03722289945829791
0.06715175559331113
0.22079256131239833
0.13136840920510345
0.02177521280598908
-0.09775752601666712
-0.02545278425569539
-0.1603940954672227
-0.09573349920131913
-0.01603124043707473
0.10006085693123157
0.07304752318434635
0.11485273017312811
0.023513475057301687
-0.017470677622925455
-0.03492716053412854
-0.05862185979334925
-0.11341485717582891
-0.013617740785633945
0.038821494574942425
0.052247079082705226
0.04071143552379678
0.018905865090774836
-0.0016760757050670197
-0.014527068316604908
-0.01798486395616748
-0.013864370334424682
-0.005703105058000682
0.00274381096554532
0.008474887350114297
0.009711514882916146
0.006061295897939293
-0.001443345944066533
-0.010392926632109955
-0.017266914632998336
-0.0181360363916602
-0.00993945597832351
0.0077853294871354645
0.03121139814233259
0.05138095544457047
0.05508690579200441
0.02797973440123254
-0.04044066151996308
-0.15138896484184863
-0.09319849979104647
-0.0417811175857967
0.03396643335434689
0.16309796418891714
0.16314319235294578
0.034076034005443984
-0.04167691828331349
-0.09318873844489721
-0.15154528942469592
-0.04077645090670565
0.02754131176185697
0.054719059373715365
0.051318213849412916
0.031667445202243044
0.008836292961463514
-0.008470074934538451
-0.016734454181390537
-0.016667348887070166
-0.011359001994035218
-0.004409382319583608
0.0013937275042985654
0.004648887977317536
0.0052685522670805444
0.004022574211141707
0.0019820383821129457
7.372915232729407e-05
-0.0011564604539392985
-0.0015742170911499092
-0.0013477255409925489
-0.000784227253969164
-0.00018319072577302386
0.00025419646715270063
0.0004516618249796574
0.0004357540727595211
0.0002898031185037826
0.00010708327990172966
-4.1923251577098954e-05
-0.00012313321233493814
-0.0001361219601712842
-0.0001018941421855327
-4.84636382457633e-05
4.5615976341691445e-07
3.126741088621212e-05
4.101293832531208e-05
3.439045213994177e-05
1.9476341150709005e-05
3.966391536182586e-06
-7.084174840796165e-06
-1.1867270711734801e-05
-1.1193204782535543e-05
-7.276371952945457e-06
-2.529082596974071e-06
1.2633435850344237e-06
3.269016136825739e-06
3.518720796887073e-06
2.579492217765023e-06
1.1808547554765694e-06
-7.233789112938945e-08
-8.427247071203538e-07
-1.0673953953629766e-06
-8.76712300250554e-07
-4.826785784897075e-07
-8.284673452103689e-08
1.959760968183781e-07
3.1128780124378756e-07
2.871825586089874e-07
1.823794311849141e-07
5.919589469716158e-08
-3.7205888773970876e-08
-8.660129713866295e-08
-9.08512073647323e-08
-6.521057980032759e-08
-2.865244741000551e-08
3.4138609359309733e-09
2.263892974801557e-08
2.774398411521698e-08
2.2322872160627367e-08
1.1931886631927313e-08
1.6364421218687957e-09
-5.388169167399402e-09
-8.152745434163855e-09
-7.359767287795533e-09
-4.56305715403828e-09
-1.3705932113663913e-09
1.0767882938323817e-09
2.2895716129726997e-09
2.3430001685697923e-09
1.6461996118630832e-09
6.919800781326064e-10
-1.2756857678995442e-10
-6.063496863671922e-10
-7.202178578041898e-10
-5.676844734681969e-10
-2.9415226810737353e-10
-2.935369376381286e-11
1.4734786211375665e-10
2.132069902320459e-10
1.883952679393946e-10
1.1394950549555434e-10
3.131243722822248e-11
-3.073925426711812e-11
-6.041648814787422e-11
-6.035503260004037e-11
-4.149591800135588e-11
-1.6623545542999502e-11
4.297811891818669e-12
1.6195399000728358e-11
1.867332716786218e-11
1.4418390866350703e-11
7.2301070816871705e-12
4.272697347033894e-13
-4.010383502675854e-12
-5.567720205317948e-12
-4.816951848422904e-12
-2.8398645081354435e-12
-7.033435277917138e-13
8.678359378568493e-13
1.5913683894457887e-12
1.5529460289976673e-12
1.04438642956749e-12
3.9693450675447464e-13
-1.3650821987802018e-13
-4.314722390507563e-13
-4.835646300904321e-13
-3.657392681583528e-13
-1.7714129139215683e-13
-2.5719371986814023e-15
1.0868671546081977e-13
1.4519416827415195e-13
1.2302077737956735e-13
7.063233423537943e-14
1.5460746987451548e-14
-2.4270516324620638e-14
-4.184673634600119e-14
-3.992789037430392e-14
-2.6274349158187025e-14
-9.45169443448909e-15
4.13741562479719e-15
1.1455059702140234e-14
1.2536621587919629e-14
9.345335095464572e-15
4.4448750423352396e-15
-2.6574338046967797e-17
-2.867930013203535e-15
-3.83847721836897e-15
-3.3636054967554568e-15
-2.134054638357057e-15
-7.703351278847716e-16
3.553385651666342e-16
1.1296359097451813e-15
1.5921563927299761e-15
1.793018624606774e-15
1.692139434833622e-15
1.1520748653042137e-15
3.4817141408262484e-17
-1.6335838087909495e-15
-3.506735532783839e-15
-4.866396522726578e-15
-4.759444021647268e-15
-2.3526778053989134e-15
2.557927769981079e-15
9.056692196578343e-15
1.489520111635978e-14
1.6823498492626876e-14
1.1615128326391608e-14
-2.320828189759375e-15
-2.3198378079734337e-14
-4.4769400683120124e-14
-5.6810926909175235e-14
-4.785686991775834e-14
-1.0129456806299234e-14
5.448442115898799e-14
1.2975155978685082e-13
1.8476453319204795e-13
1.806560845470543e-13
8.513407455758915e-14
-1.0778719755375675e-13
-3.5956742520901434e-13
-5.802890374223431e-13
-6.431492102095973e-13
-4.255414274925455e-13
1.2808587733108395e-13
9.399315063636086e-13
1.759781152927869e-12
2.1882436743125847e-12
1.7869915868517836e-12
2.721771458677234e-13
-2.2560173504342985e-12
-5.139848260312078e-12
-7.164532904850245e-12
-6.833594184677527e-12
-2.942847973179716e-12
4.656496787276759e-12
1.4371928239138278e-11
2.2643744669881532e-11
2.4557523287459265e-11
1.547971642752577e-11
-6.495821953207876e-12
-3.80253838637087e-11
-6.911607032165157e-11
-8.41910799691172e-11
-6.65251744311045e-11
-5.820596216640462e-12
9.298729709224258e-11
2.0332049605969308e-10
2.774944073182371e-10
2.579667862706373e-10
9.997393156219688e-11
-1.9899187366100328e-10
-5.734198294479956e-10
-8.825854956755689e-10
-9.362460669303803e-10
-5.596535462391752e-10
3.113325478315588e-10
1.5344355371314254e-09
2.711267241056877e-09
3.235005974884214e-09
2.4684682161329408e-09
4.050145975877446e-11
-3.8166923250584894e-09
-8.031784475658293e-09
-1.07352350437245e-08
-9.717330036306649e-09
-3.3197217196504537e-09
8.427276926101384e-09
2.2839479984992725e-08
3.4361254885492664e-08
3.5636764089704436e-08
2.009016291448785e-08
-1.4380970741698741e-08
-6.177301084015087e-08
-1.0622997939485756e-07
-1.2413905479337318e-07
-9.126509388272638e-08
5.6670566443544214e-09
1.5606880173539838e-07
3.168547939500515e-07
4.148140659891728e-07
3.6520390377852136e-07
1.0681923744930158e-07
-3.5418239216501415e-07
-9.082160371117064e-07
-1.336242357190271e-06
-1.3541835327194116e-06
-7.151717148366899e-07
6.471921141066841e-07
2.4813657704970497e-06
4.15728757576449e-06
4.7571779583847205e-06
3.3608378553352208e-06
-5.022643842459002e-07
-6.360105054590097e-06
-1.2483638034694032e-05
-1.6009284542559598e-05
-1.3691637409654884e-05
-3.2812289596109002e-06
1.4788820848289371e-05
3.605920298629898e-05
5.190512811611567e-05
5.13690013099185e-05
2.520645724517652e-05
-2.8563543096898773e-05
-9.946681954457977e-05
-0.00016250699808815976
-0.00018205612986322254
-0.0001232438542901305
3.0414851777539364e-05
0.00025821915033783443
0.000490893657903819
0.0006165278623757402
0.0005109799026011017
9.197512844736064e-05
-0.0006159769977987083
-0.0014314978944633082
-0.0020142615718682483
-0.0019396097590733822
-0.0008572830129301146
0.001295588280154922
0.004101228519253168
0.006594713563417117
0.0074299340643137115
0.0053278492351323935
-0.00025964431937944825
-0.008495099547640808
-0.0168865846889143
-0.02185519096925697
-0.020515356469495497
-0.013779846166334436
-0.010462214537716579
-0.031507953821683754
0.08706486219352746
0.09437515433563591
0.12998677607109235
0.13560079025419833
0.07268033988731676
-0.2571644720588989
-0.3951528286985534
-0.21947714148714115
-0.15715224116537463
-0.015318904097217702
0.1731377703218279
0.5011696711584374
0.5513133765314033
0.3854420109765574
-0.03200927707693668
-0.3802974041621973
-0.51203465591746
-0.5871639333950895
-0.4319251272917568
-0.1358625298831071
0.5124930721186871
0.5635065124787199
0.438674976145325
0.27879850129036776
0.12256331750548813
-0.28158171430201484
-0.4387353662685841
-0.4618291499794209
-0.23385726952118363
0.009988458096224255
0.277316498296821
0.39686233557829975
0.3918998954969758
-0.13957085260259255
-0.23127919746632838
-0.14231942334425685
-0.14368396396925273
-0.10432111552646554
0.31939946455211105
0.2908322939880458
-0.000708754338844266
-0.13271444962224088
-0.242572660692759
-0.42578564466646657
-0.14490689197052878
0.1483447337809716
0.5812885788034451
0.22800078033022303
0.08765158613243797
-0.11888737259591645
-0.1334003018484014
-0.3312514194090681
0.11262809879032415
0.2551660478005925
0.009504896487142032
-0.23973997215323306
-0.23199153039840847
-0.23933871521366298
-0.08980721225910918
0.19677118876656433
0.36745590351634116
0.500627557749235
0.18763883789036412
-0.06129558607023093
-0.18798800011872552
-0.3433010472401247
-0.6447364711822338
-0.14876227584068524
0.15357344552795335
0.31826175461045536
0.41652374900108036
0.30345195341438685
-0.0006766477597128526
-0.11076849646852985
-0.2614231440155375
-0.28413798974780713
-0.18766503239972676
0.05046951836279864
0.07853427409793702
0.15417227263133923
0.1237482244299822
0.20511793655715757
-0.02029622364530115
-0.003634388946484256
-0.014242888430660102
-0.11922498234987763
-0.16292132544805313
-0.15233103003709303
-0.0529296379670073
0.0035182445388044336
0.10108344504843637
0.11679397164891941
0.2994916866347621
0.0567916463070382
-0.045940834193657826
-0.07456591014603894
-0.10698144440625679
-0.2120282785582809
-0.0328053719648809
0.02125835701474529
-0.027684774929321105
0.0637925408618035
0.14574754402850804
0.06047692558923741
0.03239043579973325
0.0645164859245558
-0.05821452703114891
-0.16087215413076558
-0.06892324173610412
-0.0005512176321594028
0.036897512141863764
0.04611364143567442
0.036123088859282164
0.01777322012038122
0.00012292498924482297
-0.011426786047386726
-0.015289954746726205
-0.012716083357664444
-0.006403904560799511
0.0007132934442005202
0.006231716386420691
0.008600581721792159
0.007187791459502164
0.002288943915518057
-0.004827978837335584
-0.011914274176597784
-0.015969787966458104
-0.013924520053161698
-0.0038428140250581404
0.013562300399541172
0.033644997105833234
0.04753151269965491
0.043506967354495635
0.010307822157501844
-0.05829906812906303
-0.15921964596821425
-0.07812692343338981
0.00838805806010436
0.12653079426850045
0.0968872625870348
0.12724466870064546
0.009752553837941878
-0.07631039844706883
-0.15737672435832614
-0.057108731608189855
0.010033724133086222
0.041124700480583316
0.04299445365793998
0.02790643412383168
0.008720486627193018
-0.004893359912118004
-0.008463230592587979
-0.0029411395871006708
0.006462579820031631
0.012342984864427567
0.007598206814989799
-0.012107656419209524
-0.04648220970430774
-0.08999517334157513
0.06698286114704283
0.035366596396983745
0.023744283404008592
0.03536721553487753
0.0669838855409039
-0.08999414009495361
-0.04648166948918788
-0.012108078531809905
0.007596580226388443
0.012340346891342802
0.006459694548397956
-0.0029429836278972183
-0.008462539172175907
-0.004889033517773245
0.008728396204467538
0.027916089571039786
0.043002103372126135
0.04112541375992076
0.010023132001576356
-0.05713196187816702
-0.15740847324708804
-0.07633996090918307
0.009741015565587553
0.12726730042191828
0.09695274143088348
0.12663171848513635
0.008495262611729703
-0.07806262582086826
-0.15925484611539634
-0.05847416877819142
0.00999791385336511
0.043136737914256824
0.04724841402463248
0.033639133765211694
0.013997503532513859
-0.0029249714137030407
-0.012696171984634462
-0.014855995759430488
-0.01153039157629677
-0.0057869444665912696
-0.0003201502000490018
0.00325532621956438
0.004511630459383515
0.003904283275727655
0.0023046589230114904
0.0005747322236674022
-0.0006987930869741172
-0.00128666159568977
-0.0012574579046265191
-0.0008469287623135606
-0.000323123675676042
0.00010903423667815491
0.0003484578409625024
0.0003912811451657724
0.0002963597438369236
0.00014388388148453327
2.5385493911637404e-06
-8.768820180922835e-05
-0.00011743489473720472
-9.963759595790556e-05
-5.730697880472516e-05
-1.2652939173886395e-05
1.9546946448162832e-05
3.382585260691309e-05
3.231292548104644e-05
2.127965571611382e-05
7.662945474715792e-06
-3.3423742369930806e-06
-9.263629118996433e-06
-1.0121602016667056e-05
-7.508302489563047e-06
-3.5134873858437064e-06
1.0978153420717186e-07
2.3681316335126185e-06
3.0586338192560756e-06
2.5417817243080406e-06
1.4221573377475077e-06
2.7026282310011343e-07
-5.42860326801257e-07
-8.88077270312722e-07
-8.295844065207813e-07
-5.338882446965232e-07
-1.8030991700403465e-07
9.963801243661426e-08
2.457022681135718e-07
2.615065902469234e-07
1.8996221078781217e-07
8.545827134418497e-08
-7.313481548775012e-09
-6.373323945349407e-08
-7.95585684958024e-08
-6.476348866431633e-08
-3.5207169410054324e-08
-5.527251294918251e-09
1.4975921401842392e-08
2.327920203028165e-08
2.1273964189785975e-08
1.3371410832469545e-08
4.201613735673787e-09
-2.910642335347272e-09
-6.5032305569529455e-09
-6.748528269204587e-09
-4.799375377193258e-09
-2.0695037650667593e-09
3.0311566376399153e-10
1.709844864941055e-09
2.0667640069272344e-09
1.6481311586240837e-09
8.693168196602706e-10
1.0545574230566947e-10
-4.107525693345175e-10
-6.092945252632678e-10
-5.449262374461564e-10
-3.3427610401824485e-10
-9.675382630290449e-11
8.370602930381063e-11
1.7178831701348898e-10
1.7395344266565965e-10
1.2108030581902805e-10
4.9869510237159415e-11
-1.0738901281871736e-11
-4.5739533241119107e-11
-5.362304494001076e-11
-4.189022380898279e-11
-2.140397911955228e-11
-1.7672344418158303e-12
1.1208763605035496e-11
1.592400357982071e-11
1.394201005140471e-11
8.340452930112837e-12
2.1953650877725655e-12
-2.3774414855357264e-12
-4.529487641221633e-12
-4.478762200717516e-12
-3.0500751982892967e-12
-1.1949993023378597e-12
3.514096744864599e-13
1.2203035783985469e-12
1.3895642567303718e-12
1.0633600801417754e-12
5.253748048058835e-13
2.114486596041975e-14
-3.0449507877572543e-13
-4.155914125472999e-13
-3.562950263933937e-13
-2.076746733990376e-13
-4.887917683315004e-14
6.683806458253843e-14
1.1921445213317743e-13
1.15180338257243e-13
7.671105082258339e-14
2.8448992720309044e-14
-1.0959997531409494e-14
-3.247858566414419e-14
-3.596718082024494e-14
-2.695966753692796e-14
-1.285415277477354e-14
7.860804139380736e-17
8.236559117413436e-15
1.0829446794199813e-14
9.09257483481531e-15
5.1576967173537495e-15
1.0590496303385533e-15
-1.8651583248954243e-15
-3.1344108771722467e-15
-2.9607238088362687e-15
-1.9281928997174294e-15
-6.742075000848504e-16
3.2887629528869815e-16
8.604179447756641e-16
9.278484187754676e-16
6.805912158636967e-16
3.1131997894837663e-16
-2.000613340578931e-17
-2.240070085025408e-16
-2.838316199344097e-16
-2.3377548521206e-16
-1.2980231214016974e-16
-2.4135209645319745e-17
4.9654025213941025e-17
8.026354170915129e-17
7.400675176578641e-17
4.637424537779856e-17
1.3833010278803255e-17
-1.166698548258212e-17
-2.4760170554100224e-17
-2.5920298030634224e-17
-1.916815987867475e-17
-9.51511224790804e-18
-1.0366117277541117e-18
4.054895776971307e-18
5.415660238481638e-18
3.991517979366104e-18
1.2493408791256365e-18
-1.4717276283377897e-18
-3.3309417377422045e-18
-4.0650770228529234e-18
-3.858409289694296e-18
-3.120903231132615e-18
-2.2774882650749173e-18
-1.63005880189509e-18
-1.3085218959973693e-18
-1.2934532155037145e-18
-1.47699766676071e-18
-1.7289785362843856e-18
-1.9456877566186256e-18
-2.0725038051279363e-18
-2.1028964963659366e-18
-2.0628011769686965e-18
-1.99060809629742e-18
-1.92061715042226e-18
-1.873844532698619e-18
-1.8563479403588257e-18
-1.8628313062221618e-18
-1.8824660439846452e-18
-1.904299555715526e-18
-1.9207160743323474e-18
-1.9285859644035597e-18
-1.9285940397247103e-18
-1.9236251217810775e-18
-1.9170565017637366e-18
-1.9115239505024815e-18
-1.9083721499354873e-18
-1.9077095540419026e-18
-1.908828588713036e-18
-1.9107259867655662e-18
-1.9125242286897544e-18
-1.913698993245896e-18
-1.9141129381017278e-18
-1.913916404314237e-18
-1.9133948812263306e-18
-1.9128303489264907e-18
-1.9124146385186045e-18
-1.9122227225434418e-18
-1.912232254255936e-18
-1.9123662775054484e-18
-1.9125372795315137e-18
-1.9126783566953257e-18
-1.912756507800233e-18
-1.9127704736500048e-18
-1.912739472092759e-18
-1.912689684984491e-18
-1.9126435364124074e-18
-1.912614080378515e-18
-1.9126043714995223e-18
-1.9126101848861907e-18
-1.9126240070510933e-18
-1.9126385865790935e-18
-1.912649099053508e-18
-1.912653760089206e-18
-1.9126532652634893e-18
-1.9126496624234535e-18
-1.9126452164790872e-18
-1.912641623428117e-18
-1.9126396904403037e-18
-1.9126394105934737e-18
-1.912640264016413e-18
-1.9126415683841805e-18
-1.9126427513472836e-18
-1.9126434886150478e-18
-1.9126437139752935e-18
-1.9126435451587536e-18
-1.9126431795725493e-18
-1.9126428034815955e-18
-1.912642538018577e-18
-1.9126424253322463e-18
-1.9126424444521088e-18
-1.9126425410088045e-18
-1.9126426564539623e-18
-1.9126427478518548e-18
-1.9126427955339282e-18
-1.9126428006868277e-18
-1.912642777323064e-18
-1.9126427432011153e-18
-1.912642712912135e-18
-1.9126426944932943e-18
-1.9126426893286135e-18
-1.9126426941608318e-18
-1.9126427038116683e-18
-1.9126427135020553e-18
-1.9126427201957596e-18
-1.9126427229060792e-18
-1.912642722250811e-18
-1.912642719670333e-18
-1.91264271667636e-18
-1.9126427143543482e-18
-1.912642713181575e-18
-1.9126427131016702e-18
-1.9126427137381816e-18
-1.912642714629517e-18
-1.9126427154041488e-18
-1.9126427158633875e-18
-1.9126427159798624e-18
-1.912642715843138e-18
-1.912642715588838e-18
-1.9126427153394414e-18
-1.9126427151709148e-18
-1.912642715106109e-18
-1.9126427151271396e-18
-1.912642715195924e-18
-1.9126427152734756e-18
-1.912642715332392e-18
-1.9126427153611454e-18
-1.9126427153618476e-18
-1.9126427153445817e-18
-1.9126427153213307e-18
-1.912642715301543e-18
-1.9126427152901168e-18
-1.912642715287544e-18
-1.912642715291376e-18
-1.912642715298065e-18
-1.9126427153044765e-18
-1.9126427153087128e-18
-1.9126427153102516e-18
-1.912642715309604e-18
-1.9126427153077752e-18
-1.9126427153057688e-18
-1.912642715304276e-18
-1.9126427153035732e-18
-1.91264271530359e-18
-1.9126427153040566e-18
-1.912642715304662e-18
-1.912642715305167e-18
-1.9126427153054506e-18
-1.912642715305506e-18
-1.9126427153053994e-18
-1.9126427153052238e-18
-1.9126427153050593e-18
-1.912642715304953e-18
-1.9126427153049168e-18
-1.912642715304936e-18
-1.9126427153049846e-18
-1.9126427153050366e-18
-1.9126427153050743e-18
-1.9126427153050913e-18
-1.91264271530509e-18
-1.9126427153050774e-18
-1.9126427153050616e-18
-1.912642715305049e-18
-1.9126427153050416e-18
-1.9126427153050408e-18
-1.9126427153050435e-18
-1.912642715305048e-18
-1.9126427153050524e-18
-1.912642715305055e-18
-1.912642715305056e-18
-1.9126427153050554e-18
-1.912642715305054e-18
-1.9126427153050527e-18
-1.9126427153050516e-18
-1.9126427153050512e-18
-1.9126427153050512e-18
-1.9126427153050516e-18
-1.912642715305052e-18
-1.9126427153050524e-18
-1.9126427153050527e-18
-1.9126427153050527e-18
-1.9126427153050527e-18
-1.9126427153050524e-18
-1.9126427153050524e-18
-1.9126427153050524e-18
-1.9126427153050524e-18
-1.9126427153050524e-18
-1.9126427153050524e-18
-1.9126427153050524e-18
-1.9126427153050524e-18
-1.9126427153050524e-18
-1.9126427153050524e-18
