0
2.51961557847064e-09
2.5196149321399737e-09
2.5196138636246773e-09
2.5196126544597763e-09
2.5196118189066736e-09
2.519611985597237e-09
2.5196136541165666e-09
2.519616873895489e-09
2.5196209585666397e-09
2.5196243971388995e-09
2.519625120004536e-09
2.5196211946417167e-09
2.519611857565862e-09
2.5195985691344017e-09
2.519585584642494e-09
2.519579479503475e-09
2.5195872554322414e-09
2.5196131373094822e-09
2.5196548793218156e-09
2.519701115948696e-09
2.5197316697401277e-09
2.5197223804196663e-09
2.5196546997589037e-09
2.5195280898935897e-09
2.519370742166652e-09
2.519242359236098e-09
2.5192230226465645e-09
2.5193855557026846e-09
2.5197554218922495e-09
2.5202706869035755e-09
2.5207618126063476e-09
2.520972751981627e-09
2.520636921380964e-09
2.519602462085068e-09
2.5179736689898584e-09
2.5162082716534653e-09
2.5150970011496318e-09
2.5155671875929966e-09
2.5183050410506046e-09
2.5232775209993327e-09
2.529331143970166e-09
2.534110101689471e-09
2.5345193803188614e-09
2.5278209826096443e-09
2.5131904870045743e-09
2.4932340364485963e-09
2.4746951889846755e-09
2.4675330517773727e-09
2.481880653561082e-09
2.5231521504205897e-09
2.5866356497408517e-09
2.6539378453812627e-09
2.6941074621498087e-09
2.6715995813305717e-09
2.561126539961931e-09
2.3660737873003017e-09
2.1334742359604957e-09
1.9561639145969167e-09
1.953616206774384e-09
2.2285243076192973e-09
2.8064523793314216e-09
3.578468978629419e-09
4.276765065552386e-09
4.514417762523149e-09
3.906935730528442e-09
2.263154941822078e-09
-2.0833899329708482e-10
-2.769978587086688e-09
-4.211663875698907e-09
-3.1728495332932277e-09
1.2742764170379585e-09
8.916377878651545e-09
1.7841748937757926e-08
2.4396651358841334e-08
2.3974814707761932e-08
1.2734612274962383e-08
-1.0063891419978912e-08
-3.989396903274728e-08
-6.61361508819972e-08
-7.377527922345309e-08
-4.8248861678263746e-08
1.7113522586054265e-08
1.1322211334613044e-07
2.105588734536136e-07
2.6186731755838197e-07
2.1514543564656362e-07
3.6518794302341414e-08
-2.6254370963072813e-07
-6.045632589525894e-07
-8.459199043762635e-07
-8.092407648674493e-07
-3.5122141157691496e-07
5.469766770068665e-07
1.6981982723840623e-06
2.681962790239134e-06
2.916255617401204e-06
1.8505963030241637e-06
-7.443711031182313e-07
-4.477456581269754e-06
-8.169525667664368e-06
-9.977251254264416e-06
-7.916021097804061e-06
-7.559848474302468e-07
1.0933766279859026e-05
2.4021497542516514e-05
3.286877094448409e-05
3.065420510448927e-05
1.2048562866571678e-05
-2.329281468056705e-05
-6.766695388738667e-05
-0.00010444833645021276
-0.0001111033832813158
-6.686629597457129e-05
3.600089329079052e-05
0.00018083275612147096
0.00032060830725656584
0.00038350335122413435
0.00029388850013859993
7.389897705874538e-06
-0.00044910276823327213
-0.000949323865507255
-0.001272168481479962
-0.0011555811840738123
-0.00040186177725316054
0.00098770709063294
0.0026983103617789542
0.0040753472482537
0.004250815306604182
0.0024488065965957975
-0.0015764138232215222
-0.007109017615384141
-0.012264776821793916
-0.014244839988029468
-0.010201138570151208
0.0013399350391522032
0.018838470165039575
0.036507721267120694
0.044228752701888134
0.029171584087041895
-0.020874804820159368
-0.11327684845162943
-0.04696446600319127
-0.011122085040423892
0.012935073044453047
0.04712411253413629
0.11082796985992721
0.016098812026355568
-0.0345507746974404
-0.04733800332734926
-0.03421088873644273
-0.009135626698109203
0.015064093004761893
0.02878150659104043
0.02677703383490219
0.008848286489292291
-0.01973306914324012
-0.048245357337690344
-0.061639056409186294
-0.043399722077254795
0.01978280965403332
0.1325128940812074
0.08634800155084271
0.058911713790074066
0.017866150250491927
-0.07073709684565475
-0.2322719758459059
-0.07528960897893477
0.011396512750668733
0.05493801859335045
0.08943693545525551
0.1452480510435637
0.04061564535804513
-0.021558713012104214
-0.05124038803124057
-0.06472787063815436
-0.07703951621115394
-0.09622527844731414
0.0784950531032734
0.05458734258050631
0.0415243280538838
0.04591310233637053
0.06851655430668786
-0.09584971346923214
-0.055927647829035934
-0.020546002028603877
0.004277173182067524
0.016607876412237713
0.018167715184362665
0.012846207152783833
0.004991252205632947
-0.001895807740616293
-0.005799273631986912
-0.006220201010724241
-0.0038304005439388634
2.5582689352648945e-06
0.0036585963590613645
0.005632656001056277
0.0048616121334657605
0.0010499164314180052
-0.005034792278017752
-0.01142578779712556
-0.015181005309374385
-0.013141069550072897
-0.003236967508128192
0.013915271619204726
0.03370754610723623
0.04729419589295519
0.04309990287361716
0.010293444460991953
-0.05640608557239664
-0.15217394617044888
-0.05990986618791948
0.04779806489699262
0.00226440303263302
0.029416677746465093
0.14056256971524594
0.12646320435182393
-0.042837667798532666
-0.011711884147934629
-0.027646304088997847
-0.12822318112188516
-0.13036561180042786
-0.025244558951217896
0.01945191244094968
0.05053056633548865
0.11641149524504085
0.05434641779005639
0.08150021580909936
-0.00776116346903578
-0.03807260028331808
-0.04442862697124324
-0.061672404865346
-0.11540353069072264
-0.016919865253365952
0.03662456983883376
0.05745708895296232
0.059982340435625156
0.053992304408711264
0.04074617175081864
0.013155572006291456
-0.040232323598010614
-0.12915540751137253
-0.05597900951519878
-0.012844151665273931
0.017153524536183268
0.055249577504650677
0.12072359693781036
0.025555360291600486
-0.028017296954140503
-0.046459020931646666
-0.04133910767398063
-0.024967504410943565
-0.0069752802473534775
0.00721342976789533
0.01599952670276406
0.0199946222174655
0.0201513907530709
0.016532271870940127
0.008248455577758898
-0.005404358357135821
-0.023098673306551257
-0.03978260158675856
-0.04612366351729606
-0.029812475972290975
0.02120518194875191
0.11440388694277775
0.04887402418665754
0.013795902043263223
-0.009801260134672564
-0.04434985837591656
-0.1097417621009999
-0.018172819892209077
0.028414369071670116
0.03767458961512621
0.023640551667045803
0.0023205887056782716
-0.01254445530394828
-0.01272909502195389
0.0025652486576519637
0.026260170008453574
0.044554553140538314
0.03982938196679795
-0.004822736031261756
-0.10019014371360319
-0.04612345056184194
-0.02908934647727523
-0.023407968022802615
0.003678675166797735
0.08429907741722452
0.041780509817892934
0.08448396773856517
0.0035907227025206716
-0.024442208857185288
-0.03154803289427479
-0.049849616126886646
-0.10411069149049772
-0.007018221107468573
0.04157814141138305
0.05176836264305857
0.03855863329657385
0.016738140580697704
-0.002755798770519249
-0.01429333195820923
-0.01705814837672866
-0.013380600032431567
-0.006784722155348209
-0.00042351711040940855
0.0037756970073536816
0.005263733784468787
0.0045376229286170616
0.0026089154042023845
0.0005108656888300647
-0.0010200343266728686
-0.0016593463118793426
-0.0014524155050594455
-0.0006898318990952658
0.00023241545513629473
0.0009298778105181218
0.001115283825910497
0.0006612612392991317
-0.0003528258198200592
-0.0016180535346894762
-0.002622807172537248
-0.0027608762443189503
-0.0015353610920000624
0.0011692543463836962
0.004831788309320579
0.008189675199735902
0.009427859201829213
0.006744836920041141
-0.0007586952864524052
-0.012116946793952298
-0.023896252284906185
-0.030469479449689835
-0.025565687187253584
-0.00511803902235104
0.029156229525319148
0.06664164240128727
0.08676068048386033
0.06137002905165354
-0.03889073338404636
-0.035314930090453486
-0.1314774122984663
-0.10664442615559203
-0.1153102058968731
0.10573092905355365
0.023855591479430574
0.09409892977008323
0.144444159418463
0.16743050726438813
-0.07913710491518952
-0.06231826752453748
-0.05785355881632166
-0.132497343012362
-0.12998985477345187
-0.06443620024869186
0.07759589319990566
0.12781240241630254
0.12367728545178354
0.09742990845644656
0.07036043853357556
-0.14646442719379554
-0.14674607465800354
-0.12252984737424874
-0.060770924299294315
0.054958140743485276
0.2383841324535617
0.09333691033914014
0.009425597050494568
-0.03688004912151523
-0.07597021622006674
-0.1362550974505401
-0.03634872479995674
0.018862076744729665
0.03721522274237695
0.03425566418153537
0.026386411897387663
0.024607796169397858
0.03072256283829558
0.03701079758399795
0.02944875507592422
-0.0063812834836958965
-0.07845560092791415
-0.18304714978134393
-0.10367230827613792
-0.015905637740348158
0.1024986603458057
0.25950816442143915
0.23998299065320247
0.005082506740356944
-0.0979866730558271
-0.11813973558773921
-0.28052031399147526
-0.17188876585393306
0.06303580034239493
0.11250091366797965
0.07855679164781078
0.053485598188260305
0.09813817032117331
0.027133593323385698
0.003656835058280642
-0.0556283460701871
0.13318491818198314
0.04143228400737553
-0.04868104294120755
-0.2212857581417704
-0.10930985768568532
-0.0866782827656682
-0.07299162832133427
0.04969688110800234
0.2117696516728092
0.12879726072678152
0.07897806801501125
0.09058999259358207
-0.058307540542186176
-0.02916916240526686
-0.10524931296691757
-0.1722395832381119
-0.102418329121657
0.05420276859078582
0.07096339248989415
0.13991284214652489
0.06520424940871393
0.058183272314299886
-0.06387387700403234
-0.07577696340916636
-0.14151470040257494
-0.01341928104117341
-0.035584438146828185
0.048160234806297594
0.0834888368261046
0.09520892843535349
0.08070604151932181
0.0096595715843577
0.03062390245531786
-0.11708150755072909
-0.08947356287514625
-0.12606574526557612
-0.0436171581212592
-0.037212118851492074
0.1121061205604406
0.22631155686779048
0.12045465211452516
-0.0022398006439120345
-0.14868104759285788
-0.1292975871789671
-0.1504592450041572
-0.009973759694055423
0.10237513866436486
0.20025455408770565
0.09539522322240379
-0.005160348162437891
-0.09758323297065052
-0.1767457415994236
-0.031855398412221445
-0.04550410955139719
0.002324800919413655
0.12622495033144035
0.12625051218945535
-0.018593742015658728
0.04872530357277619
0.06914332610286784
-0.020663105454942703
-0.07300859315629855
-0.11421747883842105
-0.13413385655331586
-0.08374709485185045
-0.08271031751409008
0.16425511348031951
0.14599182936912772
0.12447538320206315
0.12132158290790866
0.11523633491180887
-0.1489964048062162
-0.14304867992916595
-0.13487084240328745
-0.17232336818781935
-0.07556438465548786
0.16019727589342292
0.15381358158080294
0.12427165209613926
0.07953208817835028
0.012233415421024515
-0.09677760442422197
-0.06923244905014389
-0.11859262160526471
-0.041842826767392496
-0.0169266034658075
-0.0066990439609573285
0.03190887917717845
0.1364365724600508
0.12878848438218343
0.009737249890635423
-0.04022206063581109
-0.05417013311402957
-0.0687543180933935
-0.11434781721024072
-0.008427532707071812
0.04622974829811173
0.05879363802413954
0.044863344713770376
0.020575714679019523
-0.0017298138743173474
-0.015418670708941706
-0.019227104483912266
-0.01552641568601406
-0.008182991490662907
-0.0007930179838686788
0.004320430769713538
0.006336393111934299
0.005624652650376981
0.0032083133428641377
0.00026199063514305076
-0.0022153161657024758
-0.003540407108819947
-0.0033702990756062008
-0.0017017647984129054
0.0011009307483184937
0.004266160863390528
0.006642926087964218
0.006899464248537302
0.003952894185600952
-0.0024185802339187134
-0.010976520604905067
-0.01875955064337603
-0.021514022761757602
-0.015047715327514323
0.0025745906324408444
0.028513824756694433
0.05325624795046751
0.06044804793065827
0.029312794728834933
-0.060292545535244955
-0.021240043229937
-0.052931197716470015
-0.13788106879209078
-0.042904054935725564
0.0745974373280542
0.056548553042956126
0.13329248985577652
0.11550917449183783
-0.00817082592237231
-0.06702052910225105
-0.09915064513890619
-0.1409265073611993
-0.018578891311102616
0.055570076501741034
0.08204978260547265
0.07012442859763571
0.03319707158178527
-0.01428814455748803
-0.05793308333659061
-0.08340074625424346
-0.07701860500142295
-0.028296185380739605
0.06559291378102584
0.19499542685303603
0.13547969245420147
0.05076001355529701
-0.0983312004887028
-0.1409692263588005
-0.2842672153895106
-0.1073708101662219
0.03482336117627699
0.19873202576364607
0.2344656647695038
0.17036346442870265
0.005738451259796274
-0.08562716737423647
-0.14319911617911213
-0.20398274454931495
-0.08969621788424234
-0.001482715084523307
0.07652634265428541
0.16705826694732384
0.08756622054396901
0.041020192353791146
0.012893796662900867
-0.025008105497224688
-0.10570536312652416
-0.0565199190496187
-0.09048100611346473
-0.0023650749627804574
0.02962586799435036
0.0374433129937842
0.054364841579459006
0.1066475602661133
0.00813595283946577
-0.04088094618661923
-0.0508140941767626
-0.03749594189476645
-0.01659631293623548
0.0005195242903073276
0.008644976975486881
0.008357252632129705
0.004051331654350625
0.0012241798995752643
0.0037991894101714455
0.012129643777440649
0.022161574792541855
0.026065941582989426
0.01439588153682842
-0.02057303053189633
-0.08115448146331843
0.03857027946748714
-0.04651038503045491
-0.11464835452237804
0.05781516257249278
0.08960602877218171
-0.012330212082784356
0.14276141076729237
0.1296030035455129
-0.0875295840646861
-0.1448667770084861
-0.06788271447447959
-0.06272632611044594
-0.11367781065119427
0.012117086491756291
0.15393919002438491
0.14428881346120914
-0.00229312995770467
0.10555704297932493
0.03863966480288964
-0.043123264394223385
-0.17701354537484587
-0.18441265331945922
-0.06294600858232821
0.013103527654269224
0.0841706908052205
0.19184746888560855
0.16555231889352534
0.014321396827044364
-0.07370014493265654
-0.12481539375040235
-0.16990035374602708
-0.0355236580193313
0.06076239307294764
0.1103744601074604
0.11078902365634512
0.062737969243644
-0.03029346904593133
-0.1600822890359104
-0.1110570568855519
-0.05979203677975247
0.021543896398120137
0.15813380813959457
0.16447700077472494
0.038996767105278315
-0.03601138922428987
-0.08881381019496971
-0.14934900981465488
-0.04064267786070784
0.026328604873346324
0.05303255383313482
0.04985775496396232
0.030805357027063066
0.008621586308354107
-0.00820824180114221
-0.01625276278693412
-0.016196759536565082
-0.011042184551734075
-0.004288656304496311
0.001352732865907307
0.004518349818707733
0.005122062157949916
0.003911670772979295
0.0019282353672352873
7.28338717880407e-05
-0.0011235987713249579
-0.0015302421185435313
-0.0013104302603385153
-0.000762787243861994
-0.00017846793577394447
0.0002468691736135411
0.0004389948042504112
0.0004236582975587333
0.000281840961765969
0.00010422064879889766
-4.066426649656493e-05
-0.00011965563193123632
-0.0001323214144868065
-9.907167855510962e-05
-4.7139840778044867e-05
4.1573206612953014e-07
3.0369660636408456e-05
3.984400986434577e-05
3.340738981170175e-05
1.8916779723443502e-05
3.859459031932041e-06
-6.848708768362375e-06
-1.1456976520917046e-05
-1.0769677117552869e-05
-6.962314670134137e-06
-2.400430314075365e-06
1.174463823565215e-06
2.973903949698668e-06
3.0794646783297566e-06
2.1179838651721875e-06
8.745824278955903e-07
-2.396036351720678e-08
-2.8885295177712637e-07
-2.0221658589984195e-09
4.730512900697382e-07
6.622440048619663e-07
1.8821544492627104e-07
-1.0354787851972292e-06
-2.680411795266753e-06
-4.009492256830531e-06
-4.060152490415056e-06
-2.009438030294107e-06
2.3470214189184625e-06
8.158992454305283e-06
1.3355057943922321e-05
1.4974662558759782e-05
1.0120709204138953e-05
-2.5757713263989287e-06
-2.139998529239832e-05
-4.061652028616656e-05
-5.09689155600758e-05
-4.2201562015749414e-05
-7.5347785904632515e-06
5.0977785503666205e-05
0.00011833628118162707
0.00016647448598716867
0.00016050835646089432
7.197031354871644e-05
-0.0001034378888820449
-0.0003296993738115406
-0.0005248322058589627
-0.0005746100909975904
-0.0003701319178978281
0.00013543847559383164
0.0008678090690776577
0.0015979509728987053
0.0019653114358411145
0.001579429628192102
0.00019542547341572952
-0.002080233728255783
-0.004637621042015903
-0.0063713911309223005
-0.005939020615992713
-0.0022895985911719403
0.004635467466571053
0.013266000973645962
0.02016528825204132
0.020512696312206095
0.009447578132066935
-0.015936619955043488
-0.05459282283864393
-0.10047281231961694
0.056695625748240615
0.028583431980636145
0.02416359424289438
0.04589318675901275
0.08779534141065182
-0.06358196758186188
-0.025411274028814906
-0.013189216347663811
-0.035506474130682794
-0.09076798334506073
0.032963290415946124
-0.04521900794991465
0.09528145977260406
0.07025416165056499
0.08591662012115603
-0.06257430729222589
0.011136294908558463
-0.11043667547506668
-0.04301220064966825
0.003610183008796446
0.02702276811419466
0.031035334683133974
0.022890570916091653
0.010234449554514188
-0.0011009212560526833
-0.008051152273159615
-0.010124608991406232
-0.008509813446161309
-0.005011535272950341
-0.0012212637311721825
0.0018847223637019628
0.003935477955207167
0.004903052218128117
0.004800905738355809
0.0035259162742368975
0.0009353297147744349
-0.002870954579642912
-0.007207673969355462
-0.010619274447066401
-0.011068721708249718
-0.006616294995356003
0.0034892030533466727
0.017629845460574528
0.03108205453634632
0.03631561116038393
0.024715378822929082
-0.01039513538148432
-0.07026591236430861
-0.14824928922309002
-0.029952454598944057
0.10316001854369462
0.06746919333373419
0.07052469929322723
0.106809687915418
-0.04214755285455041
-0.20324977757223572
-0.004616332235536618
0.13183584916153412
-0.0038725307415699013
-0.006431195137272336
-0.05437590173204108
-0.11207730152282172
-0.1352468648833763
0.11991806391601592
0.08534895267147694
0.17065980959533952
0.15765073552266143
0.0027704781287914665
-0.15216007778230392
-0.16394284511588256
-0.07197074586613575
-0.08752702055970256
0.008278628225934406
0.057717649757494674
0.1133565023088961
0.022848294217069298
0.01592232410762638
0.0968325818533291
0.043890151956230125
0.016025904502256
-0.03525805292914917
-0.1516489717358325
-0.1555631832798437
-0.04339943207808568
0.013141479289748789
0.05798350167981196
0.13685190829946442
0.08328357694069395
0.10896308005348186
0.0012552906453550659
-0.07172215133086964
-0.15070113364204185
-0.0734172753644504
-0.06529080807267953
0.06488782592008226
0.1241339467217941
0.13118278243043885
-0.08831039327265601
-0.10565126872624818
-0.09213680814027692
-0.022382833927779885
0.1213329732673629
0.1445201236960959
0.037806789265269064
-0.021862989153955088
-0.06575294353863348
-0.125189947192411
-0.023576312140433098
0.028835119083417297
0.03615063759427521
0.01437019630326819
-0.013430391805431506
-0.022815289899369814
0.0065200351834653085
0.0863223626483814
0.01717298045068701
-0.011706394020229006
-0.020155231446800925
-0.03296423765421887
-0.07518925626990346
0.031879611172087846
0.07342272357748143
0.042572219614505045
-0.058776714368449556
-0.019487309690273166
-0.019331486546592908
-0.030478375010350226
-0.020857621495308735
0.0406754886558205
-0.021850392230769254
0.002583546918136243
0.10797545202778143
0.07070721382369542
0.05343822271719412
0.013523283192103178
-0.0856097859158776
-0.2633466478739564
-0.1151130995575199
-0.013233253797465771
0.08390529975097917
0.21721697923337965
0.21232061615633885
0.0708412774950487
-0.028807240605373898
-0.12153711357661069
-0.2408399309715254
-0.2054627461142893
-0.013108705294034947
0.15639231538554066
0.13024413808932686
0.12928321008439264
0.15793976108237734
0.0016723646776566213
-0.16738334530977095
-0.17926267260607853
-0.05435155601230479
0.004396647820299499
0.012681939032162904
-0.00011473053390305361
0.20045334634965906
0.04502794080488552
-0.04578137144594753
-0.0636060376197041
-0.011007365176626961
-0.09837970032109809
0.05915507462310457
0.0439550332098856
0.037319093836407594
0.02094182013799133
-0.021073954747746267
-0.09981458501193426
-0.01963871787814524
0.022247750981642583
0.03431170983564097
0.027815542982548687
0.013659755562487334
2.2407453804146117e-05
-0.008650720182645375
-0.01136243367653545
-0.009453017999970253
-0.005246903142022633
-0.0009293940520499993
0.0021007971389806874
0.0033843183902674116
0.0031952469516808454
0.0021724609615836597
0.0009646314491807578
-1.2448933980623188e-08
-0.0005834479677565509
-0.0008723411601394533
-0.0010376495875871247
-0.001189338168437336
-0.0012860191219867833
-0.00113613634042237
-0.0004963755671756986
0.000761489906983938
0.0024766794203927266
0.004101708297768734
0.004763635753106081
0.003532518644825501
-0.00012708411660606385
-0.005845195874747303
-0.011995834593023795
-0.01577207580795996
-0.013896722820690972
-0.003991742685893899
0.013672013745498183
0.0346565740440074
0.04989954014695665
0.047074967681095
0.01404087633874282
-0.05624281988260326
-0.1609594707503158
-0.08509907830215356
-0.0034182215675867783
0.11300402464720882
0.0874845362073052
0.12916259679697545
0.028581417179875133
-0.04070536531490889
-0.11500590394028534
-0.030394799167092618
-0.013052138101391685
-0.07290617258923657
-0.0020747492037220022
0.02190461386651711
0.029316961147138297
0.050098130078646975
0.1066603819043317
0.009735720268167991
-0.04179282923727474
-0.057533538855420265
-0.050421863915133334
-0.031957690342503786
-0.009571906858380524
0.013264468943824907
0.034774624818746255
0.05188831058862829
0.05823804849239403
0.04447888854229818
0.0013401467403791863
-0.07546001763461688
-0.18052333248578536
-0.0969536050833723
0.0006070742902446334
0.13811069146368665
0.1319841379525517
0.18105467333188274
0.0645802957986551
-0.05183955077392102
-0.20409659747710768
-0.21577418471867155
-0.08846154198220868
-0.00044619336176659113
0.08546424480729149
0.2081355341325491
0.19395880122547776
0.04806613487773549
-0.045742343533962504
-0.11675675210895939
-0.19465330125482455
-0.09782613942783754
-0.02749239927864717
0.030357987027118682
0.09642227499686432
0.18682629110009208
0.10399202605294852
0.03352362014632177
-0.05151700565673574
-0.18070149062807153
-0.17486878015727858
-0.03807565431633053
0.04391468622290396
0.09836432373507983
0.15617657243132965
0.04247516004376724
-0.029363211331148033
-0.05876267115795061
-0.054891766316167094
-0.031669954222781085
-0.0030651438897218854
0.019982239252712662
0.030807113210511418
0.027041367575215813
0.010236738051776304
-0.014380780309356123
-0.038057336378693365
-0.0490800525420281
-0.03440818995519154
0.01738762273716644
0.11242690571721128
0.04839956472421857
0.013587052823567508
-0.011077432378892658
-0.04730408423715028
-0.11370934118840395
-0.02116051844634688
0.029145291519924753
0.044424786610215816
0.03676521731165502
0.01893779986070423
0.0010930220643200071
-0.01085486098059233
-0.015164683611258483
-0.013091568374553046
-0.007336171847067588
-0.000722411014929062
0.004590825542950755
0.007360201225361819
0.007166026959086402
0.00422735391145637
-0.0007012363596780786
-0.006324025680761797
-0.010809814197076573
-0.012006488923250241
-0.008023756742835444
0.0018185473980359332
0.015922155145084584
0.029699393340202183
0.035792151756505464
0.02563386840758623
-0.007697931658729195
-0.06607918456527581
-0.14376962071689794
-0.027220176192837224
0.10190500143228788
0.061140131314403275
0.06118440545153543
0.10202116779770741
-0.027079037829215873
-0.1436707941622266
-0.06609220928374641
-0.007868657803250897
0.02531240328648601
0.035401845767177816
0.02939804972141203
0.015910141631666375
0.0022666180315108098
-0.007073576152205016
-0.01073457402214274
-0.009658249949119508
-0.005930642565353473
-0.001699596778638205
0.001521438635202549
0.003092830509498748
0.0031266858075918464
0.0021750271955431146
0.0008954556364962301
-0.0001931194135383572
-0.0008216235957434711
-0.0009631209265838813
-0.0007523662742481437
-0.00038444217812043374
-3.1788615727784176e-05
0.0002012458305375932
0.0002859334408118348
0.00025035290823854754
0.00014977154783523322
3.9426862849578095e-05
-4.26864790690763e-05
-8.133140732104503e-05
-8.042158332905846e-05
-5.4767597317905233e-05
-2.145657856785539e-05
6.3121141592059056e-06
2.1914970519745824e-05
2.495465659375757e-05
1.909728123161486e-05
9.436865047858709e-06
3.824784095360305e-07
-5.4650633740545785e-06
-7.460098639233324e-06
-6.395401176314378e-06
-3.726691837147378e-06
-8.752331860129355e-07
1.2027009750332547e-06
2.1432436578453308e-06
2.070829567182335e-06
1.3800589099870247e-06
5.134297320629006e-07
-1.9423518170228477e-07
-5.806495276478579e-07
-6.433024172571914e-07
-4.815619351075289e-07
-2.2827341970464526e-07
3.959912862085253e-09
1.5045516707971038e-07
1.9701995979278322e-07
1.658344377323631e-07
9.517653127137063e-08
2.1573934239433653e-08
-3.094284533067369e-08
-5.37431531575207e-08
-5.063057001769711e-08
-3.2089393977210026e-08
-9.561771156610767e-09
8.470753025314659e-09
1.8041953725956227e-08
1.9275728271860832e-08
1.4841976138562848e-08
8.187824515370447e-09
2.1800913636738312e-09
-1.567797570210692e-09
-2.726880040988056e-09
-1.8712794839147935e-09
3.949411848637568e-11
2.0965865250847048e-09
3.6857280479602864e-09
4.53443795494088e-09
4.628981132290174e-09
4.092067998356802e-09
3.0957457147379184e-09
1.8421459677737397e-09
5.970374533009729e-10
-2.7472460175540204e-10
-3.3366090447707964e-10
8.083578597183341e-10
3.267599548733163e-09
6.6442033552839504e-09
9.880767316182231e-09
1.1368880285383458e-08
9.403081920075951e-09
2.960914975896728e-09
-7.390227058559951e-09
-1.8838709447521292e-08
-2.6400971044283157e-08
-2.410984530918588e-08
-7.381866746345847e-09
2.3919643390619303e-08
6.283309155126511e-08
9.460600749839878e-08
9.944078962633191e-08
5.9321823646850845e-08
-3.20717261275806e-08
-1.5946209278334837e-07
-2.809645612412357e-07
-3.332846923440808e-07
-2.5048365574358315e-07
5.060870508220149e-09
4.076777645442705e-07
8.443158924367953e-07
1.1195394527919112e-06
1.0040235578949384e-06
3.278994380184301e-07
-9.010208842689659e-07
-2.3979629801412916e-06
-3.580774453425192e-06
-3.684212922963273e-06
-2.030800433194805e-06
1.584361774539989e-06
6.518315866030563e-06
1.1104986857291947e-05
1.2882406548104543e-05
9.344056272754122e-06
-8.517324098068396e-07
-1.6544463415536413e-05
-3.319105731035698e-05
-4.3141412973814175e-05
-3.7605118957022e-05
-1.0321686391321102e-05
3.7885664763269104e-05
9.540399250790683e-05
0.0001392908268571975
0.0001400043253271153
7.213110544063015e-05
-7.069384708552843e-05
-0.0002615945804072649
-0.00043440479232982046
-0.000493467979137235
-0.00034365377119194735
6.24743480333347e-05
0.0006736413294904633
0.0013079199775668192
0.0016667110370360348
0.001414447935538973
0.0003229357683656909
-0.0015532823274594819
-0.0037390475093342606
-0.005328299131238819
-0.005181561699674522
-0.002356877986771853
0.003297744387542993
0.010579208718796944
0.01666933750056575
0.0174583330989809
0.008591519610732524
-0.012905353055114166
-0.04692667320492263
-0.08928253894108218
0.06790975397328129
0.03427650173573642
0.01831594058613439
0.02476352038946067
0.053225652628001566
-0.10155203965141253
-0.04820580574802842
0.003024094519904604
0.04158312273260473
0.05729758015863357
0.04105453183480319
-0.01387538754480927
-0.1098488189484533
-0.04303105005910414
-0.002960293079164122
0.025800392835623773
0.060342140482339615
0.1158340803920374
0.0033166880368473363
-0.07027099407538605
-0.10033846778011628
-0.08285056566689013
-0.014327095806011408
0.10564068635552236
0.07037248889017898
0.06289565389364608
0.055941706372237325
0.016340122131214947
-0.08683312179080667
-0.07272471643474494
-0.1411572191244389
-0.070259641214949
-0.021023870975196802
0.0518216488224963
0.18572911622415267
0.1978345710136775
0.07887493801047075
-0.0036220274193233533
-0.09346629226366795
-0.22942170101933418
-0.23062892641387123
-0.08986219040530694
0.02218193207802368
0.14279732255667432
0.29890575865339314
0.29223478587258384
0.09499058747940246
-0.14101808083251732
-0.26459096328556886
-0.30246637265971976
-0.2433654115930165
-0.03597228449031443
0.1975130647916163
0.33702433112671804
0.23872227442581953
0.11731445790239609
-0.05718812774927948
-0.14796065293600308
-0.23026632550938145
-0.168819252580988
-0.001167464808165999
0.06852373727379174
0.06509454876267477
0.030554047750182486
0.009323721759082554
0.03477463180106687
0.12013494876858594
0.0555977427933077
0.012154365596352183
-0.04890308433700524
-0.1635843060988766
-0.15386842259632577
-0.02127805422494785
0.05251020629914033
0.09861917093507096
0.15056430519146746
0.03457213730606197
-0.03613526035261403
-0.06194847643588488
-0.05341473241631611
-0.02597814921700392
0.004910593419641751
0.027103736041173367
0.03337420364174078
0.021911051582568654
-0.003674100097866169
-0.034615478812324754
-0.057883698741500664
-0.0583536034023138
-0.02266574603122301
0.055637234492806005
0.17125730365435818
0.10494110372636606
0.026052700941713716
-0.09959293668979056
-0.09858933669805689
-0.179426612833329
-0.12691897643537545
0.09568446696717975
0.1370732614249432
0.043863120770325933
0.04692573504650577
0.1524027996289265
-0.060091716115347873
-0.031889290139962334
-0.014199817118807675
-0.05485757982207841
-0.18659055033720348
-0.01993269749756152
0.05754137093527729
0.07600835826112685
0.07451018411438319
0.0916153553296646
-0.041676887133985346
-0.10567645092323427
-0.09298274169314626
-0.008185077951190417
0.13267067971101418
0.10314049651457471
0.06932946162704229
-0.004142494254867683
-0.14562652890305475
-0.16784066149950308
-0.06268580664851113
-0.0022689041324818015
0.053396298204254795
0.14431848802013772
0.09828489503678574
0.12283957026890724
0.004365093089655175
-0.08549112894719584
-0.1786016922486461
-0.09876079972647248
-0.05417186089640494
-0.03667578034347068
0.17251418600135218
0.19349308892615047
0.03900423579897923
-0.08999110205132195
-0.0032718779805462265
-0.11623064021071193
-0.043533139316966285
0.005705659394030089
0.029754705013843218
0.03316767254890935
0.02391396728195193
0.01022698057369371
-0.0016983041229473475
-0.008682974503339325
-0.010339506852746377
-0.008114759424745543
-0.004141931679700139
-0.00031460978029331687
0.002217962817178946
0.0031356759746358895
0.0027419802336987316
0.0016393906932081603
0.00043113095291026816
-0.00046764458424164494
-0.0008904851643545481
-0.0008803506612187692
-0.0005993895804085908
-0.0002346543023280209
6.934116748953038e-05
0.0002400474567065051
0.0002730803395295604
0.00020858657277316963
0.00010242620616858445
3.046659184025406e-06
-6.085692748099774e-05
-8.204117895564017e-05
-6.91779837112172e-05
-3.846960756476243e-05
-6.0421037564064045e-06
1.687380659702843e-05
2.560218027460674e-05
2.126598463932841e-05
8.781568521929318e-06
-5.382877507092689e-06
-1.5114569714365054e-05
-1.6094988821022322e-05
-6.858671561019169e-06
1.0490670352535759e-05
3.010506717075116e-05
4.318508568148662e-05
4.0170261225852564e-05
1.4383821605307625e-05
-3.355486943882228e-05
-9.213395720948406e-05
-0.00013839117058721693
-0.00014249341438916357
-7.827391022563205e-05
6.192090753198817e-05
0.0002528349768138175
0.0004296953292324153
0.000497182710979905
0.00035862750474748175
-3.719019423983803e-05
-0.0006444617804860003
-0.001286626971826321
-0.0016674852035199565
-0.001447684141145002
-0.0003868225958584199
0.0014808135218098335
0.003704032899877852
0.005395686905711602
0.005417805843299761
0.0027983448575565574
-0.0026913852877361493
-0.009990307774604442
-0.016520974290740436
-0.018584005871325575
-0.012548560795614692
0.003267632844858901
0.02652059727121978
0.049413737667351056
0.05890647206680066
0.03926293717201565
-0.023128121617727013
-0.13384867992366015
-0.08564734044885731
-0.05715234384449476
-0.016559636769899893
0.07017195439717577
0.2291533833878753
0.07017195458261291
-0.01655963656302556
-0.05715234387567843
-0.0856473409513956
-0.13384868096187014
-0.02312812297167756
0.03926293603596544
0.058906471888432725
0.04941373912960717
0.026520600623669698
0.003267637531376593
-0.0125485563230989
-0.018584003957374598
-0.01652097737696857
-0.009990317249649019
-0.0026914001916437734
0.002798328721603832
0.00541779571700821
0.0053956912720596025
0.003704058021794986
0.0014808590668255318
-0.00038676721953499526
-0.0014476405189083504
-0.0016674816570299159
-0.0012866885110543909
-0.0006445958559672424
-3.737283333873166e-05
0.00035845812246665246
0.0004971177553225442
0.000429827424333833
0.0002532133983174952
6.250213783565904e-05
-7.765859571825888e-05
-0.00014212747062688369
-0.00013859968403635736
-9.314760143185391e-05
-3.5341424716621206e-05
1.2256181198104097e-05
3.855209985089854e-05
4.316958065785155e-05
3.263009121515104e-05
1.5786447017224307e-05
2.0623224552582768e-07
-9.715816134678337e-06
-1.2962921011759372e-05
-1.0972909933022969e-05
-6.28878472020999e-06
-1.3604137816896598e-06
2.1846757020452013e-06
3.7465762224066256e-06
