0
-2.4335881899056023e-13
-4.06697730165089e-13
-4.643309567880903e-13
-3.2650092479484326e-13
5.232011438966592e-14
6.25320806964998e-13
1.222823719317059e-12
1.5645902298199752e-12
1.3337541564405585e-12
3.11719491553722e-13
-1.4570723935291934e-12
-3.5343692294794936e-12
-5.075506609212334e-12
-5.009780004820508e-12
-2.436907039638924e-12
2.8303784320027865e-12
9.76018138951641e-12
1.5902343639673987e-11
1.777272311742819e-11
1.1970087150506031e-11
-3.0995740870125457e-12
-2.538852194068412e-11
-4.8102649006757476e-11
-6.029480119339055e-11
-4.9849180399355206e-11
-8.773916358395193e-12
6.046673656940225e-11
1.400977706337379e-10
1.969064409444582e-10
1.8964957837250454e-10
8.471787781267695e-11
-1.2286988429891526e-10
-3.9039538516987843e-10
-6.208068388611495e-10
-6.79011082600542e-10
-4.3636958798767796e-10
1.6215962676254647e-10
1.0281785749446499e-09
1.890156458046454e-09
2.3209490975074013e-09
1.8579806450692513e-09
2.1064386399537305e-10
-2.4966673456649844e-09
-5.544982035490651e-09
-7.629963421694924e-09
-7.1649456654153065e-09
-2.8989995650782625e-09
5.271714481436675e-09
1.5586966045702707e-08
2.4207964707914277e-08
2.590272622367377e-08
1.581583810208366e-08
-7.920129535140236e-09
-4.1530002302528533e-08
-7.418133479783566e-08
-8.922658090318432e-08
-6.903204725128605e-08
-3.0957125323516767e-09
1.0263773895424404e-07
2.1916038980541421e-07
2.953101115705804e-07
2.7012521571464684e-07
9.719953110854778e-08
-2.239993044079617e-07
-6.212409055772211e-07
-9.428948536816535e-07
-9.86570726846246e-07
-5.69397158753317e-07
3.7052630941996775e-07
1.6734082744825715e-06
2.9078367959499793e-06
3.4257301864597793e-06
2.555961796808164e-06
-7.827238754808608e-08
-4.2029237829445655e-06
-8.650372364790402e-06
-1.14161947546307e-05
-1.016127433279843e-05
-3.17029448840318e-06
9.44084935472851e-06
2.4719273854293746e-05
3.668366896795302e-05
3.751420741962347e-05
2.0339170136929145e-05
-1.6828230565729095e-05
-6.727536214986418e-05
-0.0001138488823854242
-0.00013134815447858765
-9.427379009558555e-05
1.077896562979072e-05
0.00017149359141757588
0.0003409718876625476
0.00044077267433850813
0.0003812584972261157
9.926922716243445e-05
-0.00039538600192048744
-0.000982409993175213
-0.0014261644932402056
-0.0014248224813475144
-0.000720623798118813
0.0007476826743387498
0.0027009319726761043
0.0044601758548443666
0.00505036860539126
0.003510867484967482
-0.0006200850969366511
-0.00678489797598541
-0.013087077191317244
-0.0164504632661857
-0.013465766162146177
-0.0019254934220083542
0.01727171984520826
0.03850266639884633
0.05093489687120121
0.039895550298230824
-0.009742023955103202
-0.10889229291168459
-0.05994589636626527
-0.05478520676718059
-0.07648039073098814
0.09547295310471486
0.2782978950062422
0.08057560875778727
-0.098842122374306
-0.06701381109261964
-0.2304268297144043
-0.18981054355091398
0.060493464457045114
0.32820550903139317
0.21688366935583764
0.12264046229501313
-0.16282508414534974
-0.2436259108415141
-0.3104303521389529
-0.13691262726618392
0.11409859681522151
0.27583899244812926
0.360308575306196
0.14678137364058516
-0.01756025276899461
-0.20390331381655807
-0.2800274616078029
-0.2892004965610229
-0.03819808755785926
0.10107203918876655
0.1776073583321377
0.24115417359488447
0.1239494429830848
0.030947633993867057
-0.058805237712149204
-0.18148738285244362
-0.1736215538521248
-0.05905364192091172
-0.04230970319227078
0.09031895310400617
0.1639915172603294
0.20706184518291448
0.04573872816192586
-0.09593518719466052
-0.19169058394614769
-0.2081038104304429
-0.10395263726157136
-0.036886832233935275
0.22332226684291157
0.2796894206136273
0.29808953008206746
0.008653644408726948
-0.07943187408284634
-0.253363412985774
-0.37078684678922286
-0.24239108108462643
-0.03034165081001145
0.13596283443210705
0.33216144188472535
0.40958239900969845
0.17560021815647575
-0.00861358157762313
-0.21212511340928045
-0.3064648040896521
-0.3369715945550821
-0.10420898481775129
0.03784106092633232
0.16669383476444832
0.16546856377805916
0.2957513437770301
0.17862723387160984
-0.010039010077025663
-0.12923148400776496
-0.2518542317589548
-0.241335164720214
-0.13419073904409842
0.0659951264937856
0.18269148038412705
0.2529326099281893
0.11300614749888457
-0.010695241289950372
-0.10310987732764974
-0.15584574810281132
-0.16085548077700185
-0.10721135934181092
0.01630793235885959
0.21352230838613864
0.27203174507556593
0.15880988754106645
0.024484220519922155
-0.183287189058308
-0.3016837799191701
-0.3373868558256036
-0.06140245065571389
0.18247987396191323
0.2580837351218665
0.21372495897982927
0.2648967748823972
-0.010379264899005725
-0.261969724183812
-0.14795977895370718
-0.11276168749952822
-0.17116983506875919
-0.10374206914367196
0.135434381738588
0.20182450744740837
0.1406884627507529
0.17165905842984003
0.08302253166917074
-0.1627189684713786
-0.21469342115805498
-0.11668257824427058
-0.09370881265831908
0.053490542007020886
0.1453655541428378
0.014386866280161397
0.09398481837352733
0.009439985158537187
-0.02703001964406571
-0.016615127987162335
0.02926028603931376
-0.10612984285046351
-0.039944557785736724
0.013613209115954412
0.0445827943044901
0.04678893804804383
0.016707201577307155
-0.0472650146362892
0.055366351862303674
-0.07194053201628574
-0.021838498954947518
0.017226470315251267
0.06035056349057034
-0.0754267756273621
0.026676887099649983
-0.019260160635548872
-0.004255763361082134
0.07362456357588743
0.008284843532226844
-0.013937945759593147
-0.012266746025204401
-0.008392761388148528
-0.023161193242568434
-0.07393546000807182
0.02677027564919653
0.07137268799013649
0.05665592748469955
-0.016437319005505536
0.0580265435940249
-0.10737433193280516
-0.09213760959951757
-0.06857344520659277
-0.00572499554312475
0.12375153809861363
0.1356843703518926
0.028424257471863914
-0.0186255212118572
-0.041148143150415754
-0.08190514088078048
0.018979252545317186
0.032919975875004844
-0.05084644026609212
-0.022579617769953753
-0.05339418534669846
-0.10069305756210994
0.08295773743723399
0.13919437629864517
0.0941674636413699
-0.047269032803660196
0.09837014602290373
-0.10122649336873275
-0.08491738309640881
-0.08818141133580665
0.06456046471830414
-0.03646196924584508
0.012860820102277603
0.026384470568472245
0.021831364361484067
0.014849330675751926
0.01443159837803793
0.020655475921639535
0.02513018482660582
0.013964301267712196
-0.027510850141726665
-0.10956458090644909
-0.03405795289336843
0.006997600574184425
0.029816723622027492
0.054898383624050494
0.1024300137931676
-0.0112143433658592
-0.07492871366372453
-0.08258003287135829
-0.032214832441688976
0.07397536169716723
0.02859753741353987
0.01768314691238614
0.020249510532321734
0.009711835832684442
-0.04269664599328699
0.036956524617711435
0.030670588377830776
-0.06678739473695808
-0.04508052635044878
-0.07863850289935302
-0.13104353938342894
0.03661607756481907
0.2551599621690537
0.13794048504059458
0.07673894911509904
0.04557659575460373
-0.18809846030195235
-0.2488236953445624
-0.14104189147702023
-0.044784303726851285
0.07876568389219296
0.27395631213068616
0.175026946743266
-0.005685059361458073
-0.0816294804047474
-0.08766879108703277
-0.07031307423480482
-0.07667470478634544
0.054529158260939646
0.09842966630722674
0.04614766852312555
-0.09535697193960369
-0.10504487377544978
0.048739011361178586
0.002790844706391215
-0.008063115828584941
0.04162601796172218
0.1620935103147476
-0.05418834665096315
-0.03085526927838583
-0.0021334791774594666
-0.0049942820562311075
-0.07107302097995252
-0.020298229200061618
-0.057612099075441466
0.026654899670892074
0.053198510942123224
0.048331007327454115
0.038605377043249664
0.047059884559518664
-0.10825294759917363
-0.013935116646790107
-0.06039764069730545
-0.04182405805684578
0.04250214917657294
0.1861177492979182
-0.02593239457418293
-0.016101009385135197
-0.010527298680114263
-0.03335456282678797
-0.10109576432464899
-0.019038168877330865
0.019025546437380823
0.02762142150933886
0.0240580828941226
0.0223570568899723
0.028527729667940496
0.03858517859957614
0.03997497909864627
0.016220291726047525
-0.046328389351434046
-0.15166915854088703
-0.08980890064561375
-0.037107157812265625
0.038005677531671035
0.1654809125524481
0.16373717758085907
0.03335362171370334
-0.04300681686135321
-0.09448835673349
-0.15242058586531637
-0.04111040832000757
0.027653954420596285
0.055079118143427135
0.05172252325216977
0.03197366685535274
0.008984956482051961
-0.008467464635481413
-0.016825072614689025
-0.016788700030861727
-0.011461958605799039
-0.004468595452763733
0.001380656804552127
0.004669089227394722
0.005303506754170695
0.004055963976281555
0.0020040263274289185
8.164633337942611e-05
-0.0011599151649989419
-0.001583789971085862
-0.0013581845561250827
-0.0007919855746165934
-0.00018682097085708757
0.00025431021821654124
0.00045410907707286134
0.0004389147057914168
0.00029242956905802827
0.00010855273768327778
-4.164408295761005e-05
-0.0001236942378471935
-0.00013703966625805915
-0.00010275136784471063
-4.901528801636919e-05
2.6988089068301717e-07
3.137040411180821e-05
4.126684759379508e-05
3.466067084670666e-05
1.9672609380048e-05
4.054657058890668e-06
-7.091776743637732e-06
-1.19331590063448e-05
-1.1275412678855164e-05
-7.343243900063299e-06
-2.5653645612630174e-06
1.2577581876165213e-06
3.284598968142234e-06
3.5428026877513427e-06
2.6013619876029427e-06
1.1943938540492961e-06
-6.839721969642121e-08
-8.461301775358889e-07
-1.0743124253983974e-06
-8.834687366947032e-07
-4.868737176119908e-07
-8.37329921184135e-08
1.9769568965834697e-07
3.1401161693515463e-07
2.8909343873401655e-07
1.8210091081633654e-07
5.631269444930108e-08
-4.185943459867095e-08
-9.099165671683811e-08
-9.223330688189075e-08
-6.107676229600957e-08
-1.8003294958525145e-08
1.884314012754472e-08
3.776834161036042e-08
3.478236516247626e-08
1.3051173869405932e-08
-1.851708190616149e-08
-4.7201500407785504e-08
-5.914131371283705e-08
-4.312614298969251e-08
4.608183905362382e-09
7.569211823241843e-08
1.4723726979574273e-07
1.8445059304880606e-07
1.5021899104015415e-07
2.134205478926562e-08
-1.9248501390300612e-07
-4.3460091895138506e-07
-6.02032445178657e-07
-5.691936927822059e-07
-2.3643712264694471e-07
4.0596107105181897e-07
1.2209137817499832e-06
1.9068870049267195e-06
2.0510129008236363e-06
1.26787463165628e-06
-5.946778932456155e-07
-3.24518775743768e-06
-5.8347556548504176e-06
-7.051829189726011e-06
-5.50000457171944e-06
-3.3693132526282493e-07
7.988985689072538e-06
1.721038051111781e-05
2.3302544789521226e-05
2.1446859231297204e-05
7.94468396321858e-06
-1.7309815004336554e-05
-4.8692133999646225e-05
-7.42932282330214e-05
-7.814077898471627e-05
-4.571223490552799e-05
2.8066624006395765e-05
0.00013083671378515767
0.00022877721153389296
0.0002708153164322788
0.00020378110197887483
-2.6084066077414573e-06
-0.00032754332782476654
-0.0006797229382900071
-0.0009014356701343283
-0.0008077286357011905
-0.00026171897116345524
0.0007301127314449502
0.0019380534361009573
0.002893100170810189
0.0029797820786555736
0.0016554794148799738
-0.0012382320278396992
-0.005172115876769318
-0.008788043850638624
-0.010084966634438306
-0.007033841180678139
0.0014242682045526429
0.014248825229350151
0.027485352429641834
0.03428815508065603
0.02615148732746369
-0.0047136948710762875
-0.06257212267714282
-0.14626511788405996
-0.049733286612481185
0.034225650702077844
0.10774209203804058
0.16177412335993457
0.17356656840901707
-0.08973901616609742
-0.06123313024786821
-0.16101778569309916
-0.18456557721485067
-0.09750685149460529
0.16052448550578105
0.06375733226858304
0.08368461787576405
0.07315526817561269
0.05559060476373477
0.021735769706680143
-0.06596866324450487
-0.06328611469476693
-0.03146732750466432
-0.025238280087405498
-0.08408215219629246
-0.028141762998743637
0.14132438361148292
0.038258279087393855
0.0869592974046195
-0.08208560271600947
-0.03506013346832316
-0.13712594772694112
0.04440878728517222
-0.06482916495182187
0.14752810101280017
0.07498664567135623
0.08965720468846052
-0.055322617546318474
-0.0181462977796485
-0.05709841759482354
-0.01858718557156098
-0.12750275302837225
0.017769697749679417
0.04461946813878658
0.00014645055993895367
-0.05866231083528398
0.12364639810679168
-0.009825749846125992
-0.03659438986732893
0.04099975469204132
0.19656342963385595
-0.014331863706655283
-0.043557960904056114
-0.13737418733664203
-0.12448784934471462
-0.2092285975922534
0.027517541617147066
0.21985477978854137
0.20444055402316036
0.20962356121660103
0.05105147224145414
-0.2647609142351781
-0.3319233225290474
-0.13784005440418035
-0.06287110026484234
0.11102776140339474
0.3860340896013429
0.33588297664510236
0.10276738981070103
-0.19212220637650526
-0.22646312680266723
-0.25081807036468645
-0.26882111116489443
-0.03143924430819715
0.15204214827159235
0.1897471699965993
0.17761541127411024
0.1737998860426706
-0.015628838177746327
-0.036478138552320245
0.027015219360891216
-0.12570835669451896
-0.1869432260880203
-0.019766593779437815
-0.04541191098037836
-0.0412112749036072
0.051423863955867975
0.1117959494449767
0.021599035943148607
0.04776192294252223
0.029873979307812767
-0.025870884055455567
0.054208363146367206
0.01834709769807444
0.001021370211226188
-0.06293067377652481
-0.024447361744997214
-0.10956972298904502
-0.11454018126321618
-0.008166835605521736
0.05883684016692802
0.13991486839155365
0.07812129905278493
0.09524510917297689
-0.012392481288892926
-0.07079198564529166
-0.11947386853436391
-0.00017856229783736805
0.05370279973913953
0.02478880660627365
-0.08444834367752738
-0.05185322997175804
-0.03977012490268418
-0.002889982655655476
0.10146640356040296
0.10292887281971339
0.01035437459273699
0.009119532672148762
0.0643184053872736
-0.07094919004821944
-0.04437574892434313
-0.09326230175905346
-0.03631308025618571
-0.07057624378135122
0.025789122886208406
0.08600273499845792
0.14497176784860372
0.030597877327096724
-0.04137458294101556
-0.06812577142445372
-0.05716773247589585
-0.022422869698670033
0.019242206213921444
0.05031253796113193
0.054134338775514414
0.016524355502503956
-0.07192016874232929
-0.01299925184364222
0.0015256799365520651
-0.009083890197670431
-0.015710068753823588
0.01713514840349614
-0.07425099908538829
-0.059838336180060146
0.07650905022965028
0.1304436554388133
0.07377367882046246
0.056448379975428974
0.014779799566382491
-0.11530569462195028
-0.1832457075001392
-0.011354259502821757
0.011359764947749613
-0.07277770299086968
0.0003167052993750718
0.10175820121394848
0.09340166433876593
0.013903583909776881
0.07050153388681478
0.038457837542713556
0.06827515747596564
-0.10100365329340025
-0.12562396627978123
-0.042260826152673105
-0.058601207507998514
-0.15219901997305765
-0.07826542547130838
0.21545113626841275
0.17096890526105904
0.20544959517702518
0.1052269425776638
0.031317325927246946
-0.26510540063709837
-0.22296711724314003
-0.25516474211916756
-0.14295819865453344
0.1562676734356192
0.29064697002071865
0.2924316849223347
0.16273956917451607
0.06921296445543029
-0.24212434926604304
-0.2255640594861608
-0.313689883714892
-0.10362552733980798
0.042943318575636415
0.18615414901899247
0.18635465744863733
0.28301957992389676
0.08218349933389957
-0.043198668628845756
-0.14066899735852517
-0.25885143480021194
-0.22904053352990106
-0.054905749784745266
0.08615168386503774
0.23138517144332388
0.21636818738158092
0.06096403050704866
-0.037088829314542694
-0.09949318839356033
-0.1580130726170945
-0.042951456385054036
0.026146388147289357
0.0450804394463446
0.02465860202101595
-0.013294729864864083
-0.04196987587452457
-0.036362673191995244
0.020170727090741792
0.13073945450808255
0.08263452106739254
0.04938802433085468
-0.0023854740677721185
-0.10276467817325921
-0.268170390912467
-0.09496569938259361
0.03990863516423319
0.17095476192912223
0.13181681384126082
0.14370490263255342
0.009147560761163983
-0.08689359815444506
-0.1697839264823522
-0.06546106512834446
0.007770431430722263
0.043266737187080025
0.04553580876038479
0.026605536174150717
0.0012602947437179554
-0.017294290946516463
-0.020586120751412938
-0.006724212506130643
0.01898544675104027
0.044720977965221106
0.054380183207382575
0.0315398729147064
-0.03524869567008833
-0.14712557069854637
-0.09162633788895169
-0.04347485461326098
0.029718352164445988
0.15812958205011027
0.15997171181356556
0.03516276416013842
-0.0349179107579892
-0.08142863194510813
-0.13822731228676322
-0.0319293607758843
0.024823051537082714
0.03525863857923923
0.01585369549117818
-0.009257142916905258
-0.014998107936422056
0.018354304734891167
0.10051877574087037
0.029178314792775512
-0.00885166642872152
-0.03351015682018782
-0.06575911100532814
-0.12230276564095098
-0.012733744382471776
0.05995538859450917
0.09617428225403099
0.09594506156225088
0.05698573584653405
-0.02386250287408828
-0.14629650869272834
-0.1015728258303461
-0.06993264916158776
-0.022655339660780226
0.07113043922437566
0.23512971949436295
0.07781718299556434
-0.010818620501593297
-0.05615469359180256
-0.0906837245606309
-0.14403200034088517
-0.03512158577282238
0.030860037750427005
0.060215960478860936
0.06490334747648709
0.055970716196420044
0.03900418690221357
0.013169582021627099
-0.02613544825538105
-0.08245999065458814
-0.15366747538819095
-0.02987813553375737
0.10468899604148081
0.06651783189457114
0.06653620267575763
0.10569261377561402
-0.025613484528591222
-0.1440571456183512
-0.06752961762190152
-0.00952288827522139
0.02403674256426824
0.03476343053690815
0.02936186165934628
0.01626625243257621
0.0027598839687484624
-0.0066473529353612195
-0.01048368578127175
-0.009596540120444783
-0.006007878039748334
-0.001840665604547303
0.001383967926039467
0.003000502571011632
0.003091710923709474
0.002187247142468527
0.0009337263502707619
-0.0001502999074204522
-0.0007892788705460335
-0.0009474906846517908
-0.0007521866216668804
-0.0003940955168071604
-4.465429850497805e-05
0.00019035863383484757
0.00027969222746526305
0.0002489967717431898
0.00015192848101444958
4.3133279250683926e-05
-3.9156185016049406e-05
-7.901417385477212e-05
-7.959525844976615e-05
-5.51430830248237e-05
-2.2476196095904976e-05
5.202086751188871e-06
2.1093086982138546e-05
2.4570592142509942e-05
1.9109217898394535e-05
9.69485917561626e-06
7.149268888667337e-07
-5.189958325960044e-06
-7.307850162701313e-06
-6.369151944540179e-06
-3.7891389694059707e-06
-9.751129367518695e-07
1.1095013006464314e-06
2.0825558431393973e-06
2.048860758448358e-06
1.3886591496558844e-06
5.379012688225284e-07
-1.6815337921572673e-07
-5.62494560222852e-07
-6.366417816318808e-07
-4.85060573449647e-07
-2.3789413099234398e-07
-7.2809769680009036e-09
1.409891817451308e-07
1.9094927424929846e-07
1.6311380946183128e-07
9.466754448662555e-08
2.174923369421248e-08
-3.140514317690822e-08
-5.559173667744682e-08
-5.3914257337073686e-08
-3.623137788921285e-08
-1.3583368047689586e-08
5.62055205430887e-09
1.7095652939254574e-08
2.0264872328787573e-08
1.6836715915505753e-08
9.307696203716616e-09
1.252626760781825e-11
-9.099793144215344e-09
-1.6190337548223744e-08
-1.9217614655010115e-08
-1.6055426728338813e-08
-5.285249699225307e-09
1.2478802825754259e-08
3.3298123208149494e-08
4.950933343597895e-08
5.1057600683522076e-08
2.8952579794998164e-08
-1.9651958264734645e-08
-8.637770438004411e-08
-1.4910814402535673e-07
-1.748159360941449e-07
-1.294577343376986e-07
5.840658214524308e-09
2.1665034729205816e-07
4.429819137427579e-07
5.823717777818238e-07
5.157056286169185e-07
1.5625094728054817e-07
-4.887981529425371e-07
-1.2673374719073804e-06
-1.8731915869987356e-06
-1.9075679645852002e-06
-1.0218287939467362e-06
8.815815257944847e-07
3.455320315634172e-06
5.8200874457109e-06
6.689193596778879e-06
4.766202011789201e-06
-6.218212405345175e-07
-8.830771853656654e-06
-1.7452482894798074e-05
-2.2477596296343122e-05
-1.934206672605748e-05
-4.854448878934234e-06
2.0434600927022276e-05
5.033166856210811e-05
7.277758257688885e-05
7.238573358094166e-05
3.609353573530657e-05
-3.905115403073743e-05
-0.00013856676461624956
-0.00022755577781548178
-0.0002560529505112466
-0.00017490362521030135
3.954086566293652e-05
0.00035896311652250016
0.0006868703178875747
0.0008665734355305115
0.000723462170856356
0.00014064863567073594
-0.0008499282387356866
-0.0019968547841922937
-0.0028257252510553357
-0.002743419138004301
-0.0012612848305019596
0.001703861327612769
0.005554289799564105
0.008912342750090512
0.009849443622354907
0.006521045442617237
-0.0018697623545345058
-0.014065334561120751
-0.026178718499393475
-0.032096571178849745
-0.02525421931931646
-0.00175652654732567
0.03581447818218452
0.07521230357630362
0.09361554827963073
0.06036989122057415
-0.05631995650056042
-0.08011409943173403
-0.21761725457866554
-0.05333448835233623
0.04900324685069693
0.1386594628349407
0.06620254936353226
0.07185730403411839
-0.022626381637140622
-0.016932443754204853
-0.13032878932760172
0.0033633573730312886
0.14222573996210408
0.04308975436629303
-0.13155611781695672
-0.006985601626973087
0.009008340222823824
-0.07129706919582843
-0.016481821037904975
0.019592934812115947
0.09077460708979201
0.05058975838821591
-0.055101420426260934
0.006366955519279781
-0.14905683733880049
0.07591180265705728
0.059282992722484766
0.1610281386234083
-0.07282968375024323
0.09722822406984527
-0.1859523554611887
-0.1665010746526947
-0.06908656459463133
0.10209338632629816
0.15903332195553188
0.12289938966569065
0.017743036454461795
-0.1327644867295471
-0.10572629176410347
-0.07867976226257772
-0.030941197020401105
0.05241206781803509
0.17518977635992758
0.12632653979800715
0.0808730449834889
0.0073197506241555535
-0.12000939629219981
-0.3076452764985599
-0.13444671043949852
-0.152749870933415
0.09922582526741756
0.2768572987961379
0.4077258870703531
0.07798079776383537
0.03264715372715335
-0.20944081387626615
-0.3314556787745266
-0.19421829097448431
-0.020467836374639652
0.007320565288373276
0.13614741740279834
0.22394108955656633
0.12058632534619532
0.05512154781967841
0.032731902644642215
-0.15875387676461522
-0.13656201962039538
-0.11032634781182123
-0.07418238986594408
-0.006468710885588318
0.12322373586227267
0.14273398681384325
0.0663325009834166
0.08830988468487692
-0.016530115648836694
-0.08588636144109886
-0.15933222796392976
-0.06815803745742943
-0.029433790484436614
-0.04619047651954141
0.08693786758759212
0.17553168986323428
0.21877240483893823
0.008085927208821555
-0.06749510052300833
-0.21117825523870457
-0.2083573789033673
-0.22239231310413698
4.2375008852518145e-05
0.3145268009719072
0.36054046738162887
0.1470524762848527
0.048822861309943906
-0.18459305345507204
-0.41118008716754906
-0.2782889125286029
-0.012124295814597308
0.181106476500829
0.3046465157169569
0.35846785799748077
0.13255657983625388
-0.18917988828570126
-0.4160219328988302
-0.33583081844832813
-0.10776733237024755
0.13192601876844573
0.2519684733716357
0.30309825568129617
0.30009097684684566
0.016786718746250626
-0.20331896847855432
-0.22497948031026746
-0.29651764717041823
-0.23251709040538868
-0.01073545633332955
0.21574134020110297
0.29628515963445967
0.2596980035366075
0.099805956210746
-0.024620570817621885
-0.17579501533161979
-0.21430358861598803
-0.17646777099644362
-0.05974683164086284
-0.0210223146125412
0.01188906339809146
0.11925865940046773
0.16540600423934543
0.17875941382656127
0.14203318137632864
-0.004340961345328931
-0.14638651592709842
-0.1731525301308203
-0.15291857626543792
-0.11623567545531646
-0.0505353035712967
0.09284394729072572
0.18226208465806648
0.08572551530424233
0.05348516350865145
0.10808245070602801
0.0438249362865512
-0.1653692539198012
-0.15332141776547598
-0.14906144783021621
0.03106018807059999
-0.015656430581339677
0.11666660634730755
0.23481582962680222
0.1405793891850195
-0.17017450043623478
-0.10299744877817524
-0.057590807337240514
-0.22204046392432164
0.027873751478910015
0.1231969106981447
0.09200311649993816
0.14925090961541143
0.09054540671214414
-0.107596005323711
-0.08114000640566799
-0.06829432255030629
-0.09948454481255532
0.009169612740949238
0.057383282779357725
0.05776533719727564
0.030325434367514687
-0.003338499016534049
-0.02457982313170975
-0.02037568682400243
0.015726728588125714
0.08402420315296484
-0.019861355445645153
-0.10277432605645886
0.028244104899252154
-0.03265291884002542
-0.09032718468833115
0.049540084105642666
0.1779766139092641
0.08123181819366651
-0.0580928703639682
-0.05682284125411781
-0.12526523114021484
-0.06219582547325926
-0.053251405074425155
0.1263566420694289
0.1059545766610969
0.11296072233420115
-0.03146244784612504
-0.11346810223247702
-0.12519210667421146
-0.0632751280968867
0.07079159548094735
0.06823202562025037
0.110172293710837
0.16713152375585358
0.0028515594141662027
-0.21755011264061078
-0.11766220797993872
-0.10230729367237446
-0.1563297898775063
0.14902498147993612
0.24423390278395285
0.1489637408428717
0.06437978279085281
-0.026194638880911725
-0.1484739824619881
-0.12400640533550054
-0.15804723042807012
-0.03336149573488143
0.08769854900058362
0.053736641540310444
0.11100336292491206
0.09081472971575626
0.0015891227088556997
0.027511220620818514
-0.06641610405479084
-0.12502800890963264
0.007608851424043694
0.09723060954396354
-0.07496421317268603
-0.11069441246138148
0.003021328249016027
0.08800708053291434
-0.0331166830549982
0.05497013808688507
0.15461474046399692
0.05395774702246112
-0.06902767001962387
-0.03812287394476036
-0.06876443107942187
-0.15995874493422169
-0.09159973333986243
-0.028985704982295534
0.06615080564817791
0.2214950968023398
0.24219538358520012
0.10644624506549903
-0.028417229820230882
-0.21051749788451996
-0.2741629331364199
-0.2243574132386501
-0.03166117786115961
0.16011601019552937
0.2162047812607534
0.18999484094119767
0.1067625833951926
-0.04257099434664018
-0.09649625075213804
-0.10976778762422792
-0.1374366818560716
-0.02152025803538093
0.016041678370246976
-0.026842267580886075
0.06153287193442822
0.09777806488290468
0.0951392699405081
0.058780329219645495
-0.013879184543353027
-0.1283048970217265
-0.08592037447196031
-0.07849764379655344
-0.08669521278503922
0.11627025801734966
0.1571627817056298
0.05458931171148041
0.01361499015943502
0.0252274718319506
-0.12947493636608048
-0.072417899300121
-0.0218550668637881
0.011810149685027296
0.0267306584759953
0.027398604454236305
0.02096655141160895
0.013691332259411436
0.008656230815517543
0.005289851757251731
0.0005944311242074802
-0.008470060599352907
-0.0223013442165028
-0.03665114517426764
-0.04219388285766119
-0.02619059845772568
0.023898254423801477
0.11584607882939935
0.04882005345245993
0.01200105739953289
-0.01342866471515325
-0.049420275852201656
-0.11506138191987074
-0.02167821915220879
0.02923942099064482
0.04482666707746621
0.037254564826532804
0.0194466471661812
0.0016707191787165095
-0.010149022804388083
-0.014385301787572639
-0.01248329166442787
-0.007308782063848296
-0.0017020232890434773
0.0024092853738744203
0.00427808845663944
0.004136378591715227
0.0027616699478029455
0.0010327819521752915
-0.0003824126314068337
-0.0011584119405366206
-0.0012882146783075661
-0.0009687291578112401
-0.00046458321367847207
-7.807350324786569e-07
0.0002928900942425968
0.00038735363401685784
0.00032632514191958365
0.00018594719080833333
3.9138569994864754e-05
-6.595858359636433e-05
-0.00011189048926581486
-0.00010606316583384372
-6.930275689925449e-05
-2.443258933443117e-05
1.1577269561436157e-05
3.075206140679591e-05
3.329545052577981e-05
2.4522401173806787e-05
1.1324654211042378e-05
-5.573825679296434e-07
-7.901800316891295e-06
-1.0084915880102731e-05
-8.32152503745819e-06
-4.6108966846705185e-06
-8.252437099020626e-07
1.8274176407313002e-06
2.9360241669087983e-06
2.7219556918361213e-06
1.7377314253331284e-06
5.73105809664173e-07
-3.4250692854544246e-07
-8.150482828005269e-07
-8.598908040430097e-07
-6.201286458316509e-07
-2.7504998777977977e-07
2.9062227875089576e-08
2.124234844892728e-07
2.622042348016755e-07
2.1194051629965693e-07
1.1404828357298618e-07
1.654492315299272e-08
-5.030836201346407e-08
-7.692160571334042e-08
-6.977472979944551e-08
-4.349509372392159e-08
-1.330407511381716e-08
9.947501650317598e-09
2.15577930144002e-08
2.2181808198518683e-08
1.5659796493509728e-08
6.649945022072905e-09
-1.124558982815214e-09
-5.693123196711961e-09
-6.808570747070312e-09
-5.391272591790998e-09
-2.81335748646512e-09
-3.0493432425723765e-10
1.3773286289773493e-09
2.0122757143740857e-09
1.7865528169890354e-09
1.08663675782969e-09
3.049318684578806e-10
-2.8476857645706314e-10
-5.69096806211774e-10
-5.715434359764957e-10
-3.9486972121475857e-10
-1.5995096094925387e-10
3.8568071624000207e-11
1.5215231522678946e-10
1.765765750960256e-10
1.3696975080710723e-10
6.919838794499315e-11
4.739058706079198e-12
-3.752456469764944e-11
-5.256523431390381e-11
-4.569082276309867e-11
-2.7093505079484852e-11
-6.87776524043678e-12
8.05823268487937e-12
1.4996110124078478e-11
1.47098603170941e-11
9.941884906414147e-12
3.824923505965161e-12
-1.238169957831614e-12
-4.055639343008906e-12
-4.57365684826403e-12
-3.475190950586798e-12
-1.696442822079253e-12
-4.1912515210650786e-14
1.0180958451510645e-12
1.3713896159735873e-12
1.1673516924943261e-12
6.742925848899321e-13
1.5210689687253327e-13
-2.256775672446353e-13
-3.942909979538265e-13
-3.7797585739782963e-13
-2.4973671050052727e-13
-9.066712134821021e-14
3.830815238957684e-14
1.08023823888438e-13
1.185045316929832e-13
8.8236829567125e-14
4.162426490420594e-14
-7.953484974561449e-16
-2.7334407671777066e-14
-3.554967239802136e-14
-2.960903364638374e-14
-1.656384744558243e-14
-3.0911583780824e-15
6.45090219077374e-15
1.053044513637965e-14
9.881536318858907e-15
6.443098867492274e-15
2.311810438840258e-15
-9.696311707658255e-16
-2.6901050119380304e-15
-2.8864066131302156e-15
-2.0570934931823337e-15
-8.374350165086217e-16
2.4888966390270424e-16
9.121052922258245e-16
1.1007959562422333e-15
9.303977325239207e-16
5.859245272481641e-16
2.3872281022732003e-16
-1.9390409015737096e-18
-1.0014451702813113e-16
-7.758936024688478e-17
1.434246369874342e-17
1.2150492199314647e-16
2.0488842112275156e-16
2.4722496052794743e-16
2.5038788945686966e-16
2.2777787392162686e-16
1.9591069289762054e-16
1.681231394175434e-16
1.5158178846988278e-16
1.4731435888543933e-16
1.5214380826358634e-16
1.612232610546269e-16
1.70160652220974e-16
1.7622125025002698e-16
1.7857174148726275e-16
1.7784176145048503e-16
1.753902740275393e-16
1.7261395805238642e-16
1.704978361853766e-16
1.6945930520877896e-16
1.694264480891991e-16
1.7004016551515434e-16
1.708716230800072e-16
1.715815837213062e-16
1.7199328481183087e-16
1.7208788667261634e-16
1.7195234829006023e-16
1.7171345555295225e-16
1.7148365932054926e-16
1.713312750929232e-16
1.7127538971070716e-16
1.712979893709944e-16
1.7136320241508305e-16
1.7143504351911462e-16
1.7148867657551778e-16
1.7151406454661214e-16
1.7151366414324465e-16
1.7149707129087472e-16
1.714754069200671e-16
1.7145728910307614e-16
1.7144706492310908e-16
1.7144502351212406e-16
1.7144879622022671e-16
1.7145507132095252e-16
1.7146097304701018e-16
1.7146479821656632e-16
1.7146611668338649e-16
1.7146543793074982e-16
1.714637071121716e-16
1.7146185032378928e-16
1.714604928231348e-16
1.7145987454432762e-16
1.7145991679487266e-16
1.714603638131712e-16
1.714609275520867e-16
1.7146138935657302e-16
1.7146164266084056e-16
1.7146168505223637e-16
1.71461580772164e-16
1.714614162045352e-16
1.7146126480699118e-16
1.7146116895226467e-16
1.7146113813156827e-16
1.7146115807110038e-16
1.7146120391094642e-16
1.714612518448992e-16
1.7146128615685238e-16
1.7146130115030077e-16
1.7146129924484428e-16
1.7146128724096477e-16
1.7146127259053534e-16
1.714612608339066e-16
1.7146125457431278e-16
1.7146125374480634e-16
1.7146125660978797e-16
1.714612609190416e-16
1.7146126479840756e-16
1.7146126719608224e-16
1.7146126790857756e-16
1.7146126733262045e-16
1.7146126612100753e-16
1.7146126488500215e-16
1.7146126401898054e-16
1.714612636571095e-16
1.714612637270747e-16
1.7146126404846247e-16
1.7146126442871822e-16
1.7146126472764863e-16
1.7146126488190725e-16
1.714612648965247e-16
1.7146126481822764e-16
1.7146126470555498e-16
1.7146126460626574e-16
1.7146126454640562e-16
1.7146126453015972e-16
1.7146126454657614e-16
1.714612645785402e-16
1.7146126461037465e-16
1.714612646322003e-16
1.7146126464088722e-16
1.7146126463855192e-16
1.7146126462997067e-16
1.7146126462011318e-16
1.71461264612522e-16
1.7146126460873194e-16
1.7146126460852883e-16
1.714612646106587e-16
1.714612646136006e-16
1.714612646161389e-16
1.7146126461763032e-16
1.7146126461799423e-16
1.7146126461753114e-16
1.7146126461668918e-16
1.7146126461587002e-16
1.714612646153208e-16
1.714612646151138e-16
1.7146126461518813e-16
