0
-2.9305228577149204e-15
-1.22519310449939e-15
2.0354881267056342e-15
6.147371115324193e-15
9.578107872462999e-15
1.0241609583141417e-14
6.204701359948061e-15
-3.2714174889353398e-15
-1.6673827032482038e-14
-2.967651315674122e-14
-3.563950015412729e-14
-2.7538058343936714e-14
-1.2012974548500723e-15
4.097588477668484e-14
8.740206557194467e-14
1.1766381613612492e-13
1.0746525061827345e-13
3.834798892426586e-14
-8.98239434230662e-14
-2.481622124278992e-13
-3.7614427185654226e-13
-3.9307851442057356e-13
-2.2616383782319754e-13
1.4905273393113192e-13
6.685624213331159e-13
1.1600934532105042e-12
1.3651705809738984e-12
1.0164612842754515e-12
-3.561886113246196e-14
-1.6808435721421867e-12
-3.452695218804404e-12
-4.551470786706038e-12
-4.0449991665554934e-12
-1.251143703345605e-12
3.780900515806483e-12
9.870363298348347e-12
1.463000343839669e-11
1.494231209804779e-11
8.072008766192221e-12
-6.764104824530231e-12
-2.6878121089058352e-11
-4.54209396624415e-11
-5.2342345278069164e-11
-3.7485913143275234e-11
4.467364662701327e-12
6.856998716995312e-11
1.3608716439215928e-10
1.7572709792966792e-10
1.5177368020636188e-10
3.912004568331536e-11
-1.582003692378008e-10
-3.920876437105543e-10
-5.68502348297715e-10
-5.671451977654756e-10
-2.8550072621313065e-10
3.0031891820450703e-10
1.078163694486492e-09
1.776154670592259e-09
2.0039593828489787e-09
1.376400781184572e-09
-2.9372804559833314e-10
-2.78849684210886e-09
-5.357084072087683e-09
-6.776489020700057e-09
-5.680181701812958e-09
-1.1482452334360178e-09
6.5800440461099756e-09
1.5551304702251772e-08
2.206579292214984e-08
2.1487061736875252e-08
9.983196165145179e-09
-1.311777301694834e-08
-4.316257997290848e-08
-6.937500765827459e-08
-7.661265592494274e-08
-5.029512794881688e-08
1.6084276807896216e-08
1.1306571684337143e-07
2.1061731732430588e-07
2.6099478683537355e-07
2.1198985031355555e-07
3.0068416667385526e-08
-2.722641266826907e-07
-6.159030593817171e-07
-8.554722781813574e-07
-8.125023607777622e-07
-3.4417520518267946e-07
5.655994402581908e-07
1.7246976305062177e-06
2.7066094772175634e-06
2.924586230221448e-06
1.8277932939271752e-06
-8.06382622047769e-07
-4.572115735455874e-06
-8.270374090006553e-06
-1.003942313567306e-05
-7.887669636596823e-06
-5.997813261888709e-07
1.1213809466896186e-05
2.435800860886555e-05
3.3127445016887506e-05
3.066114210654353e-05
1.1652986404657964e-05
-2.4130830223933063e-05
-6.879246604579793e-05
-0.00010547478570666738
-0.00011146865902239069
-6.60078596849863e-05
3.8369027024703416e-05
0.00018441856072322498
0.0003243501641698856
0.0003856465400982262
0.0002924476596534095
9.93577132294311e-07
-0.0004601799000206991
-0.0009623409229899084
-0.001281837652685085
-0.0011551953464169061
-0.0003857760785684608
0.0010206767717959044
0.002741714715865299
0.00411385119822391
0.004262597848493587
0.002412549966773516
-0.0016707262621135951
-0.007248605481440377
-0.012407129084994814
-0.014321408761791008
-0.010136008544763047
0.0015969096512330528
0.01927199398179457
0.03700660893838854
0.044585061410394415
0.029126924415524023
-0.021531218270335738
-0.11457669369440349
-0.04864073944889866
-0.012567288618986351
0.012567285515950663
0.04864073991815781
0.11457669967218619
0.021531228839463054
-0.02912691340177675
-0.04458505649981038
-0.03700661689948445
-0.019272018555044484
-0.0015969481132668529
0.010135967546608868
0.014321384405255369
0.01240714333007852
0.007248673824584691
0.001670846381368689
-0.002412407340891759
-0.004262490079985482
-0.004113851734078253
-0.0027418862052142356
-0.0010210339282331845
0.0003853015330298626
0.0011547691820946889
0.00128169800836451
0.0009627229430884774
0.00046119811236874827
5.282921750649999e-07
-0.00029087981267368124
-0.0003847787040035014
-0.00032501634015844044
-0.00018718083583139128
-4.3082740778444484e-05
6.053304034258914e-05
0.00010748906080103754
0.00010581950446151498
7.580158942368894e-05
3.821836541434063e-05
6.678903237165131e-06
-1.4655616878022486e-05
-2.868636123518796e-05
-4.038231789898011e-05
-5.168510472284208e-05
-5.856319596346993e-05
-5.16595635190568e-05
-2.0769252927671e-05
3.8063462877818626e-05
0.00011545774760939685
0.00018520250722009625
0.00020786395648481263
0.00014338809892552995
-2.8696477533317086e-05
-0.00028726965464255
-0.0005556747648224207
-0.0007073251903384822
-0.0005993110304463694
-0.00013354689293822966
0.0006688148315383847
0.0016087762414368934
0.002304834225106492
0.002275968182436584
0.0011223345382032376
-0.0012286797815042499
-0.0042947279432649504
-0.006953251831282113
-0.007626810620401155
-0.004812381994141288
0.0020908345657380894
0.011860043182155085
0.020781385223840314
0.02262810942463962
0.009546912110911751
-0.026207020477649022
-0.09016386957511036
0.016088736702863385
0.09564939469714918
-0.044001356150252614
0.008089209693530486
0.06531093871947906
-0.0575743879951469
-0.14588714978047077
0.012555937193856946
0.023820706687544574
0.08376778178517412
0.17540259061421778
0.06996753937989886
-0.06691128025938697
-0.06488515923176422
-0.1375715533103602
-0.27477372704444547
-0.04212741195000512
0.2104594729050688
0.13382930940185128
0.16335236358344593
0.10747620678857964
-0.05497196026518519
-0.16837481050068
-0.08783667231967554
-0.06532493927929475
0.06138869595225178
0.07487870223027235
-0.02063233106586717
-0.001621204165698166
-0.030105537537891115
-0.06037973891895289
-0.047343425835547785
0.04418507360351222
0.03057731359175473
0.1032163591972498
0.22771840689053838
0.15060987268934217
-0.1864660441193275
-0.22804307848772257
-0.18764746265413465
-0.23913904019798018
-0.12141452066200965
0.24343531510158214
0.3239151466212095
0.35423872725914535
0.12057861805392307
-0.03556243360501464
-0.19752364600587421
-0.2443856052992402
-0.4234170579328241
-0.13434148579137756
0.06875528871271891
0.2588266204356398
0.3080151793336171
0.2614385438552292
0.12242699907301847
-0.14593590640518792
-0.20472559839670826
-0.3157664989370662
-0.12028920111524002
-0.02722899184642285
0.18595064030941985
0.16227590907510264
0.14993575661898773
-0.011188436807492147
-0.0972320236090305
-0.10173677220916184
-0.03267897152649477
0.09226581517004606
0.05056399925737268
0.019398448540373675
-0.019908501558700865
-0.07802105571102055
-0.1554860755482329
-0.04384680167627735
0.06947151620986894
0.19377859027635524
0.12830655626116552
0.05949529861766816
-0.035624260226249295
-0.1808420617265196
-0.1905982447167446
-0.06292561681687263
0.021028353692464953
0.0904081545847529
0.17371104455446507
0.08811345702360583
0.033451504050761284
-0.006804924000635317
-0.058086720263718625
-0.1437066971512825
-0.07442429844938536
-0.04241160287259486
-0.021807953100928916
0.024266573701924553
0.1325504827047045
0.12800923205012213
0.015543492581667954
-0.022351863562072815
-0.02148108458844957
-0.026994590796139202
-0.08243202505025776
-0.019769624259320474
-0.052834970275461024
0.024670044569280868
0.03658904178581947
0.018331254360515907
0.009244315006832883
0.04506613636402524
-0.048292305831238176
-0.058992001837587425
0.008661423747526027
0.13447402556778967
0.08539297558403693
0.021818411331734563
-0.09307853733244505
-0.08285693373742037
-0.14932249441729084
-0.06941544706085562
0.0005646609554374967
0.11388771638714505
0.11848523380729283
0.04271313240833311
0.0861259733344751
0.017948762587934746
-0.01641709855400359
-0.08273586283351017
-0.042561326492593456
-0.13915051704707768
0.011846436737167896
0.02487942052427454
-0.059982634146995235
0.01303313343268831
0.10270133782905966
0.05845664436325692
0.1114911199187775
0.07155466725066
-0.06993559793035452
-0.1320213392946919
-0.13495410905931862
-0.0935746888894154
-0.016189229677642455
0.090725947898069
0.21449973140016607
0.12927077788317906
-0.005733691786256075
-0.040531220103531634
-0.02238250224540065
-0.1811863096336269
-0.11713166494935195
0.005151958649668267
0.0537031267166087
-0.08203205594483098
0.09178820492978274
0.054497118237232335
0.05425946356489972
0.09735965838464028
0.14605360549073945
-0.07413295902947714
-0.05897656034067835
-0.10549658773476148
-0.0921269611248812
-0.0638754346889848
-0.025689056160186692
0.05506571600570185
0.03836962960874463
-0.0034940408841835024
-0.0022659239933110974
0.09197358335296094
0.10116710256341822
0.01618849281599935
0.0010143748281493865
0.0032984926948708333
-0.031140064486947068
-0.14353528569781318
-0.15103748258291524
-0.042492279199626524
0.017373324450119618
0.07648850680564968
0.1803840465158996
0.15859398823261028
0.01705906535499429
-0.06120870203959914
-0.10812927334019248
-0.15884532230896534
-0.04091240912555275
0.03201402358226553
0.060732123266926334
0.05644048610555739
0.03463257452896631
0.00951226035496743
-0.009454535024231858
-0.018463696387308687
-0.01832828689345581
-0.012455991574972685
-0.0048020720631147245
0.001575943180120934
0.005143710389344232
0.005807884985391808
0.004415029000305758
0.002143239238551519
1.5899270209977835e-05
-0.0013565057684502898
-0.001811620353814824
-0.0015208671838427643
-0.0008183490752177473
-4.800678527883414e-05
0.0005318290732256323
0.0007828520155857286
0.0006794849195761024
0.0002854377215196047
-0.0002680887470822086
-0.0007994511047352298
-0.0010989395327107676
-0.0009711533112843351
-0.00030452254356354877
0.0008431493324421138
0.0021766364194072594
0.003161980039572291
0.003138248181734151
0.001558599043574352
-0.001680001618766312
-0.005929053426836467
-0.009668991321186635
-0.010749455619734298
-0.007085086980459938
0.0022631536365001026
0.01591556698905433
0.02940940900203748
0.03541329816977266
0.025316931713977267
-0.007876856630283037
-0.06611498862689412
-0.1437037015619803
-0.027110448441019667
0.10200823199241432
0.06120706014553031
0.061207493852607646
0.10200931630041901
-0.027109302381569802
-0.14370327297682423
-0.06611596234496249
-0.00787948388725294
0.025313131509537016
0.035409656918298456
0.029407906118400967
0.01591821819319173
0.002271049660500591
-0.007072832951354314
-0.010736396827343979
-0.00966112890143476
-0.005933293682044613
-0.0017012793647014145
0.001520890903835169
0.00309316939095414
0.0031274791071753388
0.0021758619334574006
0.000896060018513267
-0.00019284390097076183
-0.000821637181867118
-0.0009633118058232773
-0.0007526150356791904
-0.00038466348808780367
-3.194384969519552e-05
0.00020115936481158905
0.0002859043790009533
0.0002503754514284185
0.00014985297125747938
3.957936128732569e-05
-4.24659039821289e-05
-8.108299578002172e-05
-8.023330002541861e-05
-5.476166402590335e-05
-2.1746504451319022e-05
5.687371284650659e-06
2.1058213392052205e-05
2.4145262452920267e-05
1.875723092842503e-05
1.0005147391146093e-05
2.1073091306651923e-06
-2.7607718096684767e-06
-4.539441986875447e-06
-4.572096700491068e-06
-4.5372628146559344e-06
-5.450775711291946e-06
-7.070292125631257e-06
-7.898247310790824e-06
-5.818749093558617e-06
7.781618813862227e-07
1.1724700557621203e-05
2.4160810654681375e-05
3.254362609086699e-05
3.001483932053267e-05
1.1169004600077781e-05
-2.436066522459955e-05
-6.878924494990672e-05
-0.00010532472164322994
-0.00011127258971066058
-6.584466538049815e-05
3.845894853610739e-05
0.00018443210976024332
0.00032430955400166415
0.00038558407624709773
0.0002923928727154826
9.653552223730675e-07
-0.00046017606380933034
-0.0009623118426536252
-0.0012817990085311974
-0.0011551668794400755
-0.0003857758527393442
0.0010206386792861988
0.0027416421402982577
0.00411376547268573
0.004262536338835133
0.002412557144405585
-0.0016706156715133326
-0.007248388140274678
-0.012406852012671147
-0.014321174923496084
-0.010135958528845178
0.0015966448529207836
0.01927136276606404
0.037005710305092435
0.044584183407585534
0.029126511862450303
-0.021530691956684087
-0.11457494311476549
-0.04863791690835486
-0.012564163059808713
0.012569349574569679
0.04864010914278613
0.11457212079876491
0.02152266687977817
-0.029137550814889956
-0.04459373168310718
-0.03700791561750881
-0.019261019255128825
-0.0015719333163538968
0.010170805106084231
0.014354577572321529
0.012421379460845478
0.007225933877572413
0.0016008750209035587
-0.002522541433588651
-0.004381822406746082
-0.00418891204534512
-0.002709986746466287
-0.0008358133420940249
0.000721553431346186
0.0015639999208256652
0.0016045809152327969
0.0009899986282592367
7.813788862067611e-06
-0.000989120414784495
-0.0016404138318487735
-0.001638101230294682
-0.0008086924595999721
0.0007839373331066384
0.0027490886911200932
0.004356072986665407
0.00466539600103058
0.002839338815189105
-0.0014069073937575394
-0.007351139112286182
-0.013031704548334092
-0.015486262873235518
-0.011626382269404269
0.00030207553131303714
0.019034294809012347
0.03904707805010405
0.05058240244159316
0.04157403115394379
0.0015180006129616552
-0.07362057531688318
-0.17734779029074502
-0.0917467353231966
0.00863238853715561
0.14843475536531078
0.14149748241934826
0.18350294079875917
0.05115100238904681
-0.09079604076544422
-0.2767518504248766
-0.12682642017131268
-0.03826422640550336
0.014603045487414782
0.07194465241533902
0.1750077147973638
0.15284757633150728
0.013980075406210967
-0.05446571722767125
-0.0805828481741232
-0.09762065066602604
-0.13422249576962217
-0.008475452528766492
0.07272253296004452
0.10991564671498742
0.10576370110495438
0.06136929333034823
-0.023698277438760677
-0.14783324012617474
-0.10252565847547873
-0.06937711241340686
-0.021431405560064804
0.07083324721847728
0.23089044835240322
0.06848155242787665
-0.0237729041515867
-0.06801811345435681
-0.09427677438859369
-0.13214436367009105
-0.004392068739989452
0.07558929361559147
0.10269665209024334
0.07727824328080776
0.0028539876359529163
-0.11434351407910072
-0.06442999191481474
-0.033137691213679384
-0.002837258835426131
0.04429513386388472
0.12201133668169548
0.03653286721895848
-0.01436638143389972
-0.039132072028106014
-0.047929340388575555
-0.04776802368211958
-0.03925651554811555
-0.016260561042401218
0.03142531378337223
0.11346502241045235
0.03426591994785208
-0.010012235627678149
-0.03176298275860378
-0.049861692962304104
-0.08646026374932342
0.036009374402703555
0.09699004754824445
0.07949071185077926
-0.027755835889668186
-0.027164827707400283
-0.10885248336858988
-0.048518873450208555
-0.008366680771123921
0.05821718352512679
-0.0010599202499983
0.053706660070806454
0.04676967006288139
-0.01823957882546573
0.040602678350820445
-0.01363466476390471
-0.03072116894217597
-0.0654158475954358
0.03070406156700191
0.016481280807539165
0.06678504225845897
-0.02375503524020669
-0.03914382197702982
-0.14322281408283685
-0.08463715279972996
-0.006007553526409725
0.143784819001563
0.19726672042268523
0.16027013531101236
0.011668138390799084
-0.08813842735283892
-0.18270925229399013
-0.3045584391694618
-0.06566976529639354
0.14274265990668428
0.14166954770771475
0.15137379901644785
0.18027928848695005
0.020643931679799034
-0.14737355247905295
-0.14550042007260103
-0.18594793723681066
-0.06417299941602737
0.04090481134393481
0.15941587776127333
0.11919780398148364
0.13553940814256285
0.0061949321994833936
-0.08668880756560618
-0.16914779006562597
-0.06605440132800171
0.0062563854673617966
0.042989845834836275
0.049416698414368555
0.03659690835710154
0.016547812811900528
-0.0013937839565242283
-0.01223902225426001
-0.015173154261241486
-0.012214723750517782
-0.006515889887684876
-0.0009413381596961447
0.0027459500445404855
0.004062836495023149
0.003518109949582623
0.0021041588568231147
0.0007905457029536516
0.00016603188035509551
0.00029135091607999453
0.0007590520730083848
0.0009155719126312432
0.00017682938087780852
-0.001648762402127869
-0.0041310589366076265
-0.006189052581550265
-0.006346256557106679
-0.003288902235750978
0.0033685047583621353
0.012344432948450777
0.020323137259055664
0.022313039999456625
0.012926665887444636
-0.011564546233689002
-0.05099984901771423
-0.09989039641963729
0.05226037093836182
0.018468890913260008
0.010155694057749335
0.03274722264650068
0.08256193842980973
-0.05383709859025078
0.002604235644197177
0.028146547479095826
0.0023476455705452337
-0.08590525578928022
-0.033939153341105456
-0.023774568791427225
-0.024340158367695163
0.0027573016788366837
0.0951792337656641
0.08158038479505209
-0.024672813540721907
-0.028221637464957993
0.049502661485121995
-0.025321628015929472
-0.0927036497003858
0.007661526300602328
0.04193242002749505
-0.013995111749603857
0.027698841870739545
-0.032439184974136774
0.018549748316266233
0.004673093394827589
-0.04148345489776566
-0.08238768111800363
0.11974639226619564
-0.0023210687134318036
-0.025793246458555057
0.058664417819239346
0.04567161667408722
-0.08361070134055729
0.04196881677183855
-0.011620154499834461
-0.07846833479900585
0.011658611889208392
0.03628090958786007
-0.018429111644715872
0.042454947414565125
0.022001996491551122
-0.06950091328708052
-0.015739167074713335
0.003954057912932778
0.012291799753480676
0.031347891110689446
0.08013587085505079
-0.026885144285324028
-0.08018844191695923
-0.07497489692450793
-0.011336479574110348
0.10463224771110699
0.059217552722290415
0.030279873739463642
-0.01147461867550414
-0.09885670079034756
-0.06308705085651206
0.07134337486283285
0.09081394329281234
-0.0044523737338979675
0.0016794555136252554
-0.05775813679119398
-0.1339791006928057
-0.16718576531368734
0.10428029984919093
0.13136845449786896
0.14152642175594657
0.1301276583341747
0.059797894744228745
-0.13130613539130578
-0.11450575874129046
-0.15361948920082522
-0.0912997629899302
0.057535886789005265
0.10427274580008035
0.07909454383426362
0.020875201770728553
-0.03228286115323913
-0.050020486000791335
-0.013845203401802788
0.0812140148565885
0.027102698122056554
0.005351135173796517
-0.008350869352927415
-0.038365073301117054
-0.10350800853948906
-0.013254160517908663
0.03315115421520569
0.044623228111290346
0.03428335521465002
0.015242411920076046
-0.0024945235708923124
-0.013371952084129377
-0.016025476012842398
-0.012046668420724634
-0.004487655397076859
0.0033766472047094026
0.008827308784077873
0.010092618836276575
0.006550359437199931
-0.00110184731081896
-0.010712325865961228
-0.018765194833800874
-0.020976694756441903
-0.013598371238985269
0.0046558579623228345
0.03056029280127999
0.05509891853937812
0.06398980667232743
0.04071866273303462
-0.028082775237019873
-0.14631027766847843
-0.10358568043526366
-0.07465887496585623
-0.024556471857459263
0.0812297903663918
0.2646808385646569
0.1259913824952438
0.041417504113422106
-0.029937805634327158
-0.1322382384532075
-0.2969653741733574
-0.13120127407316948
-0.01509027237651603
0.09015426529843017
0.22672946906022357
0.22346966808209917
0.08464476853806059
-0.011193555022888676
-0.1020459005589654
-0.22693054316275163
-0.21041384603342908
-0.053429670276857695
0.06616421138418878
0.18401595905411278
0.13512483993634186
0.14109915807711218
0.0036999770152365123
-0.0935164675130832
-0.17713030058454907
-0.07341757916969223
7.278571068223278e-05
0.03815774559124576
0.046595187493335605
0.037306625221361134
0.022710046330241367
0.011258278123798286
0.005351949541531198
0.0018212086821015713
-0.005584704661548321
-0.022732817299791146
-0.05191041549760619
-0.09008010678777978
0.0706543303151112
0.040434272266785025
0.02791145119279697
0.036983068928981004
0.06538072268543826
-0.09435440126009599
-0.052035847198833314
-0.016449813894349227
0.007140213597182447
0.017783179649695884
0.018016504981054976
0.012153165391035227
0.004524474652444993
-0.001732300813267139
-0.005132691573023736
-0.005658902577931479
-0.004206646276823714
-0.001961743249222794
7.926627136630975e-05
0.0013510310957657319
0.0017371210570595581
0.001441051351607111
0.0008049465642284291
0.0001516834857170411
-0.00030889286104230393
-0.0005039930670779991
-0.0004703007474428541
-0.0003023556487241793
-0.00010183643711494892
5.676523648005755e-05
0.0001393910167314897
0.00014819020903501676
0.00010755359240055212
4.833650985351512e-05
-4.14533629551471e-06
-3.598869155064326e-05
-4.486072773234561e-05
-3.6485185411541034e-05
-1.9893445828676925e-05
-3.3697638507945184e-06
7.898958501793773e-06
1.2351843083503093e-05
1.1245551134436354e-05
7.226709026474815e-06
2.936503085868719e-06
6.60738332899504e-08
-9.844604689323514e-07
-9.01555531253539e-07
-8.907814906983565e-07
-1.976499874727733e-06
-4.397636087260268e-06
-7.299515312492677e-06
-8.867316430239108e-06
-6.953550054184886e-06
-1.0731314387418805e-07
1.127344563939309e-05
2.412522017741354e-05
3.278201557873443e-05
3.0351667484631994e-05
1.1462067356044006e-05
-2.41878862263179e-05
-6.874735962640867e-05
-0.00010537870750689123
-0.00011136894341717992
-6.593475238252695e-05
3.840493490844148e-05
0.00018442136239445615
0.0003243306980489076
0.0003856155486331103
0.0002924124268638157
9.583828615480223e-07
-0.00046021089718289673
-0.0009623607369857172
-0.0012818358386242788
-0.0011551611335762432
-0.0003857050197675945
0.001020774912202671
0.002741810817510909
0.0041138989271098745
0.004262546294090606
0.002412366419622734
-0.0016710290410696961
-0.007248948602328431
-0.012407367661282477
-0.014321364878391939
-0.010135539827387942
0.0015978190816723927
0.01927315208777028
0.037007589595791854
0.04458527847991549
0.029125827727974663
-0.02153385086102528
-0.11458045638596111
-0.04864443395331036
-0.012569054693459978
0.01256943753053289
0.048648023664452394
0.11458850423200168
0.021544360760442624
-0.029118155304547727
-0.04458752706154092
-0.03702561602700037
-0.019307776801165313
-0.0016415706451012708
0.01009932644156307
0.014315414767401745
0.012452589586540436
0.0073529820508011785
0.0018167755652178951
-0.002272618465816323
-0.004201301459582733
-0.004207049993608496
-0.0030331686917327593
-0.0014818501614873992
-0.0001163848994844754
0.000835698613544516
0.0014084799163182327
0.0017317601269457236
0.0018666326887864313
0.0017200443324237285
0.001079688836110836
-0.00023689981864692263
-0.0021743979259422636
-0.004267694654382868
-0.005616248152433219
-0.005092515758262194
-0.001802811192695
0.004290874662948866
0.011801710230382111
0.01769921479661272
0.01772296189131187
0.007547791739708363
-0.015491263460596953
-0.05068249929826347
-0.09305668786659368
0.06593655467405987
0.03608133769066791
0.02514461084683328
0.03608172039484719
0.06594052700798425
-0.0930446676750686
-0.05065996908339576
-0.01546106060190935
0.00757574627278605
0.017732890181145655
0.017674518368441586
0.011733261940990591
0.0041862123802839605
-0.001913424380291667
-0.005157907717731901
-0.005577606865866616
-0.004083306167152778
-0.0018502597549782452
0.0001484857276774871
0.0013719258858605936
0.0017209248577124074
0.00140643672173309
0.0007694695131582564
0.00012671887841957084
-0.000319427375659069
-0.0005021178559866351
-0.0004611603283723301
-0.0002914640128882636
-9.322030559046673e-05
6.12743598673416e-05
0.0001399160629481424
0.0001460429014974001
0.00010437791105801292
4.546630357292211e-05
-5.987269271288778e-06
-3.6677045927312376e-05
-4.465875007310032e-05
-3.5783188937713036e-05
-1.9008988852201133e-05
-2.4677003875103512e-06
8.768068183742753e-06
1.3143014483555557e-05
1.1812423734233485e-05
7.286532820569299e-06
2.1502646910603315e-06
-1.7701792109461711e-06
-3.6981632600126464e-06
-3.7635103913749384e-06
-2.6294357887455592e-06
-1.0902303324631196e-06
2.2426480000897812e-07
9.84658042345624e-07
1.154831193809251e-06
8.964502609328468e-07
4.4719314404362383e-07
1.9875580681347827e-08
-2.543850149295367e-07
-3.3805479929815266e-07
-2.672372625929044e-07
-1.1746113982965043e-07
3.011011085151614e-08
1.1366779639883832e-07
1.0463846596855177e-07
1.17437801007024e-08
-1.2277055785580902e-07
-2.338466062188726e-07
-2.5142300701156217e-07
-1.2480503739560289e-07
1.5005180078897404e-07
5.086917644345269e-07
8.140446116985214e-07
8.823857064241846e-07
5.450797925591183e-07
-2.6217782991770874e-07
-1.4094918317501901e-06
-2.525542627011547e-06
-3.0409007411013437e-06
-2.3533223540290773e-06
-1.0476410092659784e-07
3.501181138530593e-06
7.474160779332307e-06
1.0068692857140812e-05
9.20603233825004e-06
3.3049843499941105e-06
-7.650292638478077e-06
-2.119408430385776e-05
-3.215399449306366e-05
-3.36289667776143e-05
-1.9386838713581798e-05
1.2676154173523967e-05
5.7102415652234334e-05
9.917378729853077e-05
0.00011678983929623511
8.707450517651612e-05
-2.8002976524901446e-06
-0.00014346041945809623
-0.0002950620293076763
-0.00038924124398999186
-0.00034625023761392733
-0.00010764951993627123
0.00032252547058648763
0.0008434914904549816
0.001251227627003505
0.0012790875522708236
0.0006928279362127475
-0.0005752148973381613
-0.002296239049212211
-0.0038859430064790796
-0.004486650108691344
-0.003232162451021626
0.0003290274597337888
0.0057688680161815
0.01147862506687307
0.014776495940231305
0.012612020566682328
0.0028749398133095265
-0.01396895472183642
-0.03350046370078073
-0.04700404473970075
-0.0428457493623559
-0.00977665391071947
0.05847618182775316
0.15890935485852306
0.0773381810692195
-0.009461611946774895
-0.1275041593589429
-0.09724680801823143
-0.12650230928814807
-0.007679073287660218
0.07943594986475724
0.16061397310040715
0.05893288010598898
-0.011325726772249982
-0.04668429804572779
-0.052537695600197575
-0.03902242178911231
-0.01682676527907743
0.005545609330299598
0.02261026447486063
0.0313289554161764
0.030119356512942945
0.018402041860316617
-0.002832784551420707
-0.029650789063087695
-0.05384714369288065
-0.06284171849652596
-0.041750139568696436
0.022226593083440573
0.134157195098771
0.08663691315335473
0.0584057972368854
0.01786621325124251
-0.0688845252194
-0.2279768595592346
-0.06936110396747987
0.01655688687570657
0.05583497093494686
0.08275719902275093
0.1297237564876207
0.01894280443343293
-0.04156625555431046
-0.057136880476935846
-0.04209662138706013
-0.014076341270338634
0.011067529452268693
0.022681556809493117
0.01696650052787177
-0.002796493413563137
-0.027092945413656436
-0.04199607066828727
-0.03202770853365893
0.016057450748249085
0.10922708707415023
0.045125169415410664
0.011411493492504825
-0.011796403598060562
-0.04690326553517857
-0.11291115537948676
-0.02070765267018331
0.028806364974410054
0.04333823670886668
0.03549180720757064
0.018390267124116073
0.002192215403603147
-0.007639671784708663
-0.01026037763868084
-0.00805879572775821
-0.0046922732588632835
-0.0032121940719981256
-0.004765124537916809
-0.008140919211276626
-0.010251025730591544
-0.0074478990081820245
0.0025923207377508205
0.018914781313754778
0.0359351149713568
0.043414027653339356
0.028248829838505893
-0.021998282654416352
-0.1147239537556131
-0.048643042766847014
-0.01255708751130934
0.012578613883720268
0.048768055209025676
0.11499143720518479
0.022340465870230995
-0.028007487340316793
-0.043505609592776294
-0.036548145092828124
-0.020068866769386573
-0.004032868899507014
0.0062753624438726344
0.01009218769384083
0.009668092110740193
0.008197870019572394
0.007943628870125858
0.009108827553858253
0.00975703449086965
0.006792224449952035
-0.0022568834202843766
-0.017166914421118652
-0.033386204118674455
-0.041613065941373775
-0.029152661085380185
0.016915221656727975
0.10549576826706213
0.03759409254609775
0.0043674439198346515
-0.011935170637196126
-0.03434451318225621
-0.08608188982066131
0.014369338366750006
0.05676272470304233
0.04069281408187745
-0.024475873979804254
-0.12102755284400782
-0.025667169568499043
0.08624583516433006
0.03546337107589266
0.033937572478511015
0.08189167623869519
-0.03204145188323338
-0.12769648665644176
-0.0284809092769499
0.04361510827846726
0.07190773315677357
0.04759033685576466
-0.028666301618972066
-0.14607138333358202
-0.08479040754491662
-0.019729150165366346
0.07293588385748004
0.20822905049024223
0.18704805200845337
-0.0038888335259818717
-0.1858724784953028
-0.17808919023194372
-0.18826784884166306
-0.008753235463169967
0.1799859411174264
0.20018564839930525
0.06645391141755333
-0.021042235214154763
-0.07743194764501814
-0.12864899702987334
-0.00422483242943702
0.06983056631943899
0.07645491352817611
0.011010579953668198
-0.1169784900266514
-0.08411494304316523
-0.05630387160026225
0.004632437677730177
0.13171550037282628
0.14341112825460733
0.037356842763210926
-0.010188484157651757
-0.03857375008486733
-0.0923521869071527
-0.009414309550823072
-0.011027472251857769
-0.09633664550439294
-0.042624234230866594
-0.011307216324198075
0.04169682242852042
0.1539222195816539
0.14617630409373206
0.017548127379900372
-0.05270468255268832
-0.09724882876374877
-0.14989977130823076
-0.03601598153789368
0.03279793832430844
0.058655284383564064
0.05319374441194131
0.031655126881333935
0.00763356061051206
-0.0100509781374727
-0.018061751829634973
-0.017420383773789933
-0.011513932031902157
-0.004137592118819028
0.0018507740245105012
0.005080677235526474
0.005549783385009854
0.004120907749711267
0.0019340016016429098
-5.2002693723463034e-05
-0.0012923029721790247
-0.0016743300347213815
-0.0013942509281872216
-0.0007824672452771504
-0.00015132180557587366
0.00029560397122829876
0.0004869131790819735
0.00045694995383719364
0.0002960946777088164
0.0001019169798706526
-5.381097127457559e-05
-0.00013772349228051116
-0.000150663746322867
-0.0001142892262097048
-5.627300888412263e-05
4.744985678273e-07
4.244097590537374e-05
6.478381060237448e-05
6.774524799243537e-05
5.3075607784991385e-05
2.2542919254090375e-05
-2.0858489198706743e-05
-6.998699563295793e-05
-0.00011110813053571159
-0.00012446843257669698
-8.965993887281015e-05
4.3620183543741355e-06
0.00014739672419199866
0.00029958221709447337
0.0003929907314323443
0.00034841712763458883
0.000107868621715069
-0.00032428963386131826
-0.0008469573680661827
-0.0012556920658528844
-0.0012833090808326993
-0.0006950749976581568
0.0005767885104638159
0.0023028475245712313
0.0038972085291433503
0.004499810782592388
0.003241974678490351
-0.0003292099709433855
-0.005784671022553165
-0.01151129825647508
-0.014819745280931178
-0.012650710077135993
-0.0028873978522003384
0.014004062761162655
0.033593430960821694
0.04714263958068856
0.042988163497554265
0.009854932757809165
-0.05853783053257156
-0.15916176007349941
-0.07776766809514614
0.00896392627536905
0.1271439751209006
0.09728147275728914
0.1271439788127659
0.008963933308425999
-0.07776765878217155
-0.1591617507055584
-0.05853782461344716
0.009854931078296365
0.042988150968445916
0.04714261603084244
0.033593401325527295
0.014004037782027965
-0.002887403426477667
-0.012650682375614458
-0.014819678658109665
-0.011511202888444415
-0.00578457712625116
-0.00032916458714023694
0.0032419210792322367
0.00449962717766724
0.0038969099297427533
0.0023025143121281374
0.0005765647798758812
-0.0006950154605653276
-0.0012828312076931
-0.0012547885444537312
-0.0008458264036727023
-0.0003233565630593428
0.0001080291075424113
0.0003472775092775367
0.0003903580133913891
0.0002958872083261048
0.00014384380426781318
2.784602406727801e-06
-8.733782866626296e-05
-0.00011712776943482973
-9.945360470059133e-05
-5.725827237490427e-05
-1.270502060266069e-05
1.9447332941751543e-05
3.372722572874478e-05
3.2245677242806215e-05
2.125323166683451e-05
7.670592162188365e-06
-3.3155541037897436e-06
-9.233040400656819e-06
-1.0098167106512612e-05
-7.496701670731793e-06
-3.51299188522714e-06
1.0309575949918951e-07
2.358986781419806e-06
3.050784610298444e-06
2.5371999014253e-06
1.4210716453413985e-06
2.717278144755644e-07
-5.402382403385222e-07
-8.855406779854347e-07
-8.278928834940455e-07
-5.332588896027973e-07
-1.8054888566967327e-07
9.892413811070709e-08
2.4491050664997753e-07
2.6091243785128254e-07
1.8967836507756436e-07
8.54592789792257e-08
-7.132550381668538e-09
-6.349488263820882e-08
-7.935820196905498e-08
-6.464963945524855e-08
-3.518356415859738e-08
-5.568107635967589e-09
1.4907017730283363e-08
2.321403761338351e-08
2.123148563864092e-08
1.3356532374607094e-08
4.208838384408121e-09
-2.891685045953314e-09
-6.4827609579194065e-09
-6.733484736944543e-09
-4.792456106386483e-09
-2.0698826573888945e-09
2.9823706512892727e-10
1.7036403747298397e-09
2.0616552674647637e-09
1.6453087540769499e-09
8.688211416042432e-10
1.0658681572886034e-10
-4.089449081417954e-10
-6.07622458961604e-10
-5.438613835821353e-10
-3.3392752906992754e-10
-9.696718693377689e-11
8.320361786583812e-11
1.7125965290824733e-10
1.735729947045553e-10
1.209122496276706e-10
4.988822309080046e-11
-1.0607871173206891e-11
-4.5578317737869615e-11
-5.34930245788889e-11
-4.1820508967198683e-11
-2.139418428035672e-11
-1.7984311676664816e-12
1.1161334147359072e-11
1.5881068875356087e-11
1.3915283468366339e-11
8.33229184381399e-12
2.2014720760230042e-12
-2.3642343281513958e-12
-4.515929194808214e-12
-4.469231760525846e-12
-3.046087446843737e-12
-1.1957846286298865e-12
3.47825518736441e-13
1.216040805403613e-12
1.3861741407767822e-12
1.0615508530859733e-12
5.251020851600277e-13
2.1904298707768414e-14
-3.033392404041546e-13
-4.145586253460409e-13
-3.556704760888745e-13
-2.0751095126039294e-13
-4.907279833228891e-14
6.64486378376166e-14
1.1877135997622804e-13
1.1477042592342855e-13
7.637092365301873e-14
2.8194707226907824e-14
