0
-1.1105005052070733e-12
-1.1105005463766291e-12
-1.1105006012109374e-12
-1.110500650618084e-12
-1.110500667099222e-12
-1.1105006234208665e-12
-1.1105005061900828e-12
-1.1105003304882567e-12
-1.1105001489660879e-12
-1.1105000477027458e-12
-1.1105001231873864e-12
-1.1105004408097922e-12
-1.1105009845840398e-12
-1.1105016177936767e-12
-1.110502080292372e-12
-1.1105020450663062e-12
-1.1105012405806565e-12
-1.1104996167987023e-12
-1.1104974984052078e-12
-1.1104956422957396e-12
-1.1104951154330994e-12
-1.1104969490009846e-12
-1.1105016094503193e-12
-1.1105084408352177e-12
-1.1105153366013348e-12
-1.110518935756637e-12
-1.1105155511158297e-12
-1.1105027970806833e-12
-1.1104815207883705e-12
-1.1104572610064512e-12
-1.1104402416936252e-12
-1.1104430528742325e-12
-1.1104758193795898e-12
-1.1105397802696994e-12
-1.1106215206245149e-12
-1.1106910770400546e-12
-1.1107070988942297e-12
-1.110630617202705e-12
-1.1104456316303994e-12
-1.1101803274680353e-12
-1.1099188321071157e-12
-1.1097922260370088e-12
-1.1099411969924043e-12
-1.1104522827825075e-12
-1.111283793565423e-12
-1.1122119300690234e-12
-1.112835374047423e-12
-1.1126700278092196e-12
-1.111339538743836e-12
-1.1088233114226688e-12
-1.1056731499017483e-12
-1.103073556895025e-12
-1.1026252268739888e-12
-1.105797764867658e-12
-1.1131293495892226e-12
-1.1234208803242704e-12
-1.1333185450802018e-12
-1.1377159798607088e-12
-1.1312535436402884e-12
-1.1108126386012647e-12
-1.0783533836691047e-12
-1.0428964763204098e-12
-1.0201758049127099e-12
-1.0287810420030434e-12
-1.0826538960764732e-12
-1.1815195577290179e-12
-1.3027704231934585e-12
-1.3996448929227524e-12
-1.4102526236008214e-12
-1.279294040473232e-12
-9.89138475369969e-13
-5.903770864976753e-13
-2.1648866395985953e-13
-6.616936766369956e-14
-3.432657731952666e-13
-1.1593049757864236e-12
-2.424946890350472e-12
-3.777423157946203e-12
-4.6006098473422506e-12
-4.181609279522188e-12
-2.005908686433791e-12
1.873909644030576e-12
6.5349223429881955e-12
1.0133525700980032e-11
1.0279606216107305e-11
4.897221443949545e-12
-6.56998260943614e-12
-2.2002573728717867e-11
-3.609671957324979e-11
-4.112968966848735e-11
-2.93617561506666e-11
3.1593912221451075e-12
5.245253901597605e-11
1.0396010258231438e-10
1.3358351894384174e-10
1.140215841188893e-10
2.6366078516473415e-11
-1.2570836498614364e-10
-3.046474004580993e-10
-4.378596085571297e-10
-4.3315428516252885e-10
-2.1279869050786595e-10
2.397819705183476e-10
8.363382165843905e-10
1.366444004965318e-09
1.5302835082913715e-09
1.0345212894011004e-09
-2.5937515879644304e-10
-2.177011616789703e-09
-4.135379459141233e-09
-5.193000605463639e-09
-4.305838522520367e-09
-7.822906034359217e-10
5.171413721110636e-09
1.2031717111930081e-08
1.69439535653097e-08
1.6356563810841696e-08
7.3668708551596525e-09
-1.047179580563637e-08
-3.35044304225205e-08
-5.339486529588438e-08
-5.851689667510469e-08
-3.777425377184532e-08
1.3623364561798215e-08
8.813936073179017e-08
1.6246949877543638e-07
1.998746361824026e-07
1.604884156194394e-07
1.9149009633051978e-08
-2.1366570120858687e-07
-4.7631543018383554e-07
-6.566787097640707e-07
-6.181075794521374e-07
-2.525342876444182e-07
4.4968208533699283e-07
1.3378744195927217e-06
2.082271339212191e-06
2.232556973976666e-06
1.3698271747883426e-06
-6.687344490376289e-07
-3.5609763305308713e-06
-6.377050742910319e-06
-7.684934220257882e-06
-5.9646767495090305e-06
-3.064258045468678e-07
8.787062237804871e-06
1.882826808561806e-05
2.541878762430588e-05
2.330781071141059e-05
8.485055439704311e-06
-1.912284922882734e-05
-5.3331100755641834e-05
-8.111227558721759e-05
-8.504483112551248e-05
-4.934831997348349e-05
3.1387088126228824e-05
0.00014351495109550728
0.0002499966258230675
0.0002950765394501245
0.0002208949178888218
-5.220208205689187e-06
-0.00036003289644417853
-0.0007433999108786984
-0.0009829810319517403
-0.0008772557173874248
-0.00027787138848196514
0.0008064478863695881
0.002123156888229851
0.0031590698419987472
0.0032424112844154996
0.0017825215068081272
-0.0013909643059263448
-0.005698970388944166
-0.009662396856888886
-0.011109400205527776
-0.007849556182588324
0.001239000930121803
0.01499119255783618
0.029103681769715804
0.03623974729369757
0.027527292981966104
-0.004567798697114933
-0.06269877956908854
-0.14179710235371928
-0.028518365115903895
0.09607711664850292
0.05108676229165819
0.04950936996154348
0.09365483616728505
-0.025993589088301537
-0.12817117690634142
-0.0356878226138934
0.03027142617366837
0.05473970527537892
0.03179250686872568
-0.03429550353501224
-0.12945539174914497
-0.032086035765013045
0.08253049577530751
0.03615081522598196
0.04141050384439563
0.09767129542169826
-0.009541806113384886
-0.10517966476276605
-0.01844072540789607
0.024374726207539672
0.005961951178435468
-0.0782620942926438
-0.01941382433632311
0.002539968452207643
0.01387859561875475
0.04080591870564206
0.10343047053904514
0.011800459282046101
-0.034897952127072
-0.04602207306658894
-0.03521905506561334
-0.01596078819095853
0.0016867372426141516
0.012405031272560393
0.01523526149840514
0.012126120994114097
0.006199389866688571
0.0003374361030214768
-0.0036133134717224466
-0.005023259590301218
-0.004233258069152515
-0.0021272131407235
0.0002754539986510518
0.0021028414196994248
0.0027791112194149033
0.002085263201223796
0.00018503574169047478
-0.0023656160861804214
-0.004656348845184066
-0.005570978443620992
-0.004099367627542937
0.0001995525973654114
0.006701702272784266
0.01341490553152227
0.01714803590079055
0.014370184787227758
0.0027709001167438812
-0.01679660219665362
-0.038660898014938466
-0.05185171720241827
-0.04156829716541276
0.007175996942268511
0.10441768782276167
0.05022866496126262
0.031841965966239436
0.02444855300289104
-0.004045182862755875
-0.08544174782858267
-0.04305848048186206
-0.08544961697992001
-0.004057977259240708
0.024436189208248096
0.0318365988745914
0.05023608723628103
0.10444031726250141
0.0072103058153550545
-0.04153317308744686
-0.051832825074979334
-0.03867678257573677
-0.01685924021560161
0.0026656248483786504
0.014249672604597988
0.01706294253215969
0.013427699586978103
0.0068627920924544256
0.000515502361003048
-0.003694480767129329
-0.005225135234085965
-0.004574297753816915
-0.0027409424212922863
-0.0007282343882938062
0.00077179212955652
0.0014803436323994586
0.0014673431937181063
0.0010017124698395961
0.0003945369826070043
-0.00011329469289965058
-0.00040024378916304795
-0.000457972057806247
-0.0003521871233791843
-0.00017491608620804987
-6.336966368626628e-06
0.00010539833450224618
0.00014673596110250227
0.0001295647281203125
7.783099864294075e-05
1.6013464375823518e-05
-3.740540697761425e-05
-7.137161238034674e-05
-8.058872409431541e-05
-6.343088852096918e-05
-2.1488050527690635e-05
3.873775567246817e-05
0.0001032326963361418
0.00014950486995294745
0.00014997658132185384
8.118517380060306e-05
-6.241157620324917e-05
-0.0002545852686404383
-0.0004307819276564862
-0.0004967695236304571
-0.00035729282217033533
3.773263359411779e-05
0.0006421717040112241
0.001280261369609328
0.0016576858470665366
0.0014375766023757856
0.00038167383916878005
-0.0014751567657117085
-0.0036838107083393442
-0.005362318962777956
-0.005380158950961189
-0.0027726158162352603
0.0026854647490770853
0.009937188350407784
0.01641939635689403
0.018455907968534423
0.01244171373414027
-0.003288195721657457
-0.026394626176905477
-0.04911824338672785
-0.05848868404028694
-0.038857782753887335
0.02331361144284016
0.13359554721290245
0.08482567931002492
0.05583700302129864
0.015112180364493463
-0.07111498372570257
-0.22883445586636686
-0.06801539364097293
0.020558968256487696
0.06209649761496655
0.08965574755734763
0.13441822734246262
0.018011124901886777
-0.050794756821051376
-0.07481214688243473
-0.06427665354485675
-0.03227179137025991
0.008313923415391972
0.045693414160177206
0.06870971609169543
0.06648849355676906
0.029545843846075982
-0.04731965894624656
-0.16142416346103491
-0.10004590295489292
-0.04189323608301586
0.03704481360059516
0.15484484875760432
0.31586091212452966
0.1080120012729534
-0.09243265393795937
-0.30993014114324785
-0.35793787289053985
-0.2333217006381933
0.07858362946879581
0.3895477957278437
0.6922582879995328
0.35302210116781424
-0.2789257275540225
-0.4462275407160278
-0.5527433812155987
-0.5430275122774564
-0.10479807085212373
0.5023753472483984
0.600953686083068
0.4493487933835669
0.21438225375578926
-0.026316471815931594
-0.25213361863998873
-0.4484347876138253
-0.35360412902401883
-0.22088695952811466
-0.006085282034348563
0.016552625407575294
0.21649276924514593
0.35928962177722257
0.3633634718576978
0.07331833168533114
0.05638149961576554
-0.17892514560428782
-0.3496848083037571
-0.3628686098993862
-0.08862932719083838
0.0500457688376497
0.2706953832236978
0.213422578226277
0.12044104385873772
0.021024747138070704
-0.07414856314352791
-0.16986561799360436
-0.07828539116599165
-0.010566586878262937
0.028399742609410826
0.04108866048019057
0.03522110515889779
0.0202955570778535
0.0044900229552975145
-0.007085652860814914
-0.012626002697372001
-0.012777315517896964
-0.009358856015647083
-0.004258810379710924
0.0011386057786514454
0.0059330970494236865
0.009272802844134431
0.009801904037858793
0.005272470087011148
-0.007535021629715719
-0.03263352070204423
-0.07458437367838357
0.06170384659191429
0.17141055569180755
0.05118480088783157
-0.09798310714490542
-0.06701854713983753
-0.23631299192373356
-0.1773350876735793
0.14022506337166973
0.33729374342856344
0.21492270127857768
0.15028775867952085
-0.09732099241544442
-0.37193879677772845
-0.30401410047679256
-0.0991704682094274
0.061768011346905224
0.21140366411400496
0.3785717735504631
0.173640197016842
-0.016750448085365535
-0.2233264109906761
-0.27975475057871085
-0.20743687581013853
-0.006670162054267667
0.14238254105248066
0.2705917697893746
0.208083150817587
-0.024200908154093342
-0.21630207921585337
-0.16531932564457175
-0.06972527172477413
0.07392435164845562
0.07008756529746199
0.12026807875139217
0.018738119340873896
-0.049575175066635405
-0.108096299552716
0.014889607340623376
0.09100233132445748
0.09698505401297333
0.020126502104635187
-0.13657451614976157
-0.15102566219368102
-0.18286896890054577
0.01953675501741207
0.10630791355719013
0.31087700074258107
0.2381964446181102
0.06171504466539997
-0.26873968723592767
-0.21092869770312436
-0.21263243145118016
-0.09971630160761735
0.1260461202039873
0.2801485689881102
0.18439669689170726
0.057989953803377986
-0.08524821760087278
-0.23348017260720724
-0.17101101588759787
-0.07498982655866733
0.08203354503265753
0.12394193732991213
0.26092844606113375
0.08253198348260311
-0.04225607914269938
-0.1571304710903792
-0.10575068435605815
-0.11913040508077613
-0.00777574240790984
0.03904117512775393
0.047342990178756345
0.04852714504210934
0.06908251901132688
0.12323153159050643
0.01056021589843547
-0.08107546597143402
-0.16901204107187376
-0.06864247890385923
0.011260721985645442
0.06922866107119753
0.10847271078155818
0.13322743481884092
-0.05360546035095609
-0.25057449089983935
-0.056478545567160504
0.13035655790926137
0.11141952362365522
0.08685744710826308
0.05559374902177135
-0.182450334960032
-0.22321335449476376
-0.057032746403788026
0.12902069386497467
0.1452747751766058
0.19301244780831212
0.061426078393761005
-0.06956610993967556
-0.22135468308873074
-0.20723096384840609
-0.02628276580988048
0.13627539488771775
0.1025770295883996
0.09271699100020035
0.11692715015155164
-0.027463400338073797
-0.15358191462966347
-0.07887506389731004
-0.018422029581319638
0.0195045346510912
0.03443591152438042
0.031813565218368825
0.019721024808438986
0.005776618259412308
-0.004846367814666953
-0.010012686450669514
-0.010113668086104729
-0.006988943996869487
-0.002809407021972783
0.0007250453075909698
0.0027430363617087497
0.0031685146142479883
0.0024515880196944164
0.0012342906729853765
7.945530974035753e-05
-0.0006759741814577561
-0.000943202988114896
-0.0008182184778751702
-0.0004840341638205926
-0.00012167675310407745
0.00014552673152322198
0.00026921258724290053
0.00026352933636298237
0.00017776629218545323
6.807654182174771e-05
-2.2554807292987682e-05
-7.287775600769196e-05
-8.201805341307508e-05
-6.22607221934551e-05
-3.0379042770123016e-05
-7.497196360029847e-07
1.8251216845663745e-05
2.4649379140588527e-05
2.1119880909583775e-05
1.2421845792304451e-05
3.1258957048278825e-06
-3.752599787040291e-06
-7.108498282287789e-06
-7.3435072243484075e-06
-5.612872760053466e-06
-3.1059672042280035e-06
-6.087585496968694e-07
1.5758247809608175e-06
3.423314059950233e-06
4.866460998337287e-06
5.551104074325065e-06
4.823873584170141e-06
2.013432904323591e-06
-3.0606853262656665e-06
-9.549445092939921e-06
-1.5296730894017676e-05
-1.7117485507771802e-05
-1.1798394248909252e-05
2.281290721174157e-06
2.337363297100237e-05
4.5232011698392556e-05
5.7564128581737346e-05
4.875988271795391e-05
1.0862111322441288e-05
-5.437590703128117e-05
-0.00013070632315227118
-0.00018697469907636615
-0.00018381901881357176
-8.830052648293977e-05
0.00010614892751480906
0.00036122131313909506
0.0005866465691904603
0.000654678813357772
0.00044158073803715137
-0.00010861773622288372
-0.0009165517756629065
-0.0017273037209244594
-0.0021335753689816377
-0.00168860904661887
-0.00010762096286315535
0.0024852576670540555
0.005350333316424113
0.007074165064856159
0.005746301521888329
-0.0006227139402029083
-0.013564115360251951
-0.03374370923576181
-0.06096156546632704
0.10535895701172326
0.06553894702684354
0.01958794969326335
-0.03172074093454749
-0.0849316394114875
-0.13241427477545234
0.03715026733780883
0.035574323158284
0.07009173582140785
0.1385965818053474
0.02767023426985813
-0.08513100635103447
-0.025072222184137266
-0.012171594239683003
-0.05410928434690525
-0.142675360427928
-0.055329544770727726
0.038009035787688265
0.16467424230867903
0.13896629740947744
0.1560473742003706
-0.006976574093800061
-0.18261902167747748
-0.20032079390412363
-0.07463766365126312
0.0009220322328574172
0.05222036692886563
0.11609796236557905
0.028750195363301964
0.014947180324370014
0.08126150832267857
0.0148561450478939
-0.012245917719699816
-0.0348749510419246
-0.08492343371245414
-0.18303921156432928
0.06562238364664448
0.07042035369725848
0.049824409765449953
0.023946649834465414
0.00771559896277596
0.006617811097958243
0.015771325371645287
0.02215788897786514
0.009231677417415981
-0.037321859382205766
-0.12427712703909465
-0.047750616089717715
0.006426395260366685
0.0587289972446378
0.1297575641225641
0.034273797873768316
-0.022273399002669548
-0.04371500344645777
-0.04021355339435822
-0.024046565299755365
-0.0058554584937265085
0.00755413184913812
0.013634306286671689
0.01317082600696871
0.008734855452598285
0.0031867112154316136
-0.0013390526291637162
-0.003834782033215628
-0.004309591319570447
-0.0033918881546196548
-0.0018788995141462974
-0.000402587364551767
0.0007136576474190447
0.001420489959815986
0.0018007804766434835
0.0019122118146298744
0.001694803799259703
0.0009892619772577942
-0.00033548672757580605
-0.002196587290466379
-0.004143216198239072
-0.005338299634295247
-0.004756477991409202
-0.001610414600132921
0.004088509086090377
0.011045418685709834
0.016562480263156803
0.017058740673735726
0.009348726470009144
-0.007497158640247719
-0.030260267453681138
-0.05050765372006865
-0.05526519724732759
-0.029974953841336256
0.03655082579535046
0.14656512879465253
0.08946527995827902
0.04176355588281883
-0.028034772078888614
-0.15071440946219128
-0.14677551414138112
-0.019643539044027325
0.0457593861077829
0.07879169737827028
0.11518297676731214
-0.011564065031116705
-0.07698731259876243
-0.0696682461090243
0.007347634866533538
0.13722054574026007
0.09216044906680938
0.038962039613091484
-0.052874234182083854
-0.20216308771390734
-0.20948817696018301
-0.056549300826746356
0.08704771071237058
0.25142706396746145
0.2535446764790863
0.08975184739585153
-0.0623225343334685
-0.23306170361896794
-0.2461329004433349
-0.10654789733260608
0.003039284204437963
0.11627911689506915
0.27023863477475624
0.09139437771191902
-0.013805958953764824
-0.06069003014900136
-0.08084271668909082
-0.11241805664796391
0.009866322037771935
0.06215859094438288
0.03516264854693151
-0.06563291955504091
-0.022355592803507622
-0.009071350079319359
0.0025715487542509706
0.03727172361867093
0.1109400804898725
0.028023526962926277
-0.017682397264160137
-0.038828283054643566
-0.04831931144508177
-0.053377518632477555
-0.05206470833912899
-0.03364683821149676
0.017113184933485116
0.113044984649202
0.05744113508639195
0.03942623465860055
0.033838156787404525
0.006137227762291732
-0.07883471458611178
-0.046744485803291574
-0.1053977707027235
-0.04087641364394252
-0.019736130047122526
0.0029716730384547127
0.071936999368625
0.2195273531289869
0.05724554479679274
-0.026421496512652676
-0.06110989721733484
-0.08461911502105504
-0.13164129542452968
-0.02508622046406324
0.027448687136745684
0.03165434451507867
0.0005356122490616789
0.14726254182770376
0.07973036569597769
-0.0011213296564382275
-0.09874725115905875
-0.01557909914675508
-0.1475079625956103
-0.08118582875355426
0.004078742024229427
0.13007284066876781
0.1114546248005928
0.14920169881139148
0.029007951335051747
-0.074138123394079
-0.1867917681863587
-0.1271667713554492
-0.098890040086133
0.10886427233840651
0.1151044444671025
0.13765156761220693
-0.015120722809744233
0.05187898620073362
-0.07784479633032759
-0.02630141547937559
-0.013100381858299322
-0.04853471467490461
-0.129988555485995
-0.0430140926436867
0.032923569329624355
0.11571733994213332
0.2121813303770183
0.11378964135572309
-0.000666997933401258
-0.15556680889106148
-0.16546463399855274
-0.2241589583217366
-0.10110537043539916
0.05229756443596787
0.28823125248584214
0.24530253086150164
0.1357671031504999
-0.05758765947757762
-0.17399422132360298
-0.2605150249680938
-0.1575803481357954
0.1099466666308852
0.1337746713410088
0.11693233187649854
0.0664075011441698
-0.012350690481442606
-0.1172119625555838
-0.0480098156330727
-0.0040379311450401065
0.017691598069146545
0.022586839485281958
0.017307298550214404
0.00814477703072479
-0.00025544259664604137
-0.005433306792861424
-0.006921513386606916
-0.005589385493750253
-0.0028621360027343
-8.342743455524814e-05
0.0018481889187468446
0.002571310073437376
0.002169154987270785
0.0010029851552827308
-0.000443512694415931
-0.0016731842637297
-0.0022482407909835914
-0.001860713827695373
-0.0004263666751369494
0.0018060851923594615
0.004182171429506823
0.005686786203273194
0.005181517544816619
0.0018503964221238901
-0.004233940912594025
-0.011632684571261766
-0.01744620818862095
-0.017883504987775897
-0.009616531193155782
0.008270130992414599
0.03231437858144027
0.05359722517807223
0.05850007228893244
0.031852367968148415
-0.037865019424975596
-0.15276438276993037
-0.10167379237932328
-0.06056799701743826
0.0015854267241858337
0.11277632686848776
0.2872179871798356
0.11854381148025833
-0.019431634000173677
-0.16378527442278554
-0.14858057728261778
-0.19171255954975097
-0.08813963429724361
-0.012501952582123763
0.2698387534466544
0.1879429186625045
0.15295028634303864
-0.046540150574114564
-0.03969018646252659
-0.26175193340535496
-0.14082958420197075
-0.08863826574456679
0.1014779812038421
0.2497019609174142
0.18170943176563606
-0.07795705473695982
-0.10829829074612604
-0.09051478064116392
-0.20590161547023253
-0.0362413352908022
0.23199004693953645
0.2011916080430165
0.057658226225938525
-0.02845675878554134
-0.09725255051757395
-0.18948455592085894
-0.13738440348832082
0.04036761993518839
0.13813473479422478
0.1588966984425646
0.1094593725621307
-0.0014017720887062463
-0.16083530227200746
-0.1477171186495139
-0.13006449083545246
-0.06743587287232093
0.08069799185943102
0.34292246773699064
0.12503566315212022
0.005527953445661468
-0.05991291585812057
-0.12614346611400803
-0.24317003973400242
-0.0433153487814269
0.06481204525951005
0.09439715696180699
0.07255125065821959
0.030212950563664548
-0.006688896489848113
-0.02278133867877493
-0.015075300120468687
0.008336606808728782
0.03181691725891034
0.037154632735828017
0.009237922110360314
-0.05854286202298128
-0.16060414790761018
-0.07887922403622868
0.01296821804067675
0.14136882072344237
0.12333095160040942
0.15947181301179425
0.03296195325577223
-0.08456431716101667
-0.22219515438163978
-0.1985157896395025
-0.014870073220717789
0.14403682040620278
0.10284907052097807
0.08524199041409093
0.10513821515418065
-0.03731746648448082
-0.15432258168358273
-0.065177115201971
0.009957940883918645
0.05496093198651104
0.060461085195583145
0.024844989100756783
-0.04564229416104448
-0.13750886046068006
-0.031879964618910836
0.09183245059371914
0.05082934043087114
0.053972962357894824
0.09904258791211538
-0.026436671023868315
-0.14092992730390996
-0.06287424776882578
-0.00535038365264557
0.026603491874271936
0.035514130009760884
0.028729501096059075
0.01495597587061133
0.0014292222091418713
-0.007576002992564886
-0.010868410228420543
-0.009517148183910114
-0.005659586250919621
-0.0014308412824190833
0.0017049302205035034
0.0031651530278119138
0.003106114049605202
0.002102091395308402
0.0008121293854304507
-0.0002570377281221373
-0.0008533311758924258
-0.0009645609326926777
-0.0007342062587471432
-0.00035954358570165914
-1.0390657244547347e-05
0.00021375577735916338
0.0002889176480326573
0.0002463776677246387
0.00014263029725594022
3.2506967351081335e-05
-4.731023299791142e-05
-8.30609783198275e-05
-7.977924094736443e-05
-5.282161163416992e-05
-1.9288464423484014e-05
7.947851697036048e-06
2.2703537693448217e-05
2.49554067370801e-05
1.858703972453956e-05
8.745691643410806e-06
-2.235314166459672e-07
-5.8353394628215864e-06
-7.555914328812947e-06
-6.256264938325081e-06
-3.432642096472368e-06
-5.212665627430202e-07
1.517242739128483e-06
2.3186491746337145e-06
2.0172704618050557e-06
1.0433784605410394e-06
-8.498159909090205e-08
-9.187402246835184e-07
-1.1700177962149674e-06
-7.542714501855002e-07
1.9831466451771928e-07
1.3559408191870543e-06
2.235055581596559e-06
2.308467705716939e-06
1.1820696013397555e-06
-1.1833397437022253e-06
-4.275771074087125e-06
-6.971372962780549e-06
-7.723936611961871e-06
-5.065196115126126e-06
1.6423794864897657e-06
1.1419926143733951e-05
2.1220382934735455e-05
2.6228202961010906e-05
2.120155796892297e-05
2.803178710410282e-06
-2.7653271605861175e-05
-6.21528514018691e-05
-8.60396275454855e-05
-8.138362890835282e-05
-3.391524760873921e-05
5.781903066061386e-05
0.0001743020087409121
0.0002724920178707204
0.00029337956077869835
0.00018179886310168314
-8.415582749776821e-05
-0.00046303083517872605
-0.0008336667304402187
-0.001008641490021511
-0.0007881642159443415
-5.132893505806733e-05
0.0011385758053766273
0.002458472348365523
0.0033341652308923123
0.0030779851687389695
0.0011625131463532119
-0.0024254742378009256
-0.006878794894665887
-0.010490491051320718
-0.010973517896645819
-0.006257006389599377
0.004349382072919766
0.018968888915251753
0.03249486376701377
0.03703896940818796
0.023848011882700283
-0.01349112160297942
-0.07547883843274154
-0.15432540337203549
-0.03441498759465955
0.10361362369761809
0.07610175166197516
0.08953099230303038
0.13677320968914541
-0.0014299505196791046
-0.1497969778392184
-0.12908136527971736
-0.14782489471675161
0.001076071787305767
0.13748907693464407
0.086246335683356
0.06793430837033151
0.09206023666099396
-0.045080352168882135
-0.157786798946779
-0.06550907947435926
0.012717934817420562
0.061973516919305596
0.07292329271727549
0.04204693754154384
-0.028192055054850423
-0.12889457855889375
-0.04473770815198244
0.04439470927849877
-0.04034353674635173
0.11812493513427123
0.12812624128434397
-0.01306242009332921
-0.1181057675189759
-0.005639617559624152
-0.09529210121530368
-0.0037703977454026094
0.05684074912695235
0.07880629540452522
0.05775027187833393
-0.00768805915602782
-0.11503007297303325
-0.056670311921852914
-0.019550499668524898
0.013130243691364264
0.05830371515518064
0.1289231433240143
0.031298238298884055
-0.034729490704613265
-0.07279731470929363
-0.0858037290958863
-0.07284204477313039
-0.02920725487244448
0.05010515787171083
0.16485408545849392
0.10477315134452828
0.04847208485783539
-0.032505586278844686
-0.16543528155213846
-0.16717437480671546
-0.037932817313062736
0.039127424510987906
0.09225898426039383
0.15193030365172033
0.04187521863591566
-0.02633033195044035
-0.05381127279806794
-0.05088334226908705
-0.03166862137091872
-0.009118654342113341
0.008088005651619816
0.01639684703527912
0.01645452393796525
0.011291812760937232
0.004469592072634771
-0.001242331469549926
-0.004448326959613155
-0.005065066733137512
-0.0038700944596301067
-0.0019415562829276133
-0.00020065463549863042
0.000838853074634872
0.0011080628407601563
0.000864459728702937
0.0004984893490343414
0.00034015083257241927
0.0005200840143920386
0.0009166392438751691
0.001200171581744458
0.0009670440435379299
-6.529906165672232e-05
-0.0018556197980006278
-0.0039051593738847045
-0.005278580508268683
-0.0048442338031635035
-0.0017359256741717951
0.004062409713253596
0.011221505138076805
0.01695236094176139
0.017548937814640758
0.009707884341371145
-0.007556769800491364
-0.030967794821898844
-0.051889068058063176
-0.05701944439549312
-0.03144024334026564
0.03627417848015689
0.14830594817666468
0.09353082512811346
0.04748572232980944
-0.02253504654271426
-0.14830095208426095
-0.15044877490493497
-0.03111897213734284
0.02769547478379177
0.05949783655125974
0.1041517289270066
-0.002575045064649978
-0.0377422605639846
0.003687601165796795
0.10812890704759412
0.046908841009090915
-0.01656352750784387
-0.11737416886525324
-0.0797932740391413
-0.1109614961475973
0.00018888646495292786
0.07833595277236402
0.15323365304616038
0.05048777173220491
-0.015070469267541894
-0.041550098503357516
-0.03785301586178148
-0.018835758450574197
0.0002057415481674652
0.008170706585125486
0.001073150417375538
-0.017036073118398883
-0.03516268654520446
-0.038368431199532746
-0.012330081660278344
0.05138675205407974
0.15083621418055143
0.0718640025157508
-0.00961592219420846
-0.12126321849503405
-0.08581417187336016
-0.11363621422094561
0.0007400634113504946
0.07688248972848616
0.14251049277886227
0.025928015969977694
-0.05042145297258982
-0.07373575925213476
-0.042008432441610184
0.0365794706676604
0.14545654973850264
0.06283701516197063
-0.03334340357710739
-0.15925042702094658
-0.11969358562369764
-0.1060651022000367
0.10058039260898452
0.1218965787248229
0.17308735157450092
0.056272197095620966
-0.04063162341129817
-0.13911092404411426
-0.06163023398304672
-0.023238516946439525
-0.02643560194846327
-0.060872115209457914
0.09241348464405484
0.05396232506919328
0.03860134841040635
0.05042009170564361
0.08172239848452557
-0.08372851566864772
-0.06436574692021274
-0.07375233666353272
-0.11553682242753366
0.017581391269349697
0.14057195567952793
0.07006094348418719
0.018299332515944733
-0.010430442193624254
-0.01991263529551013
-0.019136962385278275
-0.017989427586354925
-0.023202968519905033
-0.035957477463730764
-0.051956391954985
-0.06409405380945579
0.13306455292989305
0.1387631293814067
0.1438940616782543
-0.06687317963871128
-0.10862526690476462
-0.18784030063150392
-0.09613319643623772
-0.009639894086287897
0.10482340405705057
0.07873952877438553
0.13009886942424406
0.05531077688354113
0.027922867654956076
0.00486595747135727
-0.06155888257817628
-0.2096214775522755
-0.05647801030623592
0.007337663877100855
0.015423992320532542
0.01574972615922765
0.056374518491482686
-0.029688941347730022
-0.036856638721288595
0.20655028232412836
0.24032923430661596
0.18458622867658803
-0.038379747725419223
-0.2767058413932739
-0.5245022187850046
-0.5108319709166064
-0.11038557445726055
0.2231727101866567
0.8102303467630925
0.7018355178525632
0.45859365742809216
-0.23678868890856028
-0.5357698112895053
-0.965562475745336
-0.5799152076545999
-0.13967917303481533
0.4689729765274208
0.7871702482529086
0.7275719156438737
0.13339418777688045
-0.2327459725286966
-0.46931196074103904
-0.4976090109469482
-0.22241590893483443
0.09385288930968916
0.23732239898987662
0.23217178555903586
0.12200946576898358
-0.04798701177301898
-0.04263860898380938
-0.04086012771438121
-0.03414361074084476
-0.022301312422333658
-0.008893458798475959
0.0022263852308666184
0.008760291690857267
0.010387274421142604
0.00827474076784173
0.00425117082082681
7.150259717540747e-05
-0.003012748108442018
-0.0043686836995470435
-0.003897423078055021
-0.0018947146278445381
0.0010453244327940157
0.004071035152445316
0.006125203501717677
0.006108290970663418
0.0032192605153355492
-0.0025580554307657708
-0.009987858133885042
-0.016411593275138282
-0.01817536946806686
-0.011839375942540349
0.003922194222760213
0.026199807686554225
0.04632096111456693
0.04985745373540614
0.018842514735753022
-0.06382754292246814
-0.00876500266139111
-0.014941461626470585
-0.06692394660414412
-0.13600519989219262
0.014132620264567476
0.017891934289172774
0.09668719631340791
0.25007071232111405
0.2531329429812949
-0.13723600210163836
-0.1679707461857073
-0.27207738261739595
-0.254694730760162
-0.0893188979228258
0.2735678022157289
0.28872640554776613
0.19666727727152125
0.010425190486549107
-0.08667639113372028
-0.13266969284670532
-0.17256115382842127
-0.04397203042460515
0.03239001706168089
0.055422815557216926
0.040302826760930804
0.011626845502885938
-0.0042601478986413685
0.01428192299976716
0.08011335062289751
-0.0039230242016595925
-0.04355509178785127
-0.04977932613215313
-0.03509729393294861
-0.010742636820941232
0.014240648957541045
0.03213930731562522
0.03478783607480854
0.012025533971914294
-0.04866493349697456
0.03906360187149075
0.06310593892381054
0.016595756649161027
-0.09815962525921257
-0.06673800866597664
-0.062259102998190846
-0.04893321343345611
0.010418293549611497
0.14450378262968916
0.1644593218088105
0.059040124846613924
-0.003448895369691639
-0.06646424755518862
-0.17248390692116664
-0.15064260663828805
-0.00905321797446576
0.06581483778219827
0.10322555241705
0.13871143848800133
0.0048683130002940556
-0.07477751628485771
-0.08806641731367207
-0.03371127751582327
0.08036306413878218
0.038890227867423945
0.021418047999426315
0.005252726234935716
-0.030736276728472504
-0.10218546333312256
-0.016433398412384392
0.028080023665236837
0.039977606621997716
0.03146965871720659
0.014622367806047754
-0.0013939240403096215
-0.01148763119078336
-0.014375181155954202
-0.011417411487084889
-0.005224268856587493
0.0014782400332037128
0.006511540869158838
0.008493608894578642
0.00687311069664969
0.0019449719058137905
-0.005076125722132813
-0.012013543786580438
-0.01593128768537284
-0.013801190753493188
-0.0037038483779879387
0.013653476767946121
0.033646878029294114
0.04743502939105923
0.04334054422531448
0.010135378241544379
-0.05839035769917134
-0.1591444129678497
-0.07783806710264475
0.008859958673140355
0.12705118703030685
0.09722469210699407
0.12712768718676512
0.00897834086287063
-0.07773831926305735
-0.1591321119324635
-0.058517238596616464
0.00986336983089469
0.042986272262419085
0.047134794898184035
0.03358425901690733
0.013996910317678385
-0.002891033496888327
-0.012650967561590194
-0.014817758478133438
-0.011508486049087836
-0.00578220338939367
-0.00032774813626407906
0.003242290132468012
0.004499218421273793
0.0038961364832849395
0.0023017512919935885
0.00057604628556359
-0.0006952175545737067
-0.0012827700852640093
-0.001254579934643497
-0.0008455895230507373
-0.0003231756601299773
0.0001081181807464884
0.00034728070262173726
0.00039030587110471513
0.0002958163119802136
0.00014378314843345523
2.7493398223829854e-06
-8.734602853444798e-05
-0.00011711628909197552
-9.94332521328096e-05
-5.72386527988515e-05
-1.2691983046058758e-05
1.945214001260059e-05
3.3725325739034785e-05
3.224012555370207e-05
2.1247100215696468e-05
7.666005467092664e-06
-3.317733471674183e-06
-9.233017323608556e-06
-1.009675799770257e-05
-7.494855303994015e-06
-3.5114449330037267e-06
1.0397054087824121e-07
2.3591631315387832e-06
3.0504636958291457e-06
2.5366640603161155e-06
1.4205665365921243e-06
2.713992910435403e-07
-5.403529486920529e-07
-8.854846704960695e-07
-8.277466393466028e-07
-5.331014440804621e-07
-1.8043372729818146e-07
9.897633882287391e-08
2.449062558721184e-07
2.608733777028031e-07
1.8962895546548042e-07
8.541816205822945e-08
-7.1561542638965475e-09
-6.350048060823913e-08
-7.935086351126427e-08
-6.46363083429567e-08
-3.5170249795896476e-08
-5.558550004448915e-09
1.4911343325951864e-08
2.3213153500582387e-08
2.122606278346683e-08
1.3347458129065842e-08
4.197353571377017e-09
-2.903496884756052e-09
-6.4916113914080945e-09
-6.7351777638929434e-09
