0
-1.2683666679800634e-11
-8.109819424135469e-12
3.111765753846219e-12
1.9309437583449532e-11
3.5388959187226884e-11
4.335746732150134e-11
3.4580050403067924e-11
3.662527643748565e-12
-4.700917844181466e-11
-1.0392905561167485e-10
-1.4267256940337932e-10
-1.3359607605440697e-10
-5.3416424780356476e-11
9.962284827539887e-11
2.923911459041067e-10
4.5294864840043484e-10
4.834735096144013e-10
2.9344753887120856e-10
-1.514954950296605e-10
-7.800412127222316e-10
-1.388999365463694e-09
-1.6668948999998397e-09
-1.2846167600663698e-09
-4.7373409910517014e-11
1.9313470866948613e-09
4.106771045404912e-09
5.520982151540405e-09
5.035199522028996e-09
1.7860105533217132e-09
-4.229291118271613e-09
-1.1651791291393452e-08
-1.7640326434096533e-08
-1.8411318087048055e-08
-1.0556383366516803e-08
7.0601758658772536e-09
3.14225433193559e-08
5.443997058506951e-08
6.398839946695507e-08
4.754436374569987e-08
-1.8750441909202997e-09
-7.905495557655547e-08
-1.6207274141819603e-07
-2.1340418702117494e-07
-1.8936047404556505e-07
-5.804070996579767e-08
1.7810464546585867e-07
4.6354282246124803e-07
6.862156976582752e-07
6.999550394994266e-07
3.7671834801061824e-07
-3.1978870025793374e-07
-1.2629722541296934e-06
-2.1311927305328546e-06
-2.4530641532067944e-06
-1.752844420132398e-06
2.176386314137412e-07
3.2245947506360678e-06
6.387741498694683e-06
8.238879582000425e-06
7.104203409735945e-06
1.8098431382387282e-06
-7.449452356268814e-06
-1.8411902501377868e-05
-2.6663572777489255e-05
-2.6564465836021123e-05
-1.3316370567624404e-05
1.418389367568276e-05
5.0656101826301396e-05
8.333369316818131e-05
9.391007246688507e-05
6.434483579085747e-05
-1.4091079150480515e-05
-0.00013110897516920817
-0.0002514344186278042
-0.0003176887928227332
-0.0002658369396652087
-5.288192419528057e-05
0.0003097326902122546
0.000730161119145321
0.0010347468997367274
0.0010061130417884849
0.0004649060554794105
-0.0006197501562440863
-0.0020288518875194576
-0.0032563719035534834
-0.0035919360035832743
-0.0023520426945684253
0.000768048512204442
0.005325377664261747
0.00991558072155191
0.012310319309527565
0.01008238471960838
0.0016934934433358978
-0.012224237813873952
-0.02791758292320415
-0.0385666229275947
-0.03593191251407624
-0.013770260967104151
0.027518911389212114
0.07638486401404915
0.10772326929433378
0.0845076182822062
-0.035580831426568205
-0.08932383192231966
-0.09564606580498
-0.04562926421551068
-0.0984064357000198
0.015051660401077126
-0.019627649859982596
0.08259291687803454
-0.013015650726095769
0.1221883698064718
0.0697752402815622
0.16337518603168544
0.09887307560036192
-0.04523193255383334
-0.18110419092943533
-0.18494515698155242
-0.27811700564612357
-0.22241058627314342
0.06798905046457289
0.3007966279495372
0.3744700990455272
0.35265603491664704
0.05366690192794246
-0.1414628990280926
-0.4665664812429427
-0.34393638594418374
-0.16583642948937788
0.10796309682012245
0.1358263219523065
0.36949687489644467
0.2293475118698932
0.08945790451998355
-0.12205328865079124
-0.10811378509720457
-0.17906420955916288
-0.228545050631669
-0.11626958209174706
0.13829492010936514
0.15176969898632736
0.16653838069891477
0.2402208660531118
0.03962980524375409
-0.35972460187671673
-0.2717745089265179
-0.20149972797705526
-0.054927299283707556
0.24199429909318035
0.5209219978320325
0.35412524635139353
-0.14859898423796797
-0.32604964761433436
-0.3390985316640246
-0.14077865117434848
0.14811012389505565
0.45370701634051114
0.1552478024021747
-0.31408908739431035
-0.4705229742409547
-0.38965297121969
0.07382349925107423
0.6579777380666286
1.4653095725813772
-0.8542017567567056
-0.5018219500182117
-0.5147605105935453
-0.34993085156182735
-0.6792240298430392
1.6010719618897165
0.7565875482990565
0.41419075118710147
-0.21183957279041055
-0.6667531454964593
-0.591698270358322
-0.475115948894302
-0.8426560122887848
-0.29758985216477063
0.5927787746210902
1.1860899857415834
0.8627783499308797
0.9678313711443362
0.4196155990617797
-0.8132603853811105
-1.79065362094252
-1.0760453840205695
-0.2506796933581995
0.10700648704623378
0.9771793606799803
1.214503790173843
0.66022888521363
-0.31864762935234925
-0.8496485766538417
-0.74092874600086
0.1485885145323543
1.138034517685882
-1.0550189720210228
0.2986655904414734
0.7497484738762386
-0.3215799441861931
-1.299944617413088
1.0654032008512413
0.05191312432834369
-0.6543793676279233
-0.18314199731640238
0.49520981963402744
0.7506206287650516
0.4892623390380707
-0.02870261589900948
-0.550093030777173
-0.9803728379292473
-0.745719871235991
-0.18344577726899688
0.8332531700146922
1.8468750230469193
-0.6340114840782597
-0.16395253890045666
0.03946605767180236
-0.481576161015288
-1.194458874186149
1.248605282374558
0.4228032052745827
-0.26762108081086894
-0.19239040591056697
-0.29968065259323684
-0.12373994351005035
0.0014817061636827598
0.32325991727366377
0.25095142744211557
0.34476476521095073
0.11906901484986476
-0.1382517112203351
-0.7357501736816818
-0.5484287241747512
0.2008456092931404
1.34272676726154
-1.0517363316197441
0.10912130101659645
0.31792757727200643
0.05172195025561907
-1.2405378085703564
2.2546726240498733
-0.8850833120740322
-0.31068019838732197
-0.28754934523207043
0.11889231580980245
-0.7477935842903656
1.4663842414561283
0.12383358394775487
-0.40337454335237233
-0.3253712536798683
-0.22258492275008968
-0.03777932851008793
0.12158616843303444
0.16967362451229132
0.021225400779227854
-0.03092942761234363
-0.13476899208087495
0.10883137472325825
0.24284029574457203
0.3613576282528766
-0.07165961970465531
-0.19413456230781947
-0.3143772078355206
-0.48619283316094664
-0.5002614994069771
0.30355420495697655
1.2069310306376166
-0.1208494099365949
0.15364154755108236
0.6247935640391674
-1.1356800343364826
-1.1533675606975617
0.5684375416602327
0.45173732389610094
-0.26998781155471513
1.0275980400243847
0.14541779495767218
-0.33839106146606124
-0.45315768367097564
-0.4142558724004362
-0.20779269258114547
0.20972112677043772
0.2960083147257657
0.29930325586293965
0.2373724957412917
0.08858674578477983
-0.20145942270651687
-0.30113919749588186
-0.27009663124482675
-0.14200934415572677
0.08098221880616813
0.22167578749300856
0.31400904705926413
0.18971316418332212
0.07178472068609205
-0.4234115484561622
-0.27909045063922444
-0.273109062832224
0.018709706939486842
0.20987674760514674
0.4865045690025039
0.3961897005531446
0.2516986509843938
-0.24701079105314241
-0.5776650413451064
-0.5604714492300984
-0.33838199797712804
0.0164419537815306
0.46964302470208785
0.576049008925396
0.43300241919405635
0.05227654335131454
-0.24071183680117791
-0.38251779663950136
-0.1327466580848977
-0.034028435910234994
0.018425492184465084
-0.007661112617607739
-0.08164701857647888
-0.12335516967240218
-0.02623670211133819
0.1145094190544617
0.3752263664546015
0.3858808407711043
0.1271922704245447
-0.2552830554235752
-0.42486161747566326
-0.4258292199827863
-0.2660138325851127
0.0823725113020206
0.46417593194346607
0.5139911904861294
0.23332843688328328
-0.016693134078338723
-0.3036151174025433
-0.2982578110391551
-0.24683947827407154
-0.152073829630314
0.02973451314832985
0.17523963603622625
0.1699163037219571
0.2822620285098046
0.14525039536483728
-0.049274626591675856
-0.14259402608365593
-0.19175961750366236
-0.25008640776482277
0.04745977859012582
0.08985209677007636
0.08656863987105459
0.05843290277807603
0.027181352269774736
0.007343979390477604
0.002244530023768718
0.004270744347737691
-0.001537170945662031
-0.03210995774479902
-0.10092861954974101
-0.014191763702143123
0.030346839925454457
0.0417763456231018
0.032617875624292095
0.015107331194645255
-0.001526118856493302
-0.012181121045202163
-0.015538962514455534
-0.012848269658438308
-0.006533908994795121
0.0008611428388604413
0.007208653247382715
0.010906177736129941
0.010839051669400156
0.006466041230954362
-0.0018496516766313693
-0.012376744524233077
-0.02175109038751744
-0.025337411137570626
-0.018534297049827536
0.0010043913869469763
0.030768395888829715
0.061449839918698124
0.07694253041178721
0.05728251799166992
-0.015401663008602037
-0.14929162589162986
-0.13637906793086266
-0.15030463138327343
0.04928178677049444
0.1061881209990001
0.2542721013236819
0.10626070824035613
0.04940656348511954
-0.15016755066356116
-0.1362846398518802
-0.14929843803855894
-0.015551790806585126
0.05698944716741847
0.07657219258309225
0.06113941559257488
0.030702359088791598
0.001353128755773232
-0.017705079054121515
-0.024159096023615052
-0.020601838834312713
-0.011838939754460003
-0.002542299449080582
0.004170030250984493
0.007138034292515711
0.006801362654326855
0.004472950048804145
0.0016072986194655549
-0.0007061989438331812
-0.0019495881699115496
-0.0021284152116279754
-0.0015779614857178098
-0.0007377081233817177
2.3922551049027832e-05
0.00049833281772838
0.0006430919723771551
0.0005341400873366004
0.0002986362991400347
5.649812709814197e-05
-0.00011433106466766345
-0.0001867704812677768
-0.0001743660237802688
-0.00011214544074537141
-3.780619023715035e-05
2.1020135942500263e-05
5.168727224746581e-05
5.4974188029901e-05
3.991161975481501e-05
1.7935503678679985e-05
-1.5623772060790665e-06
-1.3412252401531976e-05
-1.6727848773304656e-05
-1.3609590681895357e-05
-7.39273591164838e-06
-1.1538507791718921e-06
3.153534186045399e-06
4.89563670636465e-06
4.471358449636933e-06
2.8086304110944653e-06
8.807660642046938e-07
-6.137113852142424e-07
-1.3679660661118914e-06
-1.4186736139780316e-06
-1.0084196785250156e-06
-4.344244116730563e-07
6.42104627201484e-08
3.597163669955331e-07
4.346028016866734e-07
3.4659115538535683e-07
1.8296595644450423e-07
2.2473380093297586e-08
-8.611024629086697e-08
-1.2816495132087013e-07
-1.151880493022773e-07
-7.153109210292534e-08
-2.199076167387506e-08
1.614881508864437e-08
3.5726152820418994e-08
3.807720587370822e-08
2.923667196200716e-08
1.6007331040534165e-08
3.2949315463822404e-09
-6.760436019587832e-09
-1.4096590727570696e-08
-1.9220798138492894e-08
-2.1782364811506317e-08
-1.9992610523524758e-08
-1.1289181793540956e-08
5.8733451061632705e-09
2.977190154411016e-08
5.37966548036141e-08
6.668798259210727e-08
5.5504284301108946e-08
1.1295548977146478e-08
-6.388430973972594e-08
-1.5139858810439867e-07
-2.1549778199332307e-07
-2.1101588289640225e-07
-1.0023456504286369e-07
1.2411865581580776e-07
4.1754480641021015e-07
6.756163443921002e-07
7.506515748807294e-07
4.994058352891943e-07
-1.4373391647488817e-07
-1.089330929824629e-06
-2.046964772147953e-06
-2.5516944660751667e-06
-2.0918962604751713e-06
-3.343123257802515e-07
2.6081771779439106e-06
5.973226056707378e-06
8.347747987523246e-06
7.986602220737517e-06
3.4798984004310166e-06
-5.3575914225288295e-06
-1.668431515232557e-05
-2.6363084446536777e-05
-2.866749858017327e-05
-1.8181591972801467e-05
7.350892616927081e-06
4.408058812040326e-05
8.040565217525938e-05
9.818959718485515e-05
7.790638048430516e-05
7.456658044484808e-06
-0.00010755876515926957
-0.00023632545672953113
-0.0003233666537164447
-0.00030156878192878376
-0.00011850256249207925
0.00022921440557171444
0.0006657802382948529
0.0010276008466859861
0.0010929498282271455
0.0006574916377185747
-0.0003549279599576248
-0.0017803457650090485
-0.003156080393927667
-0.003775265810917649
-0.0028932369434770113
-7.20641700966089e-05
0.0044265896927177025
0.00936617923300236
0.012581888675572648
0.011513418525226185
0.004243545612395667
-0.009177240591353723
-0.02561180638563067
-0.03860689171979461
-0.03971121036970997
-0.021648086307879188
0.017035307513709276
0.06708649107151582
0.10540153111289624
0.09573862275073353
-0.005329840187999623
-0.03748654850344343
-0.023043159866004907
-0.15450580461274976
-0.1877565102753317
-0.044468043556112856
-0.025222980982876328
-0.03169036198458358
0.20701515960633177
0.3109658838304275
0.236719685006851
0.08100344754221928
-0.09797933489728486
-0.24618138829734598
-0.2757004561521408
-0.23433318478548418
-0.0918570135568019
0.05288144047666066
0.14621285698127431
0.1425591928100101
0.16595379643869115
0.07971727199678583
0.07112901944371891
0.054104876186963885
0.08903995713808771
0.01570693239637172
-0.10749852034311733
-0.3666202352953164
-0.36699051537014443
-0.22795270467690318
-0.001037760369032774
0.2919214622605233
0.6115667174568704
0.4597524317310029
0.05794299701934652
-0.24824145694478458
-0.36202280186729874
-0.39806689790242705
-0.24945719885047848
0.02985225781315365
0.22371667715268934
0.33832121837880713
0.18234309161172688
0.15287324400637933
0.03322718703565862
-0.19733894601790056
-0.34764677190078175
-0.4011381906668295
-0.11308775832665498
0.17800329078808533
0.5283666317657925
0.36595333222486226
0.2778213495749219
-0.18489937362455536
-0.48555333621217667
-0.4731695728940868
-0.1589847250360996
0.29207198948016533
0.3529063740811308
0.11431297463501097
-0.13777507322666335
-0.14115070663861776
-0.06980685972884842
0.059748764325572065
0.3881284343236585
0.21970502491744334
-0.1627381478826228
-0.4770085022993744
-0.21966810878308898
-0.0505876755259036
0.21147449834181634
0.38320273490090534
0.3066229400399602
-0.15909743911240912
-0.5413518381526216
-0.3560500441806884
0.08676534288802173
0.47080685355068896
0.4580908052271021
0.2776351884578253
-0.27558955661759504
-1.032004975762229
-0.6366198242929064
0.4551706600491226
2.1734924298607132
-1.1698391907777717
0.5273742098379552
0.18390007902091163
-0.6288734945217159
-2.2578198501476496
1.0359532564174632
0.04566009428016912
0.15682911193040103
0.6750216384866222
0.7705757514968408
1.0641887576439262
0.4656973610836422
-1.138837560128966
-1.5764461337401812
-1.0923692129130194
-0.9106060482521575
-0.07172103449757605
1.4597734393206268
2.054851048541749
1.097933247212322
0.12914589930349854
-0.7292594401551352
-1.0764118455745888
-1.5061874054334703
-0.4973423459753926
0.4452471460761629
0.7882036272165067
0.5200114506705908
0.08089960653358061
-0.10235251301672563
-0.0616637507846383
0.09103921996757289
0.16381717433940202
-0.0989740104902023
-0.18978487421579604
-0.0068621679289740094
-0.025999009235905896
-0.2810342318284347
0.043008576600698296
0.002917211290415224
-0.12197332298867553
-0.257007541657521
0.4392056825473441
0.7533466736201859
0.4122070027225728
-0.1000974000818523
-0.30455200232428603
-1.0820120085420528
-1.040139113644802
-0.11042494656792853
0.8190411650956114
1.2474259334768707
2.008102824049898
-1.1544389694701707
-1.3668344707614877
-1.180780823236112
-0.32597269984150057
0.31549558838346947
3.7109559786834083
-0.5278957295313764
-1.1378025506526603
-1.3828851163197555
-1.4409163564864764
-1.4256493269096011
2.342228029440242
2.033389261147622
1.4210396244269234
0.2521999719073878
-0.6968303268796222
-1.0941136000903176
-1.2992349265496381
-1.63955564882977
-0.3602759400174937
0.5338294445748891
1.3600032140051426
1.0043617247330212
1.386568727921205
0.3854940047204053
-0.7555707854077917
-1.3551238918854078
-0.5849724043389108
-0.5682254814613192
-0.11498975134229197
0.8932508204378664
0.47958044432689984
0.3285348482192171
-0.05523872458726273
-0.37432501731968126
-0.5506677988453447
0.2718240726289038
0.5283330243152373
0.2362329214308456
-0.19812593446629687
-0.3687771125646044
-0.46019535614619056
-0.4455102378355398
0.30227584648268435
0.788774534977345
0.5772605409783065
0.18222319028619802
-0.1138387288969568
-0.6230060670694686
-0.6077750480069053
-0.44897258899030124
-0.0407919410634921
0.1827220902881958
0.5981805998022701
0.7381446958116554
0.2511090622393885
-0.3099241462237584
-0.2678564827523041
-0.1799644281511182
0.4101342619406749
-1.3883982825376826
0.20515484750201504
0.23596816982147026
-0.017214649040769275
-0.6866746288054586
1.841601314983953
0.7043252525568371
0.17034625199692183
-0.5130593870080387
-1.0495158270446385
-1.0257531281859569
-0.6777290515854582
-0.11106794244989207
0.6244826949726356
1.228953566326941
1.2511806326350126
0.43016488791887597
-0.2984703682495602
-0.5318411507246369
-0.688646737242272
-0.893763766296686
-0.4938615618679163
-0.027107432522908613
0.3480316891286607
0.37767763816647315
0.4159297994034683
0.5348805839907784
0.4645743028536211
-0.023995682185186565
-0.2923997803565856
-0.3763550799374815
-0.51494254062728
-0.28847583664200926
0.01916475947161486
0.22732053985667713
0.03784033406704593
0.19694736815292388
0.051896540846300715
0.11306961109461686
0.028862813702771647
0.17716667544510517
0.07398430137266337
-0.0032508770180849898
-0.18297925404976045
-0.16527417128885924
-0.3951117065170509
-0.2510805704775111
0.14647059755234118
0.3099150103014089
0.14965170434455896
0.34182580079612457
0.3090388614484592
-0.18031896161113928
-0.39537598310582167
-0.21629494900877308
-0.10862150584548258
-0.10742271800847998
0.18505235033099968
0.19028864062704662
0.1389588664806052
0.05763916111423914
-0.038568848601645445
-0.14640921231700396
-0.06990390040734168
-0.014365469869620421
0.018003171510120014
0.02960913829608198
0.026447901289061986
0.015832559778749256
0.0041696278843969484
-0.004410831147100093
-0.008357733625054896
-0.0081662810919674
-0.005443664266931681
-0.001990266676179331
0.0008339869903141854
0.002370546273645049
0.0026081696312889014
0.0019471876403212188
0.0009224732204918258
-1.3402820272633468e-05
-0.0006014365603164255
-0.0007860602199206808
-0.000657850737614422
-0.00037165455796994587
-7.471496755803046e-05
0.0001364454036327201
0.00022749526003032301
0.00021416104533104915
0.00013894028619423988
4.8018947929679176e-05
-2.4484391382311744e-05
-6.272524766286509e-05
-6.736232931221536e-05
-4.9291025778755764e-05
-2.2486353081185974e-05
1.4858631569157767e-06
1.619071195108873e-05
2.0446381122180904e-05
1.6763416037294278e-05
9.205806818416946e-06
1.5532119594246774e-06
-3.773211919543454e-06
-5.966863604881377e-06
-5.494252744349549e-06
-3.481966240062734e-06
-1.1229491922669132e-06
7.198563935261792e-07
1.6614014604204764e-06
1.7390864162471319e-06
1.245949437286854e-06
5.454038984814644e-07
-6.79292130319509e-08
-4.348268176072576e-07
-5.31387137981986e-07
-4.2678461437411e-07
-2.275162753962134e-07
-3.048612455170066e-08
1.0368883982116891e-07
1.5625373268525823e-07
1.4078970081063637e-07
8.71032066092775e-08
2.5972688106554184e-08
-2.080590762570301e-08
-4.3916733050606374e-08
-4.484550112667574e-08
-3.1449207922407394e-08
-1.3166196546502097e-08
2.5077252507372865e-09
1.1643250144327824e-08
1.3792991278954405e-08
1.0852213750344492e-08
5.6074766917101935e-09
5.403748600381966e-10
-2.8342842084427165e-09
-4.085771289115084e-09
-3.6036056389929185e-09
-2.17484432174783e-09
-5.926543705631449e-10
5.932624603013698e-10
1.1586636674429997e-09
1.1551558687260858e-09
7.92783760833319e-10
3.1633318863130433e-10
-8.376641122604887e-11
-3.108583485264186e-10
-3.577439780614697e-10
-2.7604254467938296e-10
-1.384546706473426e-10
-8.317153420017131e-12
7.671552369588552e-11
1.0694417962845689e-10
9.32944975246525e-11
5.620942956362871e-11
1.5655313064093976e-11
-1.498871508003318e-11
-3.061204578070489e-11
-3.268622152969051e-11
-2.599366847530654e-11
-1.548027007476379e-11
-4.358472110332426e-12
6.177167005743607e-12
1.5947403161565076e-11
2.4275278386125403e-11
2.888509951399957e-11
2.5968679576393066e-11
1.1729375126914214e-11
-1.4924121848130425e-11
-4.954410270702799e-11
-8.067861560198443e-11
-9.132483112098703e-11
-6.420123126959705e-11
9.666860277914773e-12
1.2147081708661e-10
2.3847723066837083e-10
3.0620758923244136e-10
2.6268014188305575e-10
6.466214781089719e-11
-2.800700734350629e-10
-6.869005550889598e-10
-9.914456939879297e-10
-9.842639032538817e-10
-4.879344185556207e-10
5.368992759178307e-10
1.8919785016936745e-09
3.1012046751385807e-09
3.4839997685515393e-09
2.3720247738550403e-09
-5.54340507321495e-10
-4.906069549598014e-09
-9.365883994120032e-09
-1.1798645053689003e-08
-9.828878290656142e-09
-1.8719546701027985e-09
1.1625941947948825e-08
2.722895429287692e-08
3.8469505793548644e-08
3.7275937881309385e-08
1.7019313895721287e-08
-2.3382317442182422e-08
-7.571107374062963e-08
-1.211012511560222e-07
-1.3315636598177572e-07
-8.658673133024828e-08
2.9684898801306338e-08
1.9881491677925725e-07
3.681335732743362e-07
4.5430699928954457e-07
3.66607270271851e-07
4.733306383202528e-08
-4.805843994368399e-07
-1.0780806578566024e-06
-1.4910842110379052e-06
-1.4089739977802474e-06
-5.848360742718189e-07
1.0058750477415227e-06
3.024170385136762e-06
4.723579836845177e-06
5.08151176134684e-06
3.1429355207231363e-06
-1.469747277201132e-06
-8.0354557192649e-06
-1.4452083985442007e-05
-1.7470868097122995e-05
-1.3631880536972157e-05
-8.465799356756456e-07
1.9776923252980637e-05
4.2624530056898774e-05
5.7727471897417814e-05
5.3147521944127416e-05
1.9717241908834782e-05
-4.283388494874763e-05
-0.00012058210352928435
-0.00018403252130064712
-0.00019361687986683168
-0.00011334687992626017
6.937170190145701e-05
0.0003239527782916023
0.0005666385692995885
0.0006709120043761795
0.0005050244061420305
-6.116746757901142e-06
-0.0008110577755735467
-0.0016836986696146551
-0.0022333210348978194
-0.0020015126424577684
-0.000648604944554008
0.0018103971399130929
0.004808094764087965
0.007185033865858507
0.007419678520019431
0.004171422755502012
-0.002949407191797477
-0.012633563761679246
-0.021532381012458565
-0.024739199493404838
-0.01735453599896141
0.002963500042206317
0.033067771511428715
0.06209500549936456
0.07123299213314105
0.03645470391524519
-0.06573639176454009
-0.050816240215825405
-0.11939855832763628
-0.05373724211807751
-0.019439351615395294
0.027472105468281154
0.12997970408844903
0.11924269358415639
0.007037138786881969
-0.0161311415299226
0.023136537122826206
-0.11029043196002158
-0.04993497268651034
-0.019053188164756103
-0.025775053568062638
-0.06308742527509731
0.08670841933208943
0.04461521910920077
0.026911344523058683
0.03882034240920712
0.07157138668170239
-0.09658149615471312
-0.0960047356600908
0.040551747594366555
0.08453445912479993
0.017585136987362766
0.03665205873922013
-0.042197733370080995
-0.18245825543913782
-0.13023474263434565
-0.023245385517022328
-0.005648042190486707
0.1541326803853895
0.24790990421800937
0.2209119543745198
0.1786483766270904
0.008740356822967756
-0.18632139715617038
-0.4547329972825247
-0.5714844960567709
-0.23613191401471076
0.10271245625939615
0.4007781715723585
0.563597060792207
0.6032509299807773
0.22346821787664378
-0.1588439014548987
-0.36005728639016177
-0.359928508154821
-0.43675233525506224
-0.32761294873068386
-0.22661689047997258
-0.023695652535198036
0.024206276794208753
0.6068181931255111
0.6819291895271224
0.8276390332360947
1.0422166512557076
-1.4052716806792493
-1.288412179913637
-0.7308829083900467
-0.1405913212526219
-0.1902124270140003
1.9581365140979146
0.6050352252460383
-0.13035322103196192
-0.532617150133619
-0.8900648699666108
-0.4860265313282607
0.4023654905178661
0.490705435836172
0.26445483413556103
0.35950939719239106
0.1578197817266758
0.002021713263143239
-0.5764685680025562
-1.028854009210666
-0.5750579075421928
0.3856899251672251
1.8426034735292627
-0.8640677918438412
1.1366657390983663
0.6593966192021352
-0.4897622507975408
-2.2436913799497304
0.7919582503395015
-0.42514512437945495
-0.3852555661831061
-0.08635529413310564
0.07024546276588459
0.5705213737490511
0.8920866258240716
0.8507562980487974
0.6114403373434742
0.3709634675887563
-0.49978423361470303
-1.6874462636141274
-1.3885350085385872
-1.2300073198811337
-0.0890998978674907
0.7866313243877364
1.5911177450693454
0.9583392745035986
1.0063649877241503
0.4697848500371271
-0.2647604959054468
-0.8354099211848132
-0.5329036927932937
-1.328684821869047
-0.9490804081965356
-0.02573526012630048
0.47081593586621073
0.5320811506109633
1.3827451293511626
0.7631880663174435
-0.14390706583651805
-0.5289238414946774
-0.5201616638870072
-0.5208169207212905
-0.34415348138940216
0.234328635694687
0.5012156535781617
0.41054807360142814
0.17995365971388064
-0.31503911869068824
-0.7483768638547366
-0.9591742162683333
-0.18293569909207422
1.1026015521137198
2.731389069834354
-0.9736059909369852
0.018924882693410888
-0.29124426731138425
-1.6586882566031163
-2.533045395519523
1.7535357044096147
1.1447858519243632
0.7844091526851437
0.9433520850532913
-0.015479405440831621
-0.421110469188162
-0.8371981665348471
-1.1902626785889567
-0.31361753901582545
0.6725912741958082
0.9426414943431392
0.12161760596885504
0.23698412480640027
-0.5203815532564381
-0.8229765274520109
-0.826972804088479
0.8086654247046835
1.5079875192255845
2.1834094991311823
-1.7231120578959649
-0.9609938492095927
-0.7750598530790863
-0.8288906247130664
-1.3794582601662553
2.285494378807528
1.1610816910180177
0.02153566921898184
-0.6675260809075168
-0.6013682155687543
0.1489886564616499
0.5529970382328285
2.0639984867247443
-1.1106022779299098
-0.3176726761837576
-1.363567583763189
-0.8459367185845734
-1.5405490194355576
1.9448997814764393
0.6630685484605794
1.0003761506860034
0.5741418322672904
0.18552718313036135
-0.561651670396251
-0.3886465298557492
-0.4433344583386196
-0.6071227146314205
-0.6332665298035085
0.06909821089667635
0.4054691336166474
0.5352461501779663
0.603192991947937
0.48759233638951305
0.1821211744664418
-0.3845629339745137
-0.5014840831389702
-0.6202814013110525
-0.5149923377293744
-0.07338236883390938
0.07549529848059802
0.7064799771810488
0.535570064345821
0.37198565740745126
0.10290096793725532
0.3177344740664433
-0.4340203258257177
-0.5682434770331246
-0.7978301351513926
-0.4929815400844622
-0.08460359523880207
0.2887488201141289
0.9053398597357325
0.9818589873541033
0.4192647540999132
-0.209482728485767
-0.6291497932102494
-1.005899774936719
-0.4905836304870185
0.01558719122338745
0.46323607422226465
0.6312687724286049
0.4951566911134246
0.20613080452680752
-0.10729660067378691
-0.5162096018986355
-0.4580468802353693
-0.3095811540066801
-0.17985429800723332
0.0715782171669515
0.39607976771419967
0.5103283199986368
0.4603590731773204
0.20914857158686598
-0.14665818132473413
-0.536218542520797
-0.46483589963415956
-0.37365618900905334
-0.22378832212955732
0.08925976534667097
0.4961825804939179
0.5040275889323602
0.35422791870757203
0.20387701416050139
-0.06305633096034924
-0.39881156955885055
-0.5425662168614209
-0.37624212383460537
-0.100435104317639
0.16243074240688052
0.34085070363679154
0.3742349225759747
0.17457042005488507
0.001505546938411735
-0.1438847422166902
-0.10850142146692471
-0.16647779248584427
0.0036794036408164268
-0.06240948272020283
-0.00440135915533737
-0.03520617578214401
0.05392338337079878
0.08395674961932816
0.07767613110297372
0.05148438362204507
0.011567538828083918
-0.045146492701140226
-0.12654086146297636
-0.03980421441179047
0.012676657431803547
0.03461649715139797
0.03442163626908128
0.02228846705817361
0.007295021456375271
-0.004472718996209673
-0.010421794546220229
-0.010827352675125928
-0.007623800572511361
-0.003163736331749032
0.0006784680771683266
0.0029167532745528585
0.003433178171451284
0.0026940031660140835
0.0013882088021617226
0.00012980120054807007
-0.0007067686924001454
-0.0010157612298671848
-0.0008946299052668592
-0.0005391040523188932
-0.00014610509918718155
0.0001480802097607576
0.00028802439329661165
0.0002867467064327535
0.0001965171153489218
7.814347351962936e-05
-2.112438430260336e-05
-7.734824482901431e-05
-8.880415076714225e-05
-6.836128966977581e-05
-3.4109430653024284e-05
-1.8006981710091223e-06
1.920383898959874e-05
2.650600821067228e-05
2.2861144022176973e-05
1.3426220758701428e-05
3.269746623183306e-06
-4.176236756012526e-06
-7.585342115090199e-06
-7.377113117674936e-06
-4.944987610418829e-06
-1.8641149748794175e-06
6.665509139947265e-07
2.0599538610106654e-06
2.2992680662944606e-06
1.7337213288441063e-06
8.352596749105247e-07
6.31297430339294e-09
-5.20162310745553e-07
-6.910838495939879e-07
-5.837350688445314e-07
-3.3378793411528404e-07
-7.155314470847033e-08
1.1668506235059635e-07
1.9940531413575554e-07
1.8956598979373497e-07
1.2422878184448925e-07
4.4149708529256296e-08
-2.028642885825568e-08
-5.473185198223518e-08
-5.946003023008644e-08
-4.391058893402818e-08
-2.0379421287655812e-08
8.644793834283368e-10
1.4036750491062896e-08
1.7994340244734283e-08
1.4887366783842635e-08
8.279203246691926e-09
1.516293914600187e-09
-3.235682433881496e-09
-5.233476728342624e-09
-4.8656302653506656e-09
-3.1156549815934993e-09
-1.0368398526366823e-09
6.018177227696728e-10
1.4509955473102281e-09
1.5358437246849557e-09
1.1106130701150397e-09
4.952334539668879e-10
-4.8569814985335674e-11
-3.7751230118005807e-10
-4.679314251979082e-10
-3.792325888724863e-10
-2.0485741728738535e-10
-3.064610576606021e-11
8.913801984520487e-11
1.3713222520512185e-10
1.2473635262045165e-10
7.799468247171248e-11
2.4096332049295275e-11
-1.7523454975332607e-11
-3.839601345921974e-11
-3.963240249404485e-11
-2.8058687916341082e-11
-1.1988501580749744e-11
1.915685194608692e-12
1.0113681947377966e-11
1.2144807607633204e-11
9.640558202521666e-12
5.047489530720074e-12
5.649791791353584e-13
-2.4498162210250817e-12
-3.5958417673121712e-12
-3.202064301171353e-12
-1.9567835366185188e-12
-5.610337281709579e-13
4.946934921046511e-13
1.006072707681395e-12
1.0135608148053023e-12
6.998824885060377e-13
2.8080255847780266e-13
-7.428930414648781e-14
-2.781667856130885e-13
-3.227908926036819e-13
-2.5273428334621246e-13
-1.3196016366954086e-13
-1.6755541268439102e-14
5.900132105765756e-14
8.617514426805964e-14
7.41351066924018e-14
4.1037327254917034e-14
4.936224707559498e-15
-2.1807957506177275e-14
-3.429213894094159e-14
-3.386058030028462e-14
-2.5391302804461083e-14
-1.4477184304239538e-14
-5.419419011059968e-15
-3.6068134732604387e-16
5.902736978475916e-16
-1.3544565737513454e-15
-4.5249830561988294e-15
-7.482467785093414e-15
-9.382933985618994e-15
-1.0021969997374197e-14
-9.663582558439103e-15
-8.785840902224552e-15
-7.8531857952381e-15
-7.176610334115683e-15
-6.8730397871291334e-15
-6.900144914979797e-15
-7.12802930385761e-15
-7.411894387923163e-15
-7.642664296870087e-15
-7.76787891839314e-15
-7.787259520076592e-15
-7.733631468663542e-15
-7.650530596768791e-15
-7.574694087486091e-15
-7.527101769198513e-15
-7.512221138108783e-15
-7.522678618667186e-15
-7.545907597742398e-15
-7.569974214561927e-15
-7.587066255773219e-15
-7.594415480494112e-15
-7.593308372610072e-15
-7.587195839358136e-15
-7.579822222195466e-15
-7.573949949162875e-15
-7.570858758467393e-15
-7.570491178110641e-15
-7.57196155254974e-15
-7.574136372245898e-15
-7.57607875784448e-15
-7.577268388280186e-15
-7.577610764381458e-15
-7.577310288246152e-15
-7.576696750642351e-15
-7.576076443488326e-15
-7.575645280480157e-15
-7.57546824387165e-15
-7.575507207399053e-15
-7.575670692775674e-15
-7.575861989070101e-15
-7.576011231374817e-15
-7.576087326953145e-15
-7.576093411228849e-15
-7.576053299405969e-15
-7.575996465403128e-15
-7.575946772911837e-15
-7.575917094511034e-15
-7.57590933427976e-15
-7.575917862361546e-15
-7.575934037418682e-15
-7.575950007220724e-15
-7.575960867360602e-15
-7.575965107951961e-15
-7.575963837774243e-15
-7.57595947679278e-15
-7.575954520004508e-15
-7.575950731878456e-15
-7.5759488644441e-15
-7.575948794619285e-15
-7.57594988398491e-15
-7.575951367123464e-15
-7.575952636937209e-15
-7.575953375811941e-15
-7.575953548341081e-15
-7.575953308722436e-15
-7.575952883041067e-15
-7.575952472368843e-15
-7.575952199251501e-15
-7.575952098335384e-15
-7.575952137845868e-15
-7.575952253889337e-15
-7.575952382172899e-15
-7.575952478199173e-15
-7.575952523871585e-15
-7.575952523441335e-15
-7.575952493974307e-15
-7.57595245532315e-15
-7.57595242291325e-15
-7.575952404558662e-15
-7.575952400820844e-15
-7.575952407497168e-15
-7.575952418681076e-15
-7.575952429229683e-15
-7.575952436086986e-15
-7.575952438470377e-15
-7.575952437279748e-15
-7.575952434198967e-15
-7.57595243088288e-15
-7.575952428451943e-15
-7.575952427339105e-15
-7.57595242740729e-15
-7.575952428201491e-15
-7.575952429207421e-15
-7.575952430033642e-15
-7.575952430488522e-15
-7.575952430566592e-15
-7.5759524303819e-15
-7.575952430088536e-15
-7.575952429817892e-15
-7.575952429646017e-15
-7.575952429590232e-15
-7.575952429625297e-15
-7.575952429706912e-15
-7.575952429792532e-15
-7.575952429853987e-15
-7.575952429880988e-15
-7.575952429877768e-15
-7.575952429856431e-15
-7.575952429830282e-15
-7.575952429809245e-15
-7.575952429798002e-15
-7.575952429796465e-15
-7.57595242980155e-15
-7.575952429809243e-15
-7.575952429816184e-15
-7.57595242982048e-15
