0
-8.425001330921372e-18
-6.5685382496203995e-18
-7.793849898091985e-18
-1.328583764055467e-17
-2.2814459546207588e-17
-3.402682235640243e-17
-4.2374562025513234e-17
-4.208104222497222e-17
-2.82752601011619e-17
8.197582544895646e-20
3.7461810819782025e-17
7.067976804882228e-17
8.094974189420601e-17
4.9890778758889246e-17
-3.1179286764104154e-17
-1.5133562316436168e-16
-2.7404985200451145e-16
-3.4033081517433067e-16
-2.847584134552167e-16
-6.399228285886401e-17
3.0905351093434335e-16
7.389229480451883e-16
1.0467506351973016e-15
1.0099965890805898e-15
4.46767964074742e-16
-6.70947935800072e-16
-2.1141616746244996e-15
-3.3605599042719807e-15
-3.6816567378326865e-15
-2.3821361159753184e-15
8.382308024291373e-16
5.507306455840668e-15
1.0164959589861752e-14
1.2509182741806304e-14
1.0041912984785538e-14
1.186326802220296e-15
-1.340135625609054e-14
-2.985914327782394e-14
-4.116179919315226e-14
-3.874696856094443e-14
-1.5842670146616856e-14
2.815615698365083e-14
8.380999657481678e-14
1.3045653918331588e-13
1.3987939282961072e-13
8.582901840178065e-14
-4.1899390346958564e-14
-2.2312392956430316e-13
-3.995846118442299e-13
-4.815532639973056e-13
-3.737881174447593e-13
-1.927044896788875e-14
5.505096992625796e-13
1.1796991632428943e-12
1.5927047639894041e-12
1.4605098995506615e-12
5.318113919256659e-13
-1.198026385957385e-12
-3.3415134955986406e-12
-5.0823947983040944e-12
-5.329046949744251e-12
-3.0926183017156918e-12
1.965994866436857e-12
8.991897935904865e-12
1.566447215992384e-11
1.8490266723625187e-11
1.3843887735728376e-11
-3.219245619800124e-13
-2.2551370413521862e-11
-4.656975123377594e-11
-6.1578718705428e-11
-5.4952233730328333e-11
-1.7398063286581492e-11
5.052779115857208e-11
1.329788808963259e-10
1.9775268303393937e-10
2.0266702605514215e-10
1.1055574555108708e-10
-8.950369760674076e-11
-3.6157477474170644e-10
-6.133736190021427e-10
-7.090424776119047e-10
-5.108112873924999e-10
5.4216658100828836e-11
9.204853584465425e-10
1.8359310715985773e-09
2.3779491068434445e-09
2.0626739682020026e-09
5.478795363493191e-10
-2.116153695494757e-09
-5.283594773511495e-09
-7.685663757629005e-09
-7.694331006928614e-09
-3.9161205905781544e-09
3.985016796493603e-09
1.450832934165232e-08
2.398972602222615e-08
2.7151839196930828e-08
1.8768413084937922e-08
-3.730433962844221e-09
-3.744988244816843e-08
-7.22851503092249e-08
-9.171643038339754e-08
-7.722667704978309e-08
-1.6267889163759667e-08
8.809038482833133e-08
2.0960886720233722e-07
2.9836132256860243e-07
2.9159048426644484e-07
1.371884660797496e-07
-1.7444227866484852e-07
-5.809847901950326e-07
-9.371771423992494e-07
-1.038256373343909e-06
-6.863332090642469e-07
2.0809474589734142e-07
1.5191234708720784e-06
2.8424617942563922e-06
3.5330890168106546e-06
2.883406143386479e-06
4.3563135181566877e-07
-3.6475950389784514e-06
-8.30325047169232e-06
-1.1569197512961145e-05
-1.1029287211192667e-05
-4.7405594306198346e-06
7.534577312636004e-06
2.3221408015139802e-05
3.6569429198542255e-05
3.9642978308976104e-05
2.4963742224093057e-05
-1.0538330710076543e-05
-6.145336092598786e-05
-0.00011163561609589408
-0.00013592902160384823
-0.00010733470105686668
-9.247001029410857e-06
0.00015033018615097615
0.00032844336694832235
0.00044807123020491494
0.0004163070966665921
0.00016092316786322347
-0.0003220334223716811
-0.0009266649388116946
-0.001425649089257603
-0.001511779065289993
-0.0009029633244916038
0.0005042490939832099
0.002480152289237854
0.00438201625927269
0.005231657917971381
0.004003734727918712
0.0001051178868116595
-0.0060799948551100965
-0.01281014366278359
-0.017056478264924277
-0.015252994300091702
-0.004761030649884938
0.014241442840963485
0.0370971051485119
0.05412636057038833
0.05202940352247857
0.0175391181018736
-0.05732497968755891
-0.17016804144856174
-0.10577464389242468
-0.03842601389177075
0.060620728720996955
0.21263367484535392
0.2221265660790614
0.07336304060825079
-0.06482320600643086
-0.22707883263938397
-0.23723835357353448
-0.09796477569635119
0.010963317037466782
0.12489285505238223
0.2804922069627126
0.10187390305813597
-0.007683549952911998
-0.065589880290159
-0.10237169482679452
-0.1505422086843551
-0.0345554476622473
0.03475269010668715
0.06019668456601443
0.05400445804158155
0.03182995149271732
0.007466446358875298
-0.010263375201923773
-0.01815579210404117
-0.01741612180342524
-0.011578849379820231
-0.004481754403452138
0.0011127297300728776
0.004052291451930517
0.004605993910903615
0.0038448744401712964
0.0029177052070518037
0.0024853866417129814
0.00247155169753367
0.002175170213860408
0.0006905033988945928
-0.0025057399185035184
-0.007007690049642635
-0.011217551539767764
-0.012588339344003083
-0.00848568201426452
0.00242119424563927
0.01859561194111561
0.03449515468142494
0.04054419374001734
0.024703550832534282
-0.02441401792487174
-0.11369116911922786
-0.04235205174942023
-0.0009711516055615152
0.026689762337641653
0.059643285063063795
0.11511817603441249
0.005374390311225711
-0.06299042673265362
-0.08751552157213353
-0.06763070566840539
-0.0034583141338518377
0.10344934728089522
0.0479823069685055
0.019510712355455193
0.0016045715366915256
-0.025993567351337177
-0.08372387838304184
0.011836201962900845
0.05118178665407927
0.03359102870883625
-0.032739127519895043
-0.1320653976440953
-0.0441059051685646
0.05131136766844688
0.16882581663974527
0.11336700341155455
0.07955252733595264
-0.14429103420281095
-0.1688734026308862
-0.1969791088713556
-0.020649922375024984
0.17562958121278943
0.2071878528883469
0.08092135469231095
-0.0091445057712687
-0.0803980794022374
-0.15536420806339485
-0.05388990859996065
0.012699691438253244
0.0434716411637175
0.04589591723629327
0.03164988288997183
0.012260563896046585
-0.003926744451403491
-0.012895172610153938
-0.01446856006911945
-0.010882920688977818
-0.005171438910027704
8.593778325129377e-05
0.0034034956768321683
0.004450787189666691
0.0037301286842606218
0.0021129292993759476
0.00043153300027549073
-0.0007665631615891271
-0.0012852097573522422
-0.0012120243577018704
-0.0007870957374252734
-0.00027231202212956
0.00013821517804262878
0.0003538550871614256
0.00037798444016443766
0.00027286026617913585
0.00011909459273426049
-1.586664782060256e-05
-9.400403551001996e-05
-0.00010847088225013507
-7.563455042815922e-05
-2.3172088336516983e-05
2.12540972357463e-05
3.8295807617338855e-05
2.1535904388818334e-05
-2.1334976184723614e-05
-7.049169283698967e-05
-9.911256648246526e-05
-8.168968562963687e-05
-4.7180381158063625e-06
0.00012263891187793061
0.00026214012032627835
0.00034951312229650037
0.00031103006593233355
9.36859655648133e-05
-0.00029754064196589955
-0.0007692373880393914
-0.00113469138459738
-0.0011518330254076785
-0.0006102247536408333
0.0005471897549312047
0.0021073117735683163
0.0035355025157219225
0.004052914307938912
0.0028792391360946607
-0.0003826533713079088
-0.005327440936932241
-0.010480427342472853
-0.013404383926664112
-0.011347891992940897
-0.00243730537386591
0.012845256159551581
0.03043436796528124
0.04241118600739432
0.038313438578771654
0.008209223374256516
-0.05304415055392768
-0.14178115699943777
-0.04364656839496372
0.06463105544004462
0.009591116815183714
0.012895870345466095
0.08309768272209424
0.009818980458064881
-0.037772317909867605
0.09276201857403428
0.14610690963081124
0.07248409581525994
-0.15693071794415506
-0.336383438823356
-0.21903101047151416
-0.12230424770008404
0.05357787047303898
0.39811877731543466
0.5631553290773397
0.14621372273774969
-0.10810488499392834
-0.2888569450050513
-0.4897525836561632
-0.3828813387123553
-0.0059777414614877325
0.23282504776592539
0.5376204908781796
0.5060647917525029
0.12146770736107616
-0.23803814589022929
-0.37641788493685896
-0.6543718482966768
-0.3763320636491956
-0.0002895974266464649
0.428820469629907
0.6325171721786678
0.4564762220575563
0.24969071456114503
-0.1256975835818984
-0.45657334208442896
-0.5263008942362281
-0.26568171055370193
-0.1232696625310594
0.13723716518277077
0.2148084238180151
0.23416869336544657
0.3074787644545053
0.10647024681154955
0.052017515046148946
-0.07827275204108432
-0.3298480311156108
-0.3475945045895398
-0.15850674692085417
0.03294127085460513
0.23630283375535746
0.4593424974651342
0.29416808213709167
-0.08657913642950961
-0.32080482466699217
-0.2395901035049044
-0.2502468023750056
-0.12847855005596223
0.17619903574298137
0.3238650718854634
0.16345995902104626
0.11643653145076142
-0.029103094156131847
-0.11249974468538954
-0.1862755987459584
-0.0995798977471601
-0.08533221697948971
0.04524088762657149
0.10027979762356783
0.09967200478857238
0.06606154455190885
0.018044191074295307
-0.032599942228192444
-0.07988927150245194
-0.12066069986429492
0.04810188008260398
0.03009965150286581
0.028599911631354478
0.044473464523462326
0.07486252267034091
-0.08655725006777625
-0.04773031355562975
-0.015693733483462417
0.0054154918098882265
0.015026738803106975
0.015466711873585835
0.010529091147155981
0.003992455814954312
-0.0014075156778271746
-0.004367099638525513
-0.004853155147266785
-0.0036267587167178885
-0.0017055965086018694
5.069461043500783e-05
0.0011512168932806663
0.0014912632347671294
0.0012427247382388279
0.0006985360851453114
0.00013660900084402856
-0.00026148096114762153
-0.00043183347067173413
-0.0004049856607208679
-0.00026173379195826985
-8.94931504057189e-05
4.738614859540919e-05
0.0001192126402599582
0.00012748311813965814
9.296195094942457e-05
4.213034869543224e-05
-3.1704377278793654e-06
-3.084550044438756e-05
-3.8738200216862675e-05
-3.1652652968438076e-05
-1.7299233657064107e-05
-2.822912349814648e-06
7.2170849314994026e-06
1.1319317850523506e-05
1.0385313583739931e-05
6.555930946781374e-06
2.0886275839836488e-06
-1.3892950959689242e-06
-3.1566940465882055e-06
-3.2906586010278426e-06
-2.3493123583817042e-06
-1.021110910593278e-06
1.3770193366068998e-07
8.27988806098083e-07
1.0065721708790066e-06
8.056940568264873e-07
4.2735483759800806e-07
5.4704858289268515e-08
-1.9814360272762223e-07
-2.9634443237781635e-07
-2.660721970011389e-07
-1.6394972024147906e-07
-4.8209186763102654e-08
4.0057185732144716e-08
8.341589723948052e-08
8.48394436931413e-08
5.9285086635253904e-08
2.4629260204792253e-08
-4.978853309539058e-09
-2.2160522395073636e-08
-2.6121818043701145e-08
-2.0482838415650982e-08
-1.0527769388047888e-08
-9.459863697232135e-10
5.411761244437789e-09
7.747030151815091e-09
6.80892559187912e-09
4.092156570414225e-09
1.0971159037352432e-09
-1.1400683314617654e-09
-2.2001178852365356e-09
-2.1848010580142263e-09
-1.493838082755605e-09
-5.908307706633458e-10
1.6476336720919164e-10
5.914727959012005e-10
6.77033016389885e-10
5.20066853635665e-10
2.586032945528304e-10
1.2558433028661367e-11
-1.4701181959747324e-10
-2.0212893650718753e-10
-1.740039204989537e-10
-1.020215173647064e-10
-2.4767225062988695e-11
3.1733253485358086e-11
5.753561628133124e-11
5.59761439210789e-11
3.773324206770665e-11
1.475109095680703e-11
-4.0215802848627835e-12
-1.4392691688849818e-11
-1.6521460643194904e-11
-1.3230466057702399e-11
-8.009031265180683e-12
-3.4551178362047235e-12
-5.410938489952043e-13
1.2615816967912492e-12
3.221932924943583e-12
6.321849161023786e-12
1.037406924827545e-11
1.3656567312464953e-11
1.3308368344284297e-11
6.517308350701834e-12
-7.763134759463981e-12
-2.715124594564711e-11
-4.505127288109639e-11
-5.1575207269743336e-11
-3.664052891966151e-11
5.0687997979494e-12
6.866297442671126e-11
1.3552893076999225e-10
1.745667627110435e-10
1.5030899740530075e-10
3.7899612441971037e-11
-1.5847650135490437e-10
-3.9079447341670427e-10
-5.654171528601642e-10
-5.627779838349455e-10
-2.8126667665569467e-10
3.022653737012416e-10
1.075552517920604e-09
1.7676437755930758e-09
1.9903297216665184e-09
1.361402338628766e-09
-3.0349974622994306e-10
-2.785196950106259e-09
-5.334756775801183e-09
-6.735097351182493e-09
-5.629060498597221e-09
-1.1069406139645676e-09
6.585479753347532e-09
1.5497374826312586e-08
2.194461880713597e-08
2.1319330353847726e-08
9.824545541135858e-09
-1.3183886403378428e-08
-4.304986315824053e-08
-6.903521137021671e-08
-7.608143432941533e-08
-4.972316774259998e-08
1.6438749102315864e-08
1.1290177416166005e-07
2.0971484969065828e-07
2.5936988432150404e-07
2.1002397136525935e-07
2.853246947216511e-08
-2.7236365326779196e-07
-6.136833737829481e-07
-8.506811398200315e-07
-8.060083802193311e-07
-3.3819035355377966e-07
5.678302033782582e-07
1.7198959545700474e-06
2.693059871243357e-06
2.903888620558828e-06
1.8059989219856145e-06
-8.191696820850583e-07
-4.5643656612226e-06
-8.233985871901201e-06
-9.975707093197439e-06
-7.812164295823087e-06
-5.428542392549988e-07
1.121332018592862e-05
2.426701784716486e-05
3.293826483766936e-05
3.04100118144504e-05
1.1427709879634292e-05
-2.4204226222425362e-05
-6.858965444920525e-05
-0.00010493539636593848
-0.0001106631528105846
-6.517874245783773e-05
3.882685555306926e-05
0.00018406396673448792
0.00032288634292878567
0.00038315105988408264
0.00028955153238615115
-1.1084801052524933e-06
-0.0004599910516703727
-0.0009586245242992465
-0.0012743777139151307
-0.0011454953964695276
-0.0003773162603174427
0.0010230074916774314
0.0027332101939906753
0.004092413503360794
0.004231285044902504
0.002381061738407185
-0.0016869737998071674
-0.0072327591413780925
-0.012348370053128584
-0.014223786833623952
-0.010025076458028878
0.0016742082582474327
0.01925804368230162
0.03685532298528375
0.044291287203775086
0.028752744870348755
-0.021848050410047684
-0.11464671531345144
-0.04828612524966135
-0.011716233839065629
0.013783640016546377
0.049835111223880124
0.11514774960926943
0.0208354124614362
-0.031483268154976124
-0.048407864683683105
-0.04127070061010251
-0.022147704585290334
-0.0008908155152975311
0.01610270453712863
0.0255768140675877
0.0263501228853215
0.018415171496951023
0.002824524618328842
-0.01756753413113681
-0.03701422838392315
-0.046307261182384936
-0.033570951503856104
0.013229025133908565
0.10253655517236715
0.035487322508674625
0.0037695209567466565
-0.00991051089427661
-0.028794115099816626
-0.07748628502235043
0.022757531817279283
0.057726130055639494
0.022439013579404678
-0.078136365418002
-0.02974519186315876
-0.011006603042504252
0.0028636933226567963
0.03525648381720613
0.10346747334291956
0.015558378333262164
-0.030138880646243118
-0.04278203866857338
-0.03504639936236843
-0.01900832235629616
-0.003274428082126563
0.007985882196823512
0.014259796068928897
0.016882209860467418
0.017123269358979655
0.014979799146918975
0.009140143196725655
-0.0018563017805792914
-0.0176990070923443
-0.03441836100806528
-0.043470236373640156
-0.032562040533617526
0.011550364007528742
0.09887531331869116
0.03195184092671707
0.0031809676889402367
-0.005155077512960839
-0.018067947121049942
-0.06306131834128421
0.03537486062515498
0.06081516336813809
0.008727659216873148
-0.11145338288494759
-0.07667999271128509
-0.053864261604370176
-0.006930079063373351
0.09378607091472412
0.2625341009295854
0.0931207261404482
-0.03941896866407488
-0.1702988916111543
-0.13263149731074417
-0.1462049825926918
-0.01186131316467757
0.08664259935916838
0.17470876942129301
0.07673722470238066
0.008028492377479044
-0.028448466734523947
-0.04006825932080591
-0.03905268906521918
-0.03609310318965163
-0.03552346111634565
-0.033618997570121475
-0.02048498020070952
0.015134648425728718
0.07981830279742148
0.17058516178614358
0.07357335591144697
-0.03236974310618252
-0.16791266908273206
-0.14428915059679023
-0.15732467117443114
0.012326478734828268
0.19226523960645772
0.2075602863056675
0.0709056794516558
-0.021926833274259462
-0.08969513626607023
-0.1580271813687977
-0.05026217242188111
0.019443888768674103
0.04868918098925628
0.045220622348638884
0.022808038276069476
-0.0034421702100866174
-0.020977489812225563
-0.02239057350980644
-0.006783360764238103
0.019915187113979545
0.045726886185957494
0.05479680423707127
0.031191927390146854
-0.036004524442127636
-0.147556977289232
-0.09094158786909606
-0.041223765472647805
0.03327486601820791
0.16183187567232804
0.1619084339975416
0.03324620820025387
-0.04199169310319753
-0.09307947009242837
-0.15120194199625211
-0.04039240085152099
0.027830874318847613
0.0548580648580797
0.05131837396434903
0.03157996181212035
0.008721547735801109
-0.008564791338994739
-0.01678528020341874
-0.01667341020011554
-0.011335118025296664
-0.0043763694525315875
0.0014176979766662128
0.0046539645215714605
0.005255346424879869
0.0040010187653127674
0.001967541762724763
8.137424994779045e-05
-0.0011186096790720419
-0.0015110600728124712
-0.0012800438606523992
-0.0007460984026602009
-0.0002122329906692532
0.0001332148942509028
0.0002459356452902469
0.00019877703449281667
0.00012134234217782323
0.00013058618752001587
0.00027354188582255775
0.0004980829466043275
0.0006617847970657184
0.000581655445333647
0.00011720710652647456
-0.0007341450164854561
-0.0017641918492856535
-0.0025462569741867445
-0.002529258296193218
-0.001243399303828633
0.0014195658813087482
0.004945223481674637
0.00809262760851769
0.009088605528795167
0.006196682132694577
-0.001402551773885521
-0.012672775200711821
-0.02415454552364726
-0.030267497153314688
-0.024846286553891737
-0.0038875875486763505
0.03110733160323632
0.07043255668458798
0.09571846671625692
0.08308280627054374
0.010230333819807988
-0.1338957946397697
-0.14019438675092646
-0.1756098558001834
-0.18830740131173443
-0.12317915351966793
0.2549471807113163
0.3374163547113248
0.457246034944811
0.49378034864090886
0.10130307737042539
-0.6425724278817441
-0.7830353948500951
-0.6495277808665536
-0.45168637848909005
0.0818634690553111
0.8297873474464745
0.9923971990873804
0.8243369453144698
0.211330317825167
-0.2986922184167248
-0.819998792828313
-0.835400962674327
-0.7169548540307833
-0.08693133831003984
0.37090846271744804
0.6582309439009519
0.589495669861764
0.3260286901837386
-0.06307707219510343
-0.20544704479883308
-0.20014795149323036
-0.17570971815394207
-0.24664714236333693
-0.08099975223396912
-0.08624500839424913
-0.015197778649453405
0.01164341069301601
0.27470575347198434
0.22444476122897647
0.2604665664061961
0.12764560929278063
-0.06869341553836382
-0.23249668540750928
-0.24075236944926814
-0.31287103880767103
-0.1958984017153515
0.02893964304376319
0.11946457606212914
0.23302140748570066
0.28575242814342816
0.3227194611669927
0.10775852092924869
-0.06398320059190378
-0.33491857029308775
-0.24528127248140977
-0.29728906175205055
-0.13385604893452113
0.06299145865287266
0.35580611355175434
0.22516535369986415
0.14302827397319204
-0.04553210411899193
-0.12850017259409363
-0.12244771709419634
-0.062078147344585846
0.011195876262687447
0.058340333279936964
0.04842803699330555
-0.03847616348999114
-0.010397470789553777
-0.06404120830733638
0.013145271247876227
0.03954343395367335
0.035158145191852216
0.017668506244767908
-0.0002478477147287034
-0.01180154624630931
-0.015343953683818653
-0.012621168690953236
-0.0068005333062501625
-0.0008800833926136478
0.0032150184883980846
0.004847191863594793
0.004392055605089012
0.002746365428038994
0.0008541198604462899
-0.0006073249066437018
-0.0013419722683538997
-0.0013882798378593672
-0.000984807967015573
-0.0004225833210179647
6.480491407559524e-05
0.00035290127283054107
0.00042509514301551665
0.0003381899630847561
0.0001777299327078111
2.0772411053280027e-05
-8.502136442509727e-05
-0.00012545059940119037
-0.00011191337601723648
-6.845038221278697e-05
-1.9604962706469695e-05
1.74148807570478e-05
3.540846448850136e-05
3.575250678099057e-05
2.4821693500066237e-05
1.0165330186548943e-05
-2.27811711205016e-06
-9.441189530944658e-06
-1.1029539033553105e-05
-8.595258729047164e-06
-4.374775379204589e-06
-3.401460064226072e-07
2.3187865456477883e-06
3.278139765345176e-06
2.8629525750716166e-06
1.7075062670623276e-06
4.4396678022988457e-07
-4.939637845464518e-07
-9.333984083885696e-07
-9.203884480476368e-07
-6.251560815019795e-07
-2.43411589153965e-07
7.403486697483589e-08
2.518096052238564e-07
2.8577395718381155e-07
2.1815295259576115e-07
1.0734089644438714e-07
3.7541961085852055e-09
-6.295978086410943e-08
-8.553984530696695e-08
-7.315363454905314e-08
-4.250523997062043e-08
-9.858600413546172e-09
1.3872355611340326e-08
2.4562098591591216e-08
2.3666827373733784e-08
1.57204372985988e-08
5.790418080322274e-09
-2.2982868528967213e-09
-6.699656314205599e-09
-7.3954470146888264e-09
-5.529611038852374e-09
-2.624753431040567e-09
3.17199976281246e-11
1.7026707414902669e-09
2.228996861265514e-09
1.8669571411887892e-09
1.0557184001359091e-09
2.1323555582067218e-10
-3.862921275494042e-10
-6.451356698998465e-10
-6.077091343669131e-10
-3.945225213239349e-10
-1.3665469053720857e-10
6.901529206881727e-11
1.77482207322963e-10
1.9062811735992214e-10
1.3944070624327104e-10
6.366469390061466e-11
-3.839995767623984e-12
-4.488927723033992e-11
-5.635664966190378e-11
-4.5714262600154645e-11
-2.4851104531851712e-11
-4.676425531342267e-12
8.126690684217403e-12
1.1953887852833596e-11
9.260975169438327e-12
4.523241889295815e-12
2.0022686761381005e-12
3.953376357450343e-12
9.679068465165975e-12
1.5641749140375922e-11
1.6676233269288853e-11
8.128514599056404e-12
-1.1550482961761667e-11
-3.857511093722604e-11
-6.303997265116495e-11
-7.062574455067453e-11
-4.7309088418885296e-11
1.350863867343768e-11
1.0351531094433426e-10
1.9505837989291797e-10
2.4366901683937067e-10
2.0029654552130942e-10
3.285048697002066e-11
-2.481535645369492e-10
-5.700816546379327e-10
-7.979597483598882e-10
-7.648356170772616e-10
-3.355079699323895e-10
5.084151977903373e-10
1.59166201628545e-09
2.5192770468310457e-09
2.743761061278166e-09
1.7463529631365568e-09
-6.906336887648368e-10
-4.20177981028115e-09
-7.680196920982634e-09
-9.392653546431112e-09
-7.470196817444764e-09
-7.504307213202719e-10
1.0239526566947936e-08
2.2562170791038926e-08
3.091820615739458e-08
2.88872798695956e-08
1.1441354639886227e-08
-2.17692386371791e-08
-6.3528007836851e-08
-9.821708600257414e-08
-1.0463758649236403e-07
-6.32174091232445e-08
3.339903011413748e-08
1.6963498683919974e-07
3.013472614767088e-07
3.609999272800252e-07
2.773694183760551e-07
8.504398293168791e-09
-4.2060933749054477e-07
-8.915099369425483e-07
-1.1963832794192488e-06
-1.0886147860894743e-06
-3.818046504531344e-07
9.23420373946322e-07
2.531159836013568e-06
3.824678786526623e-06
3.984123862037812e-06
2.272665938569978e-06
-1.5521870253404973e-06
-6.832156858757376e-06
-1.1809771840424375e-05
-1.3856475149230758e-05
-1.0262421281891407e-05
4.7524477353689645e-07
1.7211178619348687e-05
3.517918710069955e-05
4.62394446868258e-05
4.093179064396054e-05
1.2371509107326001e-05
-3.8862887479150385e-05
-0.0001006828754325194
-0.000148766617141142
-0.00015144466181754506
-8.104255419986893e-05
7.016165679736788e-05
0.00027455045470810703
0.00046226446765603867
0.000531110861521871
0.0003781568924484204
-4.9974378694545604e-05
-0.0007020367475027531
-0.001386688162913228
-0.0017854620188847313
-0.0015358965051868578
-0.0003845531624956836
0.0016249616381546212
0.004001385909773047
0.0057886466711980595
0.005768217432759724
0.0029088154874203887
-0.00301459655921118
-0.010839694630368381
-0.01778343340829163
-0.019877231076872132
-0.013253157728470391
0.0038406193530037117
0.028830783793204737
0.05333232004607917
0.06343921836189656
0.04253974665651879
-0.02343679567534919
-0.1396456206610628
-0.09721673925371006
-0.07207397494231176
-0.029331183393511966
0.06719336039287716
0.2431580662039626
0.10391081977805786
0.03088562639488089
-0.013762290256096767
-0.07543172651216884
-0.19226875527171466
-0.1826141539235046
-0.03936788496595687
0.06658083361388434
0.17522963277970344
0.12306759684224415
0.13097758737367163
-0.0012410412901393772
-0.0923502934487593
-0.17102566877604766
-0.06511424898068051
0.0069599228108072056
0.04001821724951836
0.04092500672902559
0.023938822615256913
0.004829569192497495
-0.004386419070543869
0.0010066966856595069
0.017043179544450077
0.031922907720927915
0.02892329677722822
-0.009068716036259018
-0.09429896835637333
-0.029525173033212726
-0.005507552537624748
-0.001571820865723728
0.01076808983610583
0.062077105292888304
-0.021393413702287443
-0.023324047958872454
0.05889783632888303
0.012885976314641955
0.012747013854657487
0.02331249283682041
0.006570849922513277
-0.07083540184376315
-0.030672435621250813
-0.07851389873648004
-0.002857736993143584
0.021618456968935558
0.027486199074614054
0.04654625954039621
0.1026697845990357
0.007498171478677164
-0.03998155613768699
-0.05032201856493083
-0.03848917270888851
-0.018729792282757313
-0.0010466916418788868
0.010018873578552521
0.014523994120939762
0.015007042421280562
0.014135079668360749
0.012994969982810071
0.010570687424254292
0.004531684764094753
-0.006961272671717675
-0.02308512759128463
-0.038698492448877714
-0.04408203506713341
-0.02663688479589098
0.02556446683961114
0.11935487805641407
0.052867374605268254
0.014487933967901667
-0.01476300222679206
-0.05602051815969881
-0.12646199697054086
-0.03471941939030009
0.020337541146213278
0.04704888846180273
0.055880266570285005
0.054067645985273055
0.042232275306409175
0.014289691857920598
-0.03938949139269489
-0.12693633018970277
-0.050244159398810447
-0.0026211011696658146
0.03016970507400596
0.06608621016229353
0.12207392808154278
0.01058563707529001
-0.06130838346947612
-0.09040588033078895
-0.07501879478506589
-0.013728526654447572
0.09365856224397816
0.04338171801617119
0.024841108027295132
0.019362342872415127
0.0016465042097699556
-0.05618808196773502
0.021026107765397095
0.017303855047178726
-0.06993363612551952
-0.027697274855412776
-0.028491197860071253
-0.03491119495129617
-0.0072975481003808166
0.0870099338342704
0.0651044623258021
0.12325575342453285
0.03707059698563449
-0.032290458131267644
-0.12724756296997475
-0.08151917713699602
-0.11038468279353882
-0.00665590083941357
0.05650085674079805
0.11712515794392774
0.013366982314667318
-0.02687344844070276
0.007020903693966237
0.1059804329409265
0.04372316286944714
-0.016426387457158256
-0.11181003109689623
-0.07026868346660521
-0.1025344158782731
0.00040935152028115954
0.06425601226869267
0.12387077977314062
0.014060070899195113
-0.03849694903854908
-0.02025795795059763
0.06776135845004343
0.011758450121536987
-0.010651713061213377
-0.02479272984070853
-0.05319430990209452
-0.11136187822050876
-0.0063698423837968985
0.06133995357545147
0.09394927304191862
0.09219863235753287
0.05361044227502207
-0.025726093023769086
-0.14642290208519107
-0.1005023390119417
-0.06863423322384793
-0.02211886851833083
0.07027952113176389
0.23291706726476563
0.0750335350864224
-0.012748271968939332
-0.05559197101968159
-0.08645923088147064
-0.13623871277522315
-0.02572977850437158
0.0379486775095734
0.060025395513703964
0.05328463324868518
0.03227879476745152
0.008789460689124706
-0.010260267879315596
-0.022451759788514613
-0.02797916511702144
-0.027494030423118456
-0.020821393703456464
-0.007173338707138247
0.013205618285501326
0.036699969178860106
0.05448409940993765
0.052428506961203616
0.013536932311993297
-0.07722720871499107
-0.02696371200418511
-0.02971629264446085
-0.0642611346566258
-0.09615025089339908
0.11582053848509906
0.00990897808395749
0.010868267489580396
0.12146945216876842
0.1187162318644632
-0.043736444862560814
-0.02712250125283798
-0.09513052607220063
-0.1009958915113383
-0.07787030904313694
-0.035119999142180204
0.03883483867590384
0.16879395138418415
-0.016494406350293714
0.10863289823422967
0.16478560261001898
-0.02850451066348924
-0.24437760650152737
-0.039573034558768885
-0.14965123904151872
-0.2927299117064377
0.01677495066223251
0.44686554296165876
0.2255391984688316
0.12568851473783524
0.06424209435674703
-0.08242711441298238
-0.25060239384684224
0.24325278947106285
-0.669744137824629
-0.1960001418085708
0.1176241093372721
0.16314229647551887
-0.1610012108801521
0.8162737662165467
0.31499198345806645
-0.10094945296505362
-0.308220487726666
-0.39397384733550256
-0.22318695471602099
-0.01565455761593086
0.06016412830711916
0.07628451219098682
0.12278604031329314
0.08187789325547541
0.2061940426397371
0.10695688100540868
-0.04550317769283814
-0.11002162264741652
-0.1561468075875755
-0.2453353434852064
-0.01777899304009324
0.11178339454031605
0.1497037726259468
0.11415362618963303
0.025688990083703345
-0.09888069120916193
-0.048385869495792364
-0.01617779519294961
0.002002454664351726
0.009677384053972816
0.010301389228203983
0.007159227897751489
0.0029577715412795907
-0.000506716732233586
-0.002424600054702948
-0.0027946178852028317
-0.002100029330929568
-0.000971526882748731
6.433147747758037e-05
0.0007093620176591294
0.0009008468699505745
0.0007430052832533749
0.00041209664352166714
7.433487469917027e-05
-0.00016262766680234564
-0.00026195828965868356
-0.0002432150769154879
-0.00015557944626520023
-5.1655907617550614e-05
3.0184774708352158e-05
7.254364586051082e-05
7.671859237861307e-05
5.543464188944045e-05
2.4680437014388836e-05
-2.475248727385881e-06
-1.8885871176615838e-05
-2.3380332462802778e-05
-1.89334817469129e-05
-1.0215776966271148e-05
-1.514161865592861e-06
4.46386992568263e-06
6.854470503806316e-06
6.22970668816958e-06
3.891817764479652e-06
1.198978948189508e-06
-8.787560756256357e-07
-1.9194010612269533e-06
-1.9793396205476805e-06
-1.4000568580627915e-06
-5.969490177501902e-07
9.735225912323632e-08
5.063066742013802e-07
6.071887156697931e-07
4.816838451462643e-07
2.520708001486315e-07
2.8183648264349705e-08
-1.2226681527297472e-07
-1.7933676633344366e-07
-1.595253862218623e-07
-9.724589611541213e-08
-2.7515509893779295e-08
2.5185644397736166e-08
5.0678186497994736e-08
5.100556297919407e-08
3.530787864391717e-08
1.4365452766877463e-08
-3.365145014227222e-09
-1.353464449211348e-08
-1.5748835900941424e-08
-1.2238954247793172e-08
-6.201699632480677e-09
-4.4784720626336744e-10
3.3324885448480767e-09
4.685299172907852e-09
4.080279821022671e-09
2.425125869422061e-09
6.216299990703224e-10
-7.133518051252385e-10
-1.3356054002043549e-09
-1.3128537560082887e-09
-8.890768149970121e-10
-3.437000098281759e-10
1.0855542686872485e-10
3.6086464599262366e-10
4.0798372316153414e-10
3.1057811429946876e-10
1.5209966930668668e-10
4.395670191973369e-12
-9.043306604132882e-11
-1.222355672553617e-10
-1.0424209814753449e-10
-6.035160690707211e-11
-1.3761233465388416e-11
2.000940011399217e-11
3.513794692471223e-11
3.375345766978446e-11
2.2352248771001767e-11
8.16825886894744e-12
-3.3535767392346285e-12
-9.598163492853028e-12
-1.0556409651080928e-11
-7.870977586963373e-12
-3.717434788473286e-12
6.985863691042015e-14
2.4444377324399196e-12
3.1846836819882547e-12
2.6599961883403814e-12
1.4985471024424915e-12
2.9636353703977767e-13
-5.567229882023102e-13
-9.229082590462299e-13
-8.668263632638392e-13
-5.610474076529136e-13
-1.92625069364572e-13
1.0055073823141915e-13
2.5469549447575985e-13
2.728036666878422e-13
1.9918962757473326e-13
9.049411158652943e-14
-6.5047971042985725e-15
-6.585608879042211e-14
-8.287903471888033e-14
-6.781100797023385e-14
-3.713637080387641e-14
-6.151955641423753e-15
1.5366741599910216e-14
2.4186036351578673e-14
2.2219846722467404e-14
1.4042370518566305e-14
4.484716823134499e-15
-2.9659098881778525e-15
-6.760044517109283e-15
-7.05746735524732e-15
-5.0496410116219765e-15
-2.209285259994222e-15
2.721491836473282e-16
1.7527059983016844e-15
2.1382935453761514e-15
1.7108155833610632e-15
9.021780028685189e-16
1.0451965180107837e-16
-4.3746161076665695e-16
-6.486625575555753e-16
-5.847081549272896e-16
-3.66594893408106e-16
-1.1895258834630723e-16
7.015273664298594e-17
1.632516070886858e-16
1.6657288039262523e-16
1.120527280024259e-16
3.793482799871274e-17
-2.5471486169027155e-17
-6.232846757240985e-17
-7.08937146397995e-17
-5.888682260682971e-17
-3.760719356789684e-17
-1.709587213876043e-17
-3.466638970300694e-18
1.5580894121336917e-18
-4.2842392425235927e-19
-6.231776642064541e-18
-1.2640559140289674e-17
-1.7433999624039738e-17
-1.971063423706751e-17
-1.9684875729028848e-17
-1.8210335932914677e-17
-1.6278894919232635e-17
-1.4660627074079125e-17
-1.374513299827894e-17
-1.3559785420626353e-17
-1.389422593235064e-17
-1.445326949864548e-17
-1.498010416809716e-17
-1.5322278607489502e-17
-1.544091268736696e-17
-1.5381110995092676e-17
-1.5227053752085114e-17
-1.5061396321263565e-17
-1.4940055189952226e-17
-1.488459194270283e-17
-1.4888107035447592e-17
-1.4927843916778843e-17
-1.4978108761487935e-17
-1.5019361203635532e-17
-1.5042047591356368e-17
-1.5045912325145297e-17
-1.503666274633204e-17
-1.5021999486455778e-17
-1.5008483156878974e-17
-1.499990726896014e-17
-1.49971315694885e-17
-1.4998891407746928e-17
-1.5002972294471842e-17
-1.5007249274620327e-17
-1.5010316659799612e-17
-1.5011662198821235e-17
-1.5011498685788104e-17
-1.501043132448879e-17
-1.5009124893653726e-17
-1.5008074572522772e-17
-1.500751381871269e-17
-1.500743769040813e-17
-1.5007691942203898e-17
-1.5008075956145727e-17
-1.500842233033072e-17
-1.5008636880098896e-17
-1.500870111735166e-17
-1.5008650215211968e-17
-1.5008542332484715e-17
-1.5008432036532987e-17
-1.5008354606793674e-17
-1.50083221174489e-17
-1.5008328194744035e-17
-1.5008356779642854e-17
-1.50083906924126e-17
-1.5008417401254328e-17
-1.5008431223049536e-17
-1.5008432580341528e-17
-1.5008425627371254e-17
-1.500841558437222e-17
-1.5008406718424e-17
-1.5008401362926546e-17
-1.5008399899914645e-17
-1.500840135709161e-17
-1.5008404207743335e-17
-1.5008407049819212e-17
