0
-4.5172273173852715e-18
-4.5172273173852715e-18
-4.5172273173852715e-18
-4.5172273173852715e-18
-4.5172273173852715e-18
-4.5172273173852715e-18
-4.5172273173852715e-18
-4.5172273173852715e-18
-4.5172273173852715e-18
-4.517227317385271e-18
-4.517227317385271e-18
-4.517227317385271e-18
-4.5172273173852715e-18
-4.517227317385272e-18
-4.517227317385273e-18
-4.517227317385274e-18
-4.517227317385274e-18
-4.517227317385273e-18
-4.517227317385271e-18
-4.517227317385267e-18
-4.517227317385264e-18
-4.517227317385263e-18
-4.517227317385265e-18
-4.517227317385272e-18
-4.517227317385283e-18
-4.517227317385294e-18
-4.517227317385301e-18
-4.517227317385297e-18
-4.5172273173852784e-18
-4.517227317385245e-18
-4.517227317385207e-18
-4.517227317385178e-18
-4.517227317385178e-18
-4.5172273173852245e-18
-4.517227317385321e-18
-4.517227317385449e-18
-4.5172273173855635e-18
-4.517227317385602e-18
-4.517227317385499e-18
-4.5172273173852245e-18
-4.517227317384814e-18
-4.517227317384391e-18
-4.517227317384156e-18
-4.517227317384334e-18
-4.517227317385078e-18
-4.5172273173863485e-18
-4.517227317387827e-18
-4.517227317388902e-18
-4.517227317388814e-18
-4.517227317386928e-18
-4.5172273173831314e-18
-4.517227317378185e-18
-4.517227317373861e-18
-4.51722731737265e-18
-4.517227317376955e-18
-4.51722731738786e-18
-4.517227317403817e-18
-4.517227317419897e-18
-4.517227317428246e-18
-4.5172273174202626e-18
-4.5172273173904014e-18
-4.517227317340679e-18
-4.517227317284073e-18
-4.517227317244483e-18
-4.517227317251297e-18
-4.517227317328091e-18
-4.517227317477638e-18
-4.517227317668468e-18
-4.5172273178304964e-18
-4.517227317867156e-18
-4.517227317687613e-18
-4.5172273172548575e-18
-4.517227316635188e-18
-4.517227316025498e-18
-4.517227315732046e-18
-4.517227316083006e-18
-4.517227317279455e-18
-4.517227319222508e-18
-4.517227321387945e-18
-4.517227322837678e-18
-4.517227322441834e-18
-4.517227319324263e-18
-4.517227313441586e-18
-4.517227306087943e-18
-4.517227300033549e-18
-4.517227299016246e-18
-4.517227306461064e-18
-4.517227323610737e-18
-4.517227347646587e-18
-4.5172273707202536e-18
-4.5172273809021275e-18
-4.517227365691597e-18
-4.517227317846155e-18
-4.5172272420026024e-18
-4.517227159287072e-18
-4.517227106474597e-18
-4.5172271269488e-18
-4.517227253157475e-18
-4.51722748427422e-18
-4.5172277672923326e-18
-4.517227992860421e-18
-4.517228016468592e-18
-4.517227709258506e-18
-4.517227030611798e-18
-4.5172260993847696e-18
-4.517225227897851e-18
-4.517224880310901e-18
-4.517225532008967e-18
-4.517227441839204e-18
-4.51723039886091e-18
-4.517233553621565e-18
-4.517235466170675e-18
-4.5172344729506354e-18
-4.5172293768401454e-18
-4.517220307851779e-18
-4.517209429369023e-18
-4.517201052222447e-18
-4.517200756677633e-18
-4.517213379196675e-18
-4.517240197213744e-18
-4.517276233821818e-18
-4.5173090802708905e-18
-4.5173206975571126e-18
-4.517293038403179e-18
-4.517216936487698e-18
-4.517101778559725e-18
-4.5169816472526235e-18
-4.516912858789628e-18
-4.5169591143737255e-18
-4.5171643935295796e-18
-4.517519833108229e-18
-4.517937423684939e-18
-4.518247443277411e-18
-4.518234670971858e-18
-4.517718042773787e-18
-4.516659709022878e-18
-4.515266813443053e-18
-4.514031610643731e-18
-4.51365436115268e-18
-4.514818963178203e-18
-4.5178464177450254e-18
-4.5223259966879596e-18
-4.526892938774976e-18
-4.529347278883473e-18
-4.527253253214742e-18
-4.51900282381559e-18
-4.50508858711376e-18
-4.489080286605254e-18
-4.477651648870758e-18
-4.479093095861674e-18
-4.500164451963951e-18
-4.541875171437645e-18
-4.5956491676620805e-18
-4.6419875219682805e-18
-4.6537379605762734e-18
-4.605033752019125e-18
-4.48478747870053e-18
-4.310733492895149e-18
-4.137417149006512e-18
-4.050680092207168e-18
-4.143521247630503e-18
-4.474419539761587e-18
-5.018477920184358e-18
-5.631299093912399e-18
-6.0507855259593266e-18
-5.957989079383023e-18
-5.101296695800709e-18
-3.4595133238008906e-18
-1.3860489847396893e-18
3.478158171773372e-19
6.904863906494748e-19
-1.3344039013282225e-18
-6.103157437557881e-18
-1.2858267682664442e-17
-1.942363456060567e-17
-2.2453591098406606e-17
-1.8402857017960317e-17
-5.1578565792723124e-18
1.609066657341447e-17
3.9516540481324214e-17
5.4838863736935664e-17
4.980296051107883e-17
1.5074071260033954e-17
-4.946749546937183e-17
-1.293186657406978e-16
-1.9401347663094725e-16
-2.0287190984375602e-16
-1.1911920164993135e-16
6.972414362476989e-17
3.3159050105931495e-16
5.798121133681825e-16
6.84140953050784e-16
5.096420160615809e-16
-1.9528682780114074e-17
-8.484485343909665e-16
-1.7425942270298965e-15
-2.299173350777572e-15
-2.047959335524775e-15
-6.438869118094007e-16
1.890245853726203e-15
4.961493584403158e-15
7.368046854743518e-15
7.53810250378533e-15
4.08972142763101e-15
-3.3779233260142926e-15
-1.351754373125036e-14
-2.288304508769427e-14
-2.6409612682314365e-14
-1.8970190745573505e-14
2.1339364211875307e-15
3.4433683668169495e-14
6.850942396778394e-14
8.859884463050327e-14
7.66834147349095e-14
2.0058670924879478e-14
-7.93203389079903e-14
-1.972937046302937e-13
-2.8651471346281006e-13
-2.8632484547063913e-13
-1.44920826909571e-13
1.4997590045263904e-13
5.421267091376988e-13
8.947217218747095e-13
1.0110361949349202e-12
6.966036592500624e-13
-1.4363663976593715e-13
-1.4007938890849816e-12
-2.6973093003192553e-12
-3.417080832846826e-12
-2.8706317598881926e-12
-5.923085900950794e-13
3.3003223493433922e-12
7.825894910299986e-12
1.112150229509178e-11
1.0849098412770193e-11
5.071944597229598e-12
-6.557998544046865e-12
-2.1706420589944127e-11
-3.4950133618283256e-11
-3.865683912381935e-11
-2.5464229415285662e-11
7.935020156138464e-12
5.680970269082774e-11
1.0605589300831041e-10
1.3161979371148085e-10
1.0715710751525605e-10
1.568651632585427e-11
-1.36607048276752e-10
-3.0997404419197776e-10
-4.312076869291951e-10
-4.103019844415177e-10
-1.7505757141104537e-10
2.8300159213080175e-10
8.67464078642073e-10
1.363664387887123e-09
1.475835740655978e-09
9.257957135028075e-10
-3.9975382060934906e-10
-2.297687326781751e-09
-4.164897522012329e-09
-5.063355977955223e-09
-3.98799223956471e-09
-3.230978359453496e-10
5.628243450894696e-09
1.2260225369404516e-08
1.669954967487037e-08
1.548574892755022e-08
5.935757552134892e-09
-1.2082595760276104e-08
-3.4604833493157816e-08
-5.314577508375885e-08
-5.6257234434988576e-08
-3.345007718974745e-08
1.9079876797263577e-08
9.269692860720023e-08
1.6336084077974908e-07
1.9453303865805253e-07
1.4792907245162965e-07
1.3725410587781809e-09
-2.3092635721143667e-07
-4.842539627035462e-07
-6.459714666906445e-07
-5.832081545526847e-07
-1.9659932256427432e-07
5.112970336320571e-07
1.3781017523064023e-06
2.068872796174479e-06
2.1410100314800453e-06
1.1998886507241037e-06
-8.788160681461507e-07
-3.730968692510892e-06
-6.3999088778493126e-06
-7.4639914041042805e-06
-5.467307506404552e-06
3.8270413081180665e-07
9.439641303844315e-06
1.9101478557754414e-05
2.49577895948904e-05
2.1913635702360637e-05
6.3031343533696226e-06
-2.147445706668834e-05
-5.4791970456349224e-05
-8.044545098062759e-05
-8.134395537623359e-05
-4.2676195077224884e-05
3.9466921468055964e-05
0.00014983767986079128
0.0002504264146902963
0.00028598113498541394
0.00020122798390300993
-3.1902491650385836e-05
-0.00038465294326272837
-0.0007526275388754246
-0.0009633344878421655
-0.0008216577598993138
-0.00019285445793847694
0.0008960615135043301
0.002175872046220834
0.003127490739935953
0.0030931744264360503
0.0015208832187751026
-0.0017013010516219358
-0.00593332387134413
-0.009661155232931823
-0.01073640275159443
-0.007072803471769904
0.0022711200279586325
0.015918317646121196
0.029408001735173935
0.03540969884709006
0.025313067760641093
-0.00787968313419799
-0.06611627730650077
-0.14370361534814813
-0.027109519165343415
0.1020094049134377
0.06120802144494462
0.06120802144494452
0.10200940491343745
-0.02710951916534368
-0.14370361534814832
-0.06611627730650091
-0.007879683134198163
0.02531306776064091
0.0354096988470899
0.02940800173517379
0.015918317646121078
0.0022711200279585597
-0.0070728034717699294
-0.010736402751594409
-0.009661155232931765
-0.005933323871344068
-0.0017013010516218942
0.0015208832187751165
0.0030931744264360416
0.003127490739935929
0.0021758720462208064
0.0008960615135043097
-0.0001928544579384854
-0.0008216577598993116
-0.0009633344878421569
-0.000752627538875414
-0.00038465294326271905
-3.19024916503802e-05
0.00020122798390301134
0.00028598113498541226
0.00025042641469029316
0.00014983767986078813
3.946692146805382e-05
-4.2676195077225806e-05
-8.134395537623357e-05
-8.0445450980627e-05
-5.4791970456348465e-05
-2.147445706668766e-05
6.303134353370022e-06
2.19136357023607e-05
2.4957789594890185e-05
1.9101478557754082e-05
9.439641303844017e-06
3.8270413081163047e-07
-5.467307506404588e-06
-7.463991404104225e-06
-6.399908877849221e-06
-3.7309686925108056e-06
-8.788160681460973e-07
1.199888650724119e-06
2.141010031480031e-06
2.0688727961744505e-06
1.378101752306374e-06
5.112970336320367e-07
-1.9659932256428406e-07
-5.832081545526855e-07
-6.459714666906406e-07
-4.842539627035412e-07
-2.3092635721143232e-07
1.3725410587805632e-09
1.4792907245163008e-07
1.9453303865805163e-07
1.633608407797476e-07
9.26969286071988e-08
1.9079876797262624e-08
-3.345007718974792e-08
-5.625723443498864e-08
-5.3145775083758624e-08
-3.46048334931575e-08
-1.2082595760275812e-08
5.935757552135064e-09
1.5485748927550254e-08
1.6699549674870304e-08
1.2260225369404403e-08
5.62824345089459e-09
-3.230978359454174e-10
-3.987992239564738e-09
-5.06335597795522e-09
-4.164897522012311e-09
-2.297687326781731e-09
-3.997538206093375e-10
9.257957135028092e-10
1.4758357406559714e-09
1.3636643878871137e-09
8.674640786420651e-10
2.830015921307966e-10
-1.7505757141104723e-10
-4.103019844415168e-10
-4.3120768692919284e-10
-3.0997404419197507e-10
-1.3660704827674977e-10
1.568651632585541e-11
1.0715710751525613e-10
1.3161979371148036e-10
1.0605589300830984e-10
5.680970269082725e-11
7.935020156138128e-12
-2.5464229415285875e-11
-3.865683912381946e-11
-3.495013361828331e-11
-2.1706420589944172e-11
-6.557998544046917e-12
5.071944597229538e-12
1.084909841277013e-11
1.1121502295091724e-11
7.82589491029994e-12
3.3003223493433696e-12
-5.923085900950842e-13
-2.870631759888182e-12
-3.4170808328468097e-12
-2.697309300319244e-12
-1.4007938890849776e-12
-1.4363663976593796e-13
6.966036592500591e-13
1.0110361949349168e-12
8.947217218747073e-13
5.421267091376978e-13
1.4997590045263924e-13
-1.4492082690956994e-13
-2.8632484547063797e-13
-2.8651471346280905e-13
-1.9729370463029285e-13
-7.932033890798979e-14
2.005867092487958e-14
7.66834147349093e-14
8.859884463050298e-14
6.850942396778371e-14
3.443368366816946e-14
2.1339364211876316e-15
-1.897019074557337e-14
-2.6409612682314257e-14
-2.2883045087694218e-14
-1.3517543731250353e-14
-3.377923326014302e-15
4.089721427630996e-15
7.538102503785315e-15
7.36804685474351e-15
4.961493584403158e-15
1.890245853726203e-15
-6.438869118094022e-16
-2.047959335524778e-15
-2.299173350777576e-15
-1.742594227029902e-15
-8.484485343909713e-16
-1.9528682780117032e-17
5.096420160615798e-16
6.841409530507841e-16
5.79812113368183e-16
3.3159050105931554e-16
6.972414362477039e-17
-1.1911920164993118e-16
-2.0287190984375637e-16
-1.94013476630948e-16
-1.2931866574069875e-16
-4.9467495469372646e-17
1.5074071260033375e-17
4.980296051107863e-17
5.4838863736935985e-17
3.9516540481325164e-17
1.6090666573415937e-17
-5.1578565792706916e-18
-1.840285701795921e-17
-2.245359109840681e-17
-1.9423634560607815e-17
-1.2858267682668556e-17
-6.103157437563093e-18
-1.3344039013326468e-18
6.904863906484603e-19
3.4781581718221445e-19
-1.3860489847278857e-18
-3.4595133237839378e-18
-5.1012966957839585e-18
-5.9579890793748355e-18
-6.0507855259687e-18
-5.6312990939449074e-18
-5.018477920237415e-18
-4.474419539820981e-18
-4.143521247670648e-18
-4.050680092197108e-18
-4.1374171489220625e-18
-4.3107334927347485e-18
-4.4847874784991386e-18
-4.605033751852198e-18
-4.653737960546078e-18
-4.64198752216906e-18
-4.595649168128952e-18
-4.541875172094974e-18
-4.500164452598342e-18
-4.479093096147171e-18
-4.4776516484641565e-18
-4.4890802853052174e-18
-4.505088585042393e-18
-4.519002821545997e-18
-4.527253251750363e-18
-4.529347279413353e-18
-4.526892942195509e-18
-4.522326002991269e-18
-4.517846425497977e-18
-4.5148189694014175e-18
-4.513654361891333e-18
-4.514031602350394e-18
-4.515266794962387e-18
-4.516659683549455e-18
-4.5177180188025674e-18
-4.518234661188227e-18
-4.518247460737838e-18
-4.517937475597901e-18
-4.517519913887377e-18
-4.5171644801202866e-18
-4.516959167475701e-18
-4.51691283279534e-18
-4.516981509062614e-18
-4.517101531154709e-18
-4.517216638401661e-18
-4.517292807121591e-18
-4.517320685835182e-18
-4.517309421324632e-18
-4.517276964335585e-18
-4.5172411832315306e-18
-4.517214283093159e-18
-4.5172010853301855e-18
-4.5172003097756135e-18
-4.517207360015031e-18
-4.517217161228449e-18
-4.5172260783810506e-18
-4.517232560067147e-18
-4.517236685798129e-18
-4.517239122911472e-18
-4.517240097843261e-18
-4.517238887677876e-18
-4.517234097912843e-18
-4.517224673240943e-18
-4.517211257796026e-18
-4.517197262484967e-18
-4.517188909120435e-18
-4.517193701085807e-18
-4.517217268967745e-18
-4.5172593038132276e-18
-4.517310118113124e-18
-4.5173499160790765e-18
-4.517352693537447e-18
-4.5172955028383505e-18
-4.517171598973688e-18
-4.517003217757636e-18
-4.516847464635158e-18
-4.5167884139903075e-18
-4.5169113164263535e-18
-4.5172612497542135e-18
-4.5177975698149e-18
-4.518364175036281e-18
-4.5186994183888626e-18
-4.5185037927193005e-18
-4.517565563505545e-18
-4.515916066771923e-18
-4.513955355420786e-18
-4.512469061926973e-18
-4.512465026100591e-18
-4.514805587622876e-18
-4.519698154708596e-18
-4.526212845725129e-18
-4.532080633125021e-18
-4.5340342802923124e-18
-4.5288391049523956e-18
-4.514905986368401e-18
-4.494029648728615e-18
-4.472468276647541e-18
-4.460450097053823e-18
-4.469437055607105e-18
-4.507192246657859e-18
-4.571807188907216e-18
-4.647028677867068e-18
-4.7019425431954845e-18
-4.697699043754464e-18
-4.602052686274705e-18
-4.409086710127408e-18
-4.157410988743271e-18
-3.936979009494042e-18
-3.874558558849789e-18
-4.0926263764022266e-18
-4.6465186991661665e-18
-5.458190113346978e-18
-6.2772569312439735e-18
-6.7043604206449336e-18
-6.301508429798938e-18
-4.7855019741619105e-18
-2.257347677941295e-18
6.245153118602596e-19
2.64515518279492e-18
2.3088826990663934e-18
-1.5866058324147235e-18
-9.18742103639302e-18
-1.88984272615882e-17
-2.715868157888798e-17
-2.9055316743357687e-17
-1.9959994123821326e-17
2.0250163207233744e-18
3.354666977019779e-17
6.460587647520698e-17
7.962766737003589e-17
6.190041327530797e-17
1.1518716143369173e-18
-9.765084317239066e-17
-2.079037501960433e-16
-2.819182272824703e-16
-2.621846653363507e-16
-1.0401386053616326e-16
1.949979601477464e-16
5.692407405455864e-16
8.77947108050097e-16
9.309414984610957e-16
5.536841402326831e-16
-3.1763702415548704e-16
-1.5403887805969805e-15
-2.7159576908918614e-15
-3.2376153002122028e-15
-2.468728718063452e-15
-3.9147602217123686e-17
3.8177041863539974e-15
8.029530997548721e-15
1.0726705303614662e-14
9.70085853659205e-15
3.296590102044663e-15
-8.45176088627817e-15
-2.2856261255771826e-14
-3.435981864126702e-14
-3.5609470301794056e-14
-2.0037680119102245e-14
1.4445172362968855e-14
6.182186734502618e-14
1.0622828045499056e-13
1.240560675865057e-13
9.109230768955574e-14
-5.898837787485084e-15
-1.5628182031387255e-13
-3.1693540604585757e-13
-4.1464791754584663e-13
-3.6473187432597384e-13
-1.0609863539296413e-13
3.5493849244433785e-13
9.086533891334987e-13
1.3359581775933767e-12
1.35289682204107e-12
7.129324164092142e-13
-6.498356527986486e-13
-2.483347764149493e-12
-4.157249722042548e-12
-4.7539690491179864e-12
-3.3542012550637326e-12
5.11045247553683e-13
6.367945861758365e-12
1.248612958178515e-11
1.600209929758986e-11
1.3672714539394384e-11
3.2531142199833532e-12
-1.481754206986746e-11
-3.607461122512176e-11
-5.18917097967855e-11
-5.1316351972289215e-11
-2.5117394936674805e-11
2.8666562645768187e-11
9.954098255159466e-11
1.6249747584806535e-10
1.8191410998670023e-10
1.2295012532043148e-10
-3.083047816563005e-11
-2.5867628357387494e-10
-4.912904091633654e-10
-6.168039989325145e-10
-5.111971673861859e-10
-9.236545527235094e-11
6.150885640975303e-10
1.4300438182359145e-09
2.013272356596276e-09
1.942847016658143e-09
8.740737355527478e-10
-1.245808365335222e-09
-3.982178376435931e-09
-6.34433131422448e-09
-6.950947400341336e-09
-4.484107023498144e-09
1.624414715700986e-09
1.0477970233244518e-08
1.930666655665113e-08
2.374513004938991e-08
1.9057776726017425e-08
2.257713932154832e-09
-2.5406269146584682e-08
-5.660660683209642e-08
-7.801980635189414e-08
-7.341228919595996e-08
-2.995149443519009e-08
5.3495942253138436e-08
1.5901506939135168e-07
2.4741520573771524e-07
2.6519473875104277e-07
1.626011991842867e-07
-7.967368431200013e-08
-4.233077564363071e-07
-7.577838152291993e-07
-9.129502874669963e-07
-7.082614289004289e-07
-3.5720502495735746e-08
1.044787742144826e-06
2.2375657600580894e-06
3.019955365052705e-06
2.7681783435675565e-06
1.0060526786203213e-06
-2.2746667497600155e-06
-6.3386197296870255e-06
-9.63762820125937e-06
-1.01018822602337e-05
-5.857209278392273e-06
3.7377455378349358e-06
1.7059882455402334e-05
2.9707181946254113e-05
3.505513125565773e-05
2.6231404325065016e-05
-6.411658376925777e-07
-4.2795364085242674e-05
-8.83267267625448e-05
-0.0001167567554363648
-0.00010414850746093369
-3.2895875055023677e-05
9.5924981326436e-05
0.0002522418267637938
0.00037497559582622093
0.0003841428393048185
0.0002092987164724816
-0.00017021200425133872
-0.0006861778600806185
-0.0011635545115207867
-0.001344711441149213
-0.0009684322271629415
0.0001035067276932004
0.0017469850913233093
0.0034847466271146757
0.004517203075190985
0.003930374944753374
0.0010814538485781385
-0.003924897540238862
-0.009851952477868983
-0.014282256681045042
-0.014127734763209268
-0.0067802971002153345
0.008274274049182394
0.02787137944620074
0.04434923969093956
0.04624762679187638
0.02091726941698979
-0.041312051778673815
-0.1426922288417361
-0.07529953942601383
-0.021737869522622456
0.04019553376137016
0.13032704009003027
0.25946586269845806
0.02661858698731585
-0.17823084439074133
-0.16700999170452596
-0.14600278216988288
-0.11228472913603024
0.14350822693209705
0.2292946469948108
0.14279270184559184
0.0669425740750911
-0.027372478792703932
-0.17179849410735076
-0.18805132421091247
-0.0779171641233786
-0.020145821233820364
0.024207863025443314
0.09985599787420964
0.24315328969707045
0.07094586622309262
-0.023636304716404932
-0.06724528761711673
-0.09623732844523772
-0.14461466150035468
-0.03443582865218842
0.02830819075220671
0.05173213934630301
0.05164788485908086
0.04362438216108341
0.03644450434244191
0.028964878094301042
0.011069183922860971
-0.031898367723153694
-0.11288191180526129
-0.03727181563262318
0.0004789980766289396
0.01670122206318383
0.03510709985246844
0.08152868698146207
-0.0214535733493384
-0.05864394738131865
-0.02458144196690564
0.07579909105371739
0.027995917720168618
0.010277496039902316
-0.002477928667527677
-0.03394257465530078
-0.10164240851445759
-0.01382468584550081
0.031068973972980467
0.04224115482227971
0.03266300497064665
0.015007706922619707
-0.0012922621969997186
-0.011256276783435439
-0.013973882476314464
-0.011239442961403437
-0.005926066423928314
-0.0006625256796928974
0.002907553164491537
0.0042785856557516
0.003821800430091808
0.0023458476563449912
0.0006825750583484326
-0.0005818923260711816
-0.001200314866307329
-0.0012173450295263463
-0.0008486024615947758
-0.0003507481529887309
7.357665449422698e-05
0.0003190818363248753
0.0003749017907992038
0.00029330476023969426
0.0001502088622500162
1.2824592651128713e-05
-7.810405113403305e-05
-0.00011128373030143253
-9.75767831378653e-05
-5.847690066448942e-05
-1.5502234179856488e-05
1.6523556419323357e-05
3.163509606770163e-05
3.133215535506446e-05
2.1370327976015592e-05
8.403291436897282e-06
-2.421810883483732e-06
-8.516089153941057e-06
-9.716642128174173e-06
-7.446382912547902e-06
-3.6879307862007523e-06
-1.5982202980980406e-07
2.1223857466783056e-06
2.904613389011843e-06
2.493827010032923e-06
1.4562680031702774e-06
3.456628617015023e-07
-4.6484654735100776e-07
-8.32736352125824e-07
-8.0584618971687e-07
-5.375484613298186e-07
-2.0016483703891114e-07
7.57273429441936e-08
2.266813217949066e-07
2.5151077495955684e-07
1.8879389475151725e-07
9.023976710939308e-08
-2.583006887520347e-10
-5.743939415438004e-08
-7.570903032853532e-08
-6.366094207376896e-08
-3.618655294402156e-08
-7.518556158315454e-09
1.2965274017215043e-08
2.1883286730007057e-08
2.0702295519599335e-08
1.349953576925454e-08
4.7325726289329964e-09
-2.290361220740084e-09
-6.019851191835041e-09
-6.502501898163582e-09
-4.780248716095485e-09
-2.1999095312531884e-09
1.1875875465643906e-10
1.5488381340657968e-09
1.9707378210397776e-09
1.6231640835794634e-09
8.970969666817669e-10
1.579485471835468e-10
-3.589916964336074e-10
-5.741371282083244e-10
-5.312374723391638e-10
-3.3843987917112036e-10
-1.1091522466821701e-10
6.763463125703418e-11
1.5951985830065106e-10
1.6791686698330657e-10
1.2086923849920617e-10
5.341027840190504e-11
-5.928310032128104e-12
-4.162554684065362e-11
-5.123267559834276e-11
-4.133582720284014e-11
-2.2184135264659643e-11
-3.14852095200252e-12
9.877859981729814e-12
1.504000023679644e-11
1.3616422725825472e-11
8.469684347167426e-12
2.5720137370093428e-12
-1.9617685588096133e-12
-4.218797052806975e-12
-4.331376281851213e-12
-3.0518810979981954e-12
-1.2904460527751594e-12
2.267313208905501e-13
1.1162319675413376e-12
1.3310480783740612e-12
1.0516944928583127e-12
5.464273571014877e-13
5.550676347986651e-14
-2.732647905886201e-13
-3.9652235695060124e-13
-3.504643691923227e-13
-2.1050081223273698e-13
-5.372805661002768e-14
6.5162982125884e-14
1.2214331403069506e-13
1.1978802065613446e-13
7.699680569092592e-14
1.8177256536354907e-14
-3.4615742970263015e-14
-6.568590978692256e-14
-6.686663134180236e-14
-3.757664990361417e-14
1.501758393310746e-14
7.573959272790018e-14
1.2229703532516226e-13
1.2913569667992993e-13
7.539950700345297e-14
-4.3784553987744236e-14
-2.061663746362831e-13
-3.57217667208703e-13
-4.1743028486549304e-13
-3.0613067645693624e-13
2.005687361654038e-14
5.244508578223385e-13
1.0618823887494152e-12
1.38704694110764e-12
1.217006735426262e-12
3.4857198113072487e-13
-1.195386997822765e-12
-3.0460117339850717e-12
-4.469360558180933e-12
-4.5161244400798496e-12
-2.364387930372594e-12
2.201415546620783e-12
8.332337215564706e-12
1.3915402039569549e-11
1.5881219658336784e-11
1.11614811305617e-11
-1.7983096509193951e-12
-2.1394094083804422e-11
-4.182044410301036e-11
-5.3492973379935505e-11
-4.557826848624524e-11
-1.0607815658801775e-11
4.988828838574966e-11
1.2091232415700955e-10
1.7357307538733466e-10
1.712597357380308e-10
8.320369912179311e-11
-9.696710997465316e-11
-3.339274577689171e-10
-5.438613177200221e-10
-6.076223965852196e-10
-4.089448456003395e-10
1.0658688327905665e-10
8.688212189640364e-10
1.6453088440243176e-09
2.0616553684637465e-09
1.703640479256693e-09
2.982371598415485e-10
-2.0698825885822712e-09
-4.792456076124047e-09
-6.733484746269298e-09
-6.482760989072619e-09
-2.8916850602052085e-09
4.208838439878297e-09
1.3356532548899293e-08
2.123148595080884e-08
2.3214038025620914e-08
1.4907018133553867e-08
-5.568107409548082e-09
-3.5183564287193296e-08
-6.464964004547936e-08
-7.935820296193063e-08
-6.349488374207798e-08
-7.1325510809040956e-09
8.545927930012228e-08
1.8967836688860524e-07
2.6091244116092084e-07
2.4491051073303876e-07
9.892414143994825e-08
-1.8054888513645668e-07
-5.332588937152363e-07
-8.278928928858881e-07
-8.855406910564905e-07
-5.402382527466172e-07
2.7172780926621637e-07
1.4210716541124802e-06
2.5371999280049816e-06
3.0507846519604765e-06
2.3589868264226818e-06
1.0309578763983459e-07
-3.5129918975682763e-06
-7.496701740933606e-06
-1.0098167233526429e-05
-9.233040554827284e-06
-3.3155542248653204e-06
7.670592153121311e-06
2.1253231839293665e-05
3.2245677617199955e-05
3.372722623781007e-05
1.9447333412815245e-05
-1.2705020423768687e-05
-5.725827274589479e-05
-9.945360575776622e-05
-0.00011712777105544041
-8.733783037864213e-05
2.7846013932431627e-06
0.00014384380485838304
0.0002958872111607648
0.00039035801837574146
0.00034727751520298374
0.00010802911203505938
-0.00032335656304515874
-0.0008458264107433753
-0.001254788559236939
-0.0012828312273799626
-0.000695015478299994
0.0005765647739665312
0.002302514327820154
0.0038969099718409632
0.004499627240751877
0.0032419211443952337
-0.0003291645508060128
-0.0057845771533849505
-0.01151120300251294
-0.014819678853357434
-0.012650682602938687
-0.0028874035924669377
0.014004037794776972
0.033593401614476874
0.04714261661390825
0.042988151728996456
0.009854931744535883
-0.05853782442459483
-0.1591617513642535
-0.07776766045573985
0.008963930855686014
0.12714397633735436
0.09728147146597524
0.12714397633735455
0.0089639308556859
-0.07776766045574077
-0.15916175136425562
-0.05853782442459792
0.009854931744532782
0.042988151728994985
0.04714261661391021
0.03359340161448347
0.014004037794787734
-0.0028874035924548085
-0.012650682602930332
-0.01481967885335915
-0.011511203002529722
-0.005784577153417279
-0.0003291645508469748
0.00324192114436082
0.004499627240744782
0.0038969099718805496
0.0023025143279140105
0.0005765647740999063
-0.0006950154781698952
-0.001282831227319165
-0.0012547885593156346
-0.0008458264110037504
-0.00032335656346434686
0.00010802911157146298
0.0003472775148976746
0.0003903580184710581
0.0002958872118422696
0.00014384380613045896
2.7846029717720827e-06
-8.733782909371453e-05
-0.00011712777086776589
-9.94536073967138e-05
-5.725827646398852e-05
-1.2705025595463912e-05
1.9447328492510322e-05
3.3727224139627435e-05
3.224568101321006e-05
2.1253242244879753e-05
7.670608508793519e-06
-3.315536525869931e-06
-9.233029455194138e-06
-1.0098172033834127e-05
-7.496729304320309e-06
-3.5130418526845575e-06
1.0303506274396093e-07
2.3589390069834457e-06
3.0507807950076644e-06
2.537267451505899e-06
1.4212187126666748e-06
2.7192809431251825e-07
-5.400525510719717e-07
-8.854695546090897e-07
-8.280378762295463e-07
-5.336739890061146e-07
-1.8118630709582743e-07
9.82494808356809e-08
2.445094822250631e-07
2.6114150355376173e-07
1.907903582934093e-07
8.741866918210956e-08
-4.799529898825468e-09
-6.172111999560644e-08
-7.934245053162636e-08
-6.742006627732374e-08
-4.099203642509301e-08
-1.3315479125600726e-08
7.913397282193821e-09
2.085825391165017e-08
2.7366456682404376e-08
2.9887128536713437e-08
2.9022419817650722e-08
2.2783992017688276e-08
7.901951031267316e-09
-1.7282415595538676e-08
-4.9548581002136215e-08
-7.883147239921447e-08
-8.921625232955393e-08
-6.385153343082791e-08
6.679326749174948e-09
1.1489064620709158e-07
2.2998329525298536e-07
2.994323919951585e-07
2.6236773967855374e-07
7.49044962984087e-08
-2.582042332255685e-07
-6.575706405926684e-07
-9.649381253361814e-07
-9.75414013642559e-07
-5.114240820241761e-07
4.738667621875024e-07
1.7975498746240469e-06
3.003745692900076e-06
3.4298299102749342e-06
2.4129984567984593e-06
-3.831788726833839e-07
-4.6135088451702246e-06
-9.025649817699078e-06
-1.1550750482178936e-05
-9.849093263390365e-06
-2.30593553871103e-06
1.0751913658062216e-05
2.609021251764859e-05
3.747361685236149e-05
3.699664233502933e-05
1.8010235245445657e-05
-2.0872177688233128e-05
-7.203685634069833e-05
-0.00011739789330189667
-0.00013123195558205204
-8.842231920051665e-05
2.281084397854611e-05
0.00018736360584785953
0.00035508690754855297
0.00044515850562511526
0.0003681082818722138
6.488909825658314e-05
-0.0004463671523823204
-0.0010344875879200008
-0.0014542817285968642
-0.0014011683174253308
-0.0006267352015705998
0.0009063928562341007
0.002883956794228411
0.004591420272480601
0.00503477924834226
0.0032698053310416895
-0.0011014920455001333
-0.007415126096970744
-0.013654483188018788
-0.01666244365607403
-0.013052296490973106
-0.0007922607847947637
0.018891603281909957
0.03998548599232673
0.05140040579608131
0.0386405091961228
-0.012448583827605495
-0.11065425006834859
-0.05479417044873212
-0.031557970010911277
-0.017202247083149613
0.016856269790963083
0.096000157063231
0.03438346486792309
0.029558966102817268
0.06172941896861082
0.09832215833901023
-0.09692412173375417
-0.15267242312883386
-0.07995706995914749
-0.06700687396162185
-0.08119145632558986
0.12208932459009124
0.18634607103321116
0.14123536928145855
-0.005468294086480007
-0.06866162762197331
-0.07995618410236528
-0.07796422305546284
-0.09866332569600764
0.03118876951582709
0.09648864662257384
0.09290188204335187
0.024588157368250537
-0.09776527166189737
-0.0581566721906153
-0.03653290776008843
-0.011200249409219014
0.03731364083197616
0.12187998966018375
0.04565255600814605
0.0019145508790591674
-0.022466568691874488
-0.04086559868328032
-0.06014260760524225
-0.07586393674458375
-0.07158738398381276
-0.023097019075131692
0.0931928957654995
0.09016224512049763
0.16186469407486823
0.08088439956657799
0.0031027419362462073
-0.12085884238363787
-0.13101799279349957
-0.24540383004248756
-0.05430068562109735
0.07614429576075982
0.19212242077701586
0.13670395814786132
0.13665228067314944
-0.0037869009884596338
-0.10058112345348816
-0.1810721574055813
-0.07289424994458468
0.004866294659272223
0.04555474142817172
0.053732168122828314
0.04069712756775517
0.019229924644139095
-0.0004736905421492351
-0.01276669255998918
-0.016499400477700783
-0.013656443914387069
-0.0075555290339650175
-0.001311201852565604
0.0030651671267485064
0.0048874417048132505
0.004520967432787115
0.0028814257253084166
0.0009463757030072591
-0.0005728346005696003
-0.0013554379999344754
-0.0014280057169580957
-0.0010286905276852187
-0.00045530301263286974
4.944460773194764e-05
0.0003533802108748751
0.0004354879289671199
0.0003516385629730293
0.00018893110457815913
2.706499781040675e-05
-8.379400208736829e-05
-0.00012780982457328484
-0.00011580598931194368
-7.209940544545159e-05
-2.196208435950455e-05
1.661011365973132e-05
3.583680791455963e-05
3.6827471296144104e-05
2.5970570417158813e-05
1.100270939474669e-05
-1.8989589490785767e-06
-9.470200683340033e-06
-1.1307770023884576e-05
-8.94442190221479e-06
-4.659942294414051e-06
-4.958976891121118e-07
2.2934883075808187e-06
3.343273188228336e-06
2.9649954177600242e-06
1.8010836188744134e-06
5.030079156511126e-07
-4.751855657775546e-07
-9.459516184440187e-07
-9.488518568584626e-07
-6.548108765281999e-07
-2.6457310292237486e-07
6.484607853097464e-08
2.5306172187541343e-07
2.932419978251909e-07
2.2722532500002116e-07
1.1459939589756932e-07
7.601603356327074e-09
-6.247042345460718e-08
-8.732785070168715e-08
-7.582507054949095e-08
-4.490263524457158e-08
-1.1335030365170731e-08
1.3439045372493548e-08
2.4923928959053692e-08
2.4418947162843614e-08
1.6484978548930552e-08
6.324414419283565e-09
-2.0766814807066748e-09
-6.744818806175956e-09
-7.595324817622425e-09
-5.765058054793445e-09
-2.8092859587653586e-09
-6.304768085075515e-11
1.6942636765923746e-09
2.2778683578275303e-09
1.9368405525279904e-09
1.117103022698019e-09
2.500822316644086e-10
-3.764974409042032e-10
-6.55557257153481e-10
-6.277098507716404e-10
-4.1435386639202624e-10
-1.501492153783262e-10
6.384364861942216e-11
1.7933716481647846e-10
1.964925150817327e-10
1.4607601963291707e-10
6.86253380413689e-11
-1.779835027236547e-12
-4.5772922954345486e-11
-5.93358994401753e-11
-4.9415283891901156e-11
-2.7729188202614444e-11
-5.360891451294234e-12
1.046405814324531e-11
1.7214157519383007e-11
1.6117394940769833e-11
1.0397616789146512e-11
3.536249237433182e-12
-1.907897792183846e-12
-4.757691300747373e-12
-5.077298801461109e-12
-3.696297737163724e-12
-1.6698868191586992e-12
1.330136323964563e-13
1.232300255138023e-12
1.543597664028158e-12
1.2592333017019913e-12
6.866426495294985e-13
1.1022833007104758e-13
-2.8886476814524365e-13
-4.5131250103055057e-13
-4.133702079906975e-13
-2.6046474110547025e-13
-8.249741694839454e-14
5.583279123516319e-14
1.259481912527011e-13
1.310376758975102e-13
9.33957109510225e-14
4.045361952020811e-14
-5.660768644354229e-15
-3.307536830018952e-14
-4.0109318884231717e-14
-3.2054277988746854e-14
-1.6963612882339585e-14
-2.126887516138804e-15
7.922693066191e-15
1.180954733291231e-14
1.0584985850795597e-14
6.508082665357247e-15
1.8976740455695568e-15
-1.6126618216092596e-15
-3.3323272304605764e-15
-3.3827306863072414e-15
-2.361210273131663e-15
-9.799780177021665e-16
1.981546264352772e-16
8.804066293685627e-16
1.0361522361363288e-15
8.101913911274232e-16
4.1317038889243145e-16
3.171420703311225e-17
-2.2094579714968942e-16
-3.1332566605735223e-16
-2.754836895778069e-16
-1.6704538785768791e-16
-4.775186521839381e-17
4.121143091269366e-17
8.324260410839352e-17
8.24716166906112e-17
5.485845526407066e-17
1.8871693116425568e-17
-1.1191785907327413e-17
-2.813281868581027e-17
-3.1488126987439167e-17
-2.520095015711353e-17
-1.477310011546905e-17
-4.976953619166467e-18
1.3648026103354836e-18
3.5433116798695455e-18
2.408258387551266e-18
-4.694759499143743e-19
-3.552521636561054e-18
-5.80410394095003e-18
-6.827486641233788e-18
-6.754623125545913e-18
-6.010842794619855e-18
-5.074476938882037e-18
-4.308237372639216e-18
-3.888576239622393e-18
-3.8190697108330334e-18
-3.992793482151485e-18
-4.266247022062444e-18
-4.5175337062763676e-18
-4.676436999687042e-18
-4.727335660916851e-18
-4.694024108087767e-18
-4.617816873088355e-18
-4.5382312245783834e-18
-4.481324746444068e-18
-4.4565131423454444e-18
-4.45974609753385e-18
-4.4797158158904936e-18
-4.504048468913753e-18
-4.523554181611473e-18
-4.533923325988568e-18
-4.535278046954215e-18
-4.530506556175533e-18
-4.523346645413041e-18
-4.516908130441488e-18
-4.5129337628383755e-18
-4.51175786548851e-18
-4.5127193434491524e-18
-4.514733408470226e-18
-4.516785449596509e-18
-4.518221641197687e-18
-4.518820319930901e-18
-4.518702388555541e-18
-4.51816780415477e-18
-4.517536284210555e-18
-4.5170403533598714e-18
-4.516784858859871e-18
-4.516761167485861e-18
-4.516891534541774e-18
-4.5170787285613086e-18
-4.51724350726096e-18
-4.5173427205715356e-18
-4.5173695106979274e-18
-4.5173421218903576e-18
-4.517288992516913e-18
-4.517236143435391e-18
-4.517199951897332e-18
-4.5171855863214076e-18
-4.5171895109808034e-18
-4.5172037848990564e-18
-4.517220155615799e-18
-4.51723274678223e-18
-4.5172390181261396e-18
-4.517239333030158e-18
-4.517235779862017e-18
-4.5172308883686134e-18
