0
-1.7150903882191144e-05
-1.9606799339298655e-05
-2.146192273674668e-05
-2.1453328254943707e-05
-1.850349168086426e-05
-1.23589585799777e-05
-4.193566762155249e-06
3.1415983640996485e-06
5.549745409912676e-06
-1.015694077428574e-06
-1.8527690004895632e-05
-4.470971611308781e-05
-7.1691125592325e-05
-8.663895530632576e-05
-7.520198037440315e-05
-2.7702054582072677e-05
5.3383838955582075e-05
0.00014758891553446225
0.00021610086429753442
0.00021024045836434837
8.972373561655674e-05
-0.0001526135081355733
-0.0004680624586138503
-0.0007436158637081342
-0.0008203369357125322
-0.0005450176986072073
0.00015101855377738451
0.0011690683752591015
0.002194664544670836
0.002727556502064367
0.0022208366973595203
0.00032408685834319477
-0.002828843160051637
-0.006403408242928726
-0.00886781992598338
-0.00834367724181764
-0.003335835736256446
0.006290866830858901
0.018411923981879803
0.028282717889569348
0.029164108304635582
0.014130281950381213
-0.021237870106372972
-0.07618408732944536
-0.143494643784794
-0.010851695275297106
0.13490623196803825
0.10196223646760888
0.08881051694677593
0.08331501848753742
-0.13341014858321967
-0.17963443219231978
-0.06534623857802328
0.012308597207284173
0.06869306776304764
0.12708441431166462
0.012188371489250366
-0.055699088470058535
-0.06446801184304249
-0.011858741418475198
0.09441393003351226
0.03778331006216519
-0.004605884757501852
-0.0577589318602523
0.05635997277656703
-0.07613875921029079
-0.05764745304354109
-0.0784528834649463
0.08053025421458689
0.04221566414353121
0.026635900951679385
0.045270882905419245
0.09828905567470841
-0.02444978193443337
-0.13911697708153836
-0.062099153134768076
-0.0049786925570541535
0.027879148467584346
0.03872815452832564
0.03381175500463071
0.020287980892602094
0.004035754002234749
-0.011073822221658243
-0.022647091738319497
-0.02872172064339651
-0.027096704728948
-0.015685324186147327
0.006006114118923981
0.03484246526202106
0.0626056212754597
0.07647432446037282
0.06242827344950408
0.011541678877809875
-0.07240941022126138
-0.1672096170164173
-0.23248205524776716
-0.21965096284813282
-0.0928090422655541
0.142591967802318
0.41138394577585785
0.5526658391280566
0.5284161196883448
0.4640765167972909
-0.0816841510365742
-0.8339672320331736
-1.7332451531385038
-1.714064938422473
-0.7546827026208123
1.0027991583001554
2.4960929518132846
3.813179751556342
3.1580651446195893
-1.4489233062984452
-4.756675588835766
-4.039803305087797
-3.343754908204842
-1.310799978475311
3.797781878236379
7.160775044676571
3.67793990247978
0.01197221308734954
-2.3392796769567896
-3.574292222113453
-4.038173096658477
-1.3282563027789702
1.248507011941281
2.2438151783969764
1.909470766425328
0.7954650410062266
-0.218609072830395
-0.4170181657235721
-0.46346270149543817
-0.36160826455153217
-0.19118115264588864
-0.045354908848252204
0.014732732929382278
-0.018094627157340816
-0.09858549923191974
-0.15038320996798993
-0.10156847492455275
0.0728953756808617
0.31142027605748385
0.44049592611762983
0.37579160659351074
0.5581661005297386
0.22543969898586477
-0.2900927134007455
-0.6602009318689593
-1.486142148417046
-1.8834002299351098
-0.5478887695719658
0.29800481158756165
2.3138120070568937
6.667010124008455
-2.6528094568178817
-0.9883218545368214
2.751167910609843
-6.89037066295906
-7.533769396105624
7.29996449326479
2.7094705391745095
-2.5687843486558823
5.046101295299396
2.059666641559887
-3.7018454259648568
-1.7892192950983905
-0.5728105513718936
-0.2960160914141111
0.011474319664915036
0.5461754520444401
0.4836296088367946
0.2998392417642365
0.2899668638158066
0.10524279624167839
-0.08184768352372422
-0.18415187342619366
-0.18534159117958993
-0.11455517155470578
-0.019780659621052063
0.05360819986806521
0.07659083950674433
0.04280477755814315
-0.031164003409448457
-0.11044630083090179
-0.15134623297514596
-0.1157171067074581
0.010679288464753767
0.19913091365663646
0.36421715201147137
0.36259432431171823
0.20989860695245272
-0.08389293174450282
-0.46786972215020506
-0.8065693663942534
-0.6562595734352648
-0.47365410890607856
0.9421667070299221
1.5892456725707462
0.409652696917406
-0.13070126309096133
-0.017949155553254645
-1.2306594860939901
2.1310441390548323
-4.101907502714201
-1.1594210296230187
2.4161070891701524
1.063324002664484
-3.130261233527129
5.057330199460096
1.7270573948717296
-2.1120931362572843
-1.0297715921679464
-0.808589704223519
-1.2794875470428348
-0.2085108014583451
0.13790137859616475
0.5506348026994033
0.78268522442506
0.6361504595877449
0.2649849734359191
-0.08448884527191412
-0.2892962922718326
-0.3299609522079514
-0.2513621916078008
-0.12131448626657192
0.0008584166014550385
0.08047402773788163
0.10937124465323544
0.09836693973000647
0.06616378307808923
0.02941818256973318
-0.003628576208795185
-0.03598984146412719
-0.08314418417108184
-0.17544006095819933
-0.1642982893679397
-0.3332653529425233
-0.011897894838740389
0.4140324054643917
1.1073092157154558
1.4124173627955452
0.7254161842594987
-1.6064185001076372
-2.1847403009465927
-2.707946299472353
-2.413169828630131
1.570715245939438
6.393230799082442
2.457825097463902
-1.9013917132123301
3.2174871589622867
-1.727738634413843
-7.6576296124278835
-2.4335434430332916
3.4567036727684743
-0.7506781491784688
2.1249373386837824
3.786108341278945
1.687869509187918
-0.6135752654488292
-2.1821305034294394
-2.9364779263945175
-1.074737504591344
0.23911607238657318
1.0924567418910147
1.1563219304478882
0.7753850371526098
0.2635620033812335
-0.16199048914072806
-0.3988820897975961
-0.4394081689778258
-0.33212011134946107
-0.1445410690519071
0.060590395306706304
0.23269094921921912
0.3294421688703152
0.3106788908513436
0.13812491690413226
-0.21599612310435606
-0.5553148278975174
-0.4499223915489813
-0.24135293925635243
0.1330658309701501
0.5007771943197671
0.41277627518600357
0.11817318451208843
0.3696865874635835
0.8675329606752556
-0.061026416403983236
-0.16047112126436955
-0.7496877119743802
-1.8631044982361569
-3.865786889747701
-0.36398267970953235
3.2007038102288363
5.331572244262007
5.524350198086506
0.6657283926645864
-9.399053609182408
-6.005480649296367
-0.2531617847369855
-0.1499804197093894
3.8608977122203116
9.475458894111725
1.942297723491395
-5.375192913959764
-4.669451390115757
-2.0714030075780054
0.13527216586098467
1.3845074879826027
1.5728148557978072
1.12743226485939
0.4645344459569377
-0.11139123488093837
-0.446334773827717
-0.520825053068864
-0.40222005534501104
-0.1907629916211676
0.021991498373682375
0.17461415065017516
0.2391070468133239
0.21378578125058936
0.11427921318565305
-0.0318723215996706
-0.1865007090565556
-0.3020457053148059
-0.3290904969557303
-0.23536209319894372
-0.03667379934379323
0.16673087840423048
0.5621314804493339
1.2228196214289906
1.3502880577069925
0.767670946262105
-0.947508284341662
-2.7290665465586565
-4.545286459270976
-2.638329008079112
0.895397184213532
6.424507479145359
9.310723441164546
1.3818356535900398
-4.563060552501212
-4.041266881849608
-6.9067833862418535
-7.488972872480835
3.0150377504778234
9.480794894842363
4.649495415711746
2.16595236995147
-0.37574768190691166
-2.3254116137399254
-4.674687606826418
-2.896265469511114
-0.8631481000486402
1.2659840469901864
1.9863423033239123
1.6678770023888838
0.9425269494788032
0.1324269074943586
-0.44094792279785566
-0.6647260121862337
-0.5842112867098962
-0.32826216985537704
-0.03994003338696549
0.1705779948929697
0.2470381536429457
0.1873851113676433
0.031698747451708545
-0.1555650643960059
-0.30640612989961635
-0.3737503408034985
-0.1601893129335764
0.25215294112891967
0.6800096187912028
0.8403248590466978
0.9894109554150159
0.6065814023231384
-0.2876233397178623
-1.809692340889636
-3.337010138694358
-3.130246705755227
-1.4857744303372333
2.8001552060433905
10.338500543537219
5.555379841039097
-0.6822613541252477
-8.195542235581383
-6.077436098963406
-6.319821078533044
1.340837099333528
3.8923105938802474
8.702862879129782
2.7317230014362384
-2.137551105362248
-3.5537648493806744
-0.9660797870502521
-0.19471977570792676
-0.0022493022492410123
-0.9286292881256631
-0.614132599380049
0.39216515691105713
0.9572227752434767
0.8531218124071597
0.4464897961521991
0.018387573448591224
-0.2706754969772905
-0.3735058141339149
-0.32191263239374435
-0.1841702613990509
-0.029497366434600644
0.09261918980271813
0.15796550368604756
0.16282844898689025
0.11542362569072011
0.02865960313632622
-0.08387046423241433
-0.21035720044756578
-0.34582108533132905
-0.30394492996502087
-0.13696959329345898
0.24081691550596263
0.8374332417714555
1.3918075038716418
1.021664353928211
-0.0856546877741937
-1.356907205499246
-2.9323610677869243
-2.4352294319242085
-1.6552596113963598
0.2472319357568607
3.0667056476694254
10.709482803002237
3.7043270567361035
-2.6527353217735614
-9.742000891183082
-4.994338597662718
-6.597660184306713
0.7114114400342136
7.153053937912155
12.039549167159212
2.7590296640449496
-3.400545109950429
-4.72280900803646
-4.717269414057454
-2.7313144115757493
0.5184009365037082
2.017361480361635
2.145955223612748
1.4752473356491567
0.5604016922145
-0.20057939902476685
-0.6182603042443463
-0.6862364017204231
-0.5119504364400806
-0.23959660977544328
0.009032607216074087
0.1644926600423274
0.2121127232255235
0.17639074624761947
0.09890489411229668
0.01903246486124853
-0.037536970489845826
-0.06177801058113853
-0.05800249668939088
-0.037596744276288854
-0.012872133781251106
0.007079361227286702
0.01796319126659551
0.01975665232618297
0.01505012969759061
0.007239627201721793
-0.0007584455769663799
-0.007031922568809063
-0.01057480589791798
-0.010918298910854829
-0.007863727589197695
-0.0015472430317255502
0.007171710437182471
0.016249445591116518
0.02233048771751156
0.02134509338280236
0.009997747454219417
-0.01210259881060897
-0.04041614602560808
-0.06467947570560047
-0.07050896627011789
-0.044044553428057194
0.020834776662962753
0.11467373444270015
0.20723985857203384
0.2485761866824548
0.1785761056854754
-0.05603908663261865
-0.483314301442774
-1.0966494962147875
-0.8656579084189874
0.027624888671371098
1.536219547392097
2.9053303687677445
0.8734220164355012
0.13995118049769262
-2.110057645347523
-5.273264790622968
-3.4568032244738913
3.478786409848829
6.5655546716882425
-2.0693456997290998
2.6514659061428714
2.33225818425574
0.6103150067328459
-12.46184382606196
0.7478967620542144
1.3034995228895419
1.7997324594166304
-0.6511722823005209
7.755611611381359
2.3895277286346603
-1.7776362358941504
-4.570024254173463
-4.11964267685819
-1.4114839340287484
1.238270404926604
2.139320123553296
1.8615576600214776
1.0288520527936755
0.15028159592187518
-0.46747498216935574
-0.7234676324410324
-0.6674143937858016
-0.4228763518514487
-0.12017921092927296
0.14338907094889936
0.313938320940944
0.3709888086242941
0.3108195450525818
0.13484796312473685
-0.1518471026670383
-0.5348983877953716
-0.7872425625344933
-0.47845231509273406
0.19847471998556152
0.7898815766497377
1.3533902133941527
1.664581794556637
0.876913542002608
-0.7683510049286566
-2.8163191867486703
-4.51771793858729
-4.658691408105833
0.8665507507482249
9.978426127849282
6.947290640729833
3.8929101015834546
-0.8542276986296523
-11.363444567138684
-12.8588023019303
-1.6497071576387874
4.802514111920501
8.294228689951938
10.751764547560942
2.4232357131080198
-4.824234059565536
-6.679254717025481
-4.767755398680226
-1.0439119553166545
1.2498693392603764
2.2009771228606505
2.0711243466078053
1.2672806917517752
0.33530442065764554
-0.36516920278757503
-0.6915986463610454
-0.6766692360533342
-0.450796261952191
-0.16436973191648885
0.06718867862266299
0.18757791415156233
0.19705301174391668
0.13353658685358516
0.04855520263844994
-0.013727590682919052
-0.030223479120969367
-0.004709525304965046
0.032940486579399755
0.03200762273577505
-0.07148658995928124
-0.1470269532873586
-0.26378678849960546
-0.08802659221892853
0.3172905084555907
0.6950375769756737
0.8052349012898231
0.44944878833211305
-0.8964522467201584
-2.859498170127371
-4.384532418935925
0.7936101687835974
9.035482971940333
4.501638858437153
-0.042680062182664055
-5.485336605276456
-5.341079446543947
-7.369263295153023
0.8378782820455429
5.254356123539485
10.085925073264168
3.666155576871339
-2.8596365194550564
-5.604591154977471
-3.635346018650065
-1.2397120295549275
0.297008238361962
1.3453899549367316
1.6349756263700803
1.2765382280761524
0.5811949964421302
-0.06747893810320026
-0.46589146959130184
-0.5755529134702246
-0.4672734788604246
-0.2547884195170542
-0.04124602888595895
0.10991447217904544
0.17963453104161176
0.18103936171299614
0.14075351592264398
0.08283312871739403
0.020712693528210563
-0.041852526288015474
-0.10367394686969712
-0.15807015366833715
-0.18969985124403976
-0.18087580054730815
-0.12897270453984655
-0.07224609041001377
0.2835125703119869
0.5494078252355639
0.8629549538846056
0.7342032525670745
0.9310134610606818
-0.2097696214181512
-2.2785874929181618
-5.1476344919564045
-4.236033652045091
1.4914129874918869
9.634097254887308
6.290549890984724
4.164915781838528
-1.264770992488655
-12.155741530976998
-11.659411014470752
-0.054168113723588415
3.9989175591452235
8.297281695837391
10.41711237794905
0.9522761851359035
-5.964223382863363
-5.048312110143905
-4.095559250677684
-0.6380400466399928
1.4392348095889151
2.088618215618121
1.7495264788445792
0.9484860092722786
0.1308254501219489
-0.43149260432507514
-0.6515564752641613
-0.5820873280377362
-0.34648526511395916
-0.07545138875042821
0.13406720933979652
0.23421985417326016
0.22203128632715963
0.12557461741472659
-0.010806335496307759
-0.13781418974388385
-0.20922538644026295
-0.18958817693347346
-0.06447047522555088
0.14661049380238472
0.3784580422314658
0.5166230157439
0.408790155253748
-0.10683908020565598
-0.9627929024580483
-1.8286666669902372
-0.3006697510680054
1.0766167754143487
1.9668557368686865
2.0061697684387
1.00647459857873
-3.1917577557591716
-4.242361862382095
-0.04304919459235444
1.2434984392339665
1.6920989239056807
3.883354934844747
-0.7985518384644489
0.20791476376909923
-2.904811673465206
-2.017629799305712
-1.000713497590327
4.1210023137826886
-1.0489641828142686
0.8824152954699472
0.6724755701570048
-0.14812675136277376
-0.8336271044285103
-1.166698716637682
-0.4126016364008195
0.29509497911551885
0.5306328086755329
0.5243747443937901
0.30386337616785
0.047570764032469084
-0.1374217305912959
-0.21341418350424085
-0.1933452476801208
-0.11592261359297677
-0.023738816621387507
0.05055983165520192
0.08936945113687174
0.08892316071414005
0.055373432018699154
0.001112344131025899
-0.057432881175866694
-0.10114444353330197
-0.110466495058565
-0.07026342164520744
0.02237235767259133
0.14920002831188556
0.26471972558855583
0.29760693185782977
0.1629382141416369
-0.21564404836631407
-0.4803780082677013
-0.6217810250614726
-0.5810402999421196
-0.2788940667410518
0.5338369188402864
1.4225120649148844
1.6398806996537028
1.1490914171152966
0.10859443964580867
-2.2006681865382056
-5.456560157200602
-2.850480346534013
2.6402027154952625
7.8745871513431815
1.7417588069409333
-3.1753328937521634
0.393917475615973
0.7182577465102066
-7.776091942509572
-0.976670860316779
6.560681907331619
1.3713821153813177
-2.399745772455923
0.3348139945779458
0.7846145633049492
0.5057479797232719
-0.5454556509093672
-1.9493088814405914
-0.3726258796711883
0.4481247785471392
0.6828449688554354
0.5539313044741329
0.2754408335713058
0.007242946572933297
-0.16445068425799758
-0.22105058885270035
-0.18917937870999285
-0.11354360619162139
-0.03464551127011213
0.02354790623138786
0.05545405621132516
0.0680475873662205
0.07171784189365558
0.072115369387025
0.06609954709379208
0.04306720538051323
-0.009140592898746941
-0.09656624385369855
-0.2140565622880154
-0.34764580464902917
-0.28800306015846916
-0.05487660253758493
0.27348639670089003
0.9386236641820502
1.3046236084068723
0.8994901141853051
-0.3033234087279705
-2.18281706704224
-4.188639408393514
-2.3267024820664686
3.9631040532614286
7.461336032782836
1.2262318758117046
-5.0725177408884585
-1.3222147666681427
-2.885699755261916
-3.5482115883870433
2.6576340612892517
8.56226606970088
1.9749715488828297
-2.714385022300773
-4.416857258421463
-2.35543250452731
-0.09737216397118519
0.9171023170197506
1.3319857757919065
1.1543792841884652
0.613755977299229
0.05198881001275725
-0.3303844950268754
-0.4723528394313192
-0.41336518119877264
-0.24108477034873943
-0.04601060697059338
0.10620529404664981
0.18352631887719562
0.18284878745073485
0.11978326138314425
0.019484199966822838
-0.08846871905487641
-0.17208700835183005
-0.19952121176467696
-0.14617821514759488
-0.008396509193576332
0.17811661407971188
0.32091628542048856
0.2627800467597417
0.19058222301627978
0.06456154231495821
-0.33488356193264535
-0.5519976012826354
0.5952180514717617
0.4493261955201971
-1.4780387326691222
-1.130137020107587
-0.7652499986132398
0.9523991832017592
6.053367235303897
0.1917860449746508
-6.969206465282041
-0.12028976157579661
3.545361748363178
-4.440315114929168
1.17588802745046
7.356860832005521
0.19229796780815278
-5.830966502083254
-2.3173650855302332
0.13931791120768955
1.1926114362396174
1.2966526320403626
0.8040735001713945
0.2568892819956773
-0.09077146640106636
-0.30264406125819227
-0.34869997150175164
-0.26907851973297237
-0.13237203477527265
-0.002155991189395066
0.08176623988533804
0.10764421696155056
0.08598732532665025
0.03932384808738486
-0.00787306974295772
-0.036533316860878774
-0.037020466074674754
-0.010430175319776532
0.03202615352004469
0.07112445815971792
0.08322318010762335
0.045275086166254204
-0.05968188722115039
-0.23890399782138874
-0.29168960742181993
-0.219681710064121
-0.04617116854313876
0.3601907866411444
0.46748522207885845
0.28203011119884547
0.9815583583367222
1.1852471652187486
0.4530102108944213
-1.6116215473254363
-4.900791303057828
-5.640141280475446
0.03638861136636197
8.194733927259975
5.992968749823328
6.1114506799270565
3.0478458646815243
-6.307985408979231
-18.15188817010809
-5.531951829893695
4.574393295772333
6.596373938996879
7.042066667731379
8.959540187983405
-0.37180542816501017
-7.4084363568871066
-6.025360078605109
-2.4902679098346754
0.27908722330654234
1.6606302591143882
2.073064742011915
1.5951982221562553
0.7571763505139982
-0.02022249014030951
-0.5030554718024886
-0.6419248637967963
-0.5173920656666252
-0.26718671322550036
-0.02272972739936284
0.13024663375724307
0.16462657011510254
0.10421719284074481
0.00423760292407875
-0.07216010428579213
-0.0760764312108175
0.009351534767307955
0.15795205697616876
0.2990487388048243
0.32833253257572964
0.13208929919051648
-0.17863827990134767
-0.6335106364594618
-0.9825603788146121
-0.9047541539370071
0.14774967372452452
1.0784741423006323
1.8753295298856687
1.7760573507664532
0.9004937211426673
-1.0464594418383113
-3.6345660137607183
-4.394843377677262
-2.000420956776348
2.4278324514815983
8.928178184759142
3.9167761747957286
-2.272262062167593
-2.4774853469418003
-2.2826770943438235
-9.796859340435967
-1.7727709892549
6.870551714764613
6.762101381150919
1.7640956434297774
1.1830423056552481
-1.0033157165457127
-3.118579058569437
-4.259610068155312
-2.397936597724132
0.784793299381427
2.0870637466602324
2.0356627922573596
1.271267108284072
0.3559228108970388
-0.34263589608858547
-0.6765841294543301
-0.6737596266949143
-0.45953960677871397
-0.17948079760476854
0.05460704463807649
0.18747256781840696
0.2166153337343531
0.17290235646971264
0.09753532903542762
0.02424103813712837
-0.029147847644568514
-0.059975811106347685
-0.0741619597171478
-0.07819752397576438
-0.07392054771474446
-0.058855171609724526
-0.03291242209304243
-0.010066532782171657
0.1683996401844054
0.2239340242633643
0.2391646821239974
0.0682915654438476
-0.44066237223431237
-0.21630447233230457
0.06546098825061285
0.40354344958802363
0.08269135101177973
-0.927813666116383
-2.388545286647984
2.7837412811722535
4.886894603295455
-1.9813135754696265
-4.913168958265684
0.8270497976484809
-1.4098894286537815
-2.9321216081559713
4.566948968236379
6.881726016336801
0.6413544017688692
-3.013492373525093
-3.629253808831211
-3.1889289321416716
-0.51712984175416
1.3847681233500102
1.8641499846018448
1.4528430303769866
0.6870142039742358
-0.02673230485815213
-0.4699092569024477
-0.5998578428375645
-0.4925215903440835
-0.2719344871198969
-0.05170570199245959
0.09834244881558134
0.15921173107515763
0.150456820901996
0.10892967663501422
0.06812967276172889
0.04469309470130099
0.034838801391091356
0.020280837189999935
-0.019375548071656992
-0.09243144986656016
-0.184699571575012
-0.2585152837248309
-0.26532339826429285
-0.17271403470424915
-0.001596331803642878
0.5370532153596335
1.0218191868545994
0.934256724871605
0.7175961289956578
-0.32253738058129944
-1.4995689679036308
-2.8528681711610933
-3.5294693403954667
-0.6725697863409146
4.395219978439901
9.762743107049968
1.9995743305248428
-6.01591591449355
-4.315935097235848
-4.013770302880618
-6.366950918249771
3.775398558139769
10.756643176519432
4.2463816912104555
-0.9216826982465708
-3.511066042770472
-4.6617390145228095
-2.400497195180851
0.1854110586281409
1.2307322815773314
1.6273047093769835
1.266936949333329
0.6665425867489353
0.035036953212779456
-0.39000908263335593
-0.5387724945005556
-0.4612637882125089
-0.2637607385703139
-0.05326721527842136
0.09694901420431483
0.15858722257024663
0.14177841459508073
0.07935785269538399
0.009812829768514789
-0.036043750955332216
-0.042756590791507766
-0.012567652916561915
0.036394843538756355
0.07498890842363722
0.07027258168734217
-0.0057322614785986535
-0.16730325294119658
-0.20897694350610457
-0.10527266356357205
-0.01798655964967255
0.29011097336563324
0.4397145723997601
0.22369885793794503
-0.19571550815672367
-0.6825304020793524
-0.9221909411604066
-0.22467863179673359
0.8627042499893868
1.743208162085959
1.1793706942915567
-0.059505352485946
-1.3112834521909353
-2.3222711279471357
-2.579223147536677
1.2895730789896132
4.434941267119427
1.0570526835746674
-3.9287842881334782
-0.9992048168714681
0.6999616004339034
0.4973412372975729
0.9659627159864774
4.344571641720714
0.8370714786939367
-3.6073123635420217
-4.872306701809282
-0.8855891828956602
1.2645234690883342
1.6786532398722356
1.4941819457137009
0.8998313715821545
0.18331868017131214
-0.35028345062246535
-0.585913232677146
-0.5526550543725995
-0.35549471603175165
-0.11223331181746064
0.08789700194363494
0.19992896801711305
0.21872941030577228
0.16445503001689019
0.0674592321708165
-0.04147928459821629
-0.1344995635866376
-0.18635561551614016
-0.17498863717045712
-0.08664981911416533
0.07376505638650674
0.27053230081122326
0.4297735618868821
0.44451175809069704
0.19656422893722425
-0.4073206982007479
-0.9966933075041826
-0.914313527875302
-0.6263468068178867
0.02745184355863234
1.1555517889855036
2.1393424097732274
2.0006629364149715
1.0428606160436042
-2.033582611680208
-4.980722007085668
-3.6890099008441184
0.02332171772633264
5.897945338093133
4.052571200046873
4.024223203206557
-4.475542478970804
-3.079450978343169
-5.22411411719504
-1.2532599118746341
1.164238309650118
8.50799954503779
2.251753825497738
-2.016524776900567
-1.9418299427609238
-1.8371807185781153
-2.085081688044335
-0.5906226617158198
0.8635390356378762
1.358806066327903
1.1163766608183792
0.5608848343005289
0.01776509678198758
-0.33300073317194095
-0.44899245566305657
-0.3821807417823845
-0.22445288231386484
-0.06158526384050543
0.053543632034391206
0.1069323033536666
0.11368218611637325
0.10056878752497052
0.08898461119847818
0.08422286800038684
0.07413884362619308
0.03715216270419862
-0.04330436958983202
-0.16319330917145014
-0.28800699719253825
-0.35553028376082335
-0.2958418631929692
-0.06811540263649662
0.29349559326371966
0.8402048708306862
1.0951847833621509
0.8844447616886865
0.21881859487251532
-0.5857309145825176
-2.384602176108906
-3.728119954708308
-2.678785490550558
3.262292969708019
8.958225444134609
2.05570442187101
-5.0889956348590895
-0.9459044754715492
-2.260302212708217
-5.7126685618333655
0.72833348507409
7.738885980234541
2.5080876387117095
-0.7707900075359192
-2.7163363386139654
-1.2748369063955967
-0.18454347070997057
0.14880562281253185
-0.4757023346501873
-0.04447344270732588
0.4281645674432907
0.6261264094973787
0.450516231992244
0.15344459481821804
-0.09914504393170452
-0.2328558610141406
-0.2457591631238425
-0.17749454852622631
-0.07897279513036591
0.00895370303165298
0.06487346300358562
0.08585702502412637
0.08039856368763731
0.060024191079439154
0.03324715215646609
0.0036195483198387746
-0.028424674209740142
-0.06189464045158102
-0.09262802742029534
-0.1146730459836707
-0.12768405554104637
-0.15047673823012628
-0.03816592487273221
0.5029620672843166
0.7115768204058802
0.3876207670794031
-0.06639761039758758
-0.5839516024106618
-0.16895555516692684
-0.4495033659262119
-1.074113616439966
-2.166211968010881
-1.6380737313302631
3.857838654859454
6.391990674640596
0.5068645807685198
1.7072738687665812
-4.113753737584225
-7.998001605317471
-5.727778844796485
2.3694934865500104
4.189629074575189
7.882151124419264
4.510635220714034
-1.6992368931369775
-3.4590072507301555
-4.719937360425505
-2.115918558873273
-0.6898546482268778
1.2120109921971303
1.8745877104944153
1.6369236407540206
0.8874548589049881
0.10239723241077704
-0.43600550060725346
-0.6412235457485638
-0.569250837280732
-0.3444606814122164
-0.0935583594743523
0.09572453733827875
0.18786733639240868
0.1911156512635323
0.13809577415820484
0.06577336736498642
0.0016047216864754764
-0.04162351820901204
-0.06345197056090197
-0.0692804704360683
-0.06372993707322167
-0.04707762970252179
-0.01650407933580993
0.027908418190973765
0.07413133646953693
0.08889952373192885
0.01120211157345464
-0.049140662358870456
-0.20682013896941479
0.009626423473956772
0.07446024903358485
0.8885180154337713
1.0119438426652632
0.3045500376477057
-1.6372679522921365
-3.872194421204214
-4.766573600784017
2.2762118548016184
10.041396477656583
5.5728099522124195
1.1936697337153543
-5.876590198632813
-7.7828670625847325
-10.745533315479971
-1.2023614640296365
8.74336416556782
12.85941104083879
4.327478857701779
-1.2776863458359566
-4.867488392446538
-7.648223041068328
-3.651699141972853
0.4117065610061147
2.4644945261232207
2.7450156966917683
1.9572158252641343
0.807077487190652
-0.18438447443583594
-0.7557317923613307
-0.8802300282759388
-0.6822199909399255
-0.34027335748535126
-0.011076128348742817
0.21043802139890577
0.29610913257311644
0.266689424812544
0.16608618738455955
0.039756476830692764
-0.07673979446952063
-0.15927757334345674
-0.19140965212234426
-0.1613808988852768
-0.06452677024791306
0.08785887538453427
0.25630836125717243
0.36394195788515904
0.2971471817966892
0.12021254636221061
-0.4981021463567942
-1.0551057585625967
-0.7949162278348646
0.2907527878285751
1.443617374734785
2.318196091726541
1.3823735888388662
-2.0500752569178333
-5.373162324061431
-3.0737819757016682
1.4090279778606172
8.15224665874317
3.4076886172590783
-2.256970736118304
-0.6799661861939604
-1.7143867178450483
-8.615352492966643
-0.5106208035297345
7.5831249141076915
3.012936842777237
-1.5087544250922298
-1.0637943787045454
-1.4046490620270935
-0.5555731968543246
1.0333351293535564
3.563157969212023
0.795780680057234
-2.2030356637897457
-2.510327991678577
-2.8352853371603732
-3.1115315010468096
2.577781809349048
5.170249003570134
2.9737482437682097
0.4978084354757052
-1.1654296672277882
-3.0127195061288856
-2.3192189329193083
-0.43577146442704107
0.7365100485362785
0.970598677450731
0.8568022515943398
0.306969380244133
-0.1404713824951369
-0.19099742655348434
-0.23383292312876308
0.04420985748718333
0.2633578611275108
0.16823037431196833
-0.14575888551371552
-0.20086741540441444
-0.3062771879384936
-0.13521468987910293
0.08473537810604902
0.1671996485180891
0.15237385028996103
0.08886882576267342
0.018447443816409156
-0.03257258825638602
-0.05472917775265071
-0.05155522539364289
-0.03337607186595662
-0.011426405369620092
0.006067918458163644
0.015374151292536747
0.016743880970712333
0.0128069672318659
0.0067855319056478415
0.0011803579077263257
-0.002790119036881858
-0.005052377107456439
-0.006111674359371398
-0.006404159386324077
-0.005873524036949694
-0.003956963890656594
-8.097922734692779e-07
0.006045591578022514
0.012950841790181753
0.017898029063873187
0.01686517974956132
0.005795470964198457
-0.017674184483732477
-0.05253772013656814
-0.09364691166663724
0.06745625801005493
0.0400529326986446
0.03097083391594907
0.041970613737379085
0.06907522045025805
-0.09573371283774802
-0.061141426290605025
-0.03299481468766865
-0.012349771188366915
0.003967163051822018
0.020498433890112463
0.03922973960144731
0.05632304774345643
0.06112820792782252
0.038435669805111324
-0.02618821711414675
-0.1394943014017136
-0.09469018428923419
-0.06947157782738124
-0.029731931614061714
0.06137875008380477
0.23171051026660902
0.08987075919915606
0.020555376703599828
-0.012391058500412236
-0.05596614554310299
-0.1544261859460313
-0.13671927186958555
-0.00904861927891993
0.04525615098144379
0.059055540795957456
0.07070541716518958
0.11317089838755096
0.0063036915131952425
-0.04589070938983716
-0.05308415496035523
-0.03319657460207831
-0.005962805584570075
0.012620563978070952
0.01395899570331216
-0.001594230447032719
-0.025158836421966663
-0.041519747212250574
-0.032900862381813535
0.016101961490767366
0.11339328045435518
0.055599298098909615
0.027278206247753442
0.004008029195778104
-0.041179880476683285
-0.12999113101102533
-0.07242907451736486
-0.0641874103452898
0.11103577728547744
0.0751887583054603
0.04801699644291145
0.04071677466412559
0.053223866080694585
-0.124358948645783
-0.1072777016980808
0.08943673029239327
0.05577586026069335
-0.010139444822598265
-0.10082345984387377
-0.000142593361088866
-0.08625138506360484
0.06327636176274203
0.06505243498411721
0.12411689429307411
0.031031115327281214
-0.03672555798447012
-0.1092172933383815
-0.016177384706211606
0.020632682014540153
-0.007343379225731685
-0.09377982358282966
-0.01953854186020067
0.04206147265588475
0.11807463654630684
0.02885169491029914
-0.016853564179534975
-0.02330391538373781
-0.005710728588342922
