0
1.6260165837656436e-05
2.678299670648731e-05
2.6239881812371384e-05
8.475478536356917e-06
-2.7751330924354474e-05
-7.530342905461641e-05
-0.00011731979448136322
-0.00012988091235957057
-8.969988371470186e-05
1.403396473399212e-05
0.00016708539785019087
0.0003226505339305184
0.0004055176539509627
0.0003326424180007245
4.952517286030113e-05
-0.00042636431092336777
-0.0009724224126109752
-0.0013603015528565155
-0.0013070388759653662
-0.0005827341673453389
0.0008455082327619211
0.0026833341758927885
0.004264840375010149
0.004666091185152697
0.00301227308290523
-0.0010604292696272377
-0.006926383558194002
-0.01270304194670172
-0.015452513570562635
-0.01203380783571175
-0.0005815233480411196
0.017719478401056917
0.03720463709588401
0.047449344668964104
0.03479312721974211
-0.014224371999482387
-0.10826300335825363
-0.04697508963485308
-0.01900481866358431
-0.003394077185890443
0.025665647774190416
0.09207311626852949
0.011106379871357227
-0.015255255578633912
0.00026976342752738194
0.03241996147980689
0.048620026289318226
0.01635001001671806
-0.08870959465885739
-0.07567203969864965
-0.13484186590532676
-0.03935248454995403
0.04760419024140043
0.16177722600384237
0.1268230718809632
0.14756775255708335
0.01059401196017769
-0.10766803661707325
-0.228434453385765
-0.1589561921907765
-0.08712838665703578
0.014784062162350347
0.17831676369138533
0.2235506103616029
0.14690960334934228
0.1175822245475033
-0.11519613235960781
-0.20618279835675873
-0.1953177777776137
-0.0931693693179655
-0.07609689608330833
0.10716441927693719
0.11998090979896649
0.21884063320893862
0.03721989340065522
-0.022889207744130953
0.009986614983554546
-0.11421663728026381
-0.05364025847834432
-0.06066731573830356
0.02893359706763878
0.002024597670479416
0.06896896179518357
-0.13991884588479764
0.01873359209883952
-0.007754098913559634
0.021947833717591552
0.13437356395479833
0.13593693838963194
0.013035216845937857
-0.06195587840434528
-0.12054311767165148
-0.18750020015198143
-0.07394484328182792
0.023122386223458188
0.11485455743638481
0.21115526292921147
0.11246317525890273
0.006798226154302753
-0.12640913151003483
-0.1074702003798123
-0.14667947278310045
-0.03804236321474754
0.04084055136250376
0.12281145141579973
0.041631208007258516
0.022503260828344262
0.07576639376427781
-0.004626105896658128
-0.03793683917997659
-0.05029579372322409
-0.06754956749369828
-0.10978732018897072
0.010740903052620298
0.08806701622616835
0.11875072322409301
0.09849641913006746
0.02154273122533491
-0.1163349208531334
-0.11256429035296238
-0.15321487040688836
-0.012111234590057115
0.1451026212933695
0.15321674950135789
0.03920387796832023
0.016732530437453794
-0.11500912940037736
-0.16896177282398733
0.03346797813868414
0.06541774074033051
0.09652157438730224
0.09498368293297976
0.031326651165822596
-0.11575336355571357
-0.15285664271242116
-0.06749977155399876
-0.028640767253710588
0.006814828354990252
0.08292215049942984
0.23248877307889831
0.06800515368519229
-0.020940818382625608
-0.06282804931954607
-0.09391988988357175
-0.14653468366282413
-0.04013749334616121
0.021892804384483905
0.04932786055189905
0.05779753595129482
0.06032388940930336
0.06095214853195418
0.05278571521525897
0.021181450516356372
-0.04887635682402427
-0.1637796062163308
-0.11419092570228657
-0.0731410147629443
-0.0010055811105906694
0.1436235149375026
0.19077863634149178
0.14861911964533908
-0.00017981025743762463
-0.093614411531158
-0.17906448859172758
-0.10007055534516991
-0.08617104338299625
0.05096922027074637
0.1148763021854176
0.11748361062349838
0.07198216158735993
-0.011544926451875099
-0.1265261076453466
-0.0673923607937386
-0.026496852760674667
0.007405512176888438
0.048333997222076645
0.1106455086948626
0.006528952063440713
-0.055265681539780676
-0.06918577292949533
-0.03191451343920948
0.058168904669405636
0.0005010979290188636
-0.008920496647989438
0.02123217901616776
0.07721152917997341
-0.0588927636336089
-0.006871393507447857
0.014800824548466275
-0.007756600668293294
-0.08137710512677
-0.004941819690406041
0.02963898927271332
0.03480516348664016
0.02395167555333984
0.008394378757485608
-0.004436483371186682
-0.011308055521214918
-0.012303915382913302
-0.009358554963716839
-0.004825762943893491
-0.0005047556984013365
0.002723662007650291
0.004740071824884821
0.0057477266838077525
0.005833336538003514
0.004756375814898804
0.002077965554602904
-0.0024100911862298966
-0.008142549003555368
-0.013414215441430661
-0.015497343139788428
-0.011447243599429361
0.00043273236095479965
0.018819321463451964
0.03795604775444808
0.04741402519148348
0.03367201065492732
-0.016409564443394406
-0.11101215286387017
-0.049273597901901306
-0.01950894364657255
-0.00088653729928309
0.0316094509155541
0.10041208069242998
0.018986752348497896
-0.012144738291612202
-0.005834427593614566
0.014793484530478572
0.02207918554780865
-0.009137304252075198
-0.09471143695428196
-0.036250433020086986
-0.019494520986528572
-0.01679920093501696
0.006637364510920706
0.08431654392320363
0.04002795432517515
0.08187502808052192
0.0004950329229433455
-0.028026420137768095
-0.03552422799136216
-0.05353632300408676
-0.10604326403973173
-0.0052639251346922765
0.048549723547447986
0.06387480322155574
0.05303607762320154
0.027872394716554453
-0.002473018372302164
-0.03128508877795026
-0.05238289853628465
-0.058145835340099
-0.038970742697603276
0.015063997346359813
0.11071004346891243
0.0476992729999939
0.016412897611303736
-0.0016042851694850642
-0.03020978415259274
-0.09349333672009738
-0.010714278553520739
0.006977066476196223
-0.04280119622602037
0.044636015335170864
0.07813097370790174
0.06814296773939452
0.02595979167449233
-0.034851721971279295
-0.09563347298067226
-0.13053754828258726
-0.10750941144346575
0.006306513521452958
0.23555079520525676
0.18719014215825028
0.044935368908143425
-0.029228732810974847
-0.08616214183547306
-0.1763664122415501
-0.1372990491382158
0.014357879180477482
0.0832988160825139
0.08986717760454217
0.06105811542116009
0.021887776265742464
-0.010253713295576146
-0.02738838135092778
-0.029527542685141097
-0.021505688332440914
-0.009596485853693932
0.0010146426676110713
0.007461313729666202
0.009239860410739155
0.007496280216349159
0.004060068448731922
0.0006203118732854937
-0.0017510820060604186
-0.0027079589252611757
-0.002471850543912657
-0.0015546494865473234
-0.0004924327448783781
0.00033056107966508214
0.0007459481098566048
0.0007743351015441727
0.000549316108867582
0.0002341086213267115
-4.039489080878136e-05
-0.00020460062244963381
-0.00024918856051187255
-0.0002053888963850135
-0.00011965717141312291
-3.292740821538538e-05
3.0424801990130277e-05
6.36718303695256e-05
7.19776857774255e-05
6.42344436574702e-05
4.652641326664839e-05
1.9721348956727537e-05
-1.8321553729777955e-05
-6.73662019353806e-05
-0.00011909306724552681
-0.0001544831273308418
-0.00014711813315571831
-7.33679482867632e-05
7.250070511393867e-05
0.00026359902140698116
0.00043390264259556184
0.00048793413177081706
0.00033106005304210423
-8.284548782120721e-05
-0.0007000199009342119
-0.0013350139149820477
-0.001685538814270027
-0.0014136580423647818
-0.0002917143360551268
0.0016214683842138893
0.003843492921994052
0.005460793893269575
0.005329580618370435
0.002507449616959168
-0.0031631562234525385
-0.01051946589610074
-0.016884122862301
-0.01850987715609004
-0.011823816778358481
0.0046598084298006175
0.028278457187144085
0.05088134791149245
0.05919238196398864
0.037544384700663846
-0.027157632634823656
-0.13952611997434267
-0.09110267612446653
-0.05953291007630012
-0.012882586017331507
0.08157655744365501
0.2469425034190329
0.08865963265465941
-0.0075929267751742155
-0.07090555222755067
-0.13494219465305415
-0.22674239531736223
0.04097408339847604
0.07127839840124729
0.07848622041904466
0.08033285507537234
0.09051060695440404
-0.08566914573793172
-0.05158784411768694
-0.016487920165826165
0.008716067776864676
0.015351085844913329
-0.00029912831795829924
-0.03580964901031872
-0.0830610655287977
0.06970781040339458
0.034618826460909385
0.020574158143623414
0.030632201711328414
0.06133902681886954
-0.09574570002765008
-0.050989837530674396
-0.013388919031071806
0.011676598684310093
0.02299005857275952
0.022606088642140677
0.014323351981207625
0.0023322147285737365
-0.009533493404078029
-0.017985236659907363
-0.020288306346903758
-0.01454164671217196
-0.00047901785477331174
0.01934555452563395
0.03853425108160599
0.046761073489593095
0.03127954943113932
-0.019876027876336758
-0.11374587686286769
-0.048875877414553445
-0.014010477291890169
0.00999236512830892
0.045404152825605656
0.1116586820222742
0.020338837619891848
-0.02714379280399772
-0.038606524480705715
-0.027627544287570412
-0.009057692487562686
0.005015082253524852
0.007930396716624896
-0.0005623209709818857
-0.014946192783552815
-0.0260241851310209
-0.024227237669513655
-0.0037556359302426483
0.033201060319892575
0.07338318122625927
0.09200615524070392
0.05614047305943515
-0.06789360973076561
-0.10452048395499076
-0.05915929107484139
-0.11210398499600391
-0.018558517205199725
0.0845422170418869
0.06645738883667282
-0.011576477932546946
0.09084837609810238
-0.015187306290752428
0.049567586295118454
0.03645876974717803
0.07857352415629082
-0.0956680546461524
-0.14780781770334964
-0.11711118305184888
-0.014184410237195208
-0.022273021338839977
0.09444244665262616
0.1785937739731409
0.06763366307785545
-0.014161627532163485
-0.0579017262409397
-0.06716926952504575
-0.05241250954078454
-0.025439437428286648
0.004042193164716217
0.029286487302822274
0.045478226204550415
0.04821176699170368
0.032866811535479996
-0.004382481932765254
-0.06420767368973114
-0.1416687127334695
-0.02532379560899912
0.10097363059856669
0.05385802309416913
0.045503047728174276
0.08011317475780262
-0.04672405517851758
-0.14586953808432676
-0.03101736378765946
0.08455245714448863
-0.010297141116421443
0.0756849063728521
-0.06432410720424649
-0.0357121883515491
-0.04277855434729944
0.1110098195127849
0.02306702977884616
0.09262974120059288
-0.07698636495819258
-0.0752789410864706
-0.08213627582343608
-0.06805360072188112
0.0017739058346519598
0.1598612055466372
0.027441862004223768
0.007063379948529428
0.07936131565991089
0.005234043741935303
-0.06696130440174596
0.00912197535685051
-0.010805703643858003
-0.15215013913982225
-0.01607822316249494
0.020267451598871427
-0.002077910653385475
-0.033962104198149975
0.17014028390749436
0.04166488021154355
-0.008571453923368633
0.008640461432902589
0.06552815234630323
-0.07380151788659825
-0.04262912453131355
-0.06185460738160569
-0.13395484342801067
-0.042618304527270154
0.041573576271230976
0.15109340498782758
0.11051461345783083
0.12875776176133383
-0.002459655541563395
-0.10348156212843809
-0.19724925838706725
-0.09974923853130292
-0.014514521866959828
0.06674436517973983
0.15826274645315158
0.07227174625150594
0.012667999682053946
-0.027289098260929352
-0.06302336626234238
-0.11405322212966783
0.0009034265028207953
0.06736052675346511
0.07657709470719469
0.02588133182351902
-0.08118584766328697
-0.03456668881950513
-0.017758494747114925
-0.009073452370764675
0.01560328445806508
0.07906730426842902
-0.0008573459553578948
-0.013775342508774375
0.0426136591699152
-0.03649126715494508
-0.06106403999527089
-0.044381339470132994
-0.0020449463203936016
0.04790363863684037
0.08448450648236541
0.08425472983844616
0.023971796972910082
-0.11441433780655831
-0.1378480458541893
-0.03784793151018098
0.009881617766036029
0.04108930936611457
0.09504136184762961
0.0055312561045341825
-0.006499183897635866
0.0631133813996838
0.0019488106868751122
-0.015041885247880792
-0.018967874052691142
-0.03952152318401859
-0.09852766142798194
-0.006182294514747759
0.03917556201123883
0.04809518963339939
0.03525156929089975
0.014712263039460714
-0.003327811054456896
-0.013763361921979975
-0.01600147769534731
-0.012334575613775168
-0.006092504030991169
-0.00019205821375793225
0.0036317753434886137
0.0049350301424897335
0.004228162668458854
0.0024647569171479034
0.0005800169585955313
-0.000795110303978312
-0.0014195763848878567
-0.0013745722910433425
-0.0009200647647017162
-0.00034817434517499024
0.00011967869053994897
0.00037583525953292633
0.00041818272921177296
0.000312050151770293
0.00014506948219455631
-8.339908421508756e-06
-0.00010532352544045904
-0.0001363615821199531
-0.00011599451899794075
-6.94522862489035e-05
-2.0861031768073837e-05
1.3874723044975856e-05
2.901205909675051e-05
2.7028494608909134e-05
1.4830386137374398e-05
-2.7190022122209855e-08
-1.193455304313544e-05
-1.826219041609126e-05
-1.9086205673246033e-05
-1.6170917972196557e-05
-1.1798684892831067e-05
-7.867949497151918e-06
-5.442256209490146e-06
-4.725241040147807e-06
-5.312950476096496e-06
-6.542955581481204e-06
-7.795846263421331e-06
-8.672577315816335e-06
-9.037957452801863e-06
-8.965881290011453e-06
-8.639473425200614e-06
-8.25385117272364e-06
-7.950877909203937e-06
-7.794514411475378e-06
-7.779546617598346e-06
-7.858698503330145e-06
-7.972894773473165e-06
-8.074038834236343e-06
-8.135911762615348e-06
-8.154136977462654e-06
-8.139260656732978e-06
-8.10771321813557e-06
-8.074377246824166e-06
-8.048632831510334e-06
-8.03393233410397e-06
-8.029714636442144e-06
-8.033996101020345e-06
-8.045191988589372e-06
-8.062395843506069e-06
-8.084195129760629e-06
-8.10686293625321e-06
-8.123212379773683e-06
-8.123364023300125e-06
-8.098076833651435e-06
-8.044190709168685e-06
-7.970381563618177e-06
-7.900310606821764e-06
-7.869971847999495e-06
-7.91717060861882e-06
-8.06382491321021e-06
-8.295748357661506e-06
-8.548504148502705e-06
-8.709877353245485e-06
-8.64740530441227e-06
-8.261927076631588e-06
-7.555834886112459e-06
-6.690896867919206e-06
-6.001082939761855e-06
-5.927948144389665e-06
-6.865470287936638e-06
-8.938261163589103e-06
-1.1783789793884263e-05
-1.4448277479690896e-05
-1.551355134913729e-05
-1.3526396114801798e-05
-7.69438886820758e-06
1.3400310155372665e-06
1.0983325029588017e-05
1.6836518440483733e-05
1.3815165013473914e-05
-1.7428113186924963e-06
-2.9446787974391752e-05
-6.269363734946965e-05
-8.831594409323051e-05
-8.926105042930469e-05
-5.073984498725227e-05
3.117097358978704e-05
0.00014128840454603534
0.0002417154215063166
0.0002773329045241663
0.00019296636172626608
-3.9456217821198385e-05
-0.0003913398648311267
-0.0007586236893318686
-0.0009692585008997369
-0.0008285228941645663
-0.00020179829679738267
0.0008842655220769937
0.002161407114602756
0.0031119617257488997
0.003079642096093379
0.0015132009000259107
-0.0016999264332223573
-0.005922287415694947
-0.009644262466235334
-0.010722554138773375
-0.007074565360280521
0.0022415805480409793
0.01585546065282027
0.029319491261347728
0.035320289868860134
0.02526232654269624
-0.00784828123561445
-0.06597450464953952
-0.143461253956364
-0.026831603053255725
0.10220256787447024
0.061168053930467446
0.06081530347890338
0.10124871235181633
-0.028080918675939034
-0.14453333813086786
-0.0663171967873876
-0.006991686643803559
0.02748087478361675
0.03852912456375365
0.032493111138494624
0.017431135842151665
0.00056175395411785
-0.013014192364821075
-0.020405623005995754
-0.0204056230063087
-0.013014192365925208
0.000561753951872554
0.01743113583860721
0.032493111134123495
0.03852912455992397
0.02748087478245483
-0.006991686640082327
-0.06631719677761058
-0.14453333811617067
-0.028080918660596265
0.10124871236066081
0.06081530347310403
0.06116805390433581
0.10220256782903081
-0.026831603106855884
-0.14346125399646567
-0.06597450464854529
-0.00784828117014927
0.025262326677806573
0.035320290047468346
0.02931949142068758
0.015855460703183864
0.0022415804013522513
-0.007074565746110639
-0.010722554712410211
-0.009644263053991827
-0.005922287736110392
-0.00169992617321663
0.00151320194921288
0.0030796438754695107
0.003111963782230223
0.0021614085955582144
0.0008842653636113162
-0.00020180096816055018
-0.0008285282204921301
-0.0009692653983030817
-0.0007586296705445205
-0.00039134145041559444
-3.94500750132588e-05
0.00019298169143603633
0.0002773551987343785
0.00024173773563045917
0.00014129975333033735
3.1159399520635844e-05
-5.078194312950924e-05
-8.933064302088608e-05
-8.839469325042493e-05
-6.274804878783101e-05
-2.9435920365902528e-05
-1.6341304393762463e-06
1.4024873073395049e-05
1.710254498335622e-05
1.120725625546667e-05
1.3870760542716862e-06
-7.950084906013845e-06
-1.4134541803953957e-05
-1.6379013965197556e-05
-1.5293895783294974e-05
-1.218130921650742e-05
-8.43168631743293e-06
-5.179686284837182e-06
-3.209290945220418e-06
-2.9898454313391748e-06
-4.701249873217972e-06
-8.161276060532312e-06
-1.2670353533968418e-05
-1.6893633698693152e-05
-1.8957593240634803e-05
-1.690916894887187e-05
-9.553767992457067e-06
2.5233742315169667e-06
1.6173018666050702e-05
2.5688684545002892e-05
2.4084303743990878e-05
5.7640022472902236e-06
-2.9921526200927924e-05
-7.547562404027996e-05
-0.00011420584039023263
-0.00012309667567117068
-8.047098281327245e-05
2.2554524769428766e-05
0.0001702639096010965
0.0003158039211341153
0.0003861949337488916
0.0003031265285685754
1.84520487756359e-05
-0.0004445778860303836
-0.0009613308808666776
-0.0013083588037675008
-0.0012161319845911795
-0.0004750494590182076
0.0009266379704102343
0.0026825120761530363
0.004134904957669794
0.004396140041580248
0.002654084213040284
-0.0013815286001740564
-0.007030583159077668
-0.01241302918204062
-0.014682295492913553
-0.010884091039460702
0.0006015279020111432
0.018372276146381403
0.03669746915696213
0.045357758208757586
0.031225064963777104
-0.018375006570458555
-0.11130468826669705
-0.046795897164579756
-0.013878903404231095
0.006931486208677351
0.03898081776762346
0.10336861872052143
0.013467727338478971
-0.02818263198340984
-0.029875036877954626
-0.00802810272387173
0.01714705492206892
0.026499348071973357
0.006470687264910477
-0.04739196760854226
-0.128753865030276
-0.021485820755517807
0.09631762539339028
0.04607415766796973
0.04214413101092381
0.0872502736976182
-0.02856306907235759
-0.12529594709936687
-0.02791341990522109
0.039301802303507015
0.05744661009429335
0.0161618353162038
-0.08467637824696563
-0.03474008313534881
-0.014839403519767726
-0.0005593798875809682
0.032493651202084625
0.10310635804535423
0.020231286887175664
-0.018475472129154274
-0.02489405298337533
-0.01615185256130813
-0.00927143255717429
-0.016351469385487413
-0.0415430476096064
-0.08056620348873204
0.07711227522214119
0.04409555095082736
0.030294492798008752
0.03934565062657855
0.06756054965194697
-0.09424221649461832
-0.05683204150611709
-0.028253802841599143
-0.010910605103289549
-0.0011631391034283521
0.008539253997229592
0.025945522237102312
0.05517741825657855
0.09429718352309668
-0.06467743040859301
-0.033166956347937204
-0.021772075888734133
-0.03601407291103122
-0.07368558646724618
0.07526926911528257
0.02639929939103002
-0.0031737284992071576
0.0010670678362569412
0.04773366392552803
-0.06223333681902036
0.06439809994608114
0.014712867706145721
-0.027571436759470404
-0.07874343921805554
0.047978963824764284
-0.05560628662414025
0.007684407273914991
0.03938733602047843
0.043647373803430665
0.02566631709553162
-0.008968402541211248
-0.05400469526152948
-0.10193879672603755
0.055917207127436336
0.02812924144200512
0.0208907158883519
0.03587191437690672
0.06931721437932754
-0.08701462689181057
-0.04333475715754632
-0.008734386330276353
0.011281084772402234
0.0158796842636534
0.008565180801763465
-0.0041681996452416275
-0.014714226102810778
-0.01645284130616598
-0.005867748515260003
0.01559143937753236
0.04040140223940222
0.05529933529830732
0.04365697210506225
-0.010046000985201985
-0.11452333506307284
-0.06658782283954219
-0.04886992295875638
-0.03192841147768434
0.019184154860824972
0.135613644126253
0.13566129747884548
0.019234150080253806
-0.0321073286544506
-0.04951828913159019
-0.06778592364543654
-0.11604460677060778
-0.011308006360976503
0.04347974566712601
0.05697743444154012
0.04421577345105222
0.020900260188491695
-0.00084726469049167
-0.014416260560783859
-0.018444763187008887
-0.015160053601783482
-0.008290042907057529
-0.001315969777100404
0.0035352646732209436
0.005527121451705581
0.005092419229635284
0.0032623375950266305
0.001117270005981411
-0.000574656795923198
-0.0014843533798788277
-0.0016575028005241298
-0.0013482711963399552
-0.0008425953739212371
-0.00033666168763699745
0.00010140759936349205
0.0004941083397894376
0.0008739481532920261
0.001203890690016746
0.001340901667723873
0.0010698324739155283
0.00020954198134381783
-0.0012385289601954267
-0.002959523701990985
-0.004289950589174262
-0.004347728867592093
-0.0023531748029213375
0.0019126000559516654
0.007662587125325353
0.012902176406526343
0.014714810529883824
0.010184122360956229
-0.002116269112360395
-0.02043680603040374
-0.038625989717368754
-0.04613442251466365
-0.02981056901969084
0.022546615625564172
0.11777384115893726
0.05371085718842495
0.018104189309723736
-0.009008163045373026
-0.049934824727314975
-0.12285510334670335
-0.0366888532787841
0.010683312341821719
0.030178470037621034
0.036183190636121305
0.040206977327679104
0.04584431061311925
0.04684824170168652
0.02911886561362136
-0.023810473505291325
-0.12343036852073465
-0.06959160465347498
-0.04716945820034893
-0.027763254120029827
0.02361961281022244
0.138841585066298
0.13712054627932468
0.019119988188274994
-0.03318102854808455
-0.05086379876496096
-0.06888314231955657
-0.11664185308480053
-0.01140228567087648
0.04373271291830957
0.05736977103496405
0.04457150010232869
0.021119075115296797
-0.0007853348927192364
-0.014472678246540126
-0.018554793181219362
-0.015262383653368893
-0.008346140092216346
-0.0013171464704718357
0.003571332927637011
0.005567031437732499
0.005101254527237379
0.003218187698691279
0.001022832118668396
-0.000686888428823667
-0.0015567945278718502
-0.001624292281868943
-0.0011630949499332906
-0.0005111861464889695
5.812998412002855e-05
0.0003976791129574546
0.000485980998850827
0.00038778439203781726
0.00020220924624018657
1.9216711604338674e-05
-0.00010507828789212694
-0.00015347395847773818
-0.0001387538327457518
-8.868781128244292e-05
-3.1868748132363704e-05
1.1505805230436275e-05
3.2848399238131386e-05
3.359543580769198e-05
2.107778089088381e-05
4.06993948870328e-06
-1.0476214055312803e-05
-1.892964310573375e-05
-2.0892460318352747e-05
-1.8136203102818686e-05
-1.3252383562380313e-05
-8.543239943362608e-06
-5.410535327426986e-06
-4.250120859586477e-06
-4.699213139697659e-06
-6.029295902869709e-06
-7.508004980684862e-06
-8.627904485166224e-06
-9.179383859590201e-06
-9.202538428932197e-06
-8.878706400163704e-06
-8.41965377992552e-06
-7.99208461366585e-06
-7.689583999507342e-06
-7.542970895384747e-06
-7.548555772112613e-06
-7.69285339320157e-06
-7.959700735763936e-06
-8.317642307810145e-06
-8.697527944318193e-06
-8.978407273353691e-06
-9.000690443257851e-06
-8.617377724908239e-06
-7.777581707963522e-06
-6.615530813369404e-06
-5.500230891300789e-06
-4.995784034847171e-06
-5.699128655683461e-06
-7.964485926027103e-06
-1.1585761867469789e-05
-1.557032166499981e-05
-1.8169613953050395e-05
-1.7301073036152927e-05
-1.1380460423876135e-05
-3.923718931048045e-07
1.319081209590644e-05
2.4182701012577434e-05
2.566313957323364e-05
1.1382144201824417e-05
-2.0770892268646182e-05
-6.532421771776659e-05
-0.00010751905479754394
-0.0001251923904325159
-9.540165359239649e-05
-5.278868578066261e-06
0.0001357799134087853
0.00028782201130099765
0.00038229086169142446
0.0003392084025166801
9.995902083060036e-05
-0.00033142562828286296
-0.0008538918252608921
-0.0012628480092812934
-0.001290884018537128
-0.0007030638026166858
0.0005685152548345143
0.0022944552652091935
0.003888832885587468
0.004491527619056825
0.0032338029662566563
-0.0003372858521509994
-0.00579267565027333
-0.01151924895989605
-0.014827651172247042
-0.01265858422976647
-0.002895274022472374
0.013996120768347598
0.033585338009329786
0.047134320652533195
0.04297960235597177
0.009846220569345875
-0.0585464728805062
-0.159170013169731
-0.07777521420870774
0.008957244167470162
0.12713798071615193
0.09727554818892442
0.12713711190319643
0.008954987315296791
-0.07777945693042261
-0.15917621777634383
-0.05855335576564552
0.009841396896380297
0.04298046783144378
0.047143991915568444
0.03360444199166877
0.014020937668273085
-0.0028735463411310746
-0.01265243768937588
-0.014849217785746383
-0.01157406960298355
-0.005873108548584162
-0.00041860202128592903
0.0031911535104570247
0.004531019023008401
0.0040387032584825065
0.0025449347745377386
0.0008545715660860291
-0.0005017565447439018
-0.0013227417019466246
-0.0016475391259959389
-0.0016066771776731704
-0.0012950348218396066
-0.000722025556343769
0.00014610572794920363
0.001278352313219458
0.0024640884034785944
0.0032640958642927566
0.0030889961307843
0.0014264752001080887
-0.0018261588502373734
-0.006041715426991558
-0.009728830298924155
-0.010760702779290802
-0.007065073590085468
0.0022947362719434694
0.01594399954252387
0.029427557453461064
0.03542022470153249
0.025314421102143013
-0.0078876564601115
-0.06613509912589129
-0.14373528912144876
-0.02715369195091043
0.10195886174522328
0.06116493608031145
0.06119227032849393
0.10204053790777388
-0.027022661190655276
-0.14357415404920265
-0.06598612426420512
-0.007815886919474305
0.025236734294053115
0.03514532333676537
0.028972352895679076
0.015422304873750478
0.001919897061376166
-0.007026178657859283
-0.010087830292721442
-0.0083843942442362
-0.004295902708042857
-0.00030264376637760955
0.0018532109443102826
0.0015804797453689977
-0.0005456702853908018
-0.003083037699898783
-0.004248775921408762
-0.0025867239797224945
0.002336843117254113
0.009379680377301431
0.01563972766627139
0.01686477001674322
0.008557274577464564
-0.012382823721790318
-0.04597022078093382
-0.08814421624035586
0.06884953328651315
0.034557769893383966
0.017525534663895673
0.0227349373234085
0.0502576898538829
-0.10456155965027525
-0.04983615008773882
0.004337871011290279
0.046874991375401645
0.06625856600926186
0.05140681968319845
-0.006398110035055852
-0.11054940053710846
-0.056227952612598255
-0.02927371662824348
-0.00808677893027075
0.03142314169341602
0.10922778321265403
0.03516500020535613
0.005715743345258323
0.004837846637461147
0.008746241630734395
-0.006698752151243606
-0.058088352609176316
-0.1484189820395221
-0.06504833655585006
0.01715361086960842
0.12800746582087646
0.09209257365927823
0.12032638227442928
0.0062476253791338395
-0.071712270233563
-0.14312304288652195
-0.03655690550613937
0.028048735512620746
0.043556630811216704
0.015914497876760355
-0.03866539794678493
-0.09858580182514616
0.05706174979954111
0.042158685250059724
0.058375064825162956
0.09296824882020467
0.1210925288184377
-0.08707575547551127
-0.15595197131388688
-0.09422887933563172
-0.08866647301327525
-0.1049764667452429
0.10370420638752204
0.18318767522303653
0.16410132003885924
0.052384767178254646
0.027905567407021402
-0.14850131784251683
-0.12251075532405431
-0.13310581418859208
-0.00328286874537165
0.06279057206028901
0.07641341606683344
0.05724515530870673
0.025679702950829105
-0.0027541666605493628
-0.01984380919731697
-0.024247726084165706
-0.01924210126191862
-0.009941417071270818
-0.000994337410123543
0.0047383804447594866
0.00648860472471781
0.0051406413491278885
0.002428699779210596
0.00011129736814226152
-0.0006562650437456458
0.0003487477049514218
0.0024020067304835542
0.004106564757925706
0.003905305239124074
0.0007433242482111175
-0.005271760266706058
-0.01243979653682216
-0.017540305281402838
-0.016629987204203125
-0.006601267751502084
0.012784835065170292
0.03705549517278373
0.05630891308105243
0.05652565038695172
0.023309517440527828
-0.052515657728836554
-0.169211670939647
-0.11091411679102244
-0.049243427040254695
0.0495636818251195
0.2138640955368862
0.2562409046517483
-0.03186186862919295
-0.07778893407816305
-0.11837625468159507
-0.18766761993354614
-0.10674658619974593
0.12057011511790199
0.10537537453494945
0.0667841272540587
0.024100697436409742
-0.008887877073871642
-0.026140644118211372
-0.02847302120963361
-0.02087178915029739
-0.009477836322167492
0.0007059054563369656
0.0069283478582147185
0.008704559371487815
0.0071240404562687735
0.003924134500165624
0.0007022598024263775
-0.0015376575804244644
-0.0024834571978480423
-0.0023545960303412196
-0.0016265264299361985
-0.0007689507246443465
-7.968304833501182e-05
0.0003598331459977423
0.0006268407955837479
0.0008440762109890626
0.001066162285781742
0.001213928319440204
0.0010871079413929492
0.0004600559430168586
-0.0007653908566016773
-0.0024057197963196068
-0.003916467158834706
-0.00446318055181131
-0.0031846699219005652
0.00037844533342242545
0.0058105192079206044
0.011512122160464709
0.014803345229938977
0.012628344145867896
0.002868403874313233
-0.014015592613022267
-0.03359939110162342
-0.04714925806537849
-0.04300264175437529
-0.009881408428277245
0.058501716437505846
0.1591262971061418
0.07774930074269061
-0.008948114773299522
-0.12708478390682842
-0.09718669463833658
-0.12704412649335434
-0.00890999601979347
0.077717790539617
0.15896799895514455
0.058208055576903714
-0.010241019446015751
-0.043276721465020825
-0.04713857454765552
-0.03313265808811332
-0.013052386745253776
0.004142049728455663
0.013761977504348365
0.015152740974108288
0.010445833885366356
0.0030288703075037593
-0.003747241775828829
-0.0074081969048938765
-0.006774229308713954
-0.002094392167800311
0.004999234477947093
0.011729238338839652
0.014716911978800094
0.010949708118163218
-0.0008521405051007801
-0.01875347071573033
-0.0365644633913837
-0.04393170269233465
-0.028076077093851768
0.022853232799396304
0.11564404158245659
0.04863678081326666
0.010706050282813084
-0.01657074207309956
-0.05410787660324329
-0.11964119268067148
-0.023393454823076306
0.03331874952519367
0.05628969084476878
0.05463546023477354
0.03695825499135658
0.009136270883370426
-0.025617571985617964
-0.0649849113188115
-0.10544055628318062
0.05871306011339932
0.03443439175896088
0.02757244568097229
0.040339302812131425
0.07001601169325443
-0.09038171670431713
-0.049750670637443074
-0.015961956851569568
0.006350450715800625
0.016482233158863206
0.01688465469031696
0.011580926132932592
0.004554301983255979
-0.001344460229363282
-0.004778911330669828
-0.005708252289173552
-0.004842538253635075
-0.0030671403964469377
-0.0010509239846683558
0.0008740283233496658
0.0025960758546370896
0.003992058082466229
0.004734371280267748
0.004270206592491116
0.0020357307690164264
-0.0021361999396153067
-0.00756889037852641
-0.01249387488742231
-0.01425390430229317
-0.010112915894548215
0.0013858300247773549
0.018868793527736277
0.03702470847280374
0.04669719394183826
0.036743934401827
-0.002350358992943311
-0.07400759902747997
-0.1720191383829069
-0.0800579680759219
0.024392192998134787
0.162234977209539
0.14389993335865675
0.16348535564983283
-0.0008056058811229695
-0.1793152470688075
-0.19934333575769142
-0.07416107086464277
0.0027516368843306708
0.056091989379615355
0.12082829832883651
0.031384579809997384
0.01181842954780194
0.06989589365273009
-0.003713651971565629
-0.03151967632637264
-0.04220125645511458
-0.0628792240607282
-0.11314139691155116
-0.002626638788341138
0.06737968293410533
0.09954790321519993
0.09578565657795633
0.05483782969035015
-0.02633970606704611
-0.14799492435905903
-0.10221886819079092
-0.06999316233664403
-0.022965377453561128
0.06986848834549364
0.2328069552928529
0.0751736301625615
-0.012279153140086293
-0.05465482370450721
-0.08501035592254004
-0.1345007814894307
-0.024284068778770863
0.038237501422711914
0.05829649132272683
0.04914259252834263
0.026287875236325423
0.0027671668121313476
-0.013413154937723519
-0.019566698514218307
-0.0170471720735559
-0.009346659253989422
-0.0003672824180558215
0.006710499318353881
0.009922844728229033
0.00858956556910564
0.003220301676209881
-0.004578813744021381
-0.012222076158042926
-0.016466873830133778
-0.014160911261066824
-0.0034994153692490706
0.014404655819238867
0.03416612439652947
0.045736249375759645
0.035651703053415876
-0.00986396087812539
-0.10052333306433651
-0.03768928956778096
-0.011850835810923468
-0.003046015342114543
0.015656029859612616
0.07259019742302403
-0.00856022432474904
-0.01372827563874572
0.05875169754901695
-0.002036552144684191
-0.017328182267589955
-0.014603069019241093
-0.02270098351397207
-0.06726846634010765
0.03253856961626563
0.06572155279815947
0.029739830559505815
-0.06995528213005534
-0.02076153528107114
-0.004232571749661367
0.0018620041191640812
0.02073918551693267
0.07357096659396326
-0.023046951154749317
-0.05861064348281925
-0.029211402914163395
0.0625705781723351
0.008041035930806175
-0.006934835909927222
-0.0007202713732506877
